%Timestamp,timestamp_write;timestamp_gotbitdata;CRC;SEQ;AnalogOutp1;AnalogOutp2;AnalogOutp3;AnalogOutp4;AnalogOutp5;AnalogOutp6;DigitalOutp1;DigitalOutp2;igitalOutp3;DigitalOutp4;timestamp_gotpupil;eyetrackertime;norm_pos;diameter;confidence;nplanes;lastaction;lastactiondetails;positivescore;negativescore;targetpositions;collision_point
09:50:06:987;09:50:06:984;0;9;-1.5;1;0;0;0;0;1;1;1;1;09:50:06:908;1447879804.6;(0.8891315460205078, 0.1306609259711371);22.8454151154;0.647238878412;2;0;0;0;0;();(0.0, 0.0);
09:50:06:992;09:50:06:992;0;9;-1.5;1;0;0;0;0;1;1;1;1;09:50:06:908;1447879804.6;(0.8891315460205078, 0.1306609259711371);22.8454151154;0.647238878412;2;0;0;0;0;();(-2000.0, -2000.0);
09:50:06:994;09:50:06:994;0;5;-1.5;1;0;0;0;0;1;1;1;1;09:50:06:908;1447879804.6;(0.8891315460205078, 0.1306609259711371);22.8454151154;0.647238878412;2;0;0;0;0;();(-2000.0, -2000.0);
09:50:06:996;09:50:06:996;0;5;-1.5;1;0;0;0;0;1;1;1;1;09:50:06:908;1447879804.6;(0.8891315460205078, 0.1306609259711371);22.8454151154;0.647238878412;2;0;0;0;0;();(-2000.0, -2000.0);
09:50:06:998;09:50:06:998;0;5;-1.5;1;0;0;0;0;1;1;1;1;09:50:06:908;1447879804.6;(0.8891315460205078, 0.1306609259711371);22.8454151154;0.647238878412;2;0;0;0;0;();(-2000.0, -2000.0);
09:50:07:000;09:50:07:000;0;5;-1.5;1;0;0;0;0;1;1;1;1;09:50:06:908;1447879804.6;(0.8891315460205078, 0.1306609259711371);22.8454151154;0.647238878412;2;0;0;0;0;();(-2000.0, -2000.0);
09:50:07:001;09:50:07:001;0;5;-1.5;1;0;0;0;0;1;1;1;1;09:50:06:908;1447879804.6;(0.8891315460205078, 0.1306609259711371);22.8454151154;0.647238878412;2;0;0;0;0;();(-2000.0, -2000.0);
09:50:07:003;09:50:07:003;0;0;-1.5;1;0;0;0;0;1;1;1;1;09:50:06:908;1447879804.6;(0.8891315460205078, 0.1306609259711371);22.8454151154;0.647238878412;2;0;0;0;0;();(-2000.0, -2000.0);
09:50:07:004;09:50:07:004;0;0;-1.5;1;0;0;0;0;1;1;1;1;09:50:06:908;1447879804.6;(0.8891315460205078, 0.1306609259711371);22.8454151154;0.647238878412;2;0;0;0;0;();(-2000.0, -2000.0);
09:50:07:006;09:50:07:006;0;0;-1.5;1;0;0;0;0;1;1;1;1;09:50:06:908;1447879804.6;(0.8891315460205078, 0.1306609259711371);22.8454151154;0.647238878412;2;0;0;0;0;();(-2000.0, -2000.0);
09:50:07:007;09:50:07:007;0;0;-1.5;1;0;0;0;0;1;1;1;1;09:50:06:908;1447879804.6;(0.8891315460205078, 0.1306609259711371);22.8454151154;0.647238878412;2;0;0;0;0;();(-2000.0, -2000.0);
09:50:07:009;09:50:07:009;0;0;-1.5;1;0;0;0;0;1;1;1;1;09:50:06:908;1447879804.6;(0.8891315460205078, 0.1306609259711371);22.8454151154;0.647238878412;2;0;0;0;0;();(-2000.0, -2000.0);
09:50:07:010;09:50:07:010;0;0;-1.5;1;0;0;0;0;1;1;1;1;09:50:07:009;1447879804.67;(0.6290164947509765, 0.8309749179416233);35.07081604;0.645247949609;2;0;0;0;0;();(-2000.0, -2000.0);
09:50:07:012;09:50:07:012;0;0;-1.5;1;0;0;0;0;1;1;1;1;09:50:07:009;1447879804.67;(0.6290164947509765, 0.8309749179416233);35.07081604;0.645247949609;2;0;0;0;0;();(-2000.0, -2000.0);
09:50:07:013;09:50:07:013;0;9;-1.5;1;0;0;0;0;1;1;1;1;09:50:07:009;1447879804.67;(0.6290164947509765, 0.8309749179416233);35.07081604;0.645247949609;2;0;0;0;0;();(-2000.0, -2000.0);
09:50:07:015;09:50:07:015;0;10;-1.5;1;0;0;0;0;1;1;1;1;09:50:07:009;1447879804.67;(0.6290164947509765, 0.8309749179416233);35.07081604;0.645247949609;2;0;0;0;0;();(-2000.0, -2000.0);
09:50:07:017;09:50:07:017;0;10;-1.5;1;0;0;0;0;1;1;1;1;09:50:07:009;1447879804.67;(0.6290164947509765, 0.8309749179416233);35.07081604;0.645247949609;2;0;0;0;0;();(-2000.0, -2000.0);
09:50:07:019;09:50:07:019;0;10;-1.5;1;0;0;0;0;1;1;1;1;09:50:07:009;1447879804.67;(0.6290164947509765, 0.8309749179416233);35.07081604;0.645247949609;2;0;0;0;0;();(-2000.0, -2000.0);
09:50:07:021;09:50:07:020;0;10;-1.5;1;0;0;0;0;1;1;1;1;09:50:07:009;1447879804.67;(0.6290164947509765, 0.8309749179416233);35.07081604;0.645247949609;2;0;0;0;0;();(-2000.0, -2000.0);
09:50:07:036;09:50:07:036;0;15;-1.5;1;0;0;0;0;1;1;1;1;09:50:07:009;1447879804.67;(0.6290164947509765, 0.8309749179416233);35.07081604;0.645247949609;2;0;0;0;0;();(-2000.0, -2000.0);
09:50:07:053;09:50:07:053;0;10;-1.5;1;0;0;0;0;1;1;1;1;09:50:07:009;1447879804.67;(0.6290164947509765, 0.8309749179416233);35.07081604;0.645247949609;2;0;0;0;0;();(-2000.0, -2000.0);
09:50:07:086;09:50:07:086;0;10;-1.5;1;0;0;0;0;1;1;1;1;09:50:07:056;1447879804.74;(0, 0);0;0;2;0;0;0;0;();(-2000.0, -2000.0);
09:50:07:102;09:50:07:102;0;0;-1.5;1;0;0;0;0;1;1;1;1;09:50:07:056;1447879804.74;(0, 0);0;0;2;0;0;0;0;();(-2000.0, -2000.0);
09:50:07:119;09:50:07:119;0;10;-1.5;1;0;0;0;0;1;1;1;1;09:50:07:108;1447879804.8;(0.29090721607208253, 0.06691597832573781);24.3593330383;0.60559885457;2;0;0;0;0;();(-2000.0, -2000.0);
09:50:07:136;09:50:07:136;0;0;-1.5;1;0;0;0;0;1;1;1;1;09:50:07:108;1447879804.8;(0.29090721607208253, 0.06691597832573781);24.3593330383;0.60559885457;2;0;0;0;0;();(-2000.0, -2000.0);
09:50:07:152;09:50:07:152;0;4;-1.5;1;0;0;0;0;1;1;1;1;09:50:07:108;1447879804.8;(0.29090721607208253, 0.06691597832573781);24.3593330383;0.60559885457;2;0;0;0;0;();(-2000.0, -2000.0);
09:50:07:186;09:50:07:185;0;5;-1.5;1;0;0;0;0;1;1;1;1;09:50:07:108;1447879804.8;(0.29090721607208253, 0.06691597832573781);24.3593330383;0.60559885457;2;0;0;0;0;();(-2000.0, -2000.0);
09:50:07:202;09:50:07:202;0;15;-1.5;1;0;0;0;0;1;1;1;1;09:50:07:108;1447879804.8;(0.29090721607208253, 0.06691597832573781);24.3593330383;0.60559885457;2;0;0;0;0;();(-2000.0, -2000.0);
09:50:07:219;09:50:07:219;0;4;-1.5;1;0;0;0;0;1;1;1;1;09:50:07:208;1447879804.87;(0.28305602073669434, 0.07032945421006942);20.2716789246;0.78058500431;2;0;0;0;0;();(-2000.0, -2000.0);
09:50:07:235;09:50:07:235;0;9;-1.5;1;0;0;0;0;1;1;1;1;09:50:07:208;1447879804.87;(0.28305602073669434, 0.07032945421006942);20.2716789246;0.78058500431;2;0;0;0;0;();(-2000.0, -2000.0);
09:50:07:252;09:50:07:252;0;4;-1.5;1;0;0;0;0;1;1;1;1;09:50:07:208;1447879804.87;(0.28305602073669434, 0.07032945421006942);20.2716789246;0.78058500431;2;0;0;0;0;();(-2000.0, -2000.0);
09:50:07:285;09:50:07:285;0;5;-1.5;1;0;0;0;0;1;1;1;1;09:50:07:256;1447879804.94;(0, 0);0;0;2;0;0;0;0;();(-2000.0, -2000.0);
09:50:07:301;09:50:07:301;0;9;-1.5;1;0;0;0;0;1;1;1;1;09:50:07:256;1447879804.94;(0, 0);0;0;2;0;0;0;0;();(-2000.0, -2000.0);
09:50:07:318;09:50:07:318;0;4;-1.5;1;0;0;0;0;1;1;1;1;09:50:07:304;1447879805.0;(0.26801960468292235, 0.06528023613823786);24.6650218964;0.833980533443;2;0;0;0;0;();(-2000.0, -2000.0);
09:50:07:335;09:50:07:335;0;9;-1.5;1;0;0;0;0;1;1;1;1;09:50:07:304;1447879805.0;(0.26801960468292235, 0.06528023613823786);24.6650218964;0.833980533443;2;0;0;0;0;();(-2000.0, -2000.0);
09:50:07:351;09:50:07:351;0;5;-1.5;1;0;0;0;0;1;1;1;1;09:50:07:304;1447879805.0;(0.26801960468292235, 0.06528023613823786);24.6650218964;0.833980533443;2;0;0;0;0;();(-2000.0, -2000.0);
09:50:07:384;09:50:07:384;0;4;-1.5;1;0;0;0;0;1;1;1;1;09:50:07:304;1447879805.0;(0.26801960468292235, 0.06528023613823786);24.6650218964;0.833980533443;2;0;0;0;0;();(-2000.0, -2000.0);
09:50:07:401;09:50:07:401;0;10;-1.5;1;0;0;0;0;1;1;1;1;09:50:07:304;1447879805.0;(0.26801960468292235, 0.06528023613823786);24.6650218964;0.833980533443;2;0;0;0;0;();(-2000.0, -2000.0);
09:50:07:417;09:50:07:417;0;10;-1.5;1;0;0;0;0;1;1;1;1;09:50:07:404;1447879805.07;(0.7032315254211425, 0.9311383353339301);33.2547340393;0.65514501885;2;0;0;0;0;();(-2000.0, -2000.0);
09:50:07:437;09:50:07:437;0;10;-1.5;1;0;0;0;0;1;1;1;1;09:50:07:404;1447879805.07;(0.7032315254211425, 0.9311383353339301);33.2547340393;0.65514501885;2;0;0;0;0;();(-2000.0, -2000.0);
09:50:07:452;09:50:07:451;0;5;-1.5;1;0;0;0;0;1;1;1;1;09:50:07:404;1447879805.07;(0.7032315254211425, 0.9311383353339301);33.2547340393;0.65514501885;2;0;0;0;0;();(-2000.0, -2000.0);
09:50:07:483;09:50:07:483;0;0;-1.5;1;0;0;0;0;1;1;1;1;09:50:07:456;1447879805.14;(0, 0);0;0;2;0;0;0;0;();(-2000.0, -2000.0);
09:50:07:500;09:50:07:500;0;10;-1.5;1;0;0;0;0;1;1;1;1;09:50:07:456;1447879805.14;(0, 0);0;0;2;0;0;0;0;();(-2000.0, -2000.0);
09:50:07:517;09:50:07:517;0;15;-1.5;1;0;0;0;0;1;1;1;1;09:50:07:504;1447879805.2;(0.7039393424987793, 0.9341361734602186);27.9002361298;0.837680644765;2;0;0;0;0;();(-2000.0, -2000.0);
09:50:07:533;09:50:07:533;0;10;-1.5;1;0;0;0;0;1;1;1;1;09:50:07:504;1447879805.2;(0.7039393424987793, 0.9341361734602186);27.9002361298;0.837680644765;2;0;0;0;0;();(-2000.0, -2000.0);
09:50:07:567;09:50:07:567;0;9;-1.5;1;0;0;0;0;1;1;1;1;09:50:07:556;1447879805.27;(0.705006742477417, 0.934366438123915);29.4174804688;0.837680644765;2;0;0;0;0;();(-2000.0, -2000.0);
09:50:07:583;09:50:07:583;0;4;-1.5;1;0;0;0;0;1;1;1;1;09:50:07:556;1447879805.27;(0.705006742477417, 0.934366438123915);29.4174804688;0.837680644765;2;0;0;0;0;();(-2000.0, -2000.0);
09:50:07:600;09:50:07:600;0;0;-1.5;1;0;0;0;0;1;1;1;1;09:50:07:556;1447879805.27;(0.705006742477417, 0.934366438123915);29.4174804688;0.837680644765;2;0;0;0;0;();(-2000.0, -2000.0);
09:50:07:617;09:50:07:616;0;15;-1.5;1;0;0;0;0;1;1;1;1;09:50:07:556;1447879805.27;(0.705006742477417, 0.934366438123915);29.4174804688;0.837680644765;2;0;0;0;0;();(-2000.0, -2000.0);
09:50:07:633;09:50:07:633;0;4;-1.5;1;0;0;0;0;1;1;1;1;09:50:07:556;1447879805.27;(0.705006742477417, 0.934366438123915);29.4174804688;0.837680644765;2;0;0;0;0;();(-2000.0, -2000.0);
09:50:07:666;09:50:07:666;0;5;-1.5;1;0;0;0;0;1;1;1;1;09:50:07:656;1447879805.34;(0.3748466968536377, 0.4326630486382379);18.9117202759;0.802550967738;2;0;0;0;0;();(-2000.0, -2000.0);
09:50:07:683;09:50:07:683;0;15;-1.5;1;0;0;0;0;1;1;1;1;09:50:07:656;1447879805.34;(0.3748466968536377, 0.4326630486382379);18.9117202759;0.802550967738;2;0;0;0;0;();(-2000.0, -2000.0);
09:50:07:699;09:50:07:699;0;4;-1.5;1;0;0;0;0;1;1;1;1;09:50:07:656;1447879805.34;(0.3748466968536377, 0.4326630486382379);18.9117202759;0.802550967738;2;0;0;0;0;();(-2000.0, -2000.0);
09:50:07:716;09:50:07:715;0;15;-1.5;1;0;0;0;0;1;1;1;1;09:50:07:704;1447879805.4;(0, 0);0;0;2;0;0;0;0;();(-2000.0, -2000.0);
09:50:07:732;09:50:07:732;0;5;-1.5;1;0;0;0;0;1;1;1;1;09:50:07:704;1447879805.4;(0, 0);0;0;2;0;0;0;0;();(-2000.0, -2000.0);
09:50:07:765;09:50:07:765;0;5;-1.5;1;0;0;0;0;1;1;1;1;09:50:07:704;1447879805.4;(0, 0);0;0;2;0;0;0;0;();(-2000.0, -2000.0);
09:50:07:782;09:50:07:782;0;9;-1.5;1;0;0;0;0;1;1;1;1;09:50:07:704;1447879805.4;(0, 0);0;0;2;0;0;0;0;();(-2000.0, -2000.0);
09:50:07:798;09:50:07:798;0;5;-1.5;1;0;0;0;0;1;1;1;1;09:50:07:704;1447879805.4;(0, 0);0;0;2;0;0;0;0;();(-2000.0, -2000.0);
09:50:07:815;09:50:07:815;0;9;-1.5;1;0;0;0;0;1;1;1;1;09:50:07:804;1447879805.47;(0.5323775291442872, 0.9097418043348524);20.630033493;0.703073200698;2;0;0;0;0;();(-2000.0, -2000.0);
09:50:07:833;09:50:07:833;0;15;-1.5;1;0;0;0;0;1;1;1;1;09:50:07:804;1447879805.47;(0.5323775291442872, 0.9097418043348524);20.630033493;0.703073200698;2;0;0;0;0;();(-2000.0, -2000.0);
09:50:07:865;09:50:07:864;0;15;-1.5;1;0;0;0;0;1;1;1;1;09:50:07:853;1447879805.54;(0, 0);0;0;2;0;0;0;0;();(-2000.0, -2000.0);
09:50:07:881;09:50:07:881;0;11;-1.5;1;0;0;0;0;1;1;1;1;09:50:07:853;1447879805.54;(0, 0);0;0;2;0;0;0;0;();(-2000.0, -2000.0);
09:50:07:898;09:50:07:898;0;5;-1.5;1;0;0;0;0;1;1;1;1;09:50:07:853;1447879805.54;(0, 0);0;0;2;0;0;0;0;();(-2000.0, -2000.0);
09:50:07:914;09:50:07:914;0;10;-1.5;1;0;0;0;0;1;1;1;1;09:50:07:904;1447879805.6;(0, 0);0;0;2;0;0;0;0;();(-2000.0, -2000.0);
09:50:07:931;09:50:07:931;0;15;-1.5;1;0;0;0;0;1;1;1;1;09:50:07:904;1447879805.6;(0, 0);0;0;2;0;0;0;0;();(-2000.0, -2000.0);
09:50:07:964;09:50:07:964;0;0;-1.5;1;0;0;0;0;1;1;1;1;09:50:07:904;1447879805.6;(0, 0);0;0;2;0;0;0;0;();(-2000.0, -2000.0);
09:50:07:981;09:50:07:980;0;10;-1.5;1;0;0;0;0;1;1;1;1;09:50:07:904;1447879805.6;(0, 0);0;0;2;0;0;0;0;();(-2000.0, -2000.0);
09:50:07:997;09:50:07:997;0;0;-1.5;1;0;0;0;0;1;1;1;1;09:50:07:904;1447879805.6;(0, 0);0;0;2;0;0;0;0;();(-2000.0, -2000.0);
09:50:08:014;09:50:08:014;0;10;-1.5;1;0;0;0;0;1;1;1;1;09:50:08:004;1447879805.67;(0, 0);0;0;2;0;0;0;0;();(-2000.0, -2000.0);
09:50:08:047;09:50:08:046;0;9;-1.5;1;0;0;0;0;1;1;1;1;09:50:08:004;1447879805.67;(0, 0);0;0;2;0;0;0;0;();(-2000.0, -2000.0);
09:50:08:064;09:50:08:064;0;0;-1.5;1;0;0;0;0;1;1;1;1;09:50:08:052;1447879805.74;(0, 0);0;0;2;0;0;0;0;();(-2000.0, -2000.0);
09:50:08:081;09:50:08:081;0;4;-1.5;1;0;0;0;0;1;1;1;1;09:50:08:052;1447879805.74;(0, 0);0;0;2;0;0;0;0;();(-2000.0, -2000.0);
09:50:08:096;09:50:08:096;0;15;-1.5;1;0;0;0;0;1;1;1;1;09:50:08:052;1447879805.74;(0, 0);0;0;2;0;0;0;0;();(-2000.0, -2000.0);
09:50:08:113;09:50:08:113;0;5;-1.5;1;0;0;0;0;1;1;1;1;09:50:08:104;1447879805.8;(0.7075199604034423, 0.9346116595798069);23.7889213562;0.826313527686;2;0;0;0;0;();(-2000.0, -2000.0);
09:50:08:146;09:50:08:146;0;4;-1.5;1;0;0;0;0;1;1;1;1;09:50:08:104;1447879805.8;(0.7075199604034423, 0.9346116595798069);23.7889213562;0.826313527686;2;0;0;0;0;();(-2000.0, -2000.0);
09:50:08:163;09:50:08:163;0;15;-1.5;1;0;0;0;0;1;1;1;1;09:50:08:104;1447879805.8;(0.7075199604034423, 0.9346116595798069);23.7889213562;0.826313527686;2;0;0;0;0;();(-2000.0, -2000.0);
09:50:08:179;09:50:08:179;0;4;-1.5;1;0;0;0;0;1;1;1;1;09:50:08:104;1447879805.8;(0.7075199604034423, 0.9346116595798069);23.7889213562;0.826313527686;2;0;0;0;0;();(-2000.0, -2000.0);
09:50:08:196;09:50:08:196;0;15;-1.5;1;0;0;0;0;1;1;1;1;09:50:08:104;1447879805.8;(0.7075199604034423, 0.9346116595798069);23.7889213562;0.826313527686;2;0;0;0;0;();(-2000.0, -2000.0);
09:50:08:212;09:50:08:212;0;4;-1.5;1;0;0;0;0;1;1;1;1;09:50:08:200;1447879805.87;(0, 0);0;0;2;0;0;0;0;();(-2000.0, -2000.0);
09:50:08:246;09:50:08:246;0;5;-1.5;1;0;0;0;0;1;1;1;1;09:50:08:200;1447879805.87;(0, 0);0;0;2;0;0;0;0;();(-2000.0, -2000.0);
09:50:08:262;09:50:08:262;0;9;-1.5;1;0;0;0;0;1;1;1;1;09:50:08:252;1447879805.94;(0, 0);0;0;2;0;0;0;0;();(-2000.0, -2000.0);
09:50:08:279;09:50:08:279;0;4;-1.5;1;0;0;0;0;1;1;1;1;09:50:08:252;1447879805.94;(0, 0);0;0;2;0;0;0;0;();(-2000.0, -2000.0);
09:50:08:295;09:50:08:295;0;9;-1.5;1;0;0;0;0;1;1;1;1;09:50:08:252;1447879805.94;(0, 0);0;0;2;0;0;0;0;();(-2000.0, -2000.0);
09:50:08:312;09:50:08:312;0;14;-1.5;1;0;0;0;0;1;1;1;1;09:50:08:300;1447879806.0;(0.7502979278564453, 0.8710889286465116);18.231092453;0.766932803096;2;0;0;0;0;();(-2000.0, -2000.0);
09:50:08:345;09:50:08:345;0;4;-1.5;1;0;0;0;0;1;1;1;1;09:50:08:300;1447879806.0;(0.7502979278564453, 0.8710889286465116);18.231092453;0.766932803096;2;0;0;0;0;();(-2000.0, -2000.0);
09:50:08:362;09:50:08:362;0;10;-1.5;1;0;0;0;0;1;1;1;1;09:50:08:300;1447879806.0;(0.7502979278564453, 0.8710889286465116);18.231092453;0.766932803096;2;0;0;0;0;();(-2000.0, -2000.0);
09:50:08:378;09:50:08:378;0;0;-1.5;1;0;0;0;0;1;1;1;1;09:50:08:300;1447879806.0;(0.7502979278564453, 0.8710889286465116);18.231092453;0.766932803096;2;0;0;0;0;();(-2000.0, -2000.0);
09:50:08:395;09:50:08:395;0;10;-1.5;1;0;0;0;0;1;1;1;1;09:50:08:300;1447879806.0;(0.7502979278564453, 0.8710889286465116);18.231092453;0.766932803096;2;0;0;0;0;();(-2000.0, -2000.0);
09:50:08:412;09:50:08:411;0;15;-1.5;1;0;0;0;0;1;1;1;1;09:50:08:400;1447879806.07;(0.19269694089889527, 0.2989370557996962);30.4006023407;0.685552772362;2;0;0;0;0;();(-2000.0, -2000.0);
09:50:08:444;09:50:08:444;0;5;-1.5;1;0;0;0;0;1;1;1;1;09:50:08:400;1447879806.07;(0.19269694089889527, 0.2989370557996962);30.4006023407;0.685552772362;2;0;0;0;0;();(-2000.0, -2000.0);
09:50:08:461;09:50:08:461;0;9;-1.5;1;0;0;0;0;1;1;1;1;09:50:08:452;1447879806.14;(0, 0);0;0;2;0;0;0;0;();(-2000.0, -2000.0);
09:50:08:477;09:50:08:477;0;15;-1.5;1;0;0;0;0;1;1;1;1;09:50:08:452;1447879806.14;(0, 0);0;0;2;0;0;0;0;();(-2000.0, -2000.0);
09:50:08:494;09:50:08:494;0;9;-1.5;1;0;0;0;0;1;1;1;1;09:50:08:452;1447879806.14;(0, 0);0;0;2;0;0;0;0;();(-2000.0, -2000.0);
09:50:08:527;09:50:08:527;0;4;-1.5;1;0;0;0;0;1;1;1;1;09:50:08:500;1447879806.2;(0, 0);0;0;2;0;0;0;0;();(-2000.0, -2000.0);
09:50:08:544;09:50:08:544;0;0;-1.5;1;0;0;0;0;1;1;1;1;09:50:08:500;1447879806.2;(0, 0);0;0;2;0;0;0;0;();(-2000.0, -2000.0);
09:50:08:560;09:50:08:560;0;4;-1.5;1;0;0;0;0;1;1;1;1;09:50:08:500;1447879806.2;(0, 0);0;0;2;0;0;0;0;();(-2000.0, -2000.0);
09:50:08:577;09:50:08:577;0;15;-1.5;1;0;0;0;0;1;1;1;1;09:50:08:500;1447879806.2;(0, 0);0;0;2;0;0;0;0;();(-2000.0, -2000.0);
09:50:08:594;09:50:08:594;0;14;-1.5;1;0;0;0;0;1;1;1;1;09:50:08:500;1447879806.2;(0, 0);0;0;2;0;0;0;0;();(-2000.0, -2000.0);
09:50:08:627;09:50:08:627;0;5;-1.5;1;0;0;0;0;1;1;1;1;09:50:08:600;1447879806.27;(0.8919742584228516, 0.41132189432779953);30.4234085083;0.694749568394;2;0;0;0;0;();(-2000.0, -2000.0);
09:50:08:644;09:50:08:643;0;7;-1.5;1;0;0;0;0;1;1;1;1;09:50:08:600;1447879806.27;(0.8919742584228516, 0.41132189432779953);30.4234085083;0.694749568394;2;0;0;0;0;();(-2000.0, -2000.0);
09:50:08:662;09:50:08:662;0;4;-1.5;1;0;0;0;0;1;1;1;1;09:50:08:658;1447879806.34;(0.2686879873275757, 0.07183125813802083);27.4977722168;0.604549067744;2;0;0;0;0;();(-2000.0, -2000.0);
09:50:08:678;09:50:08:677;0;10;-1.5;1;0;0;0;0;1;1;1;1;09:50:08:658;1447879806.34;(0.2686879873275757, 0.07183125813802083);27.4977722168;0.604549067744;2;0;0;0;0;();(-2000.0, -2000.0);
09:50:08:694;09:50:08:694;0;10;-1.5;1;0;0;0;0;1;1;1;1;09:50:08:658;1447879806.34;(0.2686879873275757, 0.07183125813802083);27.4977722168;0.604549067744;2;0;0;0;0;();(-2000.0, -2000.0);
09:50:08:728;09:50:08:728;0;4;-1.5;1;0;0;0;0;1;1;1;1;09:50:08:700;1447879806.4;(0.16475833654403688, 0.23775524563259554);19.2043590546;0.678021211729;2;0;0;0;0;();(-2000.0, -2000.0);
09:50:08:744;09:50:08:744;0;9;-1.5;1;0;0;0;0;1;1;1;1;09:50:08:700;1447879806.4;(0.16475833654403688, 0.23775524563259554);19.2043590546;0.678021211729;2;0;0;0;0;();(-2000.0, -2000.0);
09:50:08:762;09:50:08:762;0;5;-1.5;1;0;0;0;0;1;1;1;1;09:50:08:700;1447879806.4;(0.16475833654403688, 0.23775524563259554);19.2043590546;0.678021211729;2;0;0;0;0;();(-2000.0, -2000.0);
09:50:08:777;09:50:08:777;0;9;-1.5;1;0;0;0;0;1;1;1;1;09:50:08:700;1447879806.4;(0.16475833654403688, 0.23775524563259554);19.2043590546;0.678021211729;2;0;0;0;0;();(-2000.0, -2000.0);
09:50:08:793;09:50:08:793;0;15;-1.5;1;0;0;0;0;1;1;1;1;09:50:08:700;1447879806.4;(0.16475833654403688, 0.23775524563259554);19.2043590546;0.678021211729;2;0;0;0;0;();(-2000.0, -2000.0);
09:50:08:827;09:50:08:827;0;4;-1.5;1;0;0;0;0;1;1;1;1;09:50:08:800;1447879806.47;(0.7058520317077637, 0.9345978736877442);31.9888591766;0.690123598282;2;0;0;0;0;();(-2000.0, -2000.0);
09:50:08:843;09:50:08:843;0;10;-1.5;1;0;0;0;0;1;1;1;1;09:50:08:800;1447879806.47;(0.7058520317077637, 0.9345978736877442);31.9888591766;0.690123598282;2;0;0;0;0;();(-2000.0, -2000.0);
09:50:08:860;09:50:08:860;0;5;-1.5;1;0;0;0;0;1;1;1;1;09:50:08:848;1447879806.54;(0, 0);0;0;2;0;0;0;0;();(-2000.0, -2000.0);
09:50:08:876;09:50:08:876;0;10;-1.5;1;0;0;0;0;1;1;1;1;09:50:08:848;1447879806.54;(0, 0);0;0;2;0;0;0;0;();(-2000.0, -2000.0);
09:50:08:893;09:50:08:893;0;15;-1.5;1;0;0;0;0;1;1;1;1;09:50:08:848;1447879806.54;(0, 0);0;0;2;0;0;0;0;();(-2000.0, -2000.0);
09:50:08:912;09:50:08:912;0;9;-1.5;1;0;0;0;0;1;1;1;1;09:50:08:900;1447879806.6;(0.6989920616149903, 0.9306680997212728);41.5093841553;0.755897400409;2;0;0;0;0;();(-2000.0, -2000.0);
09:50:08:945;09:50:08:945;0;5;-1.5;1;0;0;0;0;1;1;1;1;09:50:08:900;1447879806.6;(0.6989920616149903, 0.9306680997212728);41.5093841553;0.755897400409;2;0;0;0;0;();(-2000.0, -2000.0);
09:50:08:962;09:50:08:961;0;15;-1.5;1;0;0;0;0;1;1;1;1;09:50:08:900;1447879806.6;(0.6989920616149903, 0.9306680997212728);41.5093841553;0.755897400409;2;0;0;0;0;();(-2000.0, -2000.0);
09:50:08:978;09:50:08:978;0;4;-1.5;1;0;0;0;0;1;1;1;1;09:50:08:900;1447879806.6;(0.6989920616149903, 0.9306680997212728);41.5093841553;0.755897400409;2;0;0;0;0;();(-2000.0, -2000.0);
09:50:08:995;09:50:08:995;0;10;-1.5;1;0;0;0;0;1;1;1;1;09:50:08:900;1447879806.6;(0.6989920616149903, 0.9306680997212728);41.5093841553;0.755897400409;2;0;0;0;0;();(-2000.0, -2000.0);
09:50:09:011;09:50:09:011;0;5;-1.5;1;0;0;0;0;1;1;1;1;09:50:09:000;1447879806.67;(0.3279667854309082, 0.40557975769042964);31.6002693176;0.716147120712;2;0;0;0;0;();(-2000.0, -2000.0);
09:50:09:044;09:50:09:044;0;4;-1.5;1;0;0;0;0;1;1;1;1;09:50:09:000;1447879806.67;(0.3279667854309082, 0.40557975769042964);31.6002693176;0.716147120712;2;0;0;0;0;();(-2000.0, -2000.0);
09:50:09:061;09:50:09:061;0;9;-1.5;1;0;0;0;0;1;1;1;1;09:50:09:048;1447879806.74;(0.2683997869491577, 0.06685824924045136);21.1928119659;0.645419897347;2;0;0;0;0;();(-2000.0, -2000.0);
09:50:09:079;09:50:09:079;0;4;-1.5;1;0;0;0;0;1;1;1;1;09:50:09:048;1447879806.74;(0.2683997869491577, 0.06685824924045136);21.1928119659;0.645419897347;2;0;0;0;0;();(-2000.0, -2000.0);
09:50:09:094;09:50:09:094;0;10;-1.5;1;0;0;0;0;1;1;1;1;09:50:09:048;1447879806.74;(0.2683997869491577, 0.06685824924045136);21.1928119659;0.645419897347;2;0;0;0;0;();(-2000.0, -2000.0);
09:50:09:111;09:50:09:111;0;4;-1.5;1;0;0;0;0;1;1;1;1;09:50:09:096;1447879806.8;(0.863064193725586, 0.1365750630696615);20.6785430908;0.744989835282;2;0;0;0;0;();(-2000.0, -2000.0);
09:50:09:145;09:50:09:145;0;4;-1.5;1;0;0;0;0;1;1;1;1;09:50:09:096;1447879806.8;(0.863064193725586, 0.1365750630696615);20.6785430908;0.744989835282;2;0;0;0;0;();(-2000.0, -2000.0);
09:50:09:162;09:50:09:162;0;9;-1.5;1;0;0;0;0;1;1;1;1;09:50:09:096;1447879806.8;(0.863064193725586, 0.1365750630696615);20.6785430908;0.744989835282;2;0;0;0;0;();(-2000.0, -2000.0);
09:50:09:179;09:50:09:179;0;5;-1.5;1;0;0;0;0;1;1;1;1;09:50:09:096;1447879806.8;(0.863064193725586, 0.1365750630696615);20.6785430908;0.744989835282;2;0;0;0;0;();(-2000.0, -2000.0);
09:50:09:201;09:50:09:201;0;10;-1.5;1;0;0;0;0;1;1;1;1;09:50:09:196;1447879806.87;(0, 0);0;0;4;0;0;0;0;();(-2000.0, -2000.0);
09:50:09:212;09:50:09:212;0;15;-1.5;1;0;0;0;0;1;1;1;1;09:50:09:196;1447879806.87;(0, 0);0;0;4;0;0;0;0;();(-2000.0, -2000.0);
09:50:09:245;09:50:09:245;0;0;-1.5;1;0;0;0;0;1;1;1;1;09:50:09:196;1447879806.87;(0, 0);0;0;4;0;0;0;0;();(-2000.0, -2000.0);
09:50:09:262;09:50:09:261;0;10;-1.5;1;0;0;0;0;1;1;1;1;09:50:09:248;1447879806.94;(0, 0);0;0;4;0;0;0;0;();(-2000.0, -2000.0);
09:50:09:278;09:50:09:278;0;11;-1.5;1;0;0;0;0;1;1;1;1;09:50:09:248;1447879806.94;(0, 0);0;0;4;0;0;0;0;();(-2000.0, -2000.0);
09:50:09:295;09:50:09:294;0;4;-1.5;1;0;0;0;0;1;1;1;1;09:50:09:248;1447879806.94;(0, 0);0;0;4;0;0;0;0;();(-2000.0, -2000.0);
09:50:09:311;09:50:09:311;0;15;-1.5;1;0;0;0;0;1;1;1;1;09:50:09:296;1447879807.0;(0.7012832164764404, 0.9287333170572917);33.179901123;0.638561705831;4;0;0;0;0;();(-2000.0, -2000.0);
09:50:09:331;09:50:09:331;0;5;-1.5;1;0;0;0;0;1;1;1;1;09:50:09:296;1447879807.0;(0.7012832164764404, 0.9287333170572917);33.179901123;0.638561705831;4;0;0;0;0;();(-2000.0, -2000.0);
09:50:09:364;09:50:09:364;0;5;-1.5;1;0;0;0;0;1;1;1;1;09:50:09:296;1447879807.0;(0.7012832164764404, 0.9287333170572917);33.179901123;0.638561705831;4;0;0;0;0;();(-2000.0, -2000.0);
09:50:09:381;09:50:09:381;0;9;-1.5;1;0;0;0;0;1;1;1;1;09:50:09:296;1447879807.0;(0.7012832164764404, 0.9287333170572917);33.179901123;0.638561705831;4;0;0;0;0;();(-2000.0, -2000.0);
09:50:09:397;09:50:09:397;0;5;-1.5;1;0;0;0;0;1;1;1;1;09:50:09:296;1447879807.0;(0.7012832164764404, 0.9287333170572917);33.179901123;0.638561705831;4;0;0;0;0;();(-2000.0, -2000.0);
09:50:09:414;09:50:09:414;0;10;-1.5;1;0;0;0;0;1;1;1;1;09:50:09:396;1447879807.07;(0, 0);0;0;4;0;0;0;0;();(-2000.0, -2000.0);
09:50:09:447;09:50:09:447;0;10;-1.5;1;0;0;0;0;1;1;1;1;09:50:09:396;1447879807.07;(0, 0);0;0;4;0;0;0;0;();(-2000.0, -2000.0);
09:50:09:464;09:50:09:463;0;4;-1.5;1;0;0;0;0;1;1;1;1;09:50:09:448;1447879807.14;(0.18558892011642455, 0.30263777838812933);29.7139110565;0.765552904211;4;0;0;0;0;();(-2000.0, -2000.0);
09:50:09:480;09:50:09:480;0;9;-1.5;1;0;0;0;0;1;1;1;1;09:50:09:448;1447879807.14;(0.18558892011642455, 0.30263777838812933);29.7139110565;0.765552904211;4;0;0;0;0;();(-2000.0, -2000.0);
09:50:09:497;09:50:09:497;0;5;-1.5;1;0;0;0;0;1;1;1;1;09:50:09:448;1447879807.14;(0.18558892011642455, 0.30263777838812933);29.7139110565;0.765552904211;4;0;0;0;0;();(-2000.0, -2000.0);
09:50:09:513;09:50:09:513;0;10;-1.5;1;0;0;0;0;1;1;1;1;09:50:09:496;1447879807.2;(0, 0);0;0;4;0;0;0;0;();(-2000.0, -2000.0);
09:50:09:532;09:50:09:531;0;15;-1.5;1;0;0;0;0;1;1;1;1;09:50:09:496;1447879807.2;(0, 0);0;0;4;0;0;0;0;();(-2000.0, -2000.0);
09:50:09:566;09:50:09:566;0;0;-1.5;1;0;0;0;0;1;1;1;1;09:50:09:496;1447879807.2;(0, 0);0;0;4;0;0;0;0;();(-2000.0, -2000.0);
09:50:09:581;09:50:09:581;0;10;-1.5;1;0;0;0;0;1;1;1;1;09:50:09:496;1447879807.2;(0, 0);0;0;4;0;0;0;0;();(-2000.0, -2000.0);
09:50:09:598;09:50:09:598;0;15;-1.5;1;0;0;0;0;1;1;1;1;09:50:09:596;1447879807.27;(0, 0);0;0;4;0;0;0;0;();(-2000.0, -2000.0);
09:50:09:615;09:50:09:615;0;4;-1.5;1;0;0;0;0;1;1;1;1;09:50:09:596;1447879807.27;(0, 0);0;0;4;0;0;0;0;();(-2000.0, -2000.0);
09:50:09:632;09:50:09:632;0;15;-1.5;1;0;0;0;0;1;1;1;1;09:50:09:596;1447879807.27;(0, 0);0;0;4;0;0;0;0;();(-2000.0, -2000.0);
09:50:09:664;09:50:09:664;0;0;-1.5;1;0;0;0;0;1;1;1;1;09:50:09:644;1447879807.34;(0, 0);0;0;4;0;0;0;0;();(-2000.0, -2000.0);
09:50:09:682;09:50:09:682;0;4;-1.5;1;0;0;0;0;1;1;1;1;09:50:09:644;1447879807.34;(0, 0);0;0;4;0;0;0;0;();(-2000.0, -2000.0);
09:50:09:697;09:50:09:697;0;15;-1.5;1;0;0;0;0;1;1;1;1;09:50:09:644;1447879807.34;(0, 0);0;0;4;0;0;0;0;();(-2000.0, -2000.0);
09:50:09:714;09:50:09:714;0;9;-1.5;1;0;0;0;0;1;1;1;1;09:50:09:644;1447879807.34;(0, 0);0;0;4;0;0;0;0;();(-2000.0, -2000.0);
09:50:09:736;09:50:09:736;0;9;-1.5;1;0;0;0;0;1;1;1;1;09:50:09:644;1447879807.34;(0, 0);0;0;4;0;0;0;0;();(-2000.0, -2000.0);
09:50:09:753;09:50:09:753;0;15;-1.5;1;0;0;0;0;1;1;1;1;09:50:09:744;1447879807.4;(0.7068397998809814, 0.9340027067396376);28.7166500092;0.697907521585;4;0;0;0;0;();(-2000.0, -2000.0);
09:50:09:787;09:50:09:787;0;15;-1.5;1;0;0;0;0;1;1;1;1;09:50:09:744;1447879807.4;(0.7068397998809814, 0.9340027067396376);28.7166500092;0.697907521585;4;0;0;0;0;();(-2000.0, -2000.0);
09:50:09:802;09:50:09:802;0;9;-1.5;1;0;0;0;0;1;1;1;1;09:50:09:796;1447879807.47;(0, 0);0;0;4;0;0;0;0;();(-2000.0, -2000.0);
09:50:09:824;09:50:09:824;0;0;-1.5;1;0;0;0;0;1;1;1;1;09:50:09:796;1447879807.47;(0, 0);0;0;4;0;0;0;0;();(-2000.0, -2000.0);
09:50:09:841;09:50:09:841;0;10;-1.5;1;0;0;0;0;1;1;1;1;09:50:09:796;1447879807.47;(0, 0);0;0;4;0;0;0;0;();(-2000.0, -2000.0);
09:50:09:858;09:50:09:857;0;15;-1.5;1;0;0;0;0;1;1;1;1;09:50:09:844;1447879807.54;(0, 0);0;0;4;0;0;0;0;();(-2000.0, -2000.0);
09:50:09:874;09:50:09:874;0;9;-1.5;1;0;0;0;0;1;1;1;1;09:50:09:844;1447879807.54;(0, 0);0;0;4;0;0;0;0;();(-2000.0, -2000.0);
09:50:09:891;09:50:09:891;0;15;-1.5;1;0;0;0;0;1;1;1;1;09:50:09:844;1447879807.54;(0, 0);0;0;4;0;0;0;0;();(-2000.0, -2000.0);
09:50:09:924;09:50:09:924;0;15;-1.5;1;0;0;0;0;1;1;1;1;09:50:09:896;1447879807.6;(0, 0);0;0;4;0;0;0;0;();(-2000.0, -2000.0);
09:50:09:940;09:50:09:940;0;4;-1.5;1;0;0;0;0;1;1;1;1;09:50:09:896;1447879807.6;(0, 0);0;0;4;0;0;0;0;();(-2000.0, -2000.0);
09:50:09:957;09:50:09:957;0;15;-1.5;1;0;0;0;0;1;1;1;1;09:50:09:896;1447879807.6;(0, 0);0;0;4;0;0;0;0;();(-2000.0, -2000.0);
09:50:09:973;09:50:09:973;0;9;-1.5;1;0;0;0;0;1;1;1;1;09:50:09:896;1447879807.6;(0, 0);0;0;4;0;0;0;0;();(-2000.0, -2000.0);
09:50:10:006;09:50:10:006;0;5;-1.5;1;0;0;0;0;1;1;1;1;09:50:09:992;1447879807.67;(0, 0);0;0;4;0;0;0;0;();(-2000.0, -2000.0);
09:50:10:023;09:50:10:023;0;9;-1.5;1;0;0;0;0;1;1;1;1;09:50:09:992;1447879807.67;(0, 0);0;0;4;0;0;0;0;();(-2000.0, -2000.0);
09:50:10:040;09:50:10:040;0;4;-1.5;1;0;0;0;0;1;1;1;1;09:50:09:992;1447879807.67;(0, 0);0;0;4;0;0;0;0;();(-2000.0, -2000.0);
09:50:10:056;09:50:10:056;0;9;-1.5;1;0;0;0;0;1;1;1;1;09:50:10:044;1447879807.74;(0.7851707458496093, 0.8663700209723578);29.3875808716;0.770004884573;4;0;0;0;0;();(-2000.0, -2000.0);
09:50:10:074;09:50:10:073;0;5;-1.5;1;0;0;0;0;1;1;1;1;09:50:10:044;1447879807.74;(0.7851707458496093, 0.8663700209723578);29.3875808716;0.770004884573;4;0;0;0;0;();(-2000.0, -2000.0);
09:50:10:107;09:50:10:107;0;4;-1.5;1;0;0;0;0;1;1;1;1;09:50:10:092;1447879807.8;(0.7068721771240234, 0.9337231953938803);28.4300518036;0.814523371927;4;0;0;0;0;();(-2000.0, -2000.0);
09:50:10:123;09:50:10:123;0;9;-1.5;1;0;0;0;0;1;1;1;1;09:50:10:092;1447879807.8;(0.7068721771240234, 0.9337231953938803);28.4300518036;0.814523371927;4;0;0;0;0;();(-2000.0, -2000.0);
09:50:10:139;09:50:10:139;0;0;-1.5;1;0;0;0;0;1;1;1;1;09:50:10:092;1447879807.8;(0.7068721771240234, 0.9337231953938803);28.4300518036;0.814523371927;4;0;0;0;0;();(-2000.0, -2000.0);
09:50:10:159;09:50:10:159;0;10;-1.5;1;0;0;0;0;1;1;1;1;09:50:10:092;1447879807.8;(0.7068721771240234, 0.9337231953938803);28.4300518036;0.814523371927;4;0;0;0;0;();(-2000.0, -2000.0);
09:50:10:173;09:50:10:173;0;15;-1.5;1;0;0;0;0;1;1;1;1;09:50:10:092;1447879807.8;(0.7068721771240234, 0.9337231953938803);28.4300518036;0.814523371927;4;0;0;0;0;();(-2000.0, -2000.0);
09:50:10:207;09:50:10:207;0;0;-1.5;1;0;0;0;0;1;1;1;1;09:50:10:192;1447879807.87;(0.7455766201019287, 0.21998231675889757);37.5367355347;0.614217419705;4;0;0;0;0;();(-2000.0, -2000.0);
09:50:10:223;09:50:10:222;0;2;-1.5;1;0;0;0;0;1;1;1;1;09:50:10:192;1447879807.87;(0.7455766201019287, 0.21998231675889757);37.5367355347;0.614217419705;4;0;0;0;0;();(-2000.0, -2000.0);
09:50:10:239;09:50:10:239;0;0;-1.5;1;0;0;0;0;1;1;1;1;09:50:10:192;1447879807.87;(0.7455766201019287, 0.21998231675889757);37.5367355347;0.614217419705;4;0;0;0;0;();(-2000.0, -2000.0);
09:50:10:255;09:50:10:255;0;4;-1.5;1;0;0;0;0;1;1;1;1;09:50:10:244;1447879807.94;(0, 0);0;0;4;0;0;0;0;();(-2000.0, -2000.0);
09:50:10:272;09:50:10:272;0;15;-1.5;1;0;0;0;0;1;1;1;1;09:50:10:244;1447879807.94;(0, 0);0;0;4;0;0;0;0;();(-2000.0, -2000.0);
09:50:10:305;09:50:10:305;0;10;-1.5;1;0;0;0;0;1;1;1;1;09:50:10:244;1447879807.94;(0, 0);0;0;4;0;0;0;0;();(-2000.0, -2000.0);
09:50:10:322;09:50:10:322;0;10;-1.5;1;0;0;0;0;1;1;1;1;09:50:10:244;1447879807.94;(0, 0);0;0;4;0;0;0;0;();(-2000.0, -2000.0);
09:50:10:338;09:50:10:338;0;15;-1.5;1;0;0;0;0;1;1;1;1;09:50:10:244;1447879807.94;(0, 0);0;0;4;0;0;0;0;();(-2000.0, -2000.0);
09:50:10:356;09:50:10:356;0;5;-1.5;1;0;0;0;0;1;1;1;1;09:50:10:344;1447879808.0;(0.19507100582122802, 0.3010955386691623);33.9241600037;0.650141421022;4;0;0;0;0;();(-2000.0, -2000.0);
09:50:10:371;09:50:10:371;0;0;-1.5;1;0;0;0;0;1;1;1;1;09:50:10:344;1447879808.0;(0.19507100582122802, 0.3010955386691623);33.9241600037;0.650141421022;4;0;0;0;0;();(-2000.0, -2000.0);
09:50:10:405;09:50:10:404;0;15;-1.5;1;0;0;0;0;1;1;1;1;09:50:10:392;1447879808.07;(0, 0);0;0;4;0;0;0;0;();(-2000.0, -2000.0);
09:50:10:421;09:50:10:421;0;4;-1.5;1;0;0;0;0;1;1;1;1;09:50:10:392;1447879808.07;(0, 0);0;0;4;0;0;0;0;();(-2000.0, -2000.0);
09:50:10:438;09:50:10:438;0;15;-1.5;1;0;0;0;0;1;1;1;1;09:50:10:392;1447879808.07;(0, 0);0;0;4;0;0;0;0;();(-2000.0, -2000.0);
09:50:10:454;09:50:10:454;0;4;-1.5;1;0;0;0;0;1;1;1;1;09:50:10:440;1447879808.14;(0.1644236922264099, 0.23872231377495656);19.7170753479;0.676699623528;4;0;0;0;0;();(-2000.0, -2000.0);
09:50:10:471;09:50:10:471;0;10;-1.5;1;0;0;0;0;1;1;1;1;09:50:10:440;1447879808.14;(0.1644236922264099, 0.23872231377495656);19.7170753479;0.676699623528;4;0;0;0;0;();(-2000.0, -2000.0);
09:50:10:504;09:50:10:504;0;9;-1.5;1;0;0;0;0;1;1;1;1;09:50:10:492;1447879808.2;(0.5550823211669922, 0.24592870076497397);26.1697731018;0.633294301779;4;0;0;0;0;();(-2000.0, -2000.0);
09:50:10:521;09:50:10:520;0;4;-1.5;1;0;0;0;0;1;1;1;1;09:50:10:492;1447879808.2;(0.5550823211669922, 0.24592870076497397);26.1697731018;0.633294301779;4;0;0;0;0;();(-2000.0, -2000.0);
09:50:10:537;09:50:10:537;0;9;-1.5;1;0;0;0;0;1;1;1;1;09:50:10:492;1447879808.2;(0.5550823211669922, 0.24592870076497397);26.1697731018;0.633294301779;4;0;0;0;0;();(-2000.0, -2000.0);
09:50:10:554;09:50:10:554;0;5;-1.5;1;0;0;0;0;1;1;1;1;09:50:10:492;1447879808.2;(0.5550823211669922, 0.24592870076497397);26.1697731018;0.633294301779;4;0;0;0;0;();(-2000.0, -2000.0);
09:50:10:572;09:50:10:572;0;10;-1.5;1;0;0;0;0;1;1;1;1;09:50:10:492;1447879808.2;(0.5550823211669922, 0.24592870076497397);26.1697731018;0.633294301779;4;0;0;0;0;();(-2000.0, -2000.0);
09:50:10:606;09:50:10:605;0;9;-1.5;1;0;0;0;0;1;1;1;1;09:50:10:592;1447879808.27;(0, 0);0;0;4;0;0;0;0;();(-2000.0, -2000.0);
09:50:10:623;09:50:10:623;0;0;-1.5;1;0;0;0;0;1;1;1;1;09:50:10:592;1447879808.27;(0, 0);0;0;4;0;0;0;0;();(-2000.0, -2000.0);
09:50:10:639;09:50:10:639;0;10;-1.5;1;0;0;0;0;1;1;1;1;09:50:10:592;1447879808.27;(0, 0);0;0;4;0;0;0;0;();(-2000.0, -2000.0);
09:50:10:655;09:50:10:655;0;15;-1.5;1;0;0;0;0;1;1;1;1;09:50:10:640;1447879808.34;(0, 0);0;0;4;0;0;0;0;();(-2000.0, -2000.0);
09:50:10:672;09:50:10:672;0;4;-1.5;1;0;0;0;0;1;1;1;1;09:50:10:640;1447879808.34;(0, 0);0;0;4;0;0;0;0;();(-2000.0, -2000.0);
09:50:10:706;09:50:10:705;0;5;-1.5;1;0;0;0;0;1;1;1;1;09:50:10:692;1447879808.4;(0.7492698669433594, 0.8727330525716146);19.0031261444;0.88212993797;4;0;0;0;0;();(-2000.0, -2000.0);
09:50:10:722;09:50:10:722;0;15;-1.5;1;0;0;0;0;1;1;1;1;09:50:10:692;1447879808.4;(0.7492698669433594, 0.8727330525716146);19.0031261444;0.88212993797;4;0;0;0;0;();(-2000.0, -2000.0);
09:50:10:739;09:50:10:738;0;4;-1.5;1;0;0;0;0;1;1;1;1;09:50:10:692;1447879808.4;(0.7492698669433594, 0.8727330525716146);19.0031261444;0.88212993797;4;0;0;0;0;();(-2000.0, -2000.0);
09:50:10:755;09:50:10:755;0;15;-1.5;1;0;0;0;0;1;1;1;1;09:50:10:692;1447879808.4;(0.7492698669433594, 0.8727330525716146);19.0031261444;0.88212993797;4;0;0;0;0;();(-2000.0, -2000.0);
09:50:10:772;09:50:10:772;0;4;-1.5;1;0;0;0;0;1;1;1;1;09:50:10:692;1447879808.4;(0.7492698669433594, 0.8727330525716146);19.0031261444;0.88212993797;4;0;0;0;0;();(-2000.0, -2000.0);
09:50:10:805;09:50:10:805;0;4;-1.5;1;0;0;0;0;1;1;1;1;09:50:10:792;1447879808.47;(0.2750723838806152, 0.06953074137369797);29.1703891754;0.650660532109;4;0;0;0;0;();(-2000.0, -2000.0);
09:50:10:821;09:50:10:821;0;9;-1.5;1;0;0;0;0;1;1;1;1;09:50:10:792;1447879808.47;(0.2750723838806152, 0.06953074137369797);29.1703891754;0.650660532109;4;0;0;0;0;();(-2000.0, -2000.0);
09:50:10:838;09:50:10:838;0;4;-1.5;1;0;0;0;0;1;1;1;1;09:50:10:792;1447879808.47;(0.2750723838806152, 0.06953074137369797);29.1703891754;0.650660532109;4;0;0;0;0;();(-2000.0, -2000.0);
09:50:10:854;09:50:10:854;0;7;-1.5;1;0;0;0;0;1;1;1;1;09:50:10:840;1447879808.54;(0.8570595741271972, 0.3412480248345269);21.4921035767;0.824389220956;4;0;0;0;0;();(-2000.0, -2000.0);
09:50:10:871;09:50:10:871;0;4;-1.5;1;0;0;0;0;1;1;1;1;09:50:10:840;1447879808.54;(0.8570595741271972, 0.3412480248345269);21.4921035767;0.824389220956;4;0;0;0;0;();(-2000.0, -2000.0);
09:50:10:904;09:50:10:904;0;4;-1.5;1;0;0;0;0;1;1;1;1;09:50:10:840;1447879808.54;(0.8570595741271972, 0.3412480248345269);21.4921035767;0.824389220956;4;0;0;0;0;();(-2000.0, -2000.0);
09:50:10:921;09:50:10:920;0;9;-1.5;1;0;0;0;0;1;1;1;1;09:50:10:840;1447879808.54;(0.8570595741271972, 0.3412480248345269);21.4921035767;0.824389220956;4;0;0;0;0;();(-2000.0, -2000.0);
09:50:10:937;09:50:10:937;0;0;-1.5;1;0;0;0;0;1;1;1;1;09:50:10:840;1447879808.54;(0.8570595741271972, 0.3412480248345269);21.4921035767;0.824389220956;4;0;0;0;0;();(-2000.0, -2000.0);
09:50:10:954;09:50:10:954;0;10;-1.5;1;0;0;0;0;1;1;1;1;09:50:10:940;1447879808.6;(0.5321934223175049, 0.9104097048441568);25.4118499756;0.684644965769;4;0;0;0;0;();(-2000.0, -2000.0);
09:50:10:989;09:50:10:989;0;9;-1.5;1;0;0;0;0;1;1;1;1;09:50:10:988;1447879808.67;(0, 0);0;0;4;0;0;0;0;();(-2000.0, -2000.0);
09:50:11:012;09:50:11:011;0;0;-1.5;1;0;0;0;0;1;1;1;1;09:50:10:988;1447879808.67;(0, 0);0;0;4;0;0;0;0;();(-2000.0, -2000.0);
09:50:11:014;09:50:11:014;0;0;-1.5;1;0;0;0;0;1;1;1;1;09:50:10:988;1447879808.67;(0, 0);0;0;4;0;0;0;0;();(-2000.0, -2000.0);
09:50:11:045;09:50:11:045;0;15;-1.5;1;0;0;0;0;1;1;1;1;09:50:11:040;1447879808.74;(0, 0);0;0;4;0;0;0;0;();(-2000.0, -2000.0);
09:50:11:061;09:50:11:061;0;4;-1.5;1;0;0;0;0;1;1;1;1;09:50:11:040;1447879808.74;(0, 0);0;0;4;0;0;0;0;();(-2000.0, -2000.0);
09:50:11:078;09:50:11:078;0;9;-1.5;1;0;0;0;0;1;1;1;1;09:50:11:040;1447879808.74;(0, 0);0;0;4;0;0;0;0;();(-2000.0, -2000.0);
09:50:11:095;09:50:11:095;0;5;-1.5;1;0;0;0;0;1;1;1;1;09:50:11:040;1447879808.74;(0, 0);0;0;4;0;0;0;0;();(-2000.0, -2000.0);
09:50:11:111;09:50:11:111;0;10;-1.5;1;0;0;0;0;1;1;1;1;09:50:11:040;1447879808.74;(0, 0);0;0;4;0;0;0;0;();(-2000.0, -2000.0);
09:50:11:144;09:50:11:144;0;9;-1.5;1;0;0;0;0;1;1;1;1;09:50:11:140;1447879808.8;(0.7479101181030273, 0.871310011545817);21.0731601715;0.651799985927;4;0;0;0;0;();(-2000.0, -2000.0);
09:50:11:161;09:50:11:161;0;0;-1.5;1;0;0;0;0;1;1;1;1;09:50:11:140;1447879808.8;(0.7479101181030273, 0.871310011545817);21.0731601715;0.651799985927;4;0;0;0;0;();(-2000.0, -2000.0);
09:50:11:179;09:50:11:178;0;10;-1.5;1;0;0;0;0;1;1;1;1;09:50:11:140;1447879808.8;(0.7479101181030273, 0.871310011545817);21.0731601715;0.651799985927;4;0;0;0;0;();(-2000.0, -2000.0);
09:50:11:195;09:50:11:195;0;15;-1.5;1;0;0;0;0;1;1;1;1;09:50:11:189;1447879808.87;(0, 0);0;0;4;0;0;0;0;();(-2000.0, -2000.0);
09:50:11:228;09:50:11:228;0;6;-1.5;1;0;0;0;0;1;1;1;1;09:50:11:189;1447879808.87;(0, 0);0;0;4;0;0;0;0;();(-2000.0, -2000.0);
09:50:11:245;09:50:11:244;0;9;-1.5;1;0;0;0;0;1;1;1;1;09:50:11:241;1447879808.94;(0, 0);0;0;4;0;0;0;0;();(-2000.0, -2000.0);
09:50:11:261;09:50:11:261;0;9;-1.5;1;0;0;0;0;1;1;1;1;09:50:11:241;1447879808.94;(0, 0);0;0;4;0;0;0;0;();(-2000.0, -2000.0);
09:50:11:278;09:50:11:278;0;10;-1.5;1;0;0;0;0;1;1;1;1;09:50:11:241;1447879808.94;(0, 0);0;0;4;0;0;0;0;();(-2000.0, -2000.0);
09:50:11:294;09:50:11:294;0;15;-1.5;1;0;0;0;0;1;1;1;1;09:50:11:241;1447879808.94;(0, 0);0;0;4;0;0;0;0;();(-2000.0, -2000.0);
09:50:11:328;09:50:11:328;0;9;-1.5;1;0;0;0;0;1;1;1;1;09:50:11:241;1447879808.94;(0, 0);0;0;4;0;0;0;0;();(-2000.0, -2000.0);
09:50:11:344;09:50:11:344;0;5;-1.5;1;0;0;0;0;1;1;1;1;09:50:11:337;1447879809.0;(0.15782978534698486, 0.2414941575792101);26.5037746429;0.666918390648;4;0;0;0;0;();(-2000.0, -2000.0);
09:50:11:361;09:50:11:360;0;15;-1.5;1;0;0;0;0;1;1;1;1;09:50:11:337;1447879809.0;(0.15782978534698486, 0.2414941575792101);26.5037746429;0.666918390648;4;0;0;0;0;();(-2000.0, -2000.0);
09:50:11:377;09:50:11:377;0;15;-1.5;1;0;0;0;0;1;1;1;1;09:50:11:337;1447879809.0;(0.15782978534698486, 0.2414941575792101);26.5037746429;0.666918390648;4;0;0;0;0;();(-2000.0, -2000.0);
09:50:11:394;09:50:11:394;0;15;-1.5;1;0;0;0;0;1;1;1;1;09:50:11:389;1447879809.07;(0, 0);0;0;4;0;0;0;0;();(-2000.0, -2000.0);
09:50:11:428;09:50:11:428;0;10;-1.5;1;0;0;0;0;1;1;1;1;09:50:11:389;1447879809.07;(0, 0);0;0;4;0;0;0;0;();(-2000.0, -2000.0);
09:50:11:445;09:50:11:444;0;4;-1.5;1;0;0;0;0;1;1;1;1;09:50:11:389;1447879809.07;(0, 0);0;0;4;0;0;0;0;();(-2000.0, -2000.0);
09:50:11:461;09:50:11:461;0;9;-1.5;1;0;0;0;0;1;1;1;1;09:50:11:389;1447879809.07;(0, 0);0;0;4;0;0;0;0;();(-2000.0, -2000.0);
09:50:11:479;09:50:11:479;0;5;-1.5;1;0;0;0;0;1;1;1;1;09:50:11:389;1447879809.07;(0, 0);0;0;4;0;0;0;0;();(-2000.0, -2000.0);
09:50:11:495;09:50:11:495;0;10;-1.5;1;0;0;0;0;1;1;1;1;09:50:11:489;1447879809.14;(0.8738627433776855, 0.12000028822157116);22.0813999176;0.709738952104;4;0;0;0;0;();(-2000.0, -2000.0);
09:50:11:528;09:50:11:528;0;9;-1.5;1;0;0;0;0;1;1;1;1;09:50:11:489;1447879809.14;(0.8738627433776855, 0.12000028822157116);22.0813999176;0.709738952104;4;0;0;0;0;();(-2000.0, -2000.0);
09:50:11:544;09:50:11:544;0;8;-1.5;1;0;0;0;0;1;1;1;1;09:50:11:537;1447879809.2;(0.16529650688171388, 0.24124976264105902);18.3293857574;0.740274273664;4;0;0;0;0;();(-2000.0, -2000.0);
09:50:11:561;09:50:11:561;0;9;-1.5;1;0;0;0;0;1;1;1;1;09:50:11:537;1447879809.2;(0.16529650688171388, 0.24124976264105902);18.3293857574;0.740274273664;4;0;0;0;0;();(-2000.0, -2000.0);
09:50:11:579;09:50:11:579;0;0;-1.5;1;0;0;0;0;1;1;1;1;09:50:11:537;1447879809.2;(0.16529650688171388, 0.24124976264105902);18.3293857574;0.740274273664;4;0;0;0;0;();(-2000.0, -2000.0);
09:50:11:594;09:50:11:594;0;10;-1.5;1;0;0;0;0;1;1;1;1;09:50:11:589;1447879809.27;(0.6124669075012207, 0.8328685760498047);22.1969795227;0.608563848234;4;0;0;0;0;();(-2000.0, -2000.0);
09:50:11:615;09:50:11:614;0;15;-1.5;1;0;0;0;0;1;1;1;1;09:50:11:589;1447879809.27;(0.6124669075012207, 0.8328685760498047);22.1969795227;0.608563848234;4;0;0;0;0;();(-2000.0, -2000.0);
09:50:11:647;09:50:11:647;0;0;-1.5;1;0;0;0;0;1;1;1;1;09:50:11:637;1447879809.34;(0.16698722839355468, 0.23991241455078127);23.9834766388;0.690076741214;4;0;0;0;0;();(-2000.0, -2000.0);
09:50:11:663;09:50:11:663;0;9;-1.5;1;0;0;0;0;1;1;1;1;09:50:11:637;1447879809.34;(0.16698722839355468, 0.23991241455078127);23.9834766388;0.690076741214;4;0;0;0;0;();(-2000.0, -2000.0);
09:50:11:680;09:50:11:680;0;15;-1.5;1;0;0;0;0;1;1;1;1;09:50:11:637;1447879809.34;(0.16698722839355468, 0.23991241455078127);23.9834766388;0.690076741214;4;0;0;0;0;();(-2000.0, -2000.0);
09:50:11:697;09:50:11:697;0;4;-1.5;1;0;0;0;0;1;1;1;1;09:50:11:637;1447879809.34;(0.16698722839355468, 0.23991241455078127);23.9834766388;0.690076741214;4;0;0;0;0;();(-2000.0, -2000.0);
09:50:11:713;09:50:11:713;0;15;-1.5;1;0;0;0;0;1;1;1;1;09:50:11:637;1447879809.34;(0.16698722839355468, 0.23991241455078127);23.9834766388;0.690076741214;4;0;0;0;0;();(-2000.0, -2000.0);
09:50:11:746;09:50:11:746;0;0;-1.5;1;0;0;0;0;1;1;1;1;09:50:11:737;1447879809.4;(0, 0);0;0;4;0;0;0;0;();(-2000.0, -2000.0);
09:50:11:763;09:50:11:763;0;4;-1.5;1;0;0;0;0;1;1;1;1;09:50:11:737;1447879809.4;(0, 0);0;0;4;0;0;0;0;();(-2000.0, -2000.0);
09:50:11:779;09:50:11:779;0;15;-1.5;1;0;0;0;0;1;1;1;1;09:50:11:737;1447879809.4;(0, 0);0;0;4;0;0;0;0;();(-2000.0, -2000.0);
09:50:11:796;09:50:11:796;0;4;-1.5;1;0;0;0;0;1;1;1;1;09:50:11:785;1447879809.47;(0, 0);0;0;4;0;0;0;0;();(-2000.0, -2000.0);
09:50:11:814;09:50:11:812;0;15;-1.5;1;0;0;0;0;1;1;1;1;09:50:11:785;1447879809.47;(0, 0);0;0;4;0;0;0;0;();(-2000.0, -2000.0);
09:50:11:847;09:50:11:847;0;10;-1.5;1;0;0;0;0;1;1;1;1;09:50:11:837;1447879809.54;(0, 0);0;0;4;0;0;0;0;();(-2000.0, -2000.0);
09:50:11:865;09:50:11:864;0;4;-1.5;1;0;0;0;0;1;1;1;1;09:50:11:837;1447879809.54;(0, 0);0;0;4;0;0;0;0;();(-2000.0, -2000.0);
09:50:11:881;09:50:11:880;0;9;-1.5;1;0;0;0;0;1;1;1;1;09:50:11:837;1447879809.54;(0, 0);0;0;4;0;0;0;0;();(-2000.0, -2000.0);
09:50:11:897;09:50:11:897;0;4;-1.5;1;0;0;0;0;1;1;1;1;09:50:11:837;1447879809.54;(0, 0);0;0;4;0;0;0;0;();(-2000.0, -2000.0);
09:50:11:914;09:50:11:913;0;10;-1.5;1;0;0;0;0;1;1;1;1;09:50:11:837;1447879809.54;(0, 0);0;0;4;0;0;0;0;();(-2000.0, -2000.0);
09:50:11:947;09:50:11:947;0;9;-1.5;1;0;0;0;0;1;1;1;1;09:50:11:937;1447879809.6;(0.2844175100326538, 0.06925455729166663);18.5988273621;0.643710851918;4;0;0;0;0;();(-2000.0, -2000.0);
09:50:11:964;09:50:11:964;0;0;-1.5;1;0;0;0;0;1;1;1;1;09:50:11:937;1447879809.6;(0.2844175100326538, 0.06925455729166663);18.5988273621;0.643710851918;4;0;0;0;0;();(-2000.0, -2000.0);
09:50:11:980;09:50:11:980;0;9;-1.5;1;0;0;0;0;1;1;1;1;09:50:11:937;1447879809.6;(0.2844175100326538, 0.06925455729166663);18.5988273621;0.643710851918;4;0;0;0;0;();(-2000.0, -2000.0);
09:50:11:996;09:50:11:996;0;15;-1.5;1;0;0;0;0;1;1;1;1;09:50:11:985;1447879809.67;(0.7000769138336181, 0.9310643249087863);40.4913139343;0.730010667955;4;0;0;0;0;();(-2000.0, -2000.0);
09:50:12:013;09:50:12:013;0;10;-1.5;1;0;0;0;0;1;1;1;1;09:50:11:985;1447879809.67;(0.7000769138336181, 0.9310643249087863);40.4913139343;0.730010667955;4;0;0;0;0;();(-2000.0, -2000.0);
09:50:12:046;09:50:12:046;0;9;-1.5;1;0;0;0;0;1;1;1;1;09:50:12:037;1447879809.74;(0, 0);0;0;4;0;0;0;0;();(-2000.0, -2000.0);
09:50:12:063;09:50:12:062;0;15;-1.5;1;0;0;0;0;1;1;1;1;09:50:12:037;1447879809.74;(0, 0);0;0;4;0;0;0;0;();(-2000.0, -2000.0);
09:50:12:079;09:50:12:079;0;10;-1.5;1;0;0;0;0;1;1;1;1;09:50:12:037;1447879809.74;(0, 0);0;0;4;0;0;0;0;();(-2000.0, -2000.0);
09:50:12:096;09:50:12:095;0;15;-1.5;1;0;0;0;0;1;1;1;1;09:50:12:037;1447879809.74;(0, 0);0;0;4;0;0;0;0;();(-2000.0, -2000.0);
09:50:12:112;09:50:12:112;0;9;-1.5;1;0;0;0;0;1;1;1;1;09:50:12:037;1447879809.74;(0, 0);0;0;4;0;0;0;0;();(-2000.0, -2000.0);
09:50:12:146;09:50:12:146;0;10;-1.5;1;0;0;0;0;1;1;1;1;09:50:12:137;1447879809.8;(0, 0);0;0;4;0;0;0;0;();(-2000.0, -2000.0);
09:50:12:171;09:50:12:170;0;10;-1.5;1;0;0;0;0;1;1;1;1;09:50:12:137;1447879809.8;(0, 0);0;0;4;0;0;0;0;();(-2000.0, -2000.0);
09:50:12:188;09:50:12:188;0;15;-1.5;1;0;0;0;0;1;1;1;1;09:50:12:137;1447879809.8;(0, 0);0;0;4;0;0;0;0;();(-2000.0, -2000.0);
09:50:12:195;09:50:12:195;0;15;-1.5;1;0;0;0;0;1;1;1;1;09:50:12:187;1447879809.87;(0.26127848625183103, 0.06583209567599824);42.6024971008;0.639430520509;4;0;0;0;0;();(-2000.0, -2000.0);
09:50:12:228;09:50:12:228;0;10;-1.5;1;0;0;0;0;1;1;1;1;09:50:12:187;1447879809.87;(0.26127848625183103, 0.06583209567599824);42.6024971008;0.639430520509;4;0;0;0;0;();(-2000.0, -2000.0);
09:50:12:246;09:50:12:246;0;4;-1.5;1;0;0;0;0;1;1;1;1;09:50:12:187;1447879809.87;(0.26127848625183103, 0.06583209567599824);42.6024971008;0.639430520509;4;0;0;0;0;();(-2000.0, -2000.0);
09:50:12:262;09:50:12:262;0;15;-1.5;1;0;0;0;0;1;1;1;1;09:50:12:187;1447879809.87;(0.26127848625183103, 0.06583209567599824);42.6024971008;0.639430520509;4;0;0;0;0;();(-2000.0, -2000.0);
09:50:12:278;09:50:12:278;0;4;-1.5;1;0;0;0;0;1;1;1;1;09:50:12:187;1447879809.87;(0.26127848625183103, 0.06583209567599824);42.6024971008;0.639430520509;4;0;0;0;0;();(-2000.0, -2000.0);
09:50:12:294;09:50:12:294;0;0;-1.5;1;0;0;0;0;1;1;1;1;09:50:12:285;1447879809.94;(0.2772390127182007, 0.07137213812934029);20.5459194183;0.739536989859;4;0;0;0;0;();(-2000.0, -2000.0);
09:50:12:327;09:50:12:327;0;10;-1.5;1;0;0;0;0;1;1;1;1;09:50:12:285;1447879809.94;(0.2772390127182007, 0.07137213812934029);20.5459194183;0.739536989859;4;0;0;0;0;();(-2000.0, -2000.0);
09:50:12:344;09:50:12:344;0;4;-1.5;1;0;0;0;0;1;1;1;1;09:50:12:333;1447879810.0;(0, 0);0;0;4;0;0;0;0;();(-2000.0, -2000.0);
09:50:12:361;09:50:12:360;0;9;-1.5;1;0;0;0;0;1;1;1;1;09:50:12:333;1447879810.0;(0, 0);0;0;4;0;0;0;0;();(-2000.0, -2000.0);
09:50:12:377;09:50:12:377;0;5;-1.5;1;0;0;0;0;1;1;1;1;09:50:12:333;1447879810.0;(0, 0);0;0;4;0;0;0;0;();(-2000.0, -2000.0);
09:50:12:394;09:50:12:394;0;10;-1.5;1;0;0;0;0;1;1;1;1;09:50:12:385;1447879810.07;(0.5326381206512452, 0.5070975409613716);22.2824935913;0.651084874842;4;0;0;0;0;();(-2000.0, -2000.0);
09:50:12:427;09:50:12:427;0;9;-1.5;1;0;0;0;0;1;1;1;1;09:50:12:385;1447879810.07;(0.5326381206512452, 0.5070975409613716);22.2824935913;0.651084874842;4;0;0;0;0;();(-2000.0, -2000.0);
09:50:12:443;09:50:12:443;0;0;-1.5;1;0;0;0;0;1;1;1;1;09:50:12:433;1447879810.14;(0, 0);0;0;4;0;0;0;0;();(-2000.0, -2000.0);
09:50:12:460;09:50:12:460;0;10;-1.5;1;0;0;0;0;1;1;1;1;09:50:12:433;1447879810.14;(0, 0);0;0;4;0;0;0;0;();(-2000.0, -2000.0);
09:50:12:477;09:50:12:477;0;0;-1.5;1;0;0;0;0;1;1;1;1;09:50:12:433;1447879810.14;(0, 0);0;0;4;0;0;0;0;();(-2000.0, -2000.0);
09:50:12:493;09:50:12:493;0;9;-1.5;1;0;0;0;0;1;1;1;1;09:50:12:485;1447879810.2;(0, 0);0;0;4;0;0;0;0;();(-2000.0, -2000.0);
09:50:12:526;09:50:12:526;0;15;-1.5;1;0;0;0;0;1;1;1;1;09:50:12:485;1447879810.2;(0, 0);0;0;4;0;0;0;0;();(-2000.0, -2000.0);
09:50:12:548;09:50:12:548;0;0;-1.5;1;0;0;0;0;1;1;1;1;09:50:12:485;1447879810.2;(0, 0);0;0;6;0;0;0;0;();(-2000.0, -2000.0);
09:50:12:560;09:50:12:559;0;10;-1.5;1;0;0;0;0;1;1;1;1;09:50:12:485;1447879810.2;(0, 0);0;0;6;0;0;0;0;();(-2000.0, -2000.0);
09:50:12:576;09:50:12:576;0;15;-1.5;1;0;0;0;0;1;1;1;1;09:50:12:485;1447879810.2;(0, 0);0;0;6;0;0;0;0;();(-2000.0, -2000.0);
09:50:12:594;09:50:12:594;0;9;-1.5;1;0;0;0;0;1;1;1;1;09:50:12:585;1447879810.27;(0, 0);0;0;6;0;0;0;0;();(-2000.0, -2000.0);
09:50:12:627;09:50:12:627;0;4;-1.5;1;0;0;0;0;1;1;1;1;09:50:12:585;1447879810.27;(0, 0);0;0;6;0;0;0;0;();(-2000.0, -2000.0);
09:50:12:643;09:50:12:642;0;0;-1.5;1;0;0;0;0;1;1;1;1;09:50:12:633;1447879810.34;(0, 0);0;0;6;0;0;0;0;();(-2000.0, -2000.0);
09:50:12:659;09:50:12:659;0;9;-1.5;1;0;0;0;0;1;1;1;1;09:50:12:633;1447879810.34;(0, 0);0;0;6;0;0;0;0;();(-2000.0, -2000.0);
09:50:12:676;09:50:12:676;0;15;-1.5;1;0;0;0;0;1;1;1;1;09:50:12:633;1447879810.34;(0, 0);0;0;6;0;0;0;0;();(-2000.0, -2000.0);
09:50:12:693;09:50:12:692;0;5;-1.5;1;0;0;0;0;1;1;1;1;09:50:12:633;1447879810.34;(0, 0);0;0;6;0;0;0;0;();(-2000.0, -2000.0);
09:50:12:725;09:50:12:725;0;4;-1.5;1;0;0;0;0;1;1;1;1;09:50:12:633;1447879810.34;(0, 0);0;0;6;0;0;0;0;();(-2000.0, -2000.0);
09:50:12:742;09:50:12:741;0;9;-1.5;1;0;0;0;0;1;1;1;1;09:50:12:732;1447879810.4;(0, 0);0;0;6;0;0;0;0;();(-2000.0, -2000.0);
09:50:12:758;09:50:12:758;0;5;-1.5;1;0;0;0;0;1;1;1;1;09:50:12:732;1447879810.4;(0, 0);0;0;6;0;0;0;0;();(-2000.0, -2000.0);
09:50:12:775;09:50:12:775;0;10;-1.5;1;0;0;0;0;1;1;1;1;09:50:12:732;1447879810.4;(0, 0);0;0;6;0;0;0;0;();(-2000.0, -2000.0);
09:50:12:808;09:50:12:808;0;9;-1.5;1;0;0;0;0;1;1;1;1;09:50:12:781;1447879810.47;(0.19174517393112184, 0.2961601257324219);28.9297199249;0.645612270836;6;0;0;0;0;();(-2000.0, -2000.0);
09:50:12:824;09:50:12:824;0;11;-1.5;1;0;0;0;0;1;1;1;1;09:50:12:781;1447879810.47;(0.19174517393112184, 0.2961601257324219);28.9297199249;0.645612270836;6;0;0;0;0;();(-2000.0, -2000.0);
09:50:12:841;09:50:12:841;0;8;-1.5;1;0;0;0;0;1;1;1;1;09:50:12:781;1447879810.47;(0.19174517393112184, 0.2961601257324219);28.9297199249;0.645612270836;6;0;0;0;0;();(-2000.0, -2000.0);
09:50:12:858;09:50:12:858;0;9;-1.5;1;0;0;0;0;1;1;1;1;09:50:12:781;1447879810.47;(0.19174517393112184, 0.2961601257324219);28.9297199249;0.645612270836;6;0;0;0;0;();(-2000.0, -2000.0);
09:50:12:874;09:50:12:874;0;10;-1.5;1;0;0;0;0;1;1;1;1;09:50:12:781;1447879810.47;(0.19174517393112184, 0.2961601257324219);28.9297199249;0.645612270836;6;0;0;0;0;();(-2000.0, -2000.0);
09:50:12:908;09:50:12:907;0;9;-1.5;1;0;0;0;0;1;1;1;1;09:50:12:881;1447879810.54;(0.2833557605743408, 0.06871575249565975);23.3486709595;0.730242156615;6;0;0;0;0;();(-2000.0, -2000.0);
09:50:12:924;09:50:12:924;0;0;-1.5;1;0;0;0;0;1;1;1;1;09:50:12:881;1447879810.54;(0.2833557605743408, 0.06871575249565975);23.3486709595;0.730242156615;6;0;0;0;0;();(-2000.0, -2000.0);
09:50:12:941;09:50:12:941;0;10;-1.5;1;0;0;0;0;1;1;1;1;09:50:12:933;1447879810.6;(0.265002965927124, 0.07064929538302955);31.4809627533;0.735878930493;6;0;0;0;0;();(-2000.0, -2000.0);
09:50:12:957;09:50:12:957;0;0;-1.5;1;0;0;0;0;1;1;1;1;09:50:12:933;1447879810.6;(0.265002965927124, 0.07064929538302955);31.4809627533;0.735878930493;6;0;0;0;0;();(-2000.0, -2000.0);
09:50:12:974;09:50:12:974;0;9;-1.5;1;0;0;0;0;1;1;1;1;09:50:12:933;1447879810.6;(0.265002965927124, 0.07064929538302955);31.4809627533;0.735878930493;6;0;0;0;0;();(-2000.0, -2000.0);
09:50:13:007;09:50:13:007;0;4;-1.5;1;0;0;0;0;1;1;1;1;09:50:12:981;1447879810.67;(0, 0);0;0;6;0;0;0;0;();(-2000.0, -2000.0);
09:50:13:023;09:50:13:023;0;0;-1.5;1;0;0;0;0;1;1;1;1;09:50:12:981;1447879810.67;(0, 0);0;0;6;0;0;0;0;();(-2000.0, -2000.0);
09:50:13:040;09:50:13:040;0;4;-1.5;1;0;0;0;0;1;1;1;1;09:50:12:981;1447879810.67;(0, 0);0;0;6;0;0;0;0;();(-2000.0, -2000.0);
09:50:13:056;09:50:13:056;0;15;-1.5;1;0;0;0;0;1;1;1;1;09:50:12:981;1447879810.67;(0, 0);0;0;6;0;0;0;0;();(-2000.0, -2000.0);
09:50:13:073;09:50:13:073;0;9;-1.5;1;0;0;0;0;1;1;1;1;09:50:12:981;1447879810.67;(0, 0);0;0;6;0;0;0;0;();(-2000.0, -2000.0);
09:50:13:106;09:50:13:106;0;5;-1.5;1;0;0;0;0;1;1;1;1;09:50:13:080;1447879810.74;(0.8891961097717285, 0.12106823391384547);24.0882453918;0.618494442358;6;0;0;0;0;();(-2000.0, -2000.0);
09:50:13:122;09:50:13:122;0;15;-1.5;1;0;0;0;0;1;1;1;1;09:50:13:080;1447879810.74;(0.8891961097717285, 0.12106823391384547);24.0882453918;0.618494442358;6;0;0;0;0;();(-2000.0, -2000.0);
09:50:13:139;09:50:13:139;0;4;-1.5;1;0;0;0;0;1;1;1;1;09:50:13:129;1447879810.8;(0, 0);0;0;6;0;0;0;0;();(-2000.0, -2000.0);
09:50:13:155;09:50:13:155;0;9;-1.5;1;0;0;0;0;1;1;1;1;09:50:13:129;1447879810.8;(0, 0);0;0;6;0;0;0;0;();(-2000.0, -2000.0);
09:50:13:172;09:50:13:172;0;5;-1.5;1;0;0;0;0;1;1;1;1;09:50:13:129;1447879810.8;(0, 0);0;0;6;0;0;0;0;();(-2000.0, -2000.0);
09:50:13:206;09:50:13:205;0;5;-1.5;1;0;0;0;0;1;1;1;1;09:50:13:181;1447879810.87;(0, 0);0;0;6;0;0;0;0;();(-2000.0, -2000.0);
09:50:13:222;09:50:13:222;0;15;-1.5;1;0;0;0;0;1;1;1;1;09:50:13:181;1447879810.87;(0, 0);0;0;6;0;0;0;0;();(-2000.0, -2000.0);
09:50:13:239;09:50:13:238;0;4;-1.5;1;0;0;0;0;1;1;1;1;09:50:13:181;1447879810.87;(0, 0);0;0;6;0;0;0;0;();(-2000.0, -2000.0);
09:50:13:255;09:50:13:255;0;9;-1.5;1;0;0;0;0;1;1;1;1;09:50:13:181;1447879810.87;(0, 0);0;0;6;0;0;0;0;();(-2000.0, -2000.0);
09:50:13:272;09:50:13:272;0;5;-1.5;1;0;0;0;0;1;1;1;1;09:50:13:181;1447879810.87;(0, 0);0;0;6;0;0;0;0;();(-2000.0, -2000.0);
09:50:13:306;09:50:13:306;0;10;-1.5;1;0;0;0;0;1;1;1;1;09:50:13:280;1447879810.94;(0.7079255104064941, 0.9343374676174587);28.857585907;0.665049851925;6;0;0;0;0;();(-2000.0, -2000.0);
09:50:13:322;09:50:13:322;0;9;-1.5;1;0;0;0;0;1;1;1;1;09:50:13:280;1447879810.94;(0.7079255104064941, 0.9343374676174587);28.857585907;0.665049851925;6;0;0;0;0;();(-2000.0, -2000.0);
09:50:13:338;09:50:13:338;0;5;-1.5;1;0;0;0;0;1;1;1;1;09:50:13:329;1447879811.0;(0, 0);0;0;6;0;0;0;0;();(-2000.0, -2000.0);
09:50:13:355;09:50:13:354;0;10;-1.5;1;0;0;0;0;1;1;1;1;09:50:13:329;1447879811.0;(0, 0);0;0;6;0;0;0;0;();(-2000.0, -2000.0);
09:50:13:388;09:50:13:388;0;9;-1.5;1;0;0;0;0;1;1;1;1;09:50:13:381;1447879811.07;(0.6183212280273438, 0.8297423892550998);23.8570213318;0.819209038621;6;0;0;0;0;();(-2000.0, -2000.0);
09:50:13:405;09:50:13:405;0;4;-1.5;1;0;0;0;0;1;1;1;1;09:50:13:381;1447879811.07;(0.6183212280273438, 0.8297423892550998);23.8570213318;0.819209038621;6;0;0;0;0;();(-2000.0, -2000.0);
09:50:13:421;09:50:13:421;0;9;-1.5;1;0;0;0;0;1;1;1;1;09:50:13:381;1447879811.07;(0.6183212280273438, 0.8297423892550998);23.8570213318;0.819209038621;6;0;0;0;0;();(-2000.0, -2000.0);
09:50:13:438;09:50:13:438;0;15;-1.5;1;0;0;0;0;1;1;1;1;09:50:13:381;1447879811.07;(0.6183212280273438, 0.8297423892550998);23.8570213318;0.819209038621;6;0;0;0;0;();(-2000.0, -2000.0);
09:50:13:454;09:50:13:454;0;10;-1.5;1;0;0;0;0;1;1;1;1;09:50:13:381;1447879811.07;(0.6183212280273438, 0.8297423892550998);23.8570213318;0.819209038621;6;0;0;0;0;();(-2000.0, -2000.0);
09:50:13:487;09:50:13:487;0;4;-1.5;1;0;0;0;0;1;1;1;1;09:50:13:481;1447879811.14;(0.28118975162506105, 0.0747573852539063);30.526550293;0.691176092245;6;0;0;0;0;();(-2000.0, -2000.0);
09:50:13:504;09:50:13:504;0;0;-1.5;1;0;0;0;0;1;1;1;1;09:50:13:481;1447879811.14;(0.28118975162506105, 0.0747573852539063);30.526550293;0.691176092245;6;0;0;0;0;();(-2000.0, -2000.0);
09:50:13:521;09:50:13:521;0;4;-1.5;1;0;0;0;0;1;1;1;1;09:50:13:481;1447879811.14;(0.28118975162506105, 0.0747573852539063);30.526550293;0.691176092245;6;0;0;0;0;();(-2000.0, -2000.0);
09:50:13:537;09:50:13:537;0;15;-1.5;1;0;0;0;0;1;1;1;1;09:50:13:529;1447879811.2;(0.16372900009155272, 0.24522272745768225);20.5254116058;0.695752283702;6;0;0;0;0;();(-2000.0, -2000.0);
09:50:13:553;09:50:13:553;0;9;-1.5;1;0;0;0;0;1;1;1;1;09:50:13:529;1447879811.2;(0.16372900009155272, 0.24522272745768225);20.5254116058;0.695752283702;6;0;0;0;0;();(-2000.0, -2000.0);
09:50:13:587;09:50:13:587;0;4;-1.5;1;0;0;0;0;1;1;1;1;09:50:13:577;1447879811.27;(0.5362881183624267, 0.9072131792704264);25.4319038391;0.719331050089;6;0;0;0;0;();(-2000.0, -2000.0);
09:50:13:604;09:50:13:603;0;0;-1.5;1;0;0;0;0;1;1;1;1;09:50:13:577;1447879811.27;(0.5362881183624267, 0.9072131792704264);25.4319038391;0.719331050089;6;0;0;0;0;();(-2000.0, -2000.0);
09:50:13:620;09:50:13:620;0;5;-1.5;1;0;0;0;0;1;1;1;1;09:50:13:577;1447879811.27;(0.5362881183624267, 0.9072131792704264);25.4319038391;0.719331050089;6;0;0;0;0;();(-2000.0, -2000.0);
09:50:13:637;09:50:13:636;0;15;-1.5;1;0;0;0;0;1;1;1;1;09:50:13:577;1447879811.27;(0.5362881183624267, 0.9072131792704264);25.4319038391;0.719331050089;6;0;0;0;0;();(-2000.0, -2000.0);
09:50:13:653;09:50:13:653;0;5;-1.5;1;0;0;0;0;1;1;1;1;09:50:13:577;1447879811.27;(0.5362881183624267, 0.9072131792704264);25.4319038391;0.719331050089;6;0;0;0;0;();(-2000.0, -2000.0);
09:50:13:686;09:50:13:686;0;5;-1.5;1;0;0;0;0;1;1;1;1;09:50:13:677;1447879811.34;(0.582421350479126, 0.31590207417805993);20.1959590912;0.673887788192;6;0;0;0;0;();(-2000.0, -2000.0);
09:50:13:702;09:50:13:702;0;9;-1.5;1;0;0;0;0;1;1;1;1;09:50:13:677;1447879811.34;(0.582421350479126, 0.31590207417805993);20.1959590912;0.673887788192;6;0;0;0;0;();(-2000.0, -2000.0);
09:50:13:719;09:50:13:719;0;5;-1.5;1;0;0;0;0;1;1;1;1;09:50:13:677;1447879811.34;(0.582421350479126, 0.31590207417805993);20.1959590912;0.673887788192;6;0;0;0;0;();(-2000.0, -2000.0);
09:50:13:736;09:50:13:736;0;9;-1.5;1;0;0;0;0;1;1;1;1;09:50:13:728;1447879811.4;(0, 0);0;0;6;0;0;0;0;();(-2000.0, -2000.0);
09:50:13:752;09:50:13:752;0;15;-1.5;1;0;0;0;0;1;1;1;1;09:50:13:728;1447879811.4;(0, 0);0;0;6;0;0;0;0;();(-2000.0, -2000.0);
09:50:13:785;09:50:13:785;0;4;-1.5;1;0;0;0;0;1;1;1;1;09:50:13:777;1447879811.47;(0.8217164993286132, 0.12073220147026908);18.4950370789;0.720499229025;6;0;0;0;0;();(-2000.0, -2000.0);
09:50:13:802;09:50:13:802;0;15;-1.5;1;0;0;0;0;1;1;1;1;09:50:13:777;1447879811.47;(0.8217164993286132, 0.12073220147026908);18.4950370789;0.720499229025;6;0;0;0;0;();(-2000.0, -2000.0);
09:50:13:819;09:50:13:819;0;15;-1.5;1;0;0;0;0;1;1;1;1;09:50:13:777;1447879811.47;(0.8217164993286132, 0.12073220147026908);18.4950370789;0.720499229025;6;0;0;0;0;();(-2000.0, -2000.0);
09:50:13:836;09:50:13:836;0;10;-1.5;1;0;0;0;0;1;1;1;1;09:50:13:828;1447879811.54;(0, 0);0;0;6;0;0;0;0;();(-2000.0, -2000.0);
09:50:13:852;09:50:13:852;0;15;-1.5;1;0;0;0;0;1;1;1;1;09:50:13:828;1447879811.54;(0, 0);0;0;6;0;0;0;0;();(-2000.0, -2000.0);
09:50:13:886;09:50:13:886;0;0;-1.5;1;0;0;0;0;1;1;1;1;09:50:13:828;1447879811.54;(0, 0);0;0;6;0;0;0;0;();(-2000.0, -2000.0);
09:50:13:902;09:50:13:902;0;10;-1.5;1;0;0;0;0;1;1;1;1;09:50:13:828;1447879811.54;(0, 0);0;0;6;0;0;0;0;();(-2000.0, -2000.0);
09:50:13:918;09:50:13:918;0;15;-1.5;1;0;0;0;0;1;1;1;1;09:50:13:828;1447879811.54;(0, 0);0;0;6;0;0;0;0;();(-2000.0, -2000.0);
09:50:13:934;09:50:13:934;0;4;-1.5;1;0;0;0;0;1;1;1;1;09:50:13:929;1447879811.6;(0.5400149345397949, 0.9055629836188422);19.7610759735;0.832706393066;6;0;0;0;0;();(-2000.0, -2000.0);
09:50:13:968;09:50:13:968;0;5;-1.5;1;0;0;0;0;1;1;1;1;09:50:13:929;1447879811.6;(0.5400149345397949, 0.9055629836188422);19.7610759735;0.832706393066;6;0;0;0;0;();(-2000.0, -2000.0);
09:50:13:984;09:50:13:984;0;0;-1.5;1;0;0;0;0;1;1;1;1;09:50:13:977;1447879811.67;(0.194665789604187, 0.3013026767306858);34.6837997437;0.688956846369;6;0;0;0;0;();(-2000.0, -2000.0);
09:50:14:001;09:50:14:001;0;10;-1.5;1;0;0;0;0;1;1;1;1;09:50:13:977;1447879811.67;(0.194665789604187, 0.3013026767306858);34.6837997437;0.688956846369;6;0;0;0;0;();(-2000.0, -2000.0);
09:50:14:017;09:50:14:017;0;15;-1.5;1;0;0;0;0;1;1;1;1;09:50:13:977;1447879811.67;(0.194665789604187, 0.3013026767306858);34.6837997437;0.688956846369;6;0;0;0;0;();(-2000.0, -2000.0);
09:50:14:034;09:50:14:034;0;9;-1.5;1;0;0;0;0;1;1;1;1;09:50:13:977;1447879811.67;(0.194665789604187, 0.3013026767306858);34.6837997437;0.688956846369;6;0;0;0;0;();(-2000.0, -2000.0);
09:50:14:068;09:50:14:068;0;5;-1.5;1;0;0;0;0;1;1;1;1;09:50:13:977;1447879811.67;(0.194665789604187, 0.3013026767306858);34.6837997437;0.688956846369;6;0;0;0;0;();(-2000.0, -2000.0);
09:50:14:084;09:50:14:084;0;10;-1.5;1;0;0;0;0;1;1;1;1;09:50:14:076;1447879811.74;(0, 0);0;0;6;0;0;0;0;();(-2000.0, -2000.0);
09:50:14:100;09:50:14:100;0;4;-1.5;1;0;0;0;0;1;1;1;1;09:50:14:076;1447879811.74;(0, 0);0;0;6;0;0;0;0;();(-2000.0, -2000.0);
09:50:14:117;09:50:14:117;0;9;-1.5;1;0;0;0;0;1;1;1;1;09:50:14:076;1447879811.74;(0, 0);0;0;6;0;0;0;0;();(-2000.0, -2000.0);
09:50:14:133;09:50:14:133;0;5;-1.5;1;0;0;0;0;1;1;1;1;09:50:14:125;1447879811.8;(0, 0);0;0;6;0;0;0;0;();(-2000.0, -2000.0);
09:50:14:166;09:50:14:166;0;4;-1.5;1;0;0;0;0;1;1;1;1;09:50:14:125;1447879811.8;(0, 0);0;0;6;0;0;0;0;();(-2000.0, -2000.0);
09:50:14:183;09:50:14:183;0;9;-1.5;1;0;0;0;0;1;1;1;1;09:50:14:177;1447879811.87;(0.7068671703338623, 0.9331531259748671);31.1595458984;0.840200511354;6;0;0;0;0;();(-2000.0, -2000.0);
09:50:14:199;09:50:14:199;0;4;-1.5;1;0;0;0;0;1;1;1;1;09:50:14:177;1447879811.87;(0.7068671703338623, 0.9331531259748671);31.1595458984;0.840200511354;6;0;0;0;0;();(-2000.0, -2000.0);
09:50:14:216;09:50:14:216;0;9;-1.5;1;0;0;0;0;1;1;1;1;09:50:14:177;1447879811.87;(0.7068671703338623, 0.9331531259748671);31.1595458984;0.840200511354;6;0;0;0;0;();(-2000.0, -2000.0);
09:50:14:233;09:50:14:233;0;4;-1.5;1;0;0;0;0;1;1;1;1;09:50:14:177;1447879811.87;(0.7068671703338623, 0.9331531259748671);31.1595458984;0.840200511354;6;0;0;0;0;();(-2000.0, -2000.0);
09:50:14:266;09:50:14:266;0;4;-1.5;1;0;0;0;0;1;1;1;1;09:50:14:177;1447879811.87;(0.7068671703338623, 0.9331531259748671);31.1595458984;0.840200511354;6;0;0;0;0;();(-2000.0, -2000.0);
09:50:14:282;09:50:14:282;0;9;-1.5;1;0;0;0;0;1;1;1;1;09:50:14:277;1447879811.94;(0, 0);0;0;6;0;0;0;0;();(-2000.0, -2000.0);
09:50:14:299;09:50:14:299;0;5;-1.5;1;0;0;0;0;1;1;1;1;09:50:14:277;1447879811.94;(0, 0);0;0;6;0;0;0;0;();(-2000.0, -2000.0);
09:50:14:315;09:50:14:315;0;10;-1.5;1;0;0;0;0;1;1;1;1;09:50:14:277;1447879811.94;(0, 0);0;0;6;0;0;0;0;();(-2000.0, -2000.0);
09:50:14:332;09:50:14:332;0;15;-1.5;1;0;0;0;0;1;1;1;1;09:50:14:325;1447879812.0;(0.16352229118347167, 0.23962715996636286);18.3286209106;0.807725646228;6;0;0;0;0;();(-2000.0, -2000.0);
09:50:14:365;09:50:14:365;0;0;-1.5;1;0;0;0;0;1;1;1;1;09:50:14:325;1447879812.0;(0.16352229118347167, 0.23962715996636286);18.3286209106;0.807725646228;6;0;0;0;0;();(-2000.0, -2000.0);
09:50:14:382;09:50:14:382;0;10;-1.5;1;0;0;0;0;1;1;1;1;09:50:14:377;1447879812.07;(0, 0);0;0;6;0;0;0;0;();(-2000.0, -2000.0);
09:50:14:398;09:50:14:398;0;15;-1.5;1;0;0;0;0;1;1;1;1;09:50:14:377;1447879812.07;(0, 0);0;0;6;0;0;0;0;();(-2000.0, -2000.0);
09:50:14:415;09:50:14:415;0;0;-1.5;1;0;0;0;0;1;1;1;1;09:50:14:377;1447879812.07;(0, 0);0;0;6;0;0;0;0;();(-2000.0, -2000.0);
09:50:14:448;09:50:14:448;0;5;-1.5;1;0;0;0;0;1;1;1;1;09:50:14:377;1447879812.07;(0, 0);0;0;6;0;0;0;0;();(-2000.0, -2000.0);
09:50:14:464;09:50:14:464;0;0;-1.5;1;0;0;0;0;1;1;1;1;09:50:14:377;1447879812.07;(0, 0);0;0;6;0;0;0;0;();(-2000.0, -2000.0);
09:50:14:481;09:50:14:481;0;10;-1.5;1;0;0;0;0;1;1;1;1;09:50:14:473;1447879812.14;(0, 0);0;0;6;0;0;0;0;();(-2000.0, -2000.0);
09:50:14:498;09:50:14:498;0;15;-1.5;1;0;0;0;0;1;1;1;1;09:50:14:473;1447879812.14;(0, 0);0;0;6;0;0;0;0;();(-2000.0, -2000.0);
09:50:14:514;09:50:14:514;0;4;-1.5;1;0;0;0;0;1;1;1;1;09:50:14:473;1447879812.14;(0, 0);0;0;6;0;0;0;0;();(-2000.0, -2000.0);
09:50:14:548;09:50:14:548;0;5;-1.5;1;0;0;0;0;1;1;1;1;09:50:14:525;1447879812.2;(0.7054582595825195, 0.9348927656809489);30.592250824;0.777546295947;6;0;0;0;0;();(-2000.0, -2000.0);
09:50:14:564;09:50:14:564;0;15;-1.5;1;0;0;0;0;1;1;1;1;09:50:14:525;1447879812.2;(0.7054582595825195, 0.9348927656809489);30.592250824;0.777546295947;6;0;0;0;0;();(-2000.0, -2000.0);
09:50:14:580;09:50:14:580;0;4;-1.5;1;0;0;0;0;1;1;1;1;09:50:14:572;1447879812.27;(0.1652795195579529, 0.24022521972656252);19.5275192261;0.993928309855;6;0;0;0;0;();(-2000.0, -2000.0);
09:50:14:597;09:50:14:597;0;15;-1.5;1;0;0;0;0;1;1;1;1;09:50:14:572;1447879812.27;(0.1652795195579529, 0.24022521972656252);19.5275192261;0.993928309855;6;0;0;0;0;();(-2000.0, -2000.0);
09:50:14:614;09:50:14:614;0;5;-1.5;1;0;0;0;0;1;1;1;1;09:50:14:572;1447879812.27;(0.1652795195579529, 0.24022521972656252);19.5275192261;0.993928309855;6;0;0;0;0;();(-2000.0, -2000.0);
09:50:14:648;09:50:14:648;0;4;-1.5;1;0;0;0;0;1;1;1;1;09:50:14:625;1447879812.34;(0, 0);0;0;6;0;0;0;0;();(-2000.0, -2000.0);
09:50:14:663;09:50:14:663;0;9;-1.5;1;0;0;0;0;1;1;1;1;09:50:14:625;1447879812.34;(0, 0);0;0;6;0;0;0;0;();(-2000.0, -2000.0);
09:50:14:680;09:50:14:680;0;4;-1.5;1;0;0;0;0;1;1;1;1;09:50:14:625;1447879812.34;(0, 0);0;0;6;0;0;0;0;();(-2000.0, -2000.0);
09:50:14:696;09:50:14:696;0;9;-1.5;1;0;0;0;0;1;1;1;1;09:50:14:625;1447879812.34;(0, 0);0;0;6;0;0;0;0;();(-2000.0, -2000.0);
09:50:14:713;09:50:14:713;0;10;-1.5;1;0;0;0;0;1;1;1;1;09:50:14:625;1447879812.34;(0, 0);0;0;6;0;0;0;0;();(-2000.0, -2000.0);
09:50:14:746;09:50:14:746;0;4;-1.5;1;0;0;0;0;1;1;1;1;09:50:14:725;1447879812.4;(0.7500412464141846, 0.8738436804877387);22.4198055267;0.742245259176;6;0;0;0;0;();(-2000.0, -2000.0);
09:50:14:763;09:50:14:763;0;9;-1.5;1;0;0;0;0;1;1;1;1;09:50:14:725;1447879812.4;(0.7500412464141846, 0.8738436804877387);22.4198055267;0.742245259176;6;0;0;0;0;();(-2000.0, -2000.0);
09:50:14:779;09:50:14:779;0;15;-1.5;1;0;0;0;0;1;1;1;1;09:50:14:773;1447879812.47;(0.16380200386047364, 0.24118737114800348);18.0687961578;0.769059956014;6;0;0;0;0;();(-2000.0, -2000.0);
09:50:14:797;09:50:14:797;0;4;-1.5;1;0;0;0;0;1;1;1;1;09:50:14:773;1447879812.47;(0.16380200386047364, 0.24118737114800348);18.0687961578;0.769059956014;6;0;0;0;0;();(-2000.0, -2000.0);
09:50:14:814;09:50:14:813;0;15;-1.5;1;0;0;0;0;1;1;1;1;09:50:14:773;1447879812.47;(0.16380200386047364, 0.24118737114800348);18.0687961578;0.769059956014;6;0;0;0;0;();(-2000.0, -2000.0);
09:50:14:846;09:50:14:845;0;15;-1.5;1;0;0;0;0;1;1;1;1;09:50:14:773;1447879812.47;(0.16380200386047364, 0.24118737114800348);18.0687961578;0.769059956014;6;0;0;0;0;();(-2000.0, -2000.0);
09:50:14:862;09:50:14:862;0;9;-1.5;1;0;0;0;0;1;1;1;1;09:50:14:773;1447879812.47;(0.16380200386047364, 0.24118737114800348);18.0687961578;0.769059956014;6;0;0;0;0;();(-2000.0, -2000.0);
09:50:14:879;09:50:14:879;0;15;-1.5;1;0;0;0;0;1;1;1;1;09:50:14:872;1447879812.54;(0.8174332618713379, 0.90344361199273);32.7170219421;0.602362252333;6;0;0;0;0;();(-2000.0, -2000.0);
09:50:14:895;09:50:14:895;0;10;-1.5;1;0;0;0;0;1;1;1;1;09:50:14:872;1447879812.54;(0.8174332618713379, 0.90344361199273);32.7170219421;0.602362252333;6;0;0;0;0;();(-2000.0, -2000.0);
09:50:14:912;09:50:14:912;0;15;-1.5;1;0;0;0;0;1;1;1;1;09:50:14:872;1447879812.54;(0.8174332618713379, 0.90344361199273);32.7170219421;0.602362252333;6;0;0;0;0;();(-2000.0, -2000.0);
09:50:14:945;09:50:14:945;0;0;-1.5;1;0;0;0;0;1;1;1;1;09:50:14:920;1447879812.6;(0, 0);0;0;6;0;0;0;0;();(-2000.0, -2000.0);
09:50:14:961;09:50:14:961;0;4;-1.5;1;0;0;0;0;1;1;1;1;09:50:14:920;1447879812.6;(0, 0);0;0;6;0;0;0;0;();(-2000.0, -2000.0);
09:50:14:978;09:50:14:978;0;15;-1.5;1;0;0;0;0;1;1;1;1;09:50:14:972;1447879812.67;(0, 0);0;0;6;0;0;0;0;();(-2000.0, -2000.0);
09:50:14:994;09:50:14:994;0;5;-1.5;1;0;0;0;0;1;1;1;1;09:50:14:972;1447879812.67;(0, 0);0;0;6;0;0;0;0;();(-2000.0, -2000.0);
09:50:15:028;09:50:15:028;0;1;-1.5;1;0;0;0;0;1;1;1;1;09:50:14:972;1447879812.67;(0, 0);0;0;6;0;0;0;0;();(-2000.0, -2000.0);
09:50:15:044;09:50:15:044;0;15;-1.5;1;0;0;0;0;1;1;1;1;09:50:14:972;1447879812.67;(0, 0);0;0;6;0;0;0;0;();(-2000.0, -2000.0);
09:50:15:061;09:50:15:061;0;4;-1.5;1;0;0;0;0;1;1;1;1;09:50:14:972;1447879812.67;(0, 0);0;0;6;0;0;0;0;();(-2000.0, -2000.0);
09:50:15:077;09:50:15:077;0;9;-1.5;1;0;0;0;0;1;1;1;1;09:50:15:072;1447879812.74;(0, 0);0;0;6;0;0;0;0;();(-2000.0, -2000.0);
09:50:15:095;09:50:15:095;0;9;-1.5;1;0;0;0;0;1;1;1;1;09:50:15:072;1447879812.74;(0, 0);0;0;6;0;0;0;0;();(-2000.0, -2000.0);
09:50:15:127;09:50:15:127;0;4;-1.5;1;0;0;0;0;1;1;1;1;09:50:15:121;1447879812.8;(0.5372899532318115, 0.9079116185506185);22.8874111176;0.80194762026;6;0;0;0;0;();(-2000.0, -2000.0);
09:50:15:144;09:50:15:144;0;9;-1.5;1;0;0;0;0;1;1;1;1;09:50:15:121;1447879812.8;(0.5372899532318115, 0.9079116185506185);22.8874111176;0.80194762026;6;0;0;0;0;();(-2000.0, -2000.0);
09:50:15:160;09:50:15:160;0;4;-1.5;1;0;0;0;0;1;1;1;1;09:50:15:121;1447879812.8;(0.5372899532318115, 0.9079116185506185);22.8874111176;0.80194762026;6;0;0;0;0;();(-2000.0, -2000.0);
09:50:15:177;09:50:15:176;0;10;-1.5;1;0;0;0;0;1;1;1;1;09:50:15:172;1447879812.87;(0, 0);0;0;6;0;0;0;0;();(-2000.0, -2000.0);
09:50:15:193;09:50:15:193;0;4;-1.5;1;0;0;0;0;1;1;1;1;09:50:15:172;1447879812.87;(0, 0);0;0;6;0;0;0;0;();(-2000.0, -2000.0);
09:50:15:226;09:50:15:226;0;15;-1.5;1;0;0;0;0;1;1;1;1;09:50:15:172;1447879812.87;(0, 0);0;0;6;0;0;0;0;();(-2000.0, -2000.0);
09:50:15:243;09:50:15:243;0;9;-1.5;1;0;0;0;0;1;1;1;1;09:50:15:172;1447879812.87;(0, 0);0;0;6;0;0;0;0;();(-2000.0, -2000.0);
09:50:15:260;09:50:15:260;0;5;-1.5;1;0;0;0;0;1;1;1;1;09:50:15:172;1447879812.87;(0, 0);0;0;6;0;0;0;0;();(-2000.0, -2000.0);
09:50:15:277;09:50:15:277;0;10;-1.5;1;0;0;0;0;1;1;1;1;09:50:15:272;1447879812.94;(0, 0);0;0;6;0;0;0;0;();(-2000.0, -2000.0);
09:50:15:293;09:50:15:293;0;15;-1.5;1;0;0;0;0;1;1;1;1;09:50:15:272;1447879812.94;(0, 0);0;0;6;0;0;0;0;();(-2000.0, -2000.0);
09:50:15:326;09:50:15:326;0;0;-1.5;1;0;0;0;0;1;1;1;1;09:50:15:272;1447879812.94;(0, 0);0;0;6;0;0;0;0;();(-2000.0, -2000.0);
09:50:15:342;09:50:15:342;0;10;-1.5;1;0;0;0;0;1;1;1;1;09:50:15:272;1447879812.94;(0, 0);0;0;6;0;0;0;0;();(-2000.0, -2000.0);
09:50:15:359;09:50:15:359;0;15;-1.5;1;0;0;0;0;1;1;1;1;09:50:15:272;1447879812.94;(0, 0);0;0;6;0;0;0;0;();(-2000.0, -2000.0);
09:50:15:376;09:50:15:375;0;4;-1.5;1;0;0;0;0;1;1;1;1;09:50:15:368;1447879813.0;(0, 0);0;0;6;0;0;0;0;();(-2000.0, -2000.0);
09:50:15:392;09:50:15:392;0;15;-1.5;1;0;0;0;0;1;1;1;1;09:50:15:368;1447879813.0;(0, 0);0;0;6;0;0;0;0;();(-2000.0, -2000.0);
09:50:15:425;09:50:15:425;0;0;-1.5;1;0;0;0;0;1;1;1;1;09:50:15:420;1447879813.07;(0.7514034271240234, 0.8700468487209744);18.7610855103;0.629296384668;6;0;0;0;0;();(-2000.0, -2000.0);
09:50:15:442;09:50:15:442;0;4;-1.5;1;0;0;0;0;1;1;1;1;09:50:15:420;1447879813.07;(0.7514034271240234, 0.8700468487209744);18.7610855103;0.629296384668;6;0;0;0;0;();(-2000.0, -2000.0);
09:50:15:459;09:50:15:458;0;15;-1.5;1;0;0;0;0;1;1;1;1;09:50:15:420;1447879813.07;(0.7514034271240234, 0.8700468487209744);18.7610855103;0.629296384668;6;0;0;0;0;();(-2000.0, -2000.0);
09:50:15:475;09:50:15:475;0;4;-1.5;1;0;0;0;0;1;1;1;1;09:50:15:469;1447879813.14;(0.0381445586681366, 0.13291219075520833);18.1704998016;0.690564145099;6;0;0;0;0;();(-2000.0, -2000.0);
09:50:15:492;09:50:15:492;0;0;-1.5;1;0;0;0;0;1;1;1;1;09:50:15:469;1447879813.14;(0.0381445586681366, 0.13291219075520833);18.1704998016;0.690564145099;6;0;0;0;0;();(-2000.0, -2000.0);
09:50:15:525;09:50:15:525;0;10;-1.5;1;0;0;0;0;1;1;1;1;09:50:15:520;1447879813.2;(0.7050961017608642, 0.9306119283040365);29.7962265015;0.864064168331;6;0;0;0;0;();(-2000.0, -2000.0);
09:50:15:542;09:50:15:542;0;4;-1.5;1;0;0;0;0;1;1;1;1;09:50:15:520;1447879813.2;(0.7050961017608642, 0.9306119283040365);29.7962265015;0.864064168331;6;0;0;0;0;();(-2000.0, -2000.0);
09:50:15:558;09:50:15:558;0;9;-1.5;1;0;0;0;0;1;1;1;1;09:50:15:520;1447879813.2;(0.7050961017608642, 0.9306119283040365);29.7962265015;0.864064168331;6;0;0;0;0;();(-2000.0, -2000.0);
09:50:15:575;09:50:15:575;0;5;-1.5;1;0;0;0;0;1;1;1;1;09:50:15:569;1447879813.27;(0.7498218536376953, 0.8891512235005696);18.9262771606;0.703182123483;6;0;0;0;0;();(-2000.0, -2000.0);
09:50:15:608;09:50:15:608;0;15;-1.5;1;0;0;0;0;1;1;1;1;09:50:15:569;1447879813.27;(0.7498218536376953, 0.8891512235005696);18.9262771606;0.703182123483;6;0;0;0;0;();(-2000.0, -2000.0);
09:50:15:624;09:50:15:624;0;9;-1.5;1;0;0;0;0;1;1;1;1;09:50:15:569;1447879813.27;(0.7498218536376953, 0.8891512235005696);18.9262771606;0.703182123483;6;0;0;0;0;();(-2000.0, -2000.0);
09:50:15:641;09:50:15:641;0;5;-1.5;1;0;0;0;0;1;1;1;1;09:50:15:569;1447879813.27;(0.7498218536376953, 0.8891512235005696);18.9262771606;0.703182123483;6;0;0;0;0;();(-2000.0, -2000.0);
09:50:15:657;09:50:15:657;0;10;-1.5;1;0;0;0;0;1;1;1;1;09:50:15:569;1447879813.27;(0.7498218536376953, 0.8891512235005696);18.9262771606;0.703182123483;6;0;0;0;0;();(-2000.0, -2000.0);
09:50:15:674;09:50:15:674;0;5;-1.5;1;0;0;0;0;1;1;1;1;09:50:15:668;1447879813.34;(0, 0);0;0;6;0;0;0;0;();(-2000.0, -2000.0);
09:50:15:707;09:50:15:707;0;4;-1.5;1;0;0;0;0;1;1;1;1;09:50:15:668;1447879813.34;(0, 0);0;0;6;0;0;0;0;();(-2000.0, -2000.0);
09:50:15:724;09:50:15:723;0;9;-1.5;1;0;0;0;0;1;1;1;1;09:50:15:720;1447879813.4;(0, 0);0;0;6;0;0;0;0;();(-2000.0, -2000.0);
09:50:15:740;09:50:15:740;0;0;-1.5;1;0;0;0;0;1;1;1;1;09:50:15:720;1447879813.4;(0, 0);0;0;6;0;0;0;0;();(-2000.0, -2000.0);
09:50:15:757;09:50:15:757;0;10;-1.5;1;0;0;0;0;1;1;1;1;09:50:15:720;1447879813.4;(0, 0);0;0;6;0;0;0;0;();(-2000.0, -2000.0);
09:50:15:773;09:50:15:773;0;15;-1.5;1;0;0;0;0;1;1;1;1;09:50:15:768;1447879813.47;(0, 0);0;0;6;0;0;0;0;();(-2000.0, -2000.0);
09:50:15:806;09:50:15:806;0;15;-1.5;1;0;0;0;0;1;1;1;1;09:50:15:768;1447879813.47;(0, 0);0;0;6;0;0;0;0;();(-2000.0, -2000.0);
09:50:15:823;09:50:15:823;0;10;-1.5;1;0;0;0;0;1;1;1;1;09:50:15:768;1447879813.47;(0, 0);0;0;6;0;0;0;0;();(-2000.0, -2000.0);
09:50:15:840;09:50:15:840;0;15;-1.5;1;0;0;0;0;1;1;1;1;09:50:15:768;1447879813.47;(0, 0);0;0;6;0;0;0;0;();(-2000.0, -2000.0);
09:50:15:857;09:50:15:857;0;9;-1.5;1;0;0;0;0;1;1;1;1;09:50:15:768;1447879813.47;(0, 0);0;0;6;0;0;0;0;();(-2000.0, -2000.0);
09:50:15:873;09:50:15:873;0;15;-1.5;1;0;0;0;0;1;1;1;1;09:50:15:869;1447879813.54;(0.270990252494812, 0.06966908772786462);27.7894096375;0.600494598484;6;0;0;0;0;();(-2000.0, -2000.0);
09:50:15:906;09:50:15:906;0;0;-1.5;1;0;0;0;0;1;1;1;1;09:50:15:869;1447879813.54;(0.270990252494812, 0.06966908772786462);27.7894096375;0.600494598484;6;0;0;0;0;();(-2000.0, -2000.0);
09:50:15:923;09:50:15:923;0;4;-1.5;1;0;0;0;0;1;1;1;1;09:50:15:916;1447879813.6;(0.7555972099304199, 0.8693975554572211);27.548368454;0.691835325402;6;0;0;0;0;();(-2000.0, -2000.0);
09:50:15:940;09:50:15:940;0;9;-1.5;1;0;0;0;0;1;1;1;1;09:50:15:916;1447879813.6;(0.7555972099304199, 0.8693975554572211);27.548368454;0.691835325402;6;0;0;0;0;();(-2000.0, -2000.0);
09:50:15:956;09:50:15:956;0;4;-1.5;1;0;0;0;0;1;1;1;1;09:50:15:916;1447879813.6;(0.7555972099304199, 0.8693975554572211);27.548368454;0.691835325402;6;0;0;0;0;();(-2000.0, -2000.0);
09:50:15:973;09:50:15:973;0;10;-1.5;1;0;0;0;0;1;1;1;1;09:50:15:968;1447879813.67;(0, 0);0;0;6;0;0;0;0;();(-2000.0, -2000.0);
09:50:16:005;09:50:16:005;0;10;-1.5;1;0;0;0;0;1;1;1;1;09:50:15:968;1447879813.67;(0, 0);0;0;6;0;0;0;0;();(-2000.0, -2000.0);
09:50:16:022;09:50:16:022;0;4;-1.5;1;0;0;0;0;1;1;1;1;09:50:15:968;1447879813.67;(0, 0);0;0;6;0;0;0;0;();(-2000.0, -2000.0);
09:50:16:038;09:50:16:038;0;9;-1.5;1;0;0;0;0;1;1;1;1;09:50:15:968;1447879813.67;(0, 0);0;0;6;0;0;0;0;();(-2000.0, -2000.0);
09:50:16:055;09:50:16:055;0;5;-1.5;1;0;0;0;0;1;1;1;1;09:50:15:968;1447879813.67;(0, 0);0;0;6;0;0;0;0;();(-2000.0, -2000.0);
