%Timestamp,timestamp_write;timestamp_gotbitdata;CRC;SEQ;AnalogOutp1;AnalogOutp2;AnalogOutp3;AnalogOutp4;AnalogOutp5;AnalogOutp6;DigitalOutp1;DigitalOutp2;igitalOutp3;DigitalOutp4;nplanes;lastaction;lastactiondetails;positivescore;negativescore;targetpositions;collision_point
03:29:54:989;2;0;0;0;0;();(0.0, 0.0);
03:29:55:028;2;0;0;0;0;();(-2000.0, -2000.0);
03:29:55:149;2;0;0;0;0;();(-2000.0, -2000.0);
03:29:55:173;2;0;0;0;0;();(-2000.0, -2000.0);
03:29:55:191;2;0;0;0;0;();(-2000.0, -2000.0);
03:29:55:207;2;0;0;0;0;();(-2000.0, -2000.0);
03:29:55:224;2;0;0;0;0;();(-2000.0, -2000.0);
03:29:55:471;2;0;0;0;0;();(-2000.0, -2000.0);
03:29:55:481;2;0;0;0;0;();(-2000.0, -2000.0);
03:29:55:491;2;0;0;0;0;();(-2000.0, -2000.0);
03:29:55:500;2;0;0;0;0;();(-2000.0, -2000.0);
03:29:55:510;2;0;0;0;0;();(-2000.0, -2000.0);
03:29:55:517;2;0;0;0;0;();(-2000.0, -2000.0);
03:29:55:526;2;0;0;0;0;();(-2000.0, -2000.0);
03:29:55:534;2;0;0;0;0;();(-2000.0, -2000.0);
03:29:55:542;2;0;0;0;0;();(-2000.0, -2000.0);
03:29:55:550;2;0;0;0;0;();(-2000.0, -2000.0);
03:29:55:559;2;0;0;0;0;();(-2000.0, -2000.0);
03:29:55:567;2;0;0;0;0;();(-2000.0, -2000.0);
03:29:55:575;2;0;0;0;0;();(-2000.0, -2000.0);
03:29:55:584;2;0;0;0;0;();(-2000.0, -2000.0);
03:29:55:591;2;0;0;0;0;();(-2000.0, -2000.0);
03:29:55:600;2;0;0;0;0;();(-2000.0, -2000.0);
03:29:55:607;2;0;0;0;0;();(-2000.0, -2000.0);
03:29:55:619;2;0;0;0;0;();(-2000.0, -2000.0);
03:29:55:626;2;0;0;0;0;();(-2000.0, -2000.0);
03:29:55:634;2;0;0;0;0;();(-2000.0, -2000.0);
03:29:55:641;2;0;0;0;0;();(-2000.0, -2000.0);
03:29:55:647;2;0;0;0;0;();(-2000.0, -2000.0);
03:29:55:654;2;0;0;0;0;();(-2000.0, -2000.0);
03:29:55:660;2;0;0;0;0;();(-2000.0, -2000.0);
03:29:57:536;2;0;0;0;0;();(-2000.0, -2000.0);
03:29:57:551;2;0;0;0;0;();(-2000.0, -2000.0);
03:29:57:567;2;0;0;0;0;();(-2000.0, -2000.0);
03:29:57:583;2;0;0;0;0;();(-2000.0, -2000.0);
03:29:57:598;2;0;0;0;0;();(-2000.0, -2000.0);
03:29:57:605;2;0;0;0;0;();(-2000.0, -2000.0);
03:29:57:614;2;0;0;0;0;();(-2000.0, -2000.0);
03:29:57:622;2;0;0;0;0;();(-2000.0, -2000.0);
03:29:57:630;2;0;0;0;0;();(-2000.0, -2000.0);
03:29:57:638;2;0;0;0;0;();(-2000.0, -2000.0);
03:29:57:645;2;0;0;0;0;();(-2000.0, -2000.0);
03:29:57:651;2;0;0;0;0;();(-2000.0, -2000.0);
03:29:57:657;2;0;0;0;0;();(-2000.0, -2000.0);
03:29:57:664;2;0;0;0;0;();(-2000.0, -2000.0);
03:29:57:670;2;0;0;0;0;();(-2000.0, -2000.0);
03:29:57:677;2;0;0;0;0;();(-2000.0, -2000.0);
03:29:57:683;2;0;0;0;0;();(-2000.0, -2000.0);
03:29:57:693;2;0;0;0;0;();(-2000.0, -2000.0);
03:29:57:702;2;0;0;0;0;();(-2000.0, -2000.0);
03:29:57:712;2;0;0;0;0;();(-2000.0, -2000.0);
03:29:57:720;2;0;0;0;0;();(-2000.0, -2000.0);
03:29:57:729;2;0;0;0;0;();(-2000.0, -2000.0);
03:29:57:738;2;0;0;0;0;();(-2000.0, -2000.0);
03:29:57:746;2;0;0;0;0;();(-2000.0, -2000.0);
03:29:57:754;2;0;0;0;0;();(-2000.0, -2000.0);
03:29:57:764;2;0;0;0;0;();(-2000.0, -2000.0);
03:29:57:773;2;0;0;0;0;();(-2000.0, -2000.0);
03:29:57:782;2;0;0;0;0;();(-2000.0, -2000.0);
03:29:57:795;2;0;0;0;0;();(-2000.0, -2000.0);
03:29:57:804;2;0;0;0;0;();(-2000.0, -2000.0);
03:29:57:817;2;0;0;0;0;();(-2000.0, -2000.0);
03:29:57:834;2;0;0;0;0;();(-2000.0, -2000.0);
03:29:57:849;2;0;0;0;0;();(-2000.0, -2000.0);
03:29:57:866;2;0;0;0;0;();(-2000.0, -2000.0);
03:29:57:903;2;0;0;0;0;();(-2000.0, -2000.0);
03:29:57:926;2;0;0;0;0;();(-2000.0, -2000.0);
03:29:57:945;2;0;0;0;0;();(-2000.0, -2000.0);
03:29:57:960;2;0;0;0;0;();(-2000.0, -2000.0);
03:29:57:979;2;0;0;0;0;();(-2000.0, -2000.0);
03:29:58:018;2;0;0;0;0;();(-2000.0, -2000.0);
03:29:58:027;2;0;0;0;0;();(-2000.0, -2000.0);
03:29:58:037;2;0;0;0;0;();(-2000.0, -2000.0);
03:29:58:058;2;0;0;0;0;();(-2000.0, -2000.0);
03:29:58:075;2;0;0;0;0;();(-2000.0, -2000.0);
03:29:58:090;2;0;0;0;0;();(-2000.0, -2000.0);
03:29:58:108;2;0;0;0;0;();(-2000.0, -2000.0);
03:29:58:140;2;0;0;0;0;();(-2000.0, -2000.0);
03:29:58:159;2;0;0;0;0;();(-2000.0, -2000.0);
03:29:58:173;2;0;0;0;0;();(-2000.0, -2000.0);
03:29:58:191;2;0;0;0;0;();(-2000.0, -2000.0);
03:29:58:221;2;0;0;0;0;();(-2000.0, -2000.0);
03:29:58:246;2;0;0;0;0;();(-2000.0, -2000.0);
03:29:58:263;2;0;0;0;0;();(-2000.0, -2000.0);
03:29:58:280;2;0;0;0;0;();(-2000.0, -2000.0);
03:29:58:846;03:29:58:842;0;5;-1.5;1;0;0;0;0;1;1;1;1;2;0;0;0;0;();(-2000.0, -2000.0);
03:29:58:859;03:29:58:858;0;15;-1.5;1;0;0;0;0;1;1;1;1;2;0;0;0;0;();(-2000.0, -2000.0);
03:29:58:869;03:29:58:868;0;9;-1.5;1;0;0;0;0;1;1;1;1;2;0;0;0;0;();(-2000.0, -2000.0);
03:29:58:879;03:29:58:878;0;4;-1.5;1;0;0;0;0;1;1;1;1;2;0;0;0;0;();(-2000.0, -2000.0);
03:29:58:892;03:29:58:889;0;9;-1.5;1;0;0;0;0;1;1;1;1;2;0;0;0;0;();(-2000.0, -2000.0);
03:29:58:903;03:29:58:901;0;9;-1.5;1;0;0;0;0;1;1;1;1;2;0;0;0;0;();(-2000.0, -2000.0);
03:29:58:913;03:29:58:911;0;15;-1.5;1;0;0;0;0;1;1;1;1;2;0;0;0;0;();(-2000.0, -2000.0);
03:29:58:924;03:29:58:923;0;10;-1.5;1;0;0;0;0;1;1;1;1;2;0;0;0;0;();(-2000.0, -2000.0);
03:29:58:937;03:29:58:935;0;10;-1.5;1;0;0;0;0;1;1;1;1;2;0;0;0;0;();(-2000.0, -2000.0);
03:29:58:949;03:29:58:948;0;15;-1.5;1;0;0;0;0;1;1;1;1;2;0;0;0;0;();(-2000.0, -2000.0);
03:29:58:961;03:29:58:960;0;9;-1.5;1;0;0;0;0;1;1;1;1;2;0;0;0;0;();(-2000.0, -2000.0);
03:29:58:974;03:29:58:973;0;4;-1.5;1;0;0;0;0;1;1;1;1;2;0;0;0;0;();(-2000.0, -2000.0);
03:29:58:984;03:29:58:983;0;4;-1.5;1;0;0;0;0;1;1;1;1;2;0;0;0;0;();(-2000.0, -2000.0);
03:29:58:994;03:29:58:993;0;9;-1.5;1;0;0;0;0;1;1;1;1;2;0;0;0;0;();(-2000.0, -2000.0);
03:29:59:004;03:29:59:003;0;4;-1.5;1;0;0;0;0;1;1;1;1;2;0;0;0;0;();(-2000.0, -2000.0);
03:29:59:014;03:29:59:014;0;15;-1.5;1;0;0;0;0;1;1;1;1;2;0;0;0;0;();(-2000.0, -2000.0);
03:29:59:025;03:29:59:024;0;10;-1.5;1;0;0;0;0;1;1;1;1;2;0;0;0;0;();(-2000.0, -2000.0);
03:29:59:035;03:29:59:034;0;4;-1.5;1;0;0;0;0;1;1;1;1;2;0;0;0;0;();(-2000.0, -2000.0);
03:29:59:047;03:29:59:045;0;15;-1.5;1;0;0;0;0;1;1;1;1;2;0;0;0;0;();(-2000.0, -2000.0);
03:29:59:055;03:29:59:054;0;9;-1.5;1;0;0;0;0;1;1;1;1;2;0;0;0;0;();(-2000.0, -2000.0);
03:29:59:063;03:29:59:062;0;9;-1.5;1;0;0;0;0;1;1;1;1;2;0;0;0;0;();(-2000.0, -2000.0);
03:29:59:070;03:29:59:069;0;5;-1.5;1;0;0;0;0;1;1;1;1;2;0;0;0;0;();(-2000.0, -2000.0);
03:29:59:078;03:29:59:077;0;15;-1.5;1;0;0;0;0;1;1;1;1;2;0;0;0;0;();(-2000.0, -2000.0);
03:29:59:085;03:29:59:084;0;2;-1.5;1;0;0;0;0;1;1;1;1;2;0;0;0;0;();(-2000.0, -2000.0);
03:29:59:093;03:29:59:092;0;9;-1.5;1;0;0;0;0;1;1;1;1;2;0;0;0;0;();(-2000.0, -2000.0);
03:29:59:100;03:29:59:100;0;4;-1.5;1;0;0;0;0;1;1;1;1;2;0;0;0;0;();(-2000.0, -2000.0);
03:29:59:108;03:29:59:107;0;4;-1.5;1;0;0;0;0;1;1;1;1;2;0;0;0;0;();(-2000.0, -2000.0);
03:29:59:121;03:29:59:119;0;10;-1.5;1;0;0;0;0;1;1;1;1;2;0;0;0;0;();(-2000.0, -2000.0);
03:29:59:135;03:29:59:134;0;4;-1.5;1;0;0;0;0;1;1;1;1;2;0;0;0;0;();(-2000.0, -2000.0);
03:29:59:144;03:29:59:143;0;0;-1.5;1;0;0;0;0;1;1;1;1;2;0;0;0;0;();(-2000.0, -2000.0);
03:29:59:152;03:29:59:151;0;9;-1.5;1;0;0;0;0;1;1;1;1;2;0;0;0;0;();(-2000.0, -2000.0);
03:29:59:189;03:29:59:188;0;10;-1.5;1;0;0;0;0;1;1;1;1;2;0;0;0;0;();(-2000.0, -2000.0);
03:29:59:203;03:29:59:201;0;15;-1.5;1;0;0;0;0;1;1;1;1;2;0;0;0;0;();(-2000.0, -2000.0);
03:29:59:214;03:29:59:213;0;15;-1.5;1;0;0;0;0;1;1;1;1;2;0;0;0;0;();(-2000.0, -2000.0);
03:29:59:226;03:29:59:225;0;4;-1.5;1;0;0;0;0;1;1;1;1;2;0;0;0;0;();(-2000.0, -2000.0);
03:29:59:240;03:29:59:238;0;15;-1.5;1;0;0;0;0;1;1;1;1;2;0;0;0;0;();(-2000.0, -2000.0);
03:29:59:251;03:29:59:249;0;10;-1.5;1;0;0;0;0;1;1;1;1;2;0;0;0;0;();(-2000.0, -2000.0);
03:29:59:269;03:29:59:268;0;15;-1.5;1;0;0;0;0;1;1;1;1;2;0;0;0;0;();(-2000.0, -2000.0);
03:29:59:286;03:29:59:284;0;9;-1.5;1;0;0;0;0;1;1;1;1;2;0;0;0;0;();(-2000.0, -2000.0);
03:29:59:304;03:29:59:302;0;15;-1.5;1;0;0;0;0;1;1;1;1;2;0;0;0;0;();(-2000.0, -2000.0);
03:29:59:320;03:29:59:319;0;5;-1.5;1;0;0;0;0;1;1;1;1;2;0;0;0;0;();(-2000.0, -2000.0);
03:29:59:337;03:29:59:336;0;15;-1.5;1;0;0;0;0;1;1;1;1;2;0;0;0;0;();(-2000.0, -2000.0);
03:29:59:372;03:29:59:371;0;15;-1.5;1;0;0;0;0;1;1;1;1;2;0;0;0;0;();(-2000.0, -2000.0);
03:29:59:390;03:29:59:387;0;4;-1.5;1;0;0;0;0;1;1;1;1;2;0;0;0;0;();(-2000.0, -2000.0);
03:29:59:407;03:29:59:406;0;15;-1.5;1;0;0;0;0;1;1;1;1;2;0;0;0;0;();(-2000.0, -2000.0);
03:29:59:426;03:29:59:425;0;5;-1.5;1;0;0;0;0;1;1;1;1;2;0;0;0;0;();(-2000.0, -2000.0);
03:29:59:441;03:29:59:440;0;9;-1.5;1;0;0;0;0;1;1;1;1;2;0;0;0;0;();(-2000.0, -2000.0);
03:29:59:458;03:29:59:457;0;15;-1.5;1;0;0;0;0;1;1;1;1;2;0;0;0;0;();(-2000.0, -2000.0);
03:29:59:494;03:29:59:491;0;5;-1.5;1;0;0;0;0;1;1;1;1;2;0;0;0;0;();(-2000.0, -2000.0);
03:29:59:512;03:29:59:511;0;10;-1.5;1;0;0;0;0;1;1;1;1;2;0;0;0;0;();(-2000.0, -2000.0);
03:29:59:531;03:29:59:529;0;15;-1.5;1;0;0;0;0;1;1;1;1;2;0;0;0;0;();(-2000.0, -2000.0);
03:29:59:547;03:29:59:546;0;10;-1.5;1;0;0;0;0;1;1;1;1;2;0;0;0;0;();(-2000.0, -2000.0);
03:29:59:564;03:29:59:563;0;0;-1.5;1;0;0;0;0;1;1;1;1;2;0;0;0;0;();(-2000.0, -2000.0);
03:29:59:581;03:29:59:579;0;5;-1.5;1;0;0;0;0;1;1;1;1;2;0;0;0;0;();(-2000.0, -2000.0);
03:29:59:598;03:29:59:597;0;9;-1.5;1;0;0;0;0;1;1;1;1;2;0;0;0;0;();(-2000.0, -2000.0);
03:29:59:619;03:29:59:616;0;0;-1.5;1;0;0;0;0;1;1;1;1;2;0;0;0;0;();(-2000.0, -2000.0);
03:29:59:640;03:29:59:637;0;5;-1.5;1;0;0;0;0;1;1;1;1;2;0;0;0;0;();(-2000.0, -2000.0);
03:29:59:658;03:29:59:657;0;15;-1.5;1;0;0;0;0;1;1;1;1;2;0;0;0;0;();(-2000.0, -2000.0);
03:29:59:694;03:29:59:691;0;9;-1.5;1;0;0;0;0;1;1;1;1;2;0;0;0;0;();(-2000.0, -2000.0);
03:29:59:714;03:29:59:712;0;0;-1.5;1;0;0;0;0;1;1;1;1;2;0;0;0;0;();(-2000.0, -2000.0);
03:29:59:731;03:29:59:728;0;10;-1.5;1;0;0;0;0;1;1;1;1;2;0;0;0;0;();(-2000.0, -2000.0);
03:29:59:748;03:29:59:747;0;4;-1.5;1;0;0;0;0;1;1;1;1;2;0;0;0;0;();(-2000.0, -2000.0);
03:29:59:768;03:29:59:765;0;9;-1.5;1;0;0;0;0;1;1;1;1;2;0;0;0;0;();(-2000.0, -2000.0);
03:29:59:786;03:29:59:785;0;14;-1.5;1;0;0;0;0;1;1;1;1;2;0;0;0;0;();(-2000.0, -2000.0);
03:29:59:803;03:29:59:802;0;4;-1.5;1;0;0;0;0;1;1;1;1;2;0;0;0;0;();(-2000.0, -2000.0);
03:29:59:822;03:29:59:820;0;15;-1.5;1;0;0;0;0;1;1;1;1;2;0;0;0;0;();(-2000.0, -2000.0);
03:29:59:840;03:29:59:839;0;4;-1.5;1;0;0;0;0;1;1;1;1;2;0;0;0;0;();(-2000.0, -2000.0);
03:29:59:860;03:29:59:858;0;10;-1.5;1;0;0;0;0;1;1;1;1;2;0;0;0;0;();(-2000.0, -2000.0);
03:29:59:878;03:29:59:876;0;0;-1.5;1;0;0;0;0;1;1;1;1;2;0;0;0;0;();(-2000.0, -2000.0);
03:29:59:899;03:29:59:896;0;0;-1.5;1;0;0;0;0;1;1;1;1;2;0;0;0;0;();(-2000.0, -2000.0);
03:29:59:917;03:29:59:915;0;9;-1.5;1;0;0;0;0;1;1;1;1;2;0;0;0;0;();(-2000.0, -2000.0);
03:29:59:954;03:29:59:951;0;9;-1.5;1;0;0;0;0;1;1;1;1;2;0;0;0;0;();(-2000.0, -2000.0);
03:29:59:972;03:29:59:970;0;15;-1.5;1;0;0;0;0;1;1;1;1;2;0;0;0;0;();(-2000.0, -2000.0);
03:29:59:990;03:29:59:989;0;10;-1.5;1;0;0;0;0;1;1;1;1;2;0;0;0;0;();(-2000.0, -2000.0);
03:30:00:008;03:30:00:006;0;15;-1.5;1;0;0;0;0;1;1;1;1;2;0;0;0;0;();(-2000.0, -2000.0);
03:30:00:025;03:30:00:024;0;10;-1.5;1;0;0;0;0;1;1;1;1;2;0;0;0;0;();(-2000.0, -2000.0);
03:30:00:043;03:30:00:041;0;0;-1.5;1;0;0;0;0;1;1;1;1;2;0;0;0;0;();(-2000.0, -2000.0);
03:30:00:061;03:30:00:059;0;4;-1.5;1;0;0;0;0;1;1;1;1;2;0;0;0;0;();(-2000.0, -2000.0);
03:30:00:080;03:30:00:077;0;4;-1.5;1;0;0;0;0;1;1;1;1;2;0;0;0;0;();(-2000.0, -2000.0);
03:30:00:102;03:30:00:099;0;0;-1.5;1;0;0;0;0;1;1;1;1;2;0;0;0;0;();(-2000.0, -2000.0);
03:30:00:118;03:30:00:116;0;10;-1.5;1;0;0;0;0;1;1;1;1;2;0;0;0;0;();(-2000.0, -2000.0);
03:30:00:152;03:30:00:150;0;4;-1.5;1;0;0;0;0;1;1;1;1;2;0;0;0;0;();(-2000.0, -2000.0);
03:30:00:169;03:30:00:167;0;15;-1.5;1;0;0;0;0;1;1;1;1;2;0;0;0;0;();(-2000.0, -2000.0);
03:30:00:186;03:30:00:185;0;5;-1.5;1;0;0;0;0;1;1;1;1;2;0;0;0;0;();(-2000.0, -2000.0);
03:30:00:205;03:30:00:203;0;10;-1.5;1;0;0;0;0;1;1;1;1;2;0;0;0;0;();(-2000.0, -2000.0);
03:30:00:223;03:30:00:221;0;4;-1.5;1;0;0;0;0;1;1;1;1;2;0;0;0;0;();(-2000.0, -2000.0);
03:30:00:239;03:30:00:238;0;8;-1.5;1;0;0;0;0;1;1;1;1;2;0;0;0;0;();(-2000.0, -2000.0);
03:30:00:256;03:30:00:254;0;4;-1.5;1;0;0;0;0;1;1;1;1;2;0;0;0;0;();(-2000.0, -2000.0);
03:30:00:291;03:30:00:288;0;5;-1.5;1;0;0;0;0;1;1;1;1;2;0;0;0;0;();(-2000.0, -2000.0);
03:30:00:311;03:30:00:308;0;10;-1.5;1;0;0;0;0;1;1;1;1;2;0;0;0;0;();(-2000.0, -2000.0);
03:30:00:338;03:30:00:336;0;10;-1.5;1;0;0;0;0;1;1;1;1;2;0;0;0;0;();(-2000.0, -2000.0);
03:30:00:353;03:30:00:352;0;5;-1.5;1;0;0;0;0;1;1;1;1;2;0;0;0;0;();(-2000.0, -2000.0);
03:30:00:365;03:30:00:364;0;15;-1.5;1;0;0;0;0;1;1;1;1;2;0;0;0;0;();(-2000.0, -2000.0);
03:30:00:384;03:30:00:382;0;4;-1.5;1;0;0;0;0;1;1;1;1;2;0;0;0;0;();(-2000.0, -2000.0);
03:30:00:403;03:30:00:400;0;10;-1.5;1;0;0;0;0;1;1;1;1;2;0;0;0;0;();(-2000.0, -2000.0);
03:30:00:424;03:30:00:422;0;0;-1.5;1;0;0;0;0;1;1;1;1;2;0;0;0;0;();(-2000.0, -2000.0);
03:30:00:440;03:30:00:438;0;4;-1.5;1;0;0;0;0;1;1;1;1;2;0;0;0;0;();(-2000.0, -2000.0);
03:30:00:456;03:30:00:454;0;2;-1.5;1;0;0;0;0;1;1;1;1;2;0;0;0;0;();(-2000.0, -2000.0);
03:30:00:491;03:30:00:489;0;15;-1.5;1;0;0;0;0;1;1;1;1;2;0;0;0;0;();(-2000.0, -2000.0);
03:30:00:510;03:30:00:508;0;5;-1.5;1;0;0;0;0;1;1;1;1;2;0;0;0;0;();(-2000.0, -2000.0);
03:30:00:527;03:30:00:525;0;15;-1.5;1;0;0;0;0;1;1;1;1;2;0;0;0;0;();(-2000.0, -2000.0);
03:30:00:548;03:30:00:546;0;11;-1.5;1;0;0;0;0;1;1;1;1;2;0;0;0;0;();(-2000.0, -2000.0);
03:30:00:567;03:30:00:565;0;9;-1.5;1;0;0;0;0;1;1;1;1;2;0;0;0;0;();(-2000.0, -2000.0);
03:30:00:585;03:30:00:583;0;15;-1.5;1;0;0;0;0;1;1;1;1;2;0;0;0;0;();(-2000.0, -2000.0);
03:30:00:603;03:30:00:601;0;4;-1.5;1;0;0;0;0;1;1;1;1;2;0;0;0;0;();(-2000.0, -2000.0);
03:30:00:623;03:30:00:621;0;15;-1.5;1;0;0;0;0;1;1;1;1;2;0;0;0;0;();(-2000.0, -2000.0);
03:30:00:641;03:30:00:639;0;4;-1.5;1;0;0;0;0;1;1;1;1;2;0;0;0;0;();(-2000.0, -2000.0);
03:30:00:661;03:30:00:658;0;10;-1.5;1;0;0;0;0;1;1;1;1;2;0;0;0;0;();(-2000.0, -2000.0);
03:30:00:680;03:30:00:678;0;0;-1.5;1;0;0;0;0;1;1;1;1;2;0;0;0;0;();(-2000.0, -2000.0);
03:30:00:700;03:30:00:698;0;5;-1.5;1;0;0;0;0;1;1;1;1;2;0;0;0;0;();(-2000.0, -2000.0);
03:30:00:718;03:30:00:716;0;9;-1.5;1;0;0;0;0;1;1;1;1;2;0;0;0;0;();(-2000.0, -2000.0);
03:30:00:753;03:30:00:751;0;9;-1.5;1;0;0;0;0;1;1;1;1;2;0;0;0;0;();(-2000.0, -2000.0);
03:30:00:773;03:30:00:771;0;15;-1.5;1;0;0;0;0;1;1;1;1;2;0;0;0;0;();(-2000.0, -2000.0);
03:30:00:791;03:30:00:790;0;10;-1.5;1;0;0;0;0;1;1;1;1;2;0;0;0;0;();(-2000.0, -2000.0);
03:30:00:811;03:30:00:808;0;15;-1.5;1;0;0;0;0;1;1;1;1;2;0;0;0;0;();(-2000.0, -2000.0);
03:30:00:829;03:30:00:828;0;5;-1.5;1;0;0;0;0;1;1;1;1;2;0;0;0;0;();(-2000.0, -2000.0);
03:30:00:849;03:30:00:847;0;9;-1.5;1;0;0;0;0;1;1;1;1;2;0;0;0;0;();(-2000.0, -2000.0);
03:30:00:867;03:30:00:864;0;4;-1.5;1;0;0;0;0;1;1;1;1;2;0;0;0;0;();(-2000.0, -2000.0);
03:30:00:887;03:30:00:884;0;10;-1.5;1;0;0;0;0;1;1;1;1;2;0;0;0;0;();(-2000.0, -2000.0);
03:30:00:905;03:30:00:903;0;0;-1.5;1;0;0;0;0;1;1;1;1;2;0;0;0;0;();(-2000.0, -2000.0);
03:30:00:925;03:30:00:923;0;5;-1.5;1;0;0;0;0;1;1;1;1;2;0;0;0;0;();(-2000.0, -2000.0);
03:30:00:944;03:30:00:941;0;10;-1.5;1;0;0;0;0;1;1;1;1;2;0;0;0;0;();(-2000.0, -2000.0);
03:30:00:963;03:30:00:960;0;4;-1.5;1;0;0;0;0;1;1;1;1;2;0;0;0;0;();(-2000.0, -2000.0);
03:30:00:981;03:30:00:980;0;10;-1.5;1;0;0;0;0;1;1;1;1;2;0;0;0;0;();(-2000.0, -2000.0);
03:30:01:003;03:30:01:000;0;0;-1.5;1;0;0;0;0;1;1;1;1;2;0;0;0;0;();(-2000.0, -2000.0);
03:30:01:024;03:30:01:021;0;5;-1.5;1;0;0;0;0;1;1;1;1;2;0;0;0;0;();(-2000.0, -2000.0);
03:30:01:040;03:30:01:038;0;15;-1.5;1;0;0;0;0;1;1;1;1;2;0;0;0;0;();(-2000.0, -2000.0);
03:30:01:059;03:30:01:056;0;4;-1.5;1;0;0;0;0;1;1;1;1;2;0;0;0;0;();(-2000.0, -2000.0);
03:30:01:077;03:30:01:075;0;10;-1.5;1;0;0;0;0;1;1;1;1;2;0;0;0;0;();(-2000.0, -2000.0);
03:30:01:112;03:30:01:110;0;10;-1.5;1;0;0;0;0;1;1;1;1;2;0;0;0;0;();(-2000.0, -2000.0);
03:30:01:132;03:30:01:130;0;15;-1.5;1;0;0;0;0;1;1;1;1;2;0;0;0;0;();(-2000.0, -2000.0);
03:30:01:151;03:30:01:148;0;5;-1.5;1;0;0;0;0;1;1;1;1;2;0;0;0;0;();(-2000.0, -2000.0);
03:30:01:231;03:30:01:230;0;10;-1.5;1;0;0;0;0;1;1;1;1;2;0;0;0;0;();(-2000.0, -2000.0);
03:30:01:247;03:30:01:246;0;5;-1.5;1;0;0;0;0;1;1;1;1;2;0;0;0;0;();(-2000.0, -2000.0);
03:30:01:260;03:30:01:258;0;10;-1.5;1;0;0;0;0;1;1;1;1;2;0;0;0;0;();(-2000.0, -2000.0);
03:30:01:270;03:30:01:269;0;10;-1.5;1;0;0;0;0;1;1;1;1;2;0;0;0;0;();(-2000.0, -2000.0);
03:30:01:285;03:30:01:283;0;15;-1.5;1;0;0;0;0;1;1;1;1;2;0;0;0;0;();(-2000.0, -2000.0);
03:30:01:310;03:30:01:308;0;5;-1.5;1;0;0;0;0;1;1;1;1;2;0;0;0;0;();(-2000.0, -2000.0);
03:30:01:323;03:30:01:321;0;0;-1.5;1;0;0;0;0;1;1;1;1;2;0;0;0;0;();(-2000.0, -2000.0);
03:30:01:341;03:30:01:338;0;4;-1.5;1;0;0;0;0;1;1;1;1;2;0;0;0;0;();(-2000.0, -2000.0);
03:30:01:355;03:30:01:354;0;4;-1.5;1;0;0;0;0;1;1;1;1;2;0;0;0;0;();(-2000.0, -2000.0);
03:30:01:365;03:30:01:364;0;4;-1.5;1;0;0;0;0;1;1;1;1;2;0;0;0;0;();(-2000.0, -2000.0);
03:30:01:378;03:30:01:376;0;0;-1.5;1;0;0;0;0;1;1;1;1;2;0;0;0;0;();(-2000.0, -2000.0);
03:30:01:391;03:30:01:390;0;8;-1.5;1;0;0;0;0;1;1;1;1;2;0;0;0;0;();(-2000.0, -2000.0);
03:30:01:405;03:30:01:403;0;5;-1.5;1;0;0;0;0;1;1;1;1;2;0;0;0;0;();(-2000.0, -2000.0);
03:30:01:423;03:30:01:422;0;9;-1.5;1;0;0;0;0;1;1;1;1;2;0;0;0;0;();(-2000.0, -2000.0);
03:30:01:442;03:30:01:439;0;15;-1.5;1;0;0;0;0;1;1;1;1;2;0;0;0;0;();(-2000.0, -2000.0);
03:30:01:459;03:30:01:458;0;10;-1.5;1;0;0;0;0;1;1;1;1;2;0;0;0;0;();(-2000.0, -2000.0);
03:30:01:477;03:30:01:475;0;0;-1.5;1;0;0;0;0;1;1;1;1;2;0;0;0;0;();(-2000.0, -2000.0);
03:30:01:513;03:30:01:510;0;15;-1.5;1;0;0;0;0;1;1;1;1;2;0;0;0;0;();(-2000.0, -2000.0);
03:30:01:533;03:30:01:532;0;4;-1.5;1;0;0;0;0;1;1;1;1;2;0;0;0;0;();(-2000.0, -2000.0);
03:30:01:552;03:30:01:550;0;15;-1.5;1;0;0;0;0;1;1;1;1;2;0;0;0;0;();(-2000.0, -2000.0);
03:30:01:572;03:30:01:570;0;15;-1.5;1;0;0;0;0;1;1;1;1;2;0;0;0;0;();(-2000.0, -2000.0);
03:30:01:591;03:30:01:589;0;4;-1.5;1;0;0;0;0;1;1;1;1;2;0;0;0;0;();(-2000.0, -2000.0);
03:30:01:606;03:30:01:605;0;15;-1.5;1;0;0;0;0;1;1;1;1;2;0;0;0;0;();(-2000.0, -2000.0);
03:30:01:624;03:30:01:622;0;10;-1.5;1;0;0;0;0;1;1;1;1;2;0;0;0;0;();(-2000.0, -2000.0);
03:30:01:640;03:30:01:639;0;0;-1.5;1;0;0;0;0;1;1;1;1;2;0;0;0;0;();(-2000.0, -2000.0);
03:30:01:657;03:30:01:655;0;10;-1.5;1;0;0;0;0;1;1;1;1;2;0;0;0;0;();(-2000.0, -2000.0);
03:30:01:691;03:30:01:690;0;4;-1.5;1;0;0;0;0;1;1;1;1;2;0;0;0;0;();(-2000.0, -2000.0);
03:30:01:707;03:30:01:706;0;9;-1.5;1;0;0;0;0;1;1;1;1;2;0;0;0;0;();(-2000.0, -2000.0);
03:30:01:726;03:30:01:725;0;4;-1.5;1;0;0;0;0;1;1;1;1;2;0;0;0;0;();(-2000.0, -2000.0);
03:30:01:747;03:30:01:745;0;10;-1.5;1;0;0;0;0;1;1;1;1;2;0;0;0;0;();(-2000.0, -2000.0);
03:30:01:766;03:30:01:764;0;15;-1.5;1;0;0;0;0;1;1;1;1;2;0;0;0;0;();(-2000.0, -2000.0);
03:30:01:782;03:30:01:781;0;10;-1.5;1;0;0;0;0;1;1;1;1;2;0;0;0;0;();(-2000.0, -2000.0);
03:30:01:802;03:30:01:800;0;15;-1.5;1;0;0;0;0;1;1;1;1;2;0;0;0;0;();(-2000.0, -2000.0);
03:30:01:822;03:30:01:819;0;5;-1.5;1;0;0;0;0;1;1;1;1;2;0;0;0;0;();(-2000.0, -2000.0);
03:30:01:841;03:30:01:839;0;10;-1.5;1;0;0;0;0;1;1;1;1;2;0;0;0;0;();(-2000.0, -2000.0);
03:30:01:862;03:30:01:860;0;0;-1.5;1;0;0;0;0;1;1;1;1;2;0;0;0;0;();(-2000.0, -2000.0);
03:30:01:878;03:30:01:877;0;5;-1.5;1;0;0;0;0;1;1;1;1;2;0;0;0;0;();(-2000.0, -2000.0);
03:30:01:913;03:30:01:912;0;4;-1.5;1;0;0;0;0;1;1;1;1;2;0;0;0;0;();(-2000.0, -2000.0);
03:30:01:931;03:30:01:929;0;15;-1.5;1;0;0;0;0;1;1;1;1;2;0;0;0;0;();(-2000.0, -2000.0);
03:30:01:949;03:30:01:947;0;4;-1.5;1;0;0;0;0;1;1;1;1;2;0;0;0;0;();(-2000.0, -2000.0);
03:30:01:969;03:30:01:967;0;10;-1.5;1;0;0;0;0;1;1;1;1;2;0;0;0;0;();(-2000.0, -2000.0);
03:30:01:989;03:30:01:986;0;4;-1.5;1;0;0;0;0;1;1;1;1;2;0;0;0;0;();(-2000.0, -2000.0);
03:30:02:008;03:30:02:005;0;9;-1.5;1;0;0;0;0;1;1;1;1;2;0;0;0;0;();(-2000.0, -2000.0);
03:30:02:028;03:30:02:025;0;0;-1.5;1;0;0;0;0;1;1;1;1;2;0;0;0;0;();(-2000.0, -2000.0);
03:30:02:044;03:30:02:042;0;5;-1.5;1;0;0;0;0;1;1;1;1;2;0;0;0;0;();(-2000.0, -2000.0);
03:30:02:062;03:30:02:060;0;10;-1.5;1;0;0;0;0;1;1;1;1;2;0;0;0;0;();(-2000.0, -2000.0);
03:30:02:081;03:30:02:080;0;4;-1.5;1;0;0;0;0;1;1;1;1;2;0;0;0;0;();(-2000.0, -2000.0);
03:30:02:102;03:30:02:099;0;9;-1.5;1;0;0;0;0;1;1;1;1;2;0;0;0;0;();(-2000.0, -2000.0);
03:30:02:118;03:30:02:116;0;9;-1.5;1;0;0;0;0;1;1;1;1;2;0;0;0;0;();(-2000.0, -2000.0);
03:30:02:151;03:30:02:150;0;15;-1.5;1;0;0;0;0;1;1;1;1;2;0;0;0;0;();(-2000.0, -2000.0);
03:30:02:167;03:30:02:166;0;9;-1.5;1;0;0;0;0;1;1;1;1;2;0;0;0;0;();(-2000.0, -2000.0);
03:30:02:184;03:30:02:183;0;15;-1.5;1;0;0;0;0;1;1;1;1;2;0;0;0;0;();(-2000.0, -2000.0);
03:30:02:200;03:30:02:199;0;4;-1.5;1;0;0;0;0;1;1;1;1;2;0;0;0;0;();(-2000.0, -2000.0);
03:30:02:230;03:30:02:228;0;9;-1.5;1;0;0;0;0;1;1;1;1;2;0;0;0;0;();(-2000.0, -2000.0);
03:30:02:254;03:30:02:252;0;8;-1.5;1;0;0;0;0;1;1;1;1;4;0;0;0;0;();(-2000.0, -2000.0);
03:30:02:273;03:30:02:270;0;5;-1.5;1;0;0;0;0;1;1;1;1;4;0;0;0;0;();(-2000.0, -2000.0);
03:30:02:293;03:30:02:290;0;10;-1.5;1;0;0;0;0;1;1;1;1;4;0;0;0;0;();(-2000.0, -2000.0);
03:30:02:313;03:30:02:310;0;15;-1.5;1;0;0;0;0;1;1;1;1;4;0;0;0;0;();(-2000.0, -2000.0);
03:30:02:333;03:30:02:332;0;6;-1.5;1;0;0;0;0;1;1;1;1;4;0;0;0;0;();(-2000.0, -2000.0);
03:30:02:350;03:30:02:349;0;10;-1.5;1;0;0;0;0;1;1;1;1;4;0;0;0;0;();(-2000.0, -2000.0);
03:30:02:368;03:30:02:366;0;5;-1.5;1;0;0;0;0;1;1;1;1;4;0;0;0;0;();(-2000.0, -2000.0);
03:30:02:384;03:30:02:383;0;10;-1.5;1;0;0;0;0;1;1;1;1;4;0;0;0;0;();(-2000.0, -2000.0);
03:30:02:401;03:30:02:399;0;4;-1.5;1;0;0;0;0;1;1;1;1;4;0;0;0;0;();(-2000.0, -2000.0);
03:30:02:418;03:30:02:416;0;10;-1.5;1;0;0;0;0;1;1;1;1;4;0;0;0;0;();(-2000.0, -2000.0);
03:30:02:453;03:30:02:450;0;0;-1.5;1;0;0;0;0;1;1;1;1;4;0;0;0;0;();(-2000.0, -2000.0);
03:30:02:474;03:30:02:473;0;15;-1.5;1;0;0;0;0;1;1;1;1;4;0;0;0;0;();(-2000.0, -2000.0);
03:30:02:493;03:30:02:491;0;4;-1.5;1;0;0;0;0;1;1;1;1;4;0;0;0;0;();(-2000.0, -2000.0);
03:30:02:513;03:30:02:510;0;9;-1.5;1;0;0;0;0;1;1;1;1;4;0;0;0;0;();(-2000.0, -2000.0);
03:30:02:531;03:30:02:529;0;15;-1.5;1;0;0;0;0;1;1;1;1;4;0;0;0;0;();(-2000.0, -2000.0);
03:30:02:549;03:30:02:548;0;10;-1.5;1;0;0;0;0;1;1;1;1;4;0;0;0;0;();(-2000.0, -2000.0);
03:30:02:569;03:30:02:568;0;15;-1.5;1;0;0;0;0;1;1;1;1;4;0;0;0;0;();(-2000.0, -2000.0);
03:30:02:589;03:30:02:587;0;4;-1.5;1;0;0;0;0;1;1;1;1;4;0;0;0;0;();(-2000.0, -2000.0);
03:30:02:606;03:30:02:604;0;0;-1.5;1;0;0;0;0;1;1;1;1;4;0;0;0;0;();(-2000.0, -2000.0);
03:30:02:622;03:30:02:620;0;5;-1.5;1;0;0;0;0;1;1;1;1;4;0;0;0;0;();(-2000.0, -2000.0);
03:30:02:640;03:30:02:639;0;5;-1.5;1;0;0;0;0;1;1;1;1;4;0;0;0;0;();(-2000.0, -2000.0);
03:30:02:661;03:30:02:659;0;0;-1.5;1;0;0;0;0;1;1;1;1;4;0;0;0;0;();(-2000.0, -2000.0);
03:30:02:681;03:30:02:679;0;5;-1.5;1;0;0;0;0;1;1;1;1;4;0;0;0;0;();(-2000.0, -2000.0);
03:30:02:701;03:30:02:699;0;15;-1.5;1;0;0;0;0;1;1;1;1;4;0;0;0;0;();(-2000.0, -2000.0);
03:30:02:720;03:30:02:717;0;4;-1.5;1;0;0;0;0;1;1;1;1;4;0;0;0;0;();(-2000.0, -2000.0);
03:30:02:738;03:30:02:737;0;10;-1.5;1;0;0;0;0;1;1;1;1;4;0;0;0;0;();(-2000.0, -2000.0);
03:30:02:758;03:30:02:756;0;15;-1.5;1;0;0;0;0;1;1;1;1;4;0;0;0;0;();(-2000.0, -2000.0);
03:30:02:792;03:30:02:791;0;15;-1.5;1;0;0;0;0;1;1;1;1;4;0;0;0;0;();(-2000.0, -2000.0);
03:30:02:808;03:30:02:807;0;9;-1.5;1;0;0;0;0;1;1;1;1;4;0;0;0;0;();(-2000.0, -2000.0);
03:30:02:827;03:30:02:824;0;0;-1.5;1;0;0;0;0;1;1;1;1;4;0;0;0;0;();(-2000.0, -2000.0);
03:30:02:847;03:30:02:846;0;5;-1.5;1;0;0;0;0;1;1;1;1;4;0;0;0;0;();(-2000.0, -2000.0);
03:30:02:866;03:30:02:864;0;15;-1.5;1;0;0;0;0;1;1;1;1;4;0;0;0;0;();(-2000.0, -2000.0);
03:30:02:885;03:30:02:883;0;4;-1.5;1;0;0;0;0;1;1;1;1;4;0;0;0;0;();(-2000.0, -2000.0);
03:30:02:903;03:30:02:900;0;10;-1.5;1;0;0;0;0;1;1;1;1;4;0;0;0;0;();(-2000.0, -2000.0);
03:30:02:922;03:30:02:919;0;0;-1.5;1;0;0;0;0;1;1;1;1;4;0;0;0;0;();(-2000.0, -2000.0);
03:30:02:943;03:30:02:940;0;4;-1.5;1;0;0;0;0;1;1;1;1;4;0;0;0;0;();(-2000.0, -2000.0);
03:30:02:961;03:30:02:959;0;9;-1.5;1;0;0;0;0;1;1;1;1;4;0;0;0;0;();(-2000.0, -2000.0);
03:30:02:979;03:30:02:977;0;4;-1.5;1;0;0;0;0;1;1;1;1;4;0;0;0;0;();(-2000.0, -2000.0);
03:30:02:999;03:30:02:998;0;9;-1.5;1;0;0;0;0;1;1;1;1;4;0;0;0;0;();(-2000.0, -2000.0);
03:30:03:032;03:30:03:031;0;4;-1.5;1;0;0;0;0;1;1;1;1;4;0;0;0;0;();(-2000.0, -2000.0);
03:30:03:050;03:30:03:048;0;15;-1.5;1;0;0;0;0;1;1;1;1;4;0;0;0;0;();(-2000.0, -2000.0);
03:30:03:067;03:30:03:066;0;4;-1.5;1;0;0;0;0;1;1;1;1;4;0;0;0;0;();(-2000.0, -2000.0);
03:30:03:084;03:30:03:082;0;0;-1.5;1;0;0;0;0;1;1;1;1;4;0;0;0;0;();(-2000.0, -2000.0);
03:30:03:100;03:30:03:099;0;4;-1.5;1;0;0;0;0;1;1;1;1;4;0;0;0;0;();(-2000.0, -2000.0);
03:30:03:118;03:30:03:116;0;15;-1.5;1;0;0;0;0;1;1;1;1;4;0;0;0;0;();(-2000.0, -2000.0);
03:30:03:146;03:30:03:144;0;15;-1.5;1;0;0;0;0;1;1;1;1;4;0;0;0;0;();(-2000.0, -2000.0);
03:30:03:200;03:30:03:198;0;4;-1.5;1;0;0;0;0;1;1;1;1;4;0;0;0;0;();(-2000.0, -2000.0);
03:30:03:217;03:30:03:215;0;10;-1.5;1;0;0;0;0;1;1;1;1;4;0;0;0;0;();(-2000.0, -2000.0);
03:30:03:230;03:30:03:229;0;5;-1.5;1;0;0;0;0;1;1;1;1;4;0;0;0;0;();(-2000.0, -2000.0);
03:30:03:245;03:30:03:243;0;0;-1.5;1;0;0;0;0;1;1;1;1;4;0;0;0;0;();(-2000.0, -2000.0);
03:30:03:261;03:30:03:260;0;10;-1.5;1;0;0;0;0;1;1;1;1;4;0;0;0;0;();(-2000.0, -2000.0);
03:30:03:277;03:30:03:276;0;15;-1.5;1;0;0;0;0;1;1;1;1;4;0;0;0;0;();(-2000.0, -2000.0);
03:30:03:297;03:30:03:295;0;4;-1.5;1;0;0;0;0;1;1;1;1;4;0;0;0;0;();(-2000.0, -2000.0);
03:30:03:313;03:30:03:312;0;0;-1.5;1;0;0;0;0;1;1;1;1;4;0;0;0;0;();(-2000.0, -2000.0);
03:30:03:332;03:30:03:329;0;5;-1.5;1;0;0;0;0;1;1;1;1;4;0;0;0;0;();(-2000.0, -2000.0);
03:30:03:351;03:30:03:348;0;10;-1.5;1;0;0;0;0;1;1;1;1;4;0;0;0;0;();(-2000.0, -2000.0);
03:30:03:371;03:30:03:368;0;10;-1.5;1;0;0;0;0;1;1;1;1;4;0;0;0;0;();(-2000.0, -2000.0);
03:30:03:391;03:30:03:388;0;5;-1.5;1;0;0;0;0;1;1;1;1;4;0;0;0;0;();(-2000.0, -2000.0);
03:30:03:411;03:30:03:408;0;10;-1.5;1;0;0;0;0;1;1;1;1;4;0;0;0;0;();(-2000.0, -2000.0);
03:30:03:429;03:30:03:427;0;5;-1.5;1;0;0;0;0;1;1;1;1;4;0;0;0;0;();(-2000.0, -2000.0);
03:30:03:446;03:30:03:443;0;10;-1.5;1;0;0;0;0;1;1;1;1;4;0;0;0;0;();(-2000.0, -2000.0);
03:30:03:467;03:30:03:464;0;15;-1.5;1;0;0;0;0;1;1;1;1;4;0;0;0;0;();(-2000.0, -2000.0);
03:30:03:487;03:30:03:484;0;5;-1.5;1;0;0;0;0;1;1;1;1;4;0;0;0;0;();(-2000.0, -2000.0);
03:30:03:507;03:30:03:504;0;10;-1.5;1;0;0;0;0;1;1;1;1;4;0;0;0;0;();(-2000.0, -2000.0);
03:30:03:527;03:30:03:525;0;15;-1.5;1;0;0;0;0;1;1;1;1;4;0;0;0;0;();(-2000.0, -2000.0);
03:30:03:545;03:30:03:543;0;10;-1.5;1;0;0;0;0;1;1;1;1;4;0;0;0;0;();(-2000.0, -2000.0);
03:30:03:562;03:30:03:561;0;0;-1.5;1;0;0;0;0;1;1;1;1;4;0;0;0;0;();(-2000.0, -2000.0);
03:30:03:583;03:30:03:580;0;5;-1.5;1;0;0;0;0;1;1;1;1;4;0;0;0;0;();(-2000.0, -2000.0);
03:30:03:602;03:30:03:600;0;8;-1.5;1;0;0;0;0;1;1;1;1;4;0;0;0;0;();(-2000.0, -2000.0);
03:30:03:622;03:30:03:620;0;0;-1.5;1;0;0;0;0;1;1;1;1;4;0;0;0;0;();(-2000.0, -2000.0);
03:30:03:642;03:30:03:639;0;10;-1.5;1;0;0;0;0;1;1;1;1;4;0;0;0;0;();(-2000.0, -2000.0);
03:30:03:661;03:30:03:659;0;15;-1.5;1;0;0;0;0;1;1;1;1;4;0;0;0;0;();(-2000.0, -2000.0);
03:30:03:694;03:30:03:692;0;10;-1.5;1;0;0;0;0;1;1;1;1;4;0;0;0;0;();(-2000.0, -2000.0);
03:30:03:714;03:30:03:712;0;5;-1.5;1;0;0;0;0;1;1;1;1;4;0;0;0;0;();(-2000.0, -2000.0);
03:30:03:732;03:30:03:730;0;10;-1.5;1;0;0;0;0;1;1;1;1;4;0;0;0;0;();(-2000.0, -2000.0);
03:30:03:750;03:30:03:747;0;5;-1.5;1;0;0;0;0;1;1;1;1;4;0;0;0;0;();(-2000.0, -2000.0);
03:30:03:770;03:30:03:767;0;9;-1.5;1;0;0;0;0;1;1;1;1;4;0;0;0;0;();(-2000.0, -2000.0);
03:30:03:788;03:30:03:786;0;0;-1.5;1;0;0;0;0;1;1;1;1;4;0;0;0;0;();(-2000.0, -2000.0);
03:30:03:806;03:30:03:804;0;5;-1.5;1;0;0;0;0;1;1;1;1;4;0;0;0;0;();(-2000.0, -2000.0);
03:30:03:824;03:30:03:823;0;9;-1.5;1;0;0;0;0;1;1;1;1;4;0;0;0;0;();(-2000.0, -2000.0);
03:30:03:841;03:30:03:839;0;15;-1.5;1;0;0;0;0;1;1;1;1;4;0;0;0;0;();(-2000.0, -2000.0);
03:30:03:858;03:30:03:856;0;10;-1.5;1;0;0;0;0;1;1;1;1;4;0;0;0;0;();(-2000.0, -2000.0);
03:30:03:895;03:30:03:891;0;10;-1.5;1;0;0;0;0;1;1;1;1;4;0;0;0;0;();(-2000.0, -2000.0);
03:30:03:915;03:30:03:912;0;4;-1.5;1;0;0;0;0;1;1;1;1;4;0;0;0;0;();(-2000.0, -2000.0);
03:30:03:935;03:30:03:932;0;0;-1.5;1;0;0;0;0;1;1;1;1;4;0;0;0;0;();(-2000.0, -2000.0);
03:30:03:955;03:30:03:953;0;10;-1.5;1;0;0;0;0;1;1;1;1;4;0;0;0;0;();(-2000.0, -2000.0);
03:30:03:973;03:30:03:972;0;5;-1.5;1;0;0;0;0;1;1;1;1;4;0;0;0;0;();(-2000.0, -2000.0);
03:30:03:990;03:30:03:988;0;10;-1.5;1;0;0;0;0;1;1;1;1;4;0;0;0;0;();(-2000.0, -2000.0);
03:30:04:008;03:30:04:006;0;15;-1.5;1;0;0;0;0;1;1;1;1;4;0;0;0;0;();(-2000.0, -2000.0);
03:30:04:030;03:30:04:027;0;5;-1.5;1;0;0;0;0;1;1;1;1;4;0;0;0;0;();(-2000.0, -2000.0);
03:30:04:048;03:30:04:046;0;10;-1.5;1;0;0;0;0;1;1;1;1;4;0;0;0;0;();(-2000.0, -2000.0);
03:30:04:072;03:30:04:071;0;0;-1.5;1;0;0;0;0;1;1;1;1;4;0;0;0;0;();(-2000.0, -2000.0);
03:30:04:089;03:30:04:088;0;9;-1.5;1;0;0;0;0;1;1;1;1;4;0;0;0;0;();(-2000.0, -2000.0);
03:30:04:106;03:30:04:104;0;15;-1.5;1;0;0;0;0;1;1;1;1;4;0;0;0;0;();(-2000.0, -2000.0);
03:30:04:123;03:30:04:121;0;9;-1.5;1;0;0;0;0;1;1;1;1;4;0;0;0;0;();(-2000.0, -2000.0);
03:30:04:139;03:30:04:138;0;15;-1.5;1;0;0;0;0;1;1;1;1;4;0;0;0;0;();(-2000.0, -2000.0);
03:30:04:174;03:30:04:172;0;15;-1.5;1;0;0;0;0;1;1;1;1;4;0;0;0;0;();(-2000.0, -2000.0);
03:30:04:194;03:30:04:193;0;0;-1.5;1;0;0;0;0;1;1;1;1;4;0;0;0;0;();(-2000.0, -2000.0);
03:30:04:213;03:30:04:211;0;10;-1.5;1;0;0;0;0;1;1;1;1;4;0;0;0;0;();(-2000.0, -2000.0);
03:30:04:230;03:30:04:228;0;15;-1.5;1;0;0;0;0;1;1;1;1;4;0;0;0;0;();(-2000.0, -2000.0);
03:30:04:248;03:30:04:246;0;9;-1.5;1;0;0;0;0;1;1;1;1;4;0;0;0;0;();(-2000.0, -2000.0);
03:30:04:268;03:30:04:266;0;0;-1.5;1;0;0;0;0;1;1;1;1;4;0;0;0;0;();(-2000.0, -2000.0);
03:30:04:288;03:30:04:286;0;5;-1.5;1;0;0;0;0;1;1;1;1;4;0;0;0;0;();(-2000.0, -2000.0);
03:30:04:308;03:30:04:306;0;9;-1.5;1;0;0;0;0;1;1;1;1;4;0;0;0;0;();(-2000.0, -2000.0);
03:30:04:327;03:30:04:326;0;15;-1.5;1;0;0;0;0;1;1;1;1;4;0;0;0;0;();(-2000.0, -2000.0);
03:30:04:345;03:30:04:343;0;10;-1.5;1;0;0;0;0;1;1;1;1;4;0;0;0;0;();(-2000.0, -2000.0);
03:30:04:366;03:30:04:364;0;10;-1.5;1;0;0;0;0;1;1;1;1;4;0;0;0;0;();(-2000.0, -2000.0);
03:30:04:386;03:30:04:384;0;5;-1.5;1;0;0;0;0;1;1;1;1;4;0;0;0;0;();(-2000.0, -2000.0);
03:30:04:405;03:30:04:403;0;9;-1.5;1;0;0;0;0;1;1;1;1;4;0;0;0;0;();(-2000.0, -2000.0);
03:30:04:426;03:30:04:424;0;0;-1.5;1;0;0;0;0;1;1;1;1;4;0;0;0;0;();(-2000.0, -2000.0);
03:30:04:443;03:30:04:441;0;5;-1.5;1;0;0;0;0;1;1;1;1;4;0;0;0;0;();(-2000.0, -2000.0);
03:30:04:461;03:30:04:460;0;15;-1.5;1;0;0;0;0;1;1;1;1;4;0;0;0;0;();(-2000.0, -2000.0);
03:30:04:477;03:30:04:476;0;4;-1.5;1;0;0;0;0;1;1;1;1;4;0;0;0;0;();(-2000.0, -2000.0);
03:30:04:511;03:30:04:509;0;4;-1.5;1;0;0;0;0;1;1;1;1;4;0;0;0;0;();(-2000.0, -2000.0);
03:30:04:529;03:30:04:527;0;10;-1.5;1;0;0;0;0;1;1;1;1;4;0;0;0;0;();(-2000.0, -2000.0);
03:30:04:548;03:30:04:546;0;5;-1.5;1;0;0;0;0;1;1;1;1;4;0;0;0;0;();(-2000.0, -2000.0);
03:30:04:566;03:30:04:563;0;10;-1.5;1;0;0;0;0;1;1;1;1;4;0;0;0;0;();(-2000.0, -2000.0);
03:30:04:586;03:30:04:583;0;9;-1.5;1;0;0;0;0;1;1;1;1;4;0;0;0;0;();(-2000.0, -2000.0);
03:30:04:606;03:30:04:603;0;5;-1.5;1;0;0;0;0;1;1;1;1;4;0;0;0;0;();(-2000.0, -2000.0);
03:30:04:626;03:30:04:623;0;9;-1.5;1;0;0;0;0;1;1;1;1;4;0;0;0;0;();(-2000.0, -2000.0);
03:30:04:646;03:30:04:644;0;7;-1.5;1;0;0;0;0;1;1;1;1;4;0;0;0;0;();(-2000.0, -2000.0);
03:30:04:665;03:30:04:663;0;4;-1.5;1;0;0;0;0;1;1;1;1;4;0;0;0;0;();(-2000.0, -2000.0);
03:30:04:685;03:30:04:683;0;15;-1.5;1;0;0;0;0;1;1;1;1;4;0;0;0;0;();(-2000.0, -2000.0);
03:30:04:704;03:30:04:702;0;5;-1.5;1;0;0;0;0;1;1;1;1;4;0;0;0;0;();(-2000.0, -2000.0);
03:30:04:720;03:30:04:718;0;10;-1.5;1;0;0;0;0;1;1;1;1;4;0;0;0;0;();(-2000.0, -2000.0);
03:30:04:737;03:30:04:735;0;4;-1.5;1;0;0;0;0;1;1;1;1;4;0;0;0;0;();(-2000.0, -2000.0);
03:30:04:774;03:30:04:771;0;15;-1.5;1;0;0;0;0;1;1;1;1;4;0;0;0;0;();(-2000.0, -2000.0);
03:30:04:794;03:30:04:792;0;10;-1.5;1;0;0;0;0;1;1;1;1;4;0;0;0;0;();(-2000.0, -2000.0);
03:30:04:813;03:30:04:811;0;9;-1.5;1;0;0;0;0;1;1;1;1;4;0;0;0;0;();(-2000.0, -2000.0);
03:30:04:832;03:30:04:830;0;5;-1.5;1;0;0;0;0;1;1;1;1;4;0;0;0;0;();(-2000.0, -2000.0);
03:30:04:851;03:30:04:850;0;10;-1.5;1;0;0;0;0;1;1;1;1;4;0;0;0;0;();(-2000.0, -2000.0);
03:30:04:873;03:30:04:871;0;15;-1.5;1;0;0;0;0;1;1;1;1;4;0;0;0;0;();(-2000.0, -2000.0);
03:30:04:892;03:30:04:889;0;4;-1.5;1;0;0;0;0;1;1;1;1;4;0;0;0;0;();(-2000.0, -2000.0);
03:30:04:912;03:30:04:911;0;9;-1.5;1;0;0;0;0;1;1;1;1;4;0;0;0;0;();(-2000.0, -2000.0);
03:30:04:931;03:30:04:929;0;5;-1.5;1;0;0;0;0;1;1;1;1;4;0;0;0;0;();(-2000.0, -2000.0);
03:30:04:948;03:30:04:946;0;10;-1.5;1;0;0;0;0;1;1;1;1;4;0;0;0;0;();(-2000.0, -2000.0);
03:30:04:964;03:30:04:963;0;15;-1.5;1;0;0;0;0;1;1;1;1;4;0;0;0;0;();(-2000.0, -2000.0);
03:30:04:993;03:30:04:991;0;11;-1.5;1;0;0;0;0;1;1;1;1;4;0;0;0;0;();(-2000.0, -2000.0);
03:30:05:014;03:30:05:012;0;10;-1.5;1;0;0;0;0;1;1;1;1;4;0;0;0;0;();(-2000.0, -2000.0);
03:30:05:034;03:30:05:032;0;15;-1.5;1;0;0;0;0;1;1;1;1;4;0;0;0;0;();(-2000.0, -2000.0);
03:30:05:051;03:30:05:050;0;4;-1.5;1;0;0;0;0;1;1;1;1;4;0;0;0;0;();(-2000.0, -2000.0);
03:30:05:070;03:30:05:068;0;10;-1.5;1;0;0;0;0;1;1;1;1;4;0;0;0;0;();(-2000.0, -2000.0);
03:30:05:090;03:30:05:088;0;5;-1.5;1;0;0;0;0;1;1;1;1;4;0;0;0;0;();(-2000.0, -2000.0);
03:30:05:112;03:30:05:109;0;10;-1.5;1;0;0;0;0;1;1;1;1;4;0;0;0;0;();(-2000.0, -2000.0);
03:30:05:131;03:30:05:129;0;15;-1.5;1;0;0;0;0;1;1;1;1;4;0;0;0;0;();(-2000.0, -2000.0);
03:30:05:150;03:30:05:147;0;4;-1.5;1;0;0;0;0;1;1;1;1;4;0;0;0;0;();(-2000.0, -2000.0);
03:30:05:170;03:30:05:167;0;0;-1.5;1;0;0;0;0;1;1;1;1;4;0;0;0;0;();(-2000.0, -2000.0);
03:30:05:189;03:30:05:187;0;5;-1.5;1;0;0;0;0;1;1;1;1;4;0;0;0;0;();(-2000.0, -2000.0);
03:30:05:208;03:30:05:206;0;7;-1.5;1;0;0;0;0;1;1;1;1;4;0;0;0;0;();(-2000.0, -2000.0);
03:30:05:224;03:30:05:223;0;0;-1.5;1;0;0;0;0;1;1;1;1;4;0;0;0;0;();(-2000.0, -2000.0);
03:30:05:243;03:30:05:241;0;5;-1.5;1;0;0;0;0;1;1;1;1;4;0;0;0;0;();(-2000.0, -2000.0);
03:30:05:263;03:30:05:262;0;10;-1.5;1;0;0;0;0;1;1;1;1;4;0;0;0;0;();(-2000.0, -2000.0);
03:30:05:286;03:30:05:283;0;10;-1.5;1;0;0;0;0;1;1;1;1;4;0;0;0;0;();(-2000.0, -2000.0);
03:30:05:304;03:30:05:302;0;10;-1.5;1;0;0;0;0;1;1;1;1;4;0;0;0;0;();(-2000.0, -2000.0);
03:30:05:324;03:30:05:322;0;0;-1.5;1;0;0;0;0;1;1;1;1;4;0;0;0;0;();(-2000.0, -2000.0);
03:30:05:344;03:30:05:342;0;5;-1.5;1;0;0;0;0;1;1;1;1;4;0;0;0;0;();(-2000.0, -2000.0);
03:30:05:369;03:30:05:368;0;4;-1.5;1;0;0;0;0;1;1;1;1;6;0;0;0;0;();(-2000.0, -2000.0);
03:30:05:389;03:30:05:387;0;0;-1.5;1;0;0;0;0;1;1;1;1;6;0;0;0;0;();(-2000.0, -2000.0);
03:30:05:408;03:30:05:407;0;5;-1.5;1;0;0;0;0;1;1;1;1;6;0;0;0;0;();(-2000.0, -2000.0);
03:30:05:429;03:30:05:427;0;10;-1.5;1;0;0;0;0;1;1;1;1;6;0;0;0;0;();(-2000.0, -2000.0);
03:30:05:445;03:30:05:443;0;15;-1.5;1;0;0;0;0;1;1;1;1;6;0;0;0;0;();(-2000.0, -2000.0);
03:30:05:464;03:30:05:462;0;10;-1.5;1;0;0;0;0;1;1;1;1;6;0;0;0;0;();(-2000.0, -2000.0);
03:30:05:483;03:30:05:482;0;15;-1.5;1;0;0;0;0;1;1;1;1;6;0;0;0;0;();(-2000.0, -2000.0);
03:30:05:503;03:30:05:501;0;5;-1.5;1;0;0;0;0;1;1;1;1;6;0;0;0;0;();(-2000.0, -2000.0);
03:30:05:522;03:30:05:520;0;9;-1.5;1;0;0;0;0;1;1;1;1;6;0;0;0;0;();(-2000.0, -2000.0);
03:30:05:538;03:30:05:536;0;4;-1.5;1;0;0;0;0;1;1;1;1;6;0;0;0;0;();(-2000.0, -2000.0);
03:30:05:573;03:30:05:571;0;5;-1.5;1;0;0;0;0;1;1;1;1;6;0;0;0;0;();(-2000.0, -2000.0);
03:30:05:594;03:30:05:592;0;3;-1.5;1;0;0;0;0;1;1;1;1;6;0;0;0;0;();(-2000.0, -2000.0);
03:30:05:612;03:30:05:611;0;10;-1.5;1;0;0;0;0;1;1;1;1;6;0;0;0;0;();(-2000.0, -2000.0);
03:30:05:629;03:30:05:627;0;4;-1.5;1;0;0;0;0;1;1;1;1;6;0;0;0;0;();(-2000.0, -2000.0);
03:30:05:648;03:30:05:645;0;10;-1.5;1;0;0;0;0;1;1;1;1;6;0;0;0;0;();(-2000.0, -2000.0);
03:30:05:666;03:30:05:664;0;4;-1.5;1;0;0;0;0;1;1;1;1;6;0;0;0;0;();(-2000.0, -2000.0);
03:30:05:682;03:30:05:681;0;9;-1.5;1;0;0;0;0;1;1;1;1;6;0;0;0;0;();(-2000.0, -2000.0);
03:30:05:702;03:30:05:699;0;6;-1.5;1;0;0;0;0;1;1;1;1;6;0;0;0;0;();(-2000.0, -2000.0);
03:30:05:724;03:30:05:720;0;5;-1.5;1;0;0;0;0;1;1;1;1;6;0;0;0;0;();(-2000.0, -2000.0);
03:30:05:744;03:30:05:741;0;10;-1.5;1;0;0;0;0;1;1;1;1;6;0;0;0;0;();(-2000.0, -2000.0);
03:30:05:766;03:30:05:763;0;12;-1.5;1;0;0;0;0;1;1;1;1;6;0;0;0;0;();(-2000.0, -2000.0);
03:30:05:785;03:30:05:783;0;10;-1.5;1;0;0;0;0;1;1;1;1;6;0;0;0;0;();(-2000.0, -2000.0);
03:30:05:806;03:30:05:804;0;0;-1.5;1;0;0;0;0;1;1;1;1;6;0;0;0;0;();(-2000.0, -2000.0);
03:30:05:826;03:30:05:822;0;5;-1.5;1;0;0;0;0;1;1;1;1;6;0;0;0;0;();(-2000.0, -2000.0);
03:30:05:842;03:30:05:840;0;10;-1.5;1;0;0;0;0;1;1;1;1;6;0;0;0;0;();(-2000.0, -2000.0);
03:30:05:858;03:30:05:857;0;4;-1.5;1;0;0;0;0;1;1;1;1;6;0;0;0;0;();(-2000.0, -2000.0);
03:30:05:889;03:30:05:887;0;5;-1.5;1;0;0;0;0;1;1;1;1;6;0;0;0;0;();(-2000.0, -2000.0);
03:30:05:907;03:30:05:905;0;10;-1.5;1;0;0;0;0;1;1;1;1;6;0;0;0;0;();(-2000.0, -2000.0);
03:30:05:929;03:30:05:926;0;15;-1.5;1;0;0;0;0;1;1;1;1;6;0;0;0;0;();(-2000.0, -2000.0);
03:30:05:950;03:30:05:947;0;4;-1.5;1;0;0;0;0;1;1;1;1;6;0;0;0;0;();(-2000.0, -2000.0);
03:30:05:968;03:30:05:966;0;10;-1.5;1;0;0;0;0;1;1;1;1;6;0;0;0;0;();(-2000.0, -2000.0);
03:30:05:985;03:30:05:983;0;15;-1.5;1;0;0;0;0;1;1;1;1;6;0;0;0;0;();(-2000.0, -2000.0);
03:30:06:002;03:30:06:001;0;9;-1.5;1;0;0;0;0;1;1;1;1;6;0;0;0;0;();(-2000.0, -2000.0);
03:30:06:021;03:30:06:019;0;0;-1.5;1;0;0;0;0;1;1;1;1;6;0;0;0;0;();(-2000.0, -2000.0);
03:30:06:038;03:30:06:036;0;10;-1.5;1;0;0;0;0;1;1;1;1;6;0;0;0;0;();(-2000.0, -2000.0);
03:30:06:071;03:30:06:069;0;10;-1.5;1;0;0;0;0;1;1;1;1;6;0;0;0;0;();(-2000.0, -2000.0);
03:30:06:087;03:30:06:086;0;15;-1.5;1;0;0;0;0;1;1;1;1;6;0;0;0;0;();(-2000.0, -2000.0);
03:30:06:104;03:30:06:103;0;5;-1.5;1;0;0;0;0;1;1;1;1;6;0;0;0;0;();(-2000.0, -2000.0);
03:30:06:124;03:30:06:123;0;10;-1.5;1;0;0;0;0;1;1;1;1;6;0;0;0;0;();(-2000.0, -2000.0);
03:30:06:146;03:30:06:144;0;5;-1.5;1;0;0;0;0;1;1;1;1;6;0;0;0;0;();(-2000.0, -2000.0);
03:30:06:166;03:30:06:165;0;10;-1.5;1;0;0;0;0;1;1;1;1;6;0;0;0;0;();(-2000.0, -2000.0);
03:30:06:185;03:30:06:183;0;0;-1.5;1;0;0;0;0;1;1;1;1;6;0;0;0;0;();(-2000.0, -2000.0);
03:30:06:205;03:30:06:202;0;5;-1.5;1;0;0;0;0;1;1;1;1;6;0;0;0;0;();(-2000.0, -2000.0);
03:30:06:226;03:30:06:222;0;9;-1.5;1;0;0;0;0;1;1;1;1;6;0;0;0;0;();(-2000.0, -2000.0);
03:30:06:245;03:30:06:244;0;15;-1.5;1;0;0;0;0;1;1;1;1;6;0;0;0;0;();(-2000.0, -2000.0);
03:30:06:266;03:30:06:263;0;10;-1.5;1;0;0;0;0;1;1;1;1;6;0;0;0;0;();(-2000.0, -2000.0);
03:30:06:286;03:30:06:283;0;0;-1.5;1;0;0;0;0;1;1;1;1;6;0;0;0;0;();(-2000.0, -2000.0);
03:30:06:306;03:30:06:303;0;5;-1.5;1;0;0;0;0;1;1;1;1;6;0;0;0;0;();(-2000.0, -2000.0);
03:30:06:326;03:30:06:323;0;9;-1.5;1;0;0;0;0;1;1;1;1;6;0;0;0;0;();(-2000.0, -2000.0);
03:30:06:347;03:30:06:344;0;0;-1.5;1;0;0;0;0;1;1;1;1;6;0;0;0;0;();(-2000.0, -2000.0);
03:30:06:367;03:30:06:366;0;5;-1.5;1;0;0;0;0;1;1;1;1;6;0;0;0;0;();(-2000.0, -2000.0);
03:30:06:387;03:30:06:386;0;10;-1.5;1;0;0;0;0;1;1;1;1;6;0;0;0;0;();(-2000.0, -2000.0);
03:30:06:408;03:30:06:406;0;15;-1.5;1;0;0;0;0;1;1;1;1;6;0;0;0;0;();(-2000.0, -2000.0);
03:30:06:428;03:30:06:425;0;10;-1.5;1;0;0;0;0;1;1;1;1;6;0;0;0;0;();(-2000.0, -2000.0);
03:30:06:447;03:30:06:445;0;0;-1.5;1;0;0;0;0;1;1;1;1;6;0;0;0;0;();(-2000.0, -2000.0);
03:30:06:464;03:30:06:462;0;5;-1.5;1;0;0;0;0;1;1;1;1;6;0;0;0;0;();(-2000.0, -2000.0);
03:30:06:484;03:30:06:481;0;5;-1.5;1;0;0;0;0;1;1;1;1;6;0;0;0;0;();(-2000.0, -2000.0);
03:30:06:502;03:30:06:501;0;0;-1.5;1;0;0;0;0;1;1;1;1;6;0;0;0;0;();(-2000.0, -2000.0);
03:30:06:521;03:30:06:519;0;10;-1.5;1;0;0;0;0;1;1;1;1;6;0;0;0;0;();(-2000.0, -2000.0);
03:30:06:538;03:30:06:537;0;15;-1.5;1;0;0;0;0;1;1;1;1;6;0;0;0;0;();(-2000.0, -2000.0);
03:30:06:557;03:30:06:555;0;4;-1.5;1;0;0;0;0;1;1;1;1;6;0;0;0;0;();(-2000.0, -2000.0);
03:30:06:591;03:30:06:589;0;5;-1.5;1;0;0;0;0;1;1;1;1;6;0;0;0;0;();(-2000.0, -2000.0);
03:30:06:607;03:30:06:606;0;10;-1.5;1;0;0;0;0;1;1;1;1;6;0;0;0;0;();(-2000.0, -2000.0);
03:30:06:626;03:30:06:624;0;15;-1.5;1;0;0;0;0;1;1;1;1;6;0;0;0;0;();(-2000.0, -2000.0);
03:30:06:645;03:30:06:644;0;9;-1.5;1;0;0;0;0;1;1;1;1;6;0;0;0;0;();(-2000.0, -2000.0);
03:30:06:664;03:30:06:661;0;15;-1.5;1;0;0;0;0;1;1;1;1;6;0;0;0;0;();(-2000.0, -2000.0);
03:30:06:684;03:30:06:682;0;5;-1.5;1;0;0;0;0;1;1;1;1;6;0;0;0;0;();(-2000.0, -2000.0);
03:30:06:700;03:30:06:699;0;0;-1.5;1;0;0;0;0;1;1;1;1;6;0;0;0;0;();(-2000.0, -2000.0);
03:30:06:717;03:30:06:715;0;4;-1.5;1;0;0;0;0;1;1;1;1;6;0;0;0;0;();(-2000.0, -2000.0);
03:30:06:755;03:30:06:753;0;4;-1.5;1;0;0;0;0;1;1;1;1;6;0;0;0;0;();(-2000.0, -2000.0);
03:30:06:786;03:30:06:783;0;15;-1.5;1;0;0;0;0;1;1;1;1;6;0;0;0;0;();(-2000.0, -2000.0);
03:30:06:802;03:30:06:801;0;9;-1.5;1;0;0;0;0;1;1;1;1;6;0;0;0;0;();(-2000.0, -2000.0);
03:30:06:820;03:30:06:817;0;4;-1.5;1;0;0;0;0;1;1;1;1;6;0;0;0;0;();(-2000.0, -2000.0);
03:30:06:836;03:30:06:835;0;9;-1.5;1;0;0;0;0;1;1;1;1;6;0;0;0;0;();(-2000.0, -2000.0);
03:30:06:851;03:30:06:848;0;5;-1.5;1;0;0;0;0;1;1;1;1;6;0;0;0;0;();(-2000.0, -2000.0);
03:30:06:872;03:30:06:869;0;10;-1.5;1;0;0;0;0;1;1;1;1;6;0;0;0;0;();(-2000.0, -2000.0);
03:30:06:893;03:30:06:890;0;15;-1.5;1;0;0;0;0;1;1;1;1;6;0;0;0;0;();(-2000.0, -2000.0);
03:30:06:912;03:30:06:910;0;4;-1.5;1;0;0;0;0;1;1;1;1;6;0;0;0;0;();(-2000.0, -2000.0);
03:30:06:930;03:30:06:928;0;10;-1.5;1;0;0;0;0;1;1;1;1;6;0;0;0;0;();(-2000.0, -2000.0);
03:30:06:947;03:30:06:946;0;15;-1.5;1;0;0;0;0;1;1;1;1;6;0;0;0;0;();(-2000.0, -2000.0);
03:30:06:966;03:30:06:964;0;9;-1.5;1;0;0;0;0;1;1;1;1;6;0;0;0;0;();(-2000.0, -2000.0);
03:30:06:982;03:30:06:980;0;0;-1.5;1;0;0;0;0;1;1;1;1;6;0;0;0;0;();(-2000.0, -2000.0);
03:30:06:998;03:30:06:997;0;10;-1.5;1;0;0;0;0;1;1;1;1;6;0;0;0;0;();(-2000.0, -2000.0);
03:30:07:019;03:30:07:017;0;15;-1.5;1;0;0;0;0;1;1;1;1;6;0;0;0;0;();(-2000.0, -2000.0);
03:30:07:040;03:30:07:038;0;4;-1.5;1;0;0;0;0;1;1;1;1;6;0;0;0;0;();(-2000.0, -2000.0);
03:30:07:074;03:30:07:072;0;5;-1.5;1;0;0;0;0;1;1;1;1;6;0;0;0;0;();(-2000.0, -2000.0);
03:30:07:093;03:30:07:091;0;10;-1.5;1;0;0;0;0;1;1;1;1;6;0;0;0;0;();(-2000.0, -2000.0);
03:30:07:110;03:30:07:108;0;15;-1.5;1;0;0;0;0;1;1;1;1;6;0;0;0;0;();(-2000.0, -2000.0);
03:30:07:129;03:30:07:128;0;9;-1.5;1;0;0;0;0;1;1;1;1;6;0;0;0;0;();(-2000.0, -2000.0);
03:30:07:148;03:30:07:145;0;0;-1.5;1;0;0;0;0;1;1;1;1;6;0;0;0;0;();(-2000.0, -2000.0);
03:30:07:171;03:30:07:168;0;5;-1.5;1;0;0;0;0;1;1;1;1;6;0;0;0;0;();(-2000.0, -2000.0);
03:30:07:195;03:30:07:191;0;10;-1.5;1;0;0;0;0;1;1;1;1;6;0;0;0;0;();(-2000.0, -2000.0);
03:30:07:215;03:30:07:213;0;15;-1.5;1;0;0;0;0;1;1;1;1;6;0;0;0;0;();(-2000.0, -2000.0);
03:30:07:236;03:30:07:233;0;5;-1.5;1;0;0;0;0;1;1;1;1;6;0;0;0;0;();(-2000.0, -2000.0);
03:30:07:252;03:30:07:250;0;10;-1.5;1;0;0;0;0;1;1;1;1;6;0;0;0;0;();(-2000.0, -2000.0);
03:30:07:272;03:30:07:269;0;15;-1.5;1;0;0;0;0;1;1;1;1;6;0;0;0;0;();(-2000.0, -2000.0);
03:30:07:288;03:30:07:287;0;4;-1.5;1;0;0;0;0;1;1;1;1;6;0;0;0;0;();(-2000.0, -2000.0);
03:30:07:305;03:30:07:303;0;0;-1.5;1;0;0;0;0;1;1;1;1;6;0;0;0;0;();(-2000.0, -2000.0);
03:30:07:324;03:30:07:323;0;5;-1.5;1;0;0;0;0;1;1;1;1;6;0;0;0;0;();(-2000.0, -2000.0);
03:30:07:345;03:30:07:343;0;10;-1.5;1;0;0;0;0;1;1;1;1;6;0;0;0;0;();(-2000.0, -2000.0);
03:30:07:365;03:30:07:361;0;15;-1.5;1;0;0;0;0;1;1;1;1;6;0;0;0;0;();(-2000.0, -2000.0);
03:30:07:388;03:30:07:386;0;10;-1.5;1;0;0;0;0;1;1;1;1;6;0;0;0;0;();(-2000.0, -2000.0);
03:30:07:405;03:30:07:404;0;0;-1.5;1;0;0;0;0;1;1;1;1;6;0;0;0;0;();(-2000.0, -2000.0);
03:30:07:422;03:30:07:420;0;10;-1.5;1;0;0;0;0;1;1;1;1;6;0;0;0;0;();(-2000.0, -2000.0);
03:30:07:438;03:30:07:436;0;15;-1.5;1;0;0;0;0;1;1;1;1;6;0;0;0;0;();(-2000.0, -2000.0);
03:30:07:474;03:30:07:472;0;9;-1.5;1;0;0;0;0;1;1;1;1;6;0;0;0;0;();(-2000.0, -2000.0);
03:30:07:496;03:30:07:493;0;15;-1.5;1;0;0;0;0;1;1;1;1;6;0;0;0;0;();(-2000.0, -2000.0);
03:30:07:515;03:30:07:513;0;4;-1.5;1;0;0;0;0;1;1;1;1;6;0;0;0;0;();(-2000.0, -2000.0);
03:30:07:531;03:30:07:530;0;15;-1.5;1;0;0;0;0;1;1;1;1;6;0;0;0;0;();(-2000.0, -2000.0);
03:30:07:548;03:30:07:546;0;4;-1.5;1;0;0;0;0;1;1;1;1;6;0;0;0;0;();(-2000.0, -2000.0);
03:30:07:568;03:30:07:566;0;10;-1.5;1;0;0;0;0;1;1;1;1;6;0;0;0;0;();(-2000.0, -2000.0);
03:30:07:588;03:30:07:586;0;5;-1.5;1;0;0;0;0;1;1;1;1;6;0;0;0;0;();(-2000.0, -2000.0);
03:30:07:609;03:30:07:607;0;9;-1.5;1;0;0;0;0;1;1;1;1;6;0;0;0;0;();(-2000.0, -2000.0);
03:30:07:629;03:30:07:627;0;0;-1.5;1;0;0;0;0;1;1;1;1;6;0;0;0;0;();(-2000.0, -2000.0);
03:30:07:649;03:30:07:647;0;5;-1.5;1;0;0;0;0;1;1;1;1;6;0;0;0;0;();(-2000.0, -2000.0);
03:30:07:676;03:30:07:674;0;4;-1.5;1;0;0;0;0;1;1;1;1;6;0;0;0;0;();(-2000.0, -2000.0);
03:30:07:694;03:30:07:692;0;15;-1.5;1;0;0;0;0;1;1;1;1;6;0;0;0;0;();(-2000.0, -2000.0);
03:30:07:714;03:30:07:713;0;0;-1.5;1;0;0;0;0;1;1;1;1;6;0;0;0;0;();(-2000.0, -2000.0);
03:30:07:734;03:30:07:732;0;10;-1.5;1;0;0;0;0;1;1;1;1;6;0;0;0;0;();(-2000.0, -2000.0);
03:30:07:763;03:30:07:761;0;4;-1.5;1;0;0;0;0;1;1;1;1;8;0;0;0;0;();(-2000.0, -2000.0);
03:30:07:787;03:30:07:784;0;2;-1.5;1;0;0;0;0;1;1;1;1;8;0;0;0;0;();(-2000.0, -2000.0);
03:30:07:803;03:30:07:801;0;5;-1.5;1;0;0;0;0;1;1;1;1;8;0;0;0;0;();(-2000.0, -2000.0);
03:30:07:821;03:30:07:818;0;10;-1.5;1;0;0;0;0;1;1;1;1;8;0;0;0;0;();(-2000.0, -2000.0);
03:30:07:837;03:30:07:835;0;4;-1.5;1;0;0;0;0;1;1;1;1;8;0;0;0;0;();(-2000.0, -2000.0);
03:30:07:854;03:30:07:852;0;10;-1.5;1;0;0;0;0;1;1;1;1;8;0;0;0;0;();(-2000.0, -2000.0);
03:30:07:873;03:30:07:871;0;5;-1.5;1;0;0;0;0;1;1;1;1;8;0;0;0;0;();(-2000.0, -2000.0);
03:30:07:894;03:30:07:891;0;10;-1.5;1;0;0;0;0;1;1;1;1;8;0;0;0;0;();(-2000.0, -2000.0);
03:30:07:915;03:30:07:913;0;15;-1.5;1;0;0;0;0;1;1;1;1;8;0;0;0;0;();(-2000.0, -2000.0);
03:30:07:935;03:30:07:933;0;4;-1.5;1;0;0;0;0;1;1;1;1;8;0;0;0;0;();(-2000.0, -2000.0);
03:30:07:956;03:30:07:954;0;9;-1.5;1;0;0;0;0;1;1;1;1;8;0;0;0;0;();(-2000.0, -2000.0);
03:30:07:976;03:30:07:974;0;5;-1.5;1;0;0;0;0;1;1;1;1;8;0;0;0;0;();(-2000.0, -2000.0);
03:30:07:997;03:30:07:995;0;4;-1.5;1;0;0;0;0;1;1;1;1;8;0;0;0;0;();(-2000.0, -2000.0);
03:30:08:016;03:30:08:014;0;10;-1.5;1;0;0;0;0;1;1;1;1;8;0;0;0;0;();(-2000.0, -2000.0);
03:30:08:036;03:30:08:033;0;5;-1.5;1;0;0;0;0;1;1;1;1;8;0;0;0;0;();(-2000.0, -2000.0);
03:30:08:057;03:30:08:054;0;5;-1.5;1;0;0;0;0;1;1;1;1;8;0;0;0;0;();(-2000.0, -2000.0);
03:30:08:078;03:30:08:076;0;9;-1.5;1;0;0;0;0;1;1;1;1;8;0;0;0;0;();(-2000.0, -2000.0);
03:30:08:099;03:30:08:097;0;15;-1.5;1;0;0;0;0;1;1;1;1;8;0;0;0;0;();(-2000.0, -2000.0);
03:30:08:115;03:30:08:114;0;10;-1.5;1;0;0;0;0;1;1;1;1;8;0;0;0;0;();(-2000.0, -2000.0);
03:30:08:130;03:30:08:129;0;15;-1.5;1;0;0;0;0;1;1;1;1;8;0;0;0;0;();(-2000.0, -2000.0);
03:30:08:148;03:30:08:145;0;10;-1.5;1;0;0;0;0;1;1;1;1;8;0;0;0;0;();(-2000.0, -2000.0);
03:30:08:168;03:30:08:165;0;15;-1.5;1;0;0;0;0;1;1;1;1;8;0;0;0;0;();(-2000.0, -2000.0);
03:30:08:186;03:30:08:184;0;14;-1.5;1;0;0;0;0;1;1;1;1;8;0;0;0;0;();(-2000.0, -2000.0);
03:30:08:203;03:30:08:201;0;15;-1.5;1;0;0;0;0;1;1;1;1;8;0;0;0;0;();(-2000.0, -2000.0);
03:30:08:220;03:30:08:218;0;4;-1.5;1;0;0;0;0;1;1;1;1;8;0;0;0;0;();(-2000.0, -2000.0);
03:30:08:239;03:30:08:237;0;9;-1.5;1;0;0;0;0;1;1;1;1;8;0;0;0;0;();(-2000.0, -2000.0);
03:30:08:261;03:30:08:258;0;4;-1.5;1;0;0;0;0;1;1;1;1;8;0;0;0;0;();(-2000.0, -2000.0);
03:30:08:281;03:30:08:279;0;10;-1.5;1;0;0;0;0;1;1;1;1;8;0;0;0;0;();(-2000.0, -2000.0);
03:30:08:297;03:30:08:296;0;15;-1.5;1;0;0;0;0;1;1;1;1;8;0;0;0;0;();(-2000.0, -2000.0);
03:30:08:331;03:30:08:329;0;10;-1.5;1;0;0;0;0;1;1;1;1;8;0;0;0;0;();(-2000.0, -2000.0);
03:30:08:348;03:30:08:346;0;5;-1.5;1;0;0;0;0;1;1;1;1;8;0;0;0;0;();(-2000.0, -2000.0);
03:30:08:365;03:30:08:363;0;15;-1.5;1;0;0;0;0;1;1;1;1;8;0;0;0;0;();(-2000.0, -2000.0);
03:30:08:382;03:30:08:380;0;5;-1.5;1;0;0;0;0;1;1;1;1;8;0;0;0;0;();(-2000.0, -2000.0);
03:30:08:403;03:30:08:400;0;9;-1.5;1;0;0;0;0;1;1;1;1;8;0;0;0;0;();(-2000.0, -2000.0);
03:30:08:424;03:30:08:421;0;0;-1.5;1;0;0;0;0;1;1;1;1;8;0;0;0;0;();(-2000.0, -2000.0);
03:30:08:444;03:30:08:441;0;5;-1.5;1;0;0;0;0;1;1;1;1;8;0;0;0;0;();(-2000.0, -2000.0);
03:30:08:465;03:30:08:462;0;10;-1.5;1;0;0;0;0;1;1;1;1;8;0;0;0;0;();(-2000.0, -2000.0);
03:30:08:485;03:30:08:483;0;15;-1.5;1;0;0;0;0;1;1;1;1;8;0;0;0;0;();(-2000.0, -2000.0);
03:30:08:505;03:30:08:502;0;10;-1.5;1;0;0;0;0;1;1;1;1;8;0;0;0;0;();(-2000.0, -2000.0);
03:30:08:524;03:30:08:521;0;15;-1.5;1;0;0;0;0;1;1;1;1;8;0;0;0;0;();(-2000.0, -2000.0);
03:30:08:555;03:30:08:552;0;15;-1.5;1;0;0;0;0;1;1;1;1;8;0;0;0;0;();(-2000.0, -2000.0);
03:30:08:576;03:30:08:572;0;5;-1.5;1;0;0;0;0;1;1;1;1;8;0;0;0;0;();(-2000.0, -2000.0);
03:30:08:595;03:30:08:593;0;10;-1.5;1;0;0;0;0;1;1;1;1;8;0;0;0;0;();(-2000.0, -2000.0);
03:30:08:612;03:30:08:610;0;5;-1.5;1;0;0;0;0;1;1;1;1;8;0;0;0;0;();(-2000.0, -2000.0);
03:30:08:631;03:30:08:628;0;9;-1.5;1;0;0;0;0;1;1;1;1;8;0;0;0;0;();(-2000.0, -2000.0);
03:30:08:651;03:30:08:649;0;15;-1.5;1;0;0;0;0;1;1;1;1;8;0;0;0;0;();(-2000.0, -2000.0);
03:30:08:671;03:30:08:668;0;4;-1.5;1;0;0;0;0;1;1;1;1;8;0;0;0;0;();(-2000.0, -2000.0);
03:30:08:692;03:30:08:691;0;10;-1.5;1;0;0;0;0;1;1;1;1;8;0;0;0;0;();(-2000.0, -2000.0);
03:30:08:709;03:30:08:707;0;5;-1.5;1;0;0;0;0;1;1;1;1;8;0;0;0;0;();(-2000.0, -2000.0);
03:30:08:728;03:30:08:726;0;9;-1.5;1;0;0;0;0;1;1;1;1;8;0;0;0;0;();(-2000.0, -2000.0);
03:30:08:744;03:30:08:742;0;0;-1.5;1;0;0;0;0;1;1;1;1;8;0;0;0;0;();(-2000.0, -2000.0);
03:30:08:763;03:30:08:760;0;10;-1.5;1;0;0;0;0;1;1;1;1;8;0;0;0;0;();(-2000.0, -2000.0);
03:30:08:783;03:30:08:781;0;10;-1.5;1;0;0;0;0;1;1;1;1;8;0;0;0;0;();(-2000.0, -2000.0);
03:30:08:800;03:30:08:798;0;4;-1.5;1;0;0;0;0;1;1;1;1;8;0;0;0;0;();(-2000.0, -2000.0);
03:30:08:819;03:30:08:817;0;10;-1.5;1;0;0;0;0;1;1;1;1;8;0;0;0;0;();(-2000.0, -2000.0);
03:30:08:840;03:30:08:838;0;15;-1.5;1;0;0;0;0;1;1;1;1;8;0;0;0;0;();(-2000.0, -2000.0);
03:30:08:861;03:30:08:859;0;4;-1.5;1;0;0;0;0;1;1;1;1;8;0;0;0;0;();(-2000.0, -2000.0);
03:30:08:879;03:30:08:877;0;9;-1.5;1;0;0;0;0;1;1;1;1;8;0;0;0;0;();(-2000.0, -2000.0);
03:30:08:914;03:30:08:910;0;9;-1.5;1;0;0;0;0;1;1;1;1;8;0;0;0;0;();(-2000.0, -2000.0);
03:30:08:935;03:30:08:933;0;15;-1.5;1;0;0;0;0;1;1;1;1;8;0;0;0;0;();(-2000.0, -2000.0);
03:30:08:953;03:30:08:951;0;4;-1.5;1;0;0;0;0;1;1;1;1;8;0;0;0;0;();(-2000.0, -2000.0);
03:30:08:970;03:30:08:968;0;15;-1.5;1;0;0;0;0;1;1;1;1;8;0;0;0;0;();(-2000.0, -2000.0);
03:30:08:988;03:30:08:985;0;15;-1.5;1;0;0;0;0;1;1;1;1;8;0;0;0;0;();(-2000.0, -2000.0);
03:30:09:009;03:30:09:007;0;10;-1.5;1;0;0;0;0;1;1;1;1;8;0;0;0;0;();(-2000.0, -2000.0);
03:30:09:028;03:30:09:025;0;10;-1.5;1;0;0;0;0;1;1;1;1;8;0;0;0;0;();(-2000.0, -2000.0);
03:30:09:047;03:30:09:045;0;10;-1.5;1;0;0;0;0;1;1;1;1;8;0;0;0;0;();(-2000.0, -2000.0);
03:30:09:065;03:30:09:063;0;0;-1.5;1;0;0;0;0;1;1;1;1;8;0;0;0;0;();(-2000.0, -2000.0);
03:30:09:085;03:30:09:083;0;5;-1.5;1;0;0;0;0;1;1;1;1;8;0;0;0;0;();(-2000.0, -2000.0);
03:30:09:105;03:30:09:103;0;10;-1.5;1;0;0;0;0;1;1;1;1;8;0;0;0;0;();(-2000.0, -2000.0);
03:30:09:126;03:30:09:124;0;15;-1.5;1;0;0;0;0;1;1;1;1;8;0;0;0;0;();(-2000.0, -2000.0);
03:30:09:147;03:30:09:144;0;10;-1.5;1;0;0;0;0;1;1;1;1;8;0;0;0;0;();(-2000.0, -2000.0);
03:30:09:181;03:30:09:178;0;4;-1.5;1;0;0;0;0;1;1;1;1;8;0;0;0;0;();(-2000.0, -2000.0);
03:30:09:197;03:30:09:196;0;15;-1.5;1;0;0;0;0;1;1;1;1;8;0;0;0;0;();(-2000.0, -2000.0);
03:30:09:213;03:30:09:211;0;4;-1.5;1;0;0;0;0;1;1;1;1;8;0;0;0;0;();(-2000.0, -2000.0);
03:30:09:230;03:30:09:228;0;9;-1.5;1;0;0;0;0;1;1;1;1;8;0;0;0;0;();(-2000.0, -2000.0);
03:30:09:250;03:30:09:247;0;5;-1.5;1;0;0;0;0;1;1;1;1;8;0;0;0;0;();(-2000.0, -2000.0);
03:30:09:269;03:30:09:268;0;10;-1.5;1;0;0;0;0;1;1;1;1;8;0;0;0;0;();(-2000.0, -2000.0);
03:30:09:290;03:30:09:287;0;15;-1.5;1;0;0;0;0;1;1;1;1;8;0;0;0;0;();(-2000.0, -2000.0);
03:30:09:309;03:30:09:307;0;5;-1.5;1;0;0;0;0;1;1;1;1;8;0;0;0;0;();(-2000.0, -2000.0);
03:30:09:328;03:30:09:326;0;10;-1.5;1;0;0;0;0;1;1;1;1;8;0;0;0;0;();(-2000.0, -2000.0);
03:30:09:348;03:30:09:346;0;15;-1.5;1;0;0;0;0;1;1;1;1;8;0;0;0;0;();(-2000.0, -2000.0);
03:30:09:369;03:30:09:367;0;4;-1.5;1;0;0;0;0;1;1;1;1;8;0;0;0;0;();(-2000.0, -2000.0);
03:30:09:391;03:30:09:388;0;0;-1.5;1;0;0;0;0;1;1;1;1;8;0;0;0;0;();(-2000.0, -2000.0);
03:30:09:419;03:30:09:416;0;0;-1.5;1;0;0;0;0;1;1;1;1;8;0;0;0;0;();(-2000.0, -2000.0);
03:30:09:436;03:30:09:434;0;4;-1.5;1;0;0;0;0;1;1;1;1;8;0;0;0;0;();(-2000.0, -2000.0);
03:30:09:453;03:30:09:451;0;10;-1.5;1;0;0;0;0;1;1;1;1;8;0;0;0;0;();(-2000.0, -2000.0);
03:30:09:470;03:30:09:468;0;10;-1.5;1;0;0;0;0;1;1;1;1;8;0;0;0;0;();(-2000.0, -2000.0);
03:30:09:490;03:30:09:488;0;0;-1.5;1;0;0;0;0;1;1;1;1;8;0;0;0;0;();(-2000.0, -2000.0);
03:30:09:508;03:30:09:506;0;5;-1.5;1;0;0;0;0;1;1;1;1;8;0;0;0;0;();(-2000.0, -2000.0);
03:30:09:527;03:30:09:525;0;9;-1.5;1;0;0;0;0;1;1;1;1;8;0;0;0;0;();(-2000.0, -2000.0);
03:30:09:543;03:30:09:541;0;15;-1.5;1;0;0;0;0;1;1;1;1;8;0;0;0;0;();(-2000.0, -2000.0);
03:30:09:561;03:30:09:559;0;9;-1.5;1;0;0;0;0;1;1;1;1;8;0;0;0;0;();(-2000.0, -2000.0);
03:30:09:578;03:30:09:576;0;15;-1.5;1;0;0;0;0;1;1;1;1;8;0;0;0;0;();(-2000.0, -2000.0);
03:30:09:613;03:30:09:611;0;15;-1.5;1;0;0;0;0;1;1;1;1;8;0;0;0;0;();(-2000.0, -2000.0);
03:30:09:632;03:30:09:631;0;5;-1.5;1;0;0;0;0;1;1;1;1;8;0;0;0;0;();(-2000.0, -2000.0);
03:30:09:649;03:30:09:647;0;10;-1.5;1;0;0;0;0;1;1;1;1;8;0;0;0;0;();(-2000.0, -2000.0);
03:30:09:670;03:30:09:668;0;15;-1.5;1;0;0;0;0;1;1;1;1;8;0;0;0;0;();(-2000.0, -2000.0);
03:30:09:689;03:30:09:687;0;9;-1.5;1;0;0;0;0;1;1;1;1;8;0;0;0;0;();(-2000.0, -2000.0);
03:30:09:708;03:30:09:706;0;0;-1.5;1;0;0;0;0;1;1;1;1;8;0;0;0;0;();(-2000.0, -2000.0);
03:30:09:731;03:30:09:729;0;15;-1.5;1;0;0;0;0;1;1;1;1;8;0;0;0;0;();(-2000.0, -2000.0);
03:30:09:754;03:30:09:751;0;10;-1.5;1;0;0;0;0;1;1;1;1;8;0;0;0;0;();(-2000.0, -2000.0);
03:30:09:772;03:30:09:771;0;15;-1.5;1;0;0;0;0;1;1;1;1;8;0;0;0;0;();(-2000.0, -2000.0);
03:30:09:789;03:30:09:787;0;4;-1.5;1;0;0;0;0;1;1;1;1;8;0;0;0;0;();(-2000.0, -2000.0);
03:30:09:806;03:30:09:805;0;10;-1.5;1;0;0;0;0;1;1;1;1;8;0;0;0;0;();(-2000.0, -2000.0);
03:30:09:824;03:30:09:822;0;5;-1.5;1;0;0;0;0;1;1;1;1;8;0;0;0;0;();(-2000.0, -2000.0);
03:30:09:842;03:30:09:840;0;9;-1.5;1;0;0;0;0;1;1;1;1;8;0;0;0;0;();(-2000.0, -2000.0);
03:30:09:863;03:30:09:861;0;0;-1.5;1;0;0;0;0;1;1;1;1;8;0;0;0;0;();(-2000.0, -2000.0);
03:30:09:888;03:30:09:886;0;5;-1.5;1;0;0;0;0;1;1;1;1;8;0;0;0;0;();(-2000.0, -2000.0);
