%Timestamp,timestamp_write;timestamp_gotpupil;eyetrackertime;norm_pos;diameter;confidence;timestamp_gotbitdata;CRC;SEQ;AnalogOutp1;AnalogOutp2;AnalogOutp3;AnalogOutp4;AnalogOutp5;AnalogOutp6;DigitalOutp1;DigitalOutp2;igitalOutp3;DigitalOutp4;nplanes;lastaction;lastactiondetails;positivescore;negativescore;targetpositions;collision_point
06:38:40:784;;;;;;;;;;;;;;06:38:40:768;1447954718.56;(0.32051892280578614, 0.2427365620930989);26.9197788239;1.0;2;0;0;0;0;();(0.0, 0.0);
06:38:40:790;;;;;;;;;;;;;;06:38:40:768;1447954718.56;(0.32051892280578614, 0.2427365620930989);26.9197788239;1.0;2;0;0;0;0;();(-2000.0, -2000.0);
06:38:40:794;;;;;;;;;;;;;;06:38:40:768;1447954718.56;(0.32051892280578614, 0.2427365620930989);26.9197788239;1.0;2;0;0;0;0;();(-2000.0, -2000.0);
06:38:40:797;;;;;;;;;;;;;;06:38:40:768;1447954718.56;(0.32051892280578614, 0.2427365620930989);26.9197788239;1.0;2;0;0;0;0;();(-2000.0, -2000.0);
06:38:40:801;;;;;;;;;;;;;;06:38:40:768;1447954718.56;(0.32051892280578614, 0.2427365620930989);26.9197788239;1.0;2;0;0;0;0;();(-2000.0, -2000.0);
06:38:40:805;;;;;;;;;;;;;;06:38:40:768;1447954718.56;(0.32051892280578614, 0.2427365620930989);26.9197788239;1.0;2;0;0;0;0;();(-2000.0, -2000.0);
06:38:40:809;;;;;;;;;;;;;;06:38:40:768;1447954718.56;(0.32051892280578614, 0.2427365620930989);26.9197788239;1.0;2;0;0;0;0;();(-2000.0, -2000.0);
06:38:40:812;;;;;;;;;;;;;;06:38:40:768;1447954718.56;(0.32051892280578614, 0.2427365620930989);26.9197788239;1.0;2;0;0;0;0;();(-2000.0, -2000.0);
06:38:40:816;;;;;;;;;;;;;;06:38:40:768;1447954718.56;(0.32051892280578614, 0.2427365620930989);26.9197788239;1.0;2;0;0;0;0;();(-2000.0, -2000.0);
06:38:40:820;;;;;;;;;;;;;;06:38:40:768;1447954718.56;(0.32051892280578614, 0.2427365620930989);26.9197788239;1.0;2;0;0;0;0;();(-2000.0, -2000.0);
06:38:40:823;;;;;;;;;;;;;;06:38:40:768;1447954718.56;(0.32051892280578614, 0.2427365620930989);26.9197788239;1.0;2;0;0;0;0;();(-2000.0, -2000.0);
06:38:40:826;;;;;;;;;;;;;;06:38:40:768;1447954718.56;(0.32051892280578614, 0.2427365620930989);26.9197788239;1.0;2;0;0;0;0;();(-2000.0, -2000.0);
06:38:40:829;;;;;;;;;;;;;;06:38:40:768;1447954718.56;(0.32051892280578614, 0.2427365620930989);26.9197788239;1.0;2;0;0;0;0;();(-2000.0, -2000.0);
06:38:40:832;;;;;;;;;;;;;;06:38:40:768;1447954718.56;(0.32051892280578614, 0.2427365620930989);26.9197788239;1.0;2;0;0;0;0;();(-2000.0, -2000.0);
06:38:40:836;;;;;;;;;;;;;;06:38:40:768;1447954718.56;(0.32051892280578614, 0.2427365620930989);26.9197788239;1.0;2;0;0;0;0;();(-2000.0, -2000.0);
06:38:40:840;;;;;;;;;;;;;;06:38:40:768;1447954718.56;(0.32051892280578614, 0.2427365620930989);26.9197788239;1.0;2;0;0;0;0;();(-2000.0, -2000.0);
06:38:40:857;;;;;;;;;;;;;;06:38:40:852;1447954718.63;(0.32052161693573, 0.24306852552625868);26.1277751923;1.0;2;0;0;0;0;();(-2000.0, -2000.0);
06:38:40:859;;;;;;;;;;;;;;06:38:40:852;1447954718.63;(0.32052161693573, 0.24306852552625868);26.1277751923;1.0;2;0;0;0;0;();(-2000.0, -2000.0);
06:38:40:861;;;;;;;;;;;;;;06:38:40:852;1447954718.63;(0.32052161693573, 0.24306852552625868);26.1277751923;1.0;2;0;0;0;0;();(-2000.0, -2000.0);
06:38:40:863;;;;;;;;;;;;;;06:38:40:852;1447954718.63;(0.32052161693573, 0.24306852552625868);26.1277751923;1.0;2;0;0;0;0;();(-2000.0, -2000.0);
06:38:40:873;;;;;;;;;;;;;;06:38:40:852;1447954718.63;(0.32052161693573, 0.24306852552625868);26.1277751923;1.0;2;0;0;0;0;();(-2000.0, -2000.0);
06:38:41:013;;;;;;;;;;;;;;06:38:40:976;1447954718.76;(0.3205824613571167, 0.2429941813151042);26.4875106812;1.0;2;0;0;0;0;();(-2000.0, -2000.0);
06:38:41:015;;;;;;;;;;;;;;06:38:40:976;1447954718.76;(0.3205824613571167, 0.2429941813151042);26.4875106812;1.0;2;0;0;0;0;();(-2000.0, -2000.0);
06:38:41:016;;;;;;;;;;;;;;06:38:40:976;1447954718.76;(0.3205824613571167, 0.2429941813151042);26.4875106812;1.0;2;0;0;0;0;();(-2000.0, -2000.0);
06:38:41:018;;;;;;;;;;;;;;06:38:40:976;1447954718.76;(0.3205824613571167, 0.2429941813151042);26.4875106812;1.0;2;0;0;0;0;();(-2000.0, -2000.0);
06:38:41:020;;;;;;;;;;;;;;06:38:40:976;1447954718.76;(0.3205824613571167, 0.2429941813151042);26.4875106812;1.0;2;0;0;0;0;();(-2000.0, -2000.0);
06:38:41:022;;;;;;;;;;;;;;06:38:40:976;1447954718.76;(0.3205824613571167, 0.2429941813151042);26.4875106812;1.0;2;0;0;0;0;();(-2000.0, -2000.0);
06:38:41:024;;;;;;;;;;;;;;06:38:40:976;1447954718.76;(0.3205824613571167, 0.2429941813151042);26.4875106812;1.0;2;0;0;0;0;();(-2000.0, -2000.0);
06:38:43:910;;;;;;;;;;;;;;06:38:43:836;1447954721.63;(0.3208412408828735, 0.24279700385199654);27.0728130341;1.0;2;0;0;0;0;();(-2000.0, -2000.0);
06:38:43:912;;;;;;;;;;;;;;06:38:43:836;1447954721.63;(0.3208412408828735, 0.24279700385199654);27.0728130341;1.0;2;0;0;0;0;();(-2000.0, -2000.0);
06:38:43:914;;;;;;;;;;;;;;06:38:43:836;1447954721.63;(0.3208412408828735, 0.24279700385199654);27.0728130341;1.0;2;0;0;0;0;();(-2000.0, -2000.0);
06:38:43:916;;;;;;;;;;;;;;06:38:43:836;1447954721.63;(0.3208412408828735, 0.24279700385199654);27.0728130341;1.0;2;0;0;0;0;();(-2000.0, -2000.0);
06:38:43:918;;;;;;;;;;;;;;06:38:43:836;1447954721.63;(0.3208412408828735, 0.24279700385199654);27.0728130341;1.0;2;0;0;0;0;();(-2000.0, -2000.0);
06:38:43:920;;;;;;;;;;;;;;06:38:43:920;1447954721.69;(0.3209486722946167, 0.24267934163411453);27.2027778625;1.0;2;0;0;0;0;();(-2000.0, -2000.0);
06:38:43:922;;;;;;;;;;;;;;06:38:43:920;1447954721.69;(0.3209486722946167, 0.24267934163411453);27.2027778625;1.0;2;0;0;0;0;();(-2000.0, -2000.0);
06:38:43:924;;;;;;;;;;;;;;06:38:43:920;1447954721.69;(0.3209486722946167, 0.24267934163411453);27.2027778625;1.0;2;0;0;0;0;();(-2000.0, -2000.0);
06:38:43:926;;;;;;;;;;;;;;06:38:43:920;1447954721.69;(0.3209486722946167, 0.24267934163411453);27.2027778625;1.0;2;0;0;0;0;();(-2000.0, -2000.0);
06:38:43:928;;;;;;;;;;;;;;06:38:43:920;1447954721.69;(0.3209486722946167, 0.24267934163411453);27.2027778625;1.0;2;0;0;0;0;();(-2000.0, -2000.0);
06:38:43:929;;;;;;;;;;;;;;06:38:43:920;1447954721.69;(0.3209486722946167, 0.24267934163411453);27.2027778625;1.0;2;0;0;0;0;();(-2000.0, -2000.0);
06:38:43:931;;;;;;;;;;;;;;06:38:43:920;1447954721.69;(0.3209486722946167, 0.24267934163411453);27.2027778625;1.0;2;0;0;0;0;();(-2000.0, -2000.0);
06:38:43:932;;;;;;;;;;;;;;06:38:43:920;1447954721.69;(0.3209486722946167, 0.24267934163411453);27.2027778625;1.0;2;0;0;0;0;();(-2000.0, -2000.0);
06:38:43:934;;;;;;;;;;;;;;06:38:43:920;1447954721.69;(0.3209486722946167, 0.24267934163411453);27.2027778625;1.0;2;0;0;0;0;();(-2000.0, -2000.0);
06:38:43:935;;;;;;;;;;;;;;06:38:43:920;1447954721.69;(0.3209486722946167, 0.24267934163411453);27.2027778625;1.0;2;0;0;0;0;();(-2000.0, -2000.0);
06:38:43:937;;;;;;;;;;;;;;06:38:43:920;1447954721.69;(0.3209486722946167, 0.24267934163411453);27.2027778625;1.0;2;0;0;0;0;();(-2000.0, -2000.0);
06:38:43:940;;;;;;;;;;;;;;06:38:43:920;1447954721.69;(0.3209486722946167, 0.24267934163411453);27.2027778625;1.0;2;0;0;0;0;();(-2000.0, -2000.0);
06:38:43:942;;;;;;;;;;;;;;06:38:43:920;1447954721.69;(0.3209486722946167, 0.24267934163411453);27.2027778625;1.0;2;0;0;0;0;();(-2000.0, -2000.0);
06:38:43:957;;;;;;;;;;;;;;06:38:43:920;1447954721.69;(0.3209486722946167, 0.24267934163411453);27.2027778625;1.0;2;0;0;0;0;();(-2000.0, -2000.0);
06:38:43:990;;;;;;;;;;;;;;06:38:43:920;1447954721.69;(0.3209486722946167, 0.24267934163411453);27.2027778625;1.0;2;0;0;0;0;();(-2000.0, -2000.0);
06:38:44:006;;;;;;;;;;;;;;06:38:44:005;1447954721.76;(0.3204111814498901, 0.2428828769259983);26.5877285004;1.0;2;0;0;0;0;();(-2000.0, -2000.0);
06:38:44:023;;;;;;;;;;;;;;06:38:44:005;1447954721.76;(0.3204111814498901, 0.2428828769259983);26.5877285004;1.0;2;0;0;0;0;();(-2000.0, -2000.0);
06:38:44:040;;;;;;;;;;;;;;06:38:44:005;1447954721.76;(0.3204111814498901, 0.2428828769259983);26.5877285004;1.0;2;0;0;0;0;();(-2000.0, -2000.0);
06:38:44:056;;;;;;;;;;;;;;06:38:44:044;1447954721.83;(0.32059674263000487, 0.24288007948133683);26.2850723267;1.0;2;0;0;0;0;();(-2000.0, -2000.0);
06:38:44:089;;;;;;;;;;;;;;06:38:44:044;1447954721.83;(0.32059674263000487, 0.24288007948133683);26.2850723267;1.0;2;0;0;0;0;();(-2000.0, -2000.0);
06:38:44:106;;;;;;;;;;;;;;06:38:44:044;1447954721.83;(0.32059674263000487, 0.24288007948133683);26.2850723267;1.0;2;0;0;0;0;();(-2000.0, -2000.0);
06:38:44:122;;;;;;;;;;;;;;06:38:44:044;1447954721.83;(0.32059674263000487, 0.24288007948133683);26.2850723267;1.0;2;0;0;0;0;();(-2000.0, -2000.0);
06:38:44:139;;;;;;;;;;;;;;06:38:44:127;1447954721.89;(0.3204470157623291, 0.24257897271050344);26.4188499451;1.0;2;0;0;0;0;();(-2000.0, -2000.0);
06:38:44:155;;;;;;;;;;;;;;06:38:44:127;1447954721.89;(0.3204470157623291, 0.24257897271050344);26.4188499451;1.0;2;0;0;0;0;();(-2000.0, -2000.0);
06:38:44:189;;;;;;;;;;;;;;06:38:44:167;1447954721.96;(0.32036466598510743, 0.2427999708387587);26.2476615906;1.0;2;0;0;0;0;();(-2000.0, -2000.0);
06:38:44:205;;;;;;;;;;;;;;06:38:44:167;1447954721.96;(0.32036466598510743, 0.2427999708387587);26.2476615906;1.0;2;0;0;0;0;();(-2000.0, -2000.0);
06:38:44:222;;;;;;;;;;;;;;06:38:44:167;1447954721.96;(0.32036466598510743, 0.2427999708387587);26.2476615906;1.0;2;0;0;0;0;();(-2000.0, -2000.0);
06:38:44:238;;;;;;;;;;;;;;06:38:44:167;1447954721.96;(0.32036466598510743, 0.2427999708387587);26.2476615906;1.0;2;0;0;0;0;();(-2000.0, -2000.0);
06:38:44:255;;;;;;;;;;;;;;06:38:44:252;1447954722.03;(0.32042131423950193, 0.2430246141221788);25.9217815399;1.0;2;0;0;0;0;();(-2000.0, -2000.0);
06:38:44:288;;;;;;;;;;;;;;06:38:44:252;1447954722.03;(0.32042131423950193, 0.2430246141221788);25.9217815399;1.0;2;0;0;0;0;();(-2000.0, -2000.0);
06:38:44:305;;;;;;;;;;;;;;06:38:44:291;1447954722.09;(0.32052547931671144, 0.24297078450520837);26.5358657837;1.0;2;0;0;0;0;();(-2000.0, -2000.0);
06:38:44:321;;;;;;;;;;;;;;06:38:44:291;1447954722.09;(0.32052547931671144, 0.24297078450520837);26.5358657837;1.0;2;0;0;0;0;();(-2000.0, -2000.0);
06:38:44:338;;;;;;;;;;;;;;06:38:44:291;1447954722.09;(0.32052547931671144, 0.24297078450520837);26.5358657837;1.0;2;0;0;0;0;();(-2000.0, -2000.0);
06:38:44:371;;;;;;;;;;;;;;06:38:44:291;1447954722.09;(0.32052547931671144, 0.24297078450520837);26.5358657837;1.0;2;0;0;0;0;();(-2000.0, -2000.0);
06:38:44:387;;;;;;;;;;;;;;06:38:44:376;1447954722.16;(0.32059690952301023, 0.2428869459364149);26.2860088348;1.0;2;0;0;0;0;();(-2000.0, -2000.0);
06:38:44:404;;;;;;;;;;;;;;06:38:44:376;1447954722.16;(0.32059690952301023, 0.2428869459364149);26.2860088348;1.0;2;0;0;0;0;();(-2000.0, -2000.0);
06:38:44:421;;;;;;;;;;;;;;06:38:44:376;1447954722.16;(0.32059690952301023, 0.2428869459364149);26.2860088348;1.0;2;0;0;0;0;();(-2000.0, -2000.0);
06:38:44:437;;;;;;;;;;;;;;06:38:44:376;1447954722.16;(0.32059690952301023, 0.2428869459364149);26.2860088348;1.0;2;0;0;0;0;();(-2000.0, -2000.0);
06:38:44:470;;;;;;;;;;;;;;06:38:44:460;1447954722.23;(0.3202871322631836, 0.2427237616644965);26.1878471375;1.0;2;0;0;0;0;();(-2000.0, -2000.0);
06:38:44:487;;;;;;;;;;;;;;06:38:44:460;1447954722.23;(0.3202871322631836, 0.2427237616644965);26.1878471375;1.0;2;0;0;0;0;();(-2000.0, -2000.0);
06:38:44:503;;;;;;;;;;;;;;06:38:44:499;1447954722.29;(0.32057254314422606, 0.2426167805989583);25.8109111786;1.0;2;0;0;0;0;();(-2000.0, -2000.0);
06:38:44:520;;;;;;;;;;;;;;06:38:44:499;1447954722.29;(0.32057254314422606, 0.2426167805989583);25.8109111786;1.0;2;0;0;0;0;();(-2000.0, -2000.0);
06:38:44:536;;;;;;;;;;;;;;06:38:44:499;1447954722.29;(0.32057254314422606, 0.2426167805989583);25.8109111786;1.0;2;0;0;0;0;();(-2000.0, -2000.0);
06:38:44:570;;;;;;;;;;;;;;06:38:44:499;1447954722.29;(0.32057254314422606, 0.2426167805989583);25.8109111786;1.0;2;0;0;0;0;();(-2000.0, -2000.0);
06:38:44:586;;;;;;;;;;;;;;06:38:44:584;1447954722.36;(0.320303750038147, 0.2428263346354167);26.3559055328;1.0;2;0;0;0;0;();(-2000.0, -2000.0);
06:38:44:603;;;;;;;;;;;;;;06:38:44:584;1447954722.36;(0.320303750038147, 0.2428263346354167);26.3559055328;1.0;2;0;0;0;0;();(-2000.0, -2000.0);
06:38:45:134;06:38:45:131;0;10;-1.5;1;0;0;0;0;1;1;1;1;06:38:45:123;1447954722.89;(0.3205893039703369, 0.24262229071723085);26.4626064301;1.0;2;0;0;0;0;();(-2000.0, -2000.0);
06:38:45:137;06:38:45:137;0;10;-1.5;1;0;0;0;0;1;1;1;1;06:38:45:123;1447954722.89;(0.3205893039703369, 0.24262229071723085);26.4626064301;1.0;2;0;0;0;0;();(-2000.0, -2000.0);
06:38:45:139;06:38:45:139;0;5;-1.5;1;0;0;0;0;1;1;1;1;06:38:45:123;1447954722.89;(0.3205893039703369, 0.24262229071723085);26.4626064301;1.0;2;0;0;0;0;();(-2000.0, -2000.0);
06:38:45:143;06:38:45:143;0;5;-1.5;1;0;0;0;0;1;1;1;1;06:38:45:123;1447954722.89;(0.3205893039703369, 0.24262229071723085);26.4626064301;1.0;2;0;0;0;0;();(-2000.0, -2000.0);
06:38:45:145;06:38:45:145;0;5;-1.5;1;0;0;0;0;1;1;1;1;06:38:45:123;1447954722.89;(0.3205893039703369, 0.24262229071723085);26.4626064301;1.0;2;0;0;0;0;();(-2000.0, -2000.0);
06:38:45:148;06:38:45:148;0;5;-1.5;1;0;0;0;0;1;1;1;1;06:38:45:123;1447954722.89;(0.3205893039703369, 0.24262229071723085);26.4626064301;1.0;2;0;0;0;0;();(-2000.0, -2000.0);
06:38:45:150;06:38:45:150;0;5;-1.5;1;0;0;0;0;1;1;1;1;06:38:45:123;1447954722.89;(0.3205893039703369, 0.24262229071723085);26.4626064301;1.0;2;0;0;0;0;();(-2000.0, -2000.0);
06:38:45:151;06:38:45:151;0;5;-1.5;1;0;0;0;0;1;1;1;1;06:38:45:123;1447954722.89;(0.3205893039703369, 0.24262229071723085);26.4626064301;1.0;2;0;0;0;0;();(-2000.0, -2000.0);
06:38:45:153;06:38:45:153;0;15;-1.5;1;0;0;0;0;1;1;1;1;06:38:45:123;1447954722.89;(0.3205893039703369, 0.24262229071723085);26.4626064301;1.0;2;0;0;0;0;();(-2000.0, -2000.0);
06:38:45:155;06:38:45:154;0;15;-1.5;1;0;0;0;0;1;1;1;1;06:38:45:123;1447954722.89;(0.3205893039703369, 0.24262229071723085);26.4626064301;1.0;2;0;0;0;0;();(-2000.0, -2000.0);
06:38:45:156;06:38:45:156;0;15;-1.5;1;0;0;0;0;1;1;1;1;06:38:45:123;1447954722.89;(0.3205893039703369, 0.24262229071723085);26.4626064301;1.0;2;0;0;0;0;();(-2000.0, -2000.0);
06:38:45:158;06:38:45:158;0;9;-1.5;1;0;0;0;0;1;1;1;1;06:38:45:123;1447954722.89;(0.3205893039703369, 0.24262229071723085);26.4626064301;1.0;2;0;0;0;0;();(-2000.0, -2000.0);
06:38:45:160;06:38:45:160;0;10;-1.5;1;0;0;0;0;1;1;1;1;06:38:45:123;1447954722.89;(0.3205893039703369, 0.24262229071723085);26.4626064301;1.0;2;0;0;0;0;();(-2000.0, -2000.0);
06:38:45:161;06:38:45:161;0;10;-1.5;1;0;0;0;0;1;1;1;1;06:38:45:123;1447954722.89;(0.3205893039703369, 0.24262229071723085);26.4626064301;1.0;2;0;0;0;0;();(-2000.0, -2000.0);
06:38:45:163;06:38:45:163;0;10;-1.5;1;0;0;0;0;1;1;1;1;06:38:45:123;1447954722.89;(0.3205893039703369, 0.24262229071723085);26.4626064301;1.0;2;0;0;0;0;();(-2000.0, -2000.0);
06:38:45:164;06:38:45:164;0;10;-1.5;1;0;0;0;0;1;1;1;1;06:38:45:164;1447954722.96;(0.3203115701675415, 0.242771487765842);26.6396331787;1.0;2;0;0;0;0;();(-2000.0, -2000.0);
06:38:45:166;06:38:45:166;0;10;-1.5;1;0;0;0;0;1;1;1;1;06:38:45:164;1447954722.96;(0.3203115701675415, 0.242771487765842);26.6396331787;1.0;2;0;0;0;0;();(-2000.0, -2000.0);
06:38:45:169;06:38:45:169;0;10;-1.5;1;0;0;0;0;1;1;1;1;06:38:45:164;1447954722.96;(0.3203115701675415, 0.242771487765842);26.6396331787;1.0;2;0;0;0;0;();(-2000.0, -2000.0);
06:38:45:173;06:38:45:171;0;10;-1.5;1;0;0;0;0;1;1;1;1;06:38:45:164;1447954722.96;(0.3203115701675415, 0.242771487765842);26.6396331787;1.0;2;0;0;0;0;();(-2000.0, -2000.0);
06:38:45:203;06:38:45:203;0;10;-1.5;1;0;0;0;0;1;1;1;1;06:38:45:164;1447954722.96;(0.3203115701675415, 0.242771487765842);26.6396331787;1.0;2;0;0;0;0;();(-2000.0, -2000.0);
06:38:45:226;06:38:45:226;0;1;-1.5;1;0;0;0;0;1;1;1;1;06:38:45:164;1447954722.96;(0.3203115701675415, 0.242771487765842);26.6396331787;1.0;4;0;0;0;0;();(-2000.0, -2000.0);
06:38:45:236;06:38:45:236;0;10;-1.5;1;0;0;0;0;1;1;1;1;06:38:45:164;1447954722.96;(0.3203115701675415, 0.242771487765842);26.6396331787;1.0;4;0;0;0;0;();(-2000.0, -2000.0);
06:38:45:252;06:38:45:252;0;0;-1.5;1;0;0;0;0;1;1;1;1;06:38:45:248;1447954723.03;(0.3205554008483887, 0.24230855305989585);26.5817279816;1.0;4;0;0;0;0;();(-2000.0, -2000.0);
06:38:45:286;06:38:45:285;0;0;-1.5;1;0;0;0;0;1;1;1;1;06:38:45:248;1447954723.03;(0.3205554008483887, 0.24230855305989585);26.5817279816;1.0;4;0;0;0;0;();(-2000.0, -2000.0);
06:38:45:302;06:38:45:302;0;5;-1.5;1;0;0;0;0;1;1;1;1;06:38:45:248;1447954723.03;(0.3205554008483887, 0.24230855305989585);26.5817279816;1.0;4;0;0;0;0;();(-2000.0, -2000.0);
06:38:45:319;06:38:45:319;0;15;-1.5;1;0;0;0;0;1;1;1;1;06:38:45:248;1447954723.03;(0.3205554008483887, 0.24230855305989585);26.5817279816;1.0;4;0;0;0;0;();(-2000.0, -2000.0);
06:38:45:335;06:38:45:335;0;6;-1.5;1;0;0;0;0;1;1;1;1;06:38:45:328;1447954723.09;(0.3205810785293579, 0.24221945868598094);26.0251522064;1.0;4;0;0;0;0;();(-2000.0, -2000.0);
06:38:45:352;06:38:45:352;0;0;-1.5;1;0;0;0;0;1;1;1;1;06:38:45:328;1447954723.09;(0.3205810785293579, 0.24221945868598094);26.0251522064;1.0;4;0;0;0;0;();(-2000.0, -2000.0);
06:38:45:385;06:38:45:385;0;15;-1.5;1;0;0;0;0;1;1;1;1;06:38:45:373;1447954723.16;(0.32039246559143064, 0.2420437282986111);26.7284545898;1.0;4;0;0;0;0;();(-2000.0, -2000.0);
06:38:45:402;06:38:45:401;0;5;-1.5;1;0;0;0;0;1;1;1;1;06:38:45:373;1447954723.16;(0.32039246559143064, 0.2420437282986111);26.7284545898;1.0;4;0;0;0;0;();(-2000.0, -2000.0);
06:38:45:418;06:38:45:418;0;0;-1.5;1;0;0;0;0;1;1;1;1;06:38:45:373;1447954723.16;(0.32039246559143064, 0.2420437282986111);26.7284545898;1.0;4;0;0;0;0;();(-2000.0, -2000.0);
06:38:45:435;06:38:45:434;0;5;-1.5;1;0;0;0;0;1;1;1;1;06:38:45:373;1447954723.16;(0.32039246559143064, 0.2420437282986111);26.7284545898;1.0;4;0;0;0;0;();(-2000.0, -2000.0);
06:38:45:451;06:38:45:451;0;0;-1.5;1;0;0;0;0;1;1;1;1;06:38:45:373;1447954723.16;(0.32039246559143064, 0.2420437282986111);26.7284545898;1.0;4;0;0;0;0;();(-2000.0, -2000.0);
06:38:45:484;06:38:45:484;0;15;-1.5;1;0;0;0;0;1;1;1;1;06:38:45:452;1447954723.23;(0.320662784576416, 0.24316313001844614);26.2419681549;1.0;4;0;0;0;0;();(-2000.0, -2000.0);
06:38:45:501;06:38:45:501;0;5;-1.5;1;0;0;0;0;1;1;1;1;06:38:45:500;1447954723.29;(0.32052297592163087, 0.24221225314670136);26.2059631348;1.0;4;0;0;0;0;();(-2000.0, -2000.0);
06:38:45:517;06:38:45:517;0;11;-1.5;1;0;0;0;0;1;1;1;1;06:38:45:500;1447954723.29;(0.32052297592163087, 0.24221225314670136);26.2059631348;1.0;4;0;0;0;0;();(-2000.0, -2000.0);
06:38:45:534;06:38:45:534;0;5;-1.5;1;0;0;0;0;1;1;1;1;06:38:45:500;1447954723.29;(0.32052297592163087, 0.24221225314670136);26.2059631348;1.0;4;0;0;0;0;();(-2000.0, -2000.0);
06:38:45:550;06:38:45:550;0;10;-1.5;1;0;0;0;0;1;1;1;1;06:38:45:500;1447954723.29;(0.32052297592163087, 0.24221225314670136);26.2059631348;1.0;4;0;0;0;0;();(-2000.0, -2000.0);
06:38:45:584;06:38:45:584;0;5;-1.5;1;0;0;0;0;1;1;1;1;06:38:45:580;1447954723.36;(0.32048513889312746, 0.24294713338216145);26.6213817596;1.0;4;0;0;0;0;();(-2000.0, -2000.0);
06:38:45:600;06:38:45:600;0;5;-1.5;1;0;0;0;0;1;1;1;1;06:38:45:580;1447954723.36;(0.32048513889312746, 0.24294713338216145);26.6213817596;1.0;4;0;0;0;0;();(-2000.0, -2000.0);
06:38:45:617;06:38:45:617;0;10;-1.5;1;0;0;0;0;1;1;1;1;06:38:45:580;1447954723.36;(0.32048513889312746, 0.24294713338216145);26.6213817596;1.0;4;0;0;0;0;();(-2000.0, -2000.0);
06:38:45:633;06:38:45:633;0;15;-1.5;1;0;0;0;0;1;1;1;1;06:38:45:580;1447954723.36;(0.32048513889312746, 0.24294713338216145);26.6213817596;1.0;4;0;0;0;0;();(-2000.0, -2000.0);
06:38:45:650;06:38:45:650;0;10;-1.5;1;0;0;0;0;1;1;1;1;06:38:45:580;1447954723.36;(0.32048513889312746, 0.24294713338216145);26.6213817596;1.0;4;0;0;0;0;();(-2000.0, -2000.0);
06:38:45:683;06:38:45:683;0;11;-1.5;1;0;0;0;0;1;1;1;1;06:38:45:661;1447954723.43;(0.32044713497161864, 0.24244088066948788);26.2681083679;1.0;4;0;0;0;0;();(-2000.0, -2000.0);
06:38:45:700;06:38:45:700;0;0;-1.5;1;0;0;0;0;1;1;1;1;06:38:45:661;1447954723.43;(0.32044713497161864, 0.24244088066948788);26.2681083679;1.0;4;0;0;0;0;();(-2000.0, -2000.0);
06:38:45:716;06:38:45:716;0;1;-1.5;1;0;0;0;0;1;1;1;1;06:38:45:703;1447954723.49;(0.32070915699005126, 0.24259321424696179);26.4736289978;1.0;4;0;0;0;0;();(-2000.0, -2000.0);
06:38:45:733;06:38:45:733;0;15;-1.5;1;0;0;0;0;1;1;1;1;06:38:45:703;1447954723.49;(0.32070915699005126, 0.24259321424696179);26.4736289978;1.0;4;0;0;0;0;();(-2000.0, -2000.0);
06:38:45:749;06:38:45:749;0;5;-1.5;1;0;0;0;0;1;1;1;1;06:38:45:703;1447954723.49;(0.32070915699005126, 0.24259321424696179);26.4736289978;1.0;4;0;0;0;0;();(-2000.0, -2000.0);
06:38:45:782;06:38:45:782;0;5;-1.5;1;0;0;0;0;1;1;1;1;06:38:45:703;1447954723.49;(0.32070915699005126, 0.24259321424696179);26.4736289978;1.0;4;0;0;0;0;();(-2000.0, -2000.0);
06:38:45:799;06:38:45:799;0;15;-1.5;1;0;0;0;0;1;1;1;1;06:38:45:783;1447954723.56;(0.3203399658203125, 0.24277123345269103);26.4666996002;1.0;4;0;0;0;0;();(-2000.0, -2000.0);
06:38:45:816;06:38:45:815;0;5;-1.5;1;0;0;0;0;1;1;1;1;06:38:45:783;1447954723.56;(0.3203399658203125, 0.24277123345269103);26.4666996002;1.0;4;0;0;0;0;();(-2000.0, -2000.0);
06:38:45:832;06:38:45:832;0;0;-1.5;1;0;0;0;0;1;1;1;1;06:38:45:827;1447954723.63;(0.32057626247406007, 0.2425036112467448);26.4549846649;1.0;4;0;0;0;0;();(-2000.0, -2000.0);
06:38:45:865;06:38:45:865;0;15;-1.5;1;0;0;0;0;1;1;1;1;06:38:45:827;1447954723.63;(0.32057626247406007, 0.2425036112467448);26.4549846649;1.0;4;0;0;0;0;();(-2000.0, -2000.0);
06:38:45:882;06:38:45:882;0;5;-1.5;1;0;0;0;0;1;1;1;1;06:38:45:827;1447954723.63;(0.32057626247406007, 0.2425036112467448);26.4549846649;1.0;4;0;0;0;0;();(-2000.0, -2000.0);
06:38:45:898;06:38:45:898;0;11;-1.5;1;0;0;0;0;1;1;1;1;06:38:45:827;1447954723.63;(0.32057626247406007, 0.2425036112467448);26.4549846649;1.0;4;0;0;0;0;();(-2000.0, -2000.0);
06:38:45:915;06:38:45:915;0;5;-1.5;1;0;0;0;0;1;1;1;1;06:38:45:912;1447954723.69;(0.3205327033996582, 0.24268205430772571);26.4934597015;1.0;4;0;0;0;0;();(-2000.0, -2000.0);
06:38:45:931;06:38:45:931;0;10;-1.5;1;0;0;0;0;1;1;1;1;06:38:45:912;1447954723.69;(0.3205327033996582, 0.24268205430772571);26.4934597015;1.0;4;0;0;0;0;();(-2000.0, -2000.0);
06:38:45:965;06:38:45:965;0;10;-1.5;1;0;0;0;0;1;1;1;1;06:38:45:912;1447954723.69;(0.3205327033996582, 0.24268205430772571);26.4934597015;1.0;4;0;0;0;0;();(-2000.0, -2000.0);
06:38:45:981;06:38:45:981;0;0;-1.5;1;0;0;0;0;1;1;1;1;06:38:45:912;1447954723.69;(0.3205327033996582, 0.24268205430772571);26.4934597015;1.0;4;0;0;0;0;();(-2000.0, -2000.0);
06:38:45:998;06:38:45:998;0;0;-1.5;1;0;0;0;0;1;1;1;1;06:38:45:991;1447954723.76;(0.320736289024353, 0.24295772976345487);26.7761135101;1.0;4;0;0;0;0;();(-2000.0, -2000.0);
06:38:46:014;06:38:46:014;0;5;-1.5;1;0;0;0;0;1;1;1;1;06:38:45:991;1447954723.76;(0.320736289024353, 0.24295772976345487);26.7761135101;1.0;4;0;0;0;0;();(-2000.0, -2000.0);
06:38:46:031;06:38:46:031;0;10;-1.5;1;0;0;0;0;1;1;1;1;06:38:45:991;1447954723.76;(0.320736289024353, 0.24295772976345487);26.7761135101;1.0;4;0;0;0;0;();(-2000.0, -2000.0);
06:38:46:064;06:38:46:064;0;11;-1.5;1;0;0;0;0;1;1;1;1;06:38:46:035;1447954723.83;(0.3207923650741577, 0.24304512871636286);26.9127674103;1.0;4;0;0;0;0;();(-2000.0, -2000.0);
06:38:46:081;06:38:46:081;0;15;-1.5;1;0;0;0;0;1;1;1;1;06:38:46:035;1447954723.83;(0.3207923650741577, 0.24304512871636286);26.9127674103;1.0;4;0;0;0;0;();(-2000.0, -2000.0);
06:38:46:097;06:38:46:097;0;11;-1.5;1;0;0;0;0;1;1;1;1;06:38:46:035;1447954723.83;(0.3207923650741577, 0.24304512871636286);26.9127674103;1.0;4;0;0;0;0;();(-2000.0, -2000.0);
06:38:46:114;06:38:46:114;0;15;-1.5;1;0;0;0;0;1;1;1;1;06:38:46:035;1447954723.83;(0.3207923650741577, 0.24304512871636286);26.9127674103;1.0;4;0;0;0;0;();(-2000.0, -2000.0);
06:38:46:130;06:38:46:130;0;10;-1.5;1;0;0;0;0;1;1;1;1;06:38:46:117;1447954723.89;(0.3208070993423462, 0.2427370707194011);26.5669116974;1.0;4;0;0;0;0;();(-2000.0, -2000.0);
06:38:46:163;06:38:46:163;0;5;-1.5;1;0;0;0;0;1;1;1;1;06:38:46:160;1447954723.96;(0.3205738067626953, 0.24230846828884545);26.4017333984;1.0;4;0;0;0;0;();(-2000.0, -2000.0);
06:38:46:180;06:38:46:180;0;15;-1.5;1;0;0;0;0;1;1;1;1;06:38:46:160;1447954723.96;(0.3205738067626953, 0.24230846828884545);26.4017333984;1.0;4;0;0;0;0;();(-2000.0, -2000.0);
06:38:46:197;06:38:46:197;0;5;-1.5;1;0;0;0;0;1;1;1;1;06:38:46:160;1447954723.96;(0.3205738067626953, 0.24230846828884545);26.4017333984;1.0;4;0;0;0;0;();(-2000.0, -2000.0);
06:38:46:213;06:38:46:213;0;0;-1.5;1;0;0;0;0;1;1;1;1;06:38:46:160;1447954723.96;(0.3205738067626953, 0.24230846828884545);26.4017333984;1.0;4;0;0;0;0;();(-2000.0, -2000.0);
06:38:46:230;06:38:46:230;0;5;-1.5;1;0;0;0;0;1;1;1;1;06:38:46:160;1447954723.96;(0.3205738067626953, 0.24230846828884545);26.4017333984;1.0;4;0;0;0;0;();(-2000.0, -2000.0);
06:38:46:263;06:38:46:263;0;5;-1.5;1;0;0;0;0;1;1;1;1;06:38:46:244;1447954724.03;(0.32047557830810547, 0.24313863118489587);26.7894535065;1.0;4;0;0;0;0;();(-2000.0, -2000.0);
06:38:46:279;06:38:46:279;0;15;-1.5;1;0;0;0;0;1;1;1;1;06:38:46:244;1447954724.03;(0.32047557830810547, 0.24313863118489587);26.7894535065;1.0;4;0;0;0;0;();(-2000.0, -2000.0);
06:38:46:296;06:38:46:296;0;5;-1.5;1;0;0;0;0;1;1;1;1;06:38:46:244;1447954724.03;(0.32047557830810547, 0.24313863118489587);26.7894535065;1.0;4;0;0;0;0;();(-2000.0, -2000.0);
06:38:46:313;06:38:46:313;0;11;-1.5;1;0;0;0;0;1;1;1;1;06:38:46:244;1447954724.03;(0.32047557830810547, 0.24313863118489587);26.7894535065;1.0;4;0;0;0;0;();(-2000.0, -2000.0);
06:38:46:329;06:38:46:329;0;5;-1.5;1;0;0;0;0;1;1;1;1;06:38:46:323;1447954724.09;(0.3206003665924072, 0.2427892896864149);26.2644710541;1.0;4;0;0;0;0;();(-2000.0, -2000.0);
06:38:46:362;06:38:46:362;0;5;-1.5;1;0;0;0;0;1;1;1;1;06:38:46:323;1447954724.09;(0.3206003665924072, 0.2427892896864149);26.2644710541;1.0;4;0;0;0;0;();(-2000.0, -2000.0);
06:38:46:379;06:38:46:379;0;11;-1.5;1;0;0;0;0;1;1;1;1;06:38:46:367;1447954724.16;(0.3206520080566406, 0.24273571438259545);26.719499588;1.0;4;0;0;0;0;();(-2000.0, -2000.0);
06:38:46:395;06:38:46:395;0;5;-1.5;1;0;0;0;0;1;1;1;1;06:38:46:367;1447954724.16;(0.3206520080566406, 0.24273571438259545);26.719499588;1.0;4;0;0;0;0;();(-2000.0, -2000.0);
06:38:46:412;06:38:46:412;0;1;-1.5;1;0;0;0;0;1;1;1;1;06:38:46:367;1447954724.16;(0.3206520080566406, 0.24273571438259545);26.719499588;1.0;4;0;0;0;0;();(-2000.0, -2000.0);
06:38:46:445;06:38:46:445;0;15;-1.5;1;0;0;0;0;1;1;1;1;06:38:46:367;1447954724.16;(0.3206520080566406, 0.24273571438259545);26.719499588;1.0;4;0;0;0;0;();(-2000.0, -2000.0);
06:38:46:462;06:38:46:462;0;5;-1.5;1;0;0;0;0;1;1;1;1;06:38:46:448;1447954724.23;(0.3205364942550659, 0.2429092407226563);26.4622058868;1.0;4;0;0;0;0;();(-2000.0, -2000.0);
06:38:46:478;06:38:46:478;0;11;-1.5;1;0;0;0;0;1;1;1;1;06:38:46:448;1447954724.23;(0.3205364942550659, 0.2429092407226563);26.4622058868;1.0;4;0;0;0;0;();(-2000.0, -2000.0);
06:38:46:495;06:38:46:495;0;11;-1.5;1;0;0;0;0;1;1;1;1;06:38:46:448;1447954724.23;(0.3205364942550659, 0.2429092407226563);26.4622058868;1.0;4;0;0;0;0;();(-2000.0, -2000.0);
06:38:46:511;06:38:46:511;0;0;-1.5;1;0;0;0;0;1;1;1;1;06:38:46:448;1447954724.23;(0.3205364942550659, 0.2429092407226563);26.4622058868;1.0;4;0;0;0;0;();(-2000.0, -2000.0);
06:38:46:544;06:38:46:544;0;11;-1.5;1;0;0;0;0;1;1;1;1;06:38:46:532;1447954724.29;(0.3205902338027954, 0.2421981811523437);26.868844986;1.0;4;0;0;0;0;();(-2000.0, -2000.0);
06:38:46:561;06:38:46:561;0;0;-1.5;1;0;0;0;0;1;1;1;1;06:38:46:532;1447954724.29;(0.3205902338027954, 0.2421981811523437);26.868844986;1.0;4;0;0;0;0;();(-2000.0, -2000.0);
06:38:46:578;06:38:46:578;0;10;-1.5;1;0;0;0;0;1;1;1;1;06:38:46:571;1447954724.36;(0.3207193374633789, 0.2423639085557726);26.5563621521;1.0;4;0;0;0;0;();(-2000.0, -2000.0);
06:38:46:594;06:38:46:594;0;15;-1.5;1;0;0;0;0;1;1;1;1;06:38:46:571;1447954724.36;(0.3207193374633789, 0.2423639085557726);26.5563621521;1.0;4;0;0;0;0;();(-2000.0, -2000.0);
06:38:46:611;06:38:46:611;0;5;-1.5;1;0;0;0;0;1;1;1;1;06:38:46:571;1447954724.36;(0.3207193374633789, 0.2423639085557726);26.5563621521;1.0;4;0;0;0;0;();(-2000.0, -2000.0);
06:38:46:644;06:38:46:644;0;5;-1.5;1;0;0;0;0;1;1;1;1;06:38:46:571;1447954724.36;(0.3207193374633789, 0.2423639085557726);26.5563621521;1.0;4;0;0;0;0;();(-2000.0, -2000.0);
06:38:46:660;06:38:46:660;0;0;-1.5;1;0;0;0;0;1;1;1;1;06:38:46:655;1447954724.43;(0.32038328647613523, 0.24224505954318576);26.8348445892;1.0;4;0;0;0;0;();(-2000.0, -2000.0);
06:38:46:677;06:38:46:677;0;5;-1.5;1;0;0;0;0;1;1;1;1;06:38:46:655;1447954724.43;(0.32038328647613523, 0.24224505954318576);26.8348445892;1.0;4;0;0;0;0;();(-2000.0, -2000.0);
06:38:46:694;06:38:46:694;0;0;-1.5;1;0;0;0;0;1;1;1;1;06:38:46:655;1447954724.43;(0.32038328647613523, 0.24224505954318576);26.8348445892;1.0;4;0;0;0;0;();(-2000.0, -2000.0);
06:38:46:710;06:38:46:710;0;5;-1.5;1;0;0;0;0;1;1;1;1;06:38:46:700;1447954724.49;(0.3205709934234619, 0.24279827541775179);26.826833725;1.0;4;0;0;0;0;();(-2000.0, -2000.0);
06:38:46:743;06:38:46:743;0;1;-1.5;1;0;0;0;0;1;1;1;1;06:38:46:700;1447954724.49;(0.3205709934234619, 0.24279827541775179);26.826833725;1.0;4;0;0;0;0;();(-2000.0, -2000.0);
06:38:46:760;06:38:46:760;0;15;-1.5;1;0;0;0;0;1;1;1;1;06:38:46:700;1447954724.49;(0.3205709934234619, 0.24279827541775179);26.826833725;1.0;4;0;0;0;0;();(-2000.0, -2000.0);
06:38:46:776;06:38:46:776;0;5;-1.5;1;0;0;0;0;1;1;1;1;06:38:46:700;1447954724.49;(0.3205709934234619, 0.24279827541775179);26.826833725;1.0;4;0;0;0;0;();(-2000.0, -2000.0);
06:38:46:793;06:38:46:793;0;0;-1.5;1;0;0;0;0;1;1;1;1;06:38:46:780;1447954724.56;(0.3205968141555786, 0.24236102634006074);26.7344799042;1.0;4;0;0;0;0;();(-2000.0, -2000.0);
06:38:46:810;06:38:46:809;0;5;-1.5;1;0;0;0;0;1;1;1;1;06:38:46:780;1447954724.56;(0.3205968141555786, 0.24236102634006074);26.7344799042;1.0;4;0;0;0;0;();(-2000.0, -2000.0);
06:38:46:843;06:38:46:843;0;5;-1.5;1;0;0;0;0;1;1;1;1;06:38:46:823;1447954724.63;(0.32032389640808107, 0.2424530877007378);26.2492923737;1.0;4;0;0;0;0;();(-2000.0, -2000.0);
06:38:46:859;06:38:46:859;0;11;-1.5;1;0;0;0;0;1;1;1;1;06:38:46:823;1447954724.63;(0.32032389640808107, 0.2424530877007378);26.2492923737;1.0;4;0;0;0;0;();(-2000.0, -2000.0);
06:38:46:876;06:38:46:876;0;5;-1.5;1;0;0;0;0;1;1;1;1;06:38:46:823;1447954724.63;(0.32032389640808107, 0.2424530877007378);26.2492923737;1.0;4;0;0;0;0;();(-2000.0, -2000.0);
06:38:46:892;06:38:46:892;0;10;-1.5;1;0;0;0;0;1;1;1;1;06:38:46:823;1447954724.63;(0.32032389640808107, 0.2424530877007378);26.2492923737;1.0;4;0;0;0;0;();(-2000.0, -2000.0);
06:38:46:926;06:38:46:926;0;10;-1.5;1;0;0;0;0;1;1;1;1;06:38:46:904;1447954724.69;(0.3204134702682495, 0.24257236056857634);26.2619628906;1.0;4;0;0;0;0;();(-2000.0, -2000.0);
06:38:46:942;06:38:46:942;0;15;-1.5;1;0;0;0;0;1;1;1;1;06:38:46:904;1447954724.69;(0.3204134702682495, 0.24257236056857634);26.2619628906;1.0;4;0;0;0;0;();(-2000.0, -2000.0);
06:38:46:959;06:38:46:959;0;11;-1.5;1;0;0;0;0;1;1;1;1;06:38:46:904;1447954724.69;(0.3204134702682495, 0.24257236056857634);26.2619628906;1.0;4;0;0;0;0;();(-2000.0, -2000.0);
06:38:46:975;06:38:46:975;0;12;-1.5;1;0;0;0;0;1;1;1;1;06:38:46:904;1447954724.69;(0.3204134702682495, 0.24257236056857634);26.2619628906;1.0;4;0;0;0;0;();(-2000.0, -2000.0);
06:38:46:992;06:38:46:992;0;10;-1.5;1;0;0;0;0;1;1;1;1;06:38:46:988;1447954724.76;(0.32047362327575685, 0.24261186387803824);25.9554176331;1.0;4;0;0;0;0;();(-2000.0, -2000.0);
06:38:47:025;06:38:47:025;0;11;-1.5;1;0;0;0;0;1;1;1;1;06:38:46:988;1447954724.76;(0.32047362327575685, 0.24261186387803824);25.9554176331;1.0;4;0;0;0;0;();(-2000.0, -2000.0);
06:38:47:041;06:38:47:041;0;0;-1.5;1;0;0;0;0;1;1;1;1;06:38:47:031;1447954724.83;(0.3205129146575928, 0.24233940972222223);26.0171947479;1.0;4;0;0;0;0;();(-2000.0, -2000.0);
06:38:47:058;06:38:47:058;0;5;-1.5;1;0;0;0;0;1;1;1;1;06:38:47:031;1447954724.83;(0.3205129146575928, 0.24233940972222223);26.0171947479;1.0;4;0;0;0;0;();(-2000.0, -2000.0);
06:38:47:075;06:38:47:075;0;15;-1.5;1;0;0;0;0;1;1;1;1;06:38:47:031;1447954724.83;(0.3205129146575928, 0.24233940972222223);26.0171947479;1.0;4;0;0;0;0;();(-2000.0, -2000.0);
06:38:47:091;06:38:47:091;0;11;-1.5;1;0;0;0;0;1;1;1;1;06:38:47:031;1447954724.83;(0.3205129146575928, 0.24233940972222223);26.0171947479;1.0;4;0;0;0;0;();(-2000.0, -2000.0);
06:38:47:124;06:38:47:124;0;5;-1.5;1;0;0;0;0;1;1;1;1;06:38:47:112;1447954724.89;(0.32064602375030515, 0.2425013224283854);26.1692905426;1.0;4;0;0;0;0;();(-2000.0, -2000.0);
06:38:47:141;06:38:47:141;0;0;-1.5;1;0;0;0;0;1;1;1;1;06:38:47:112;1447954724.89;(0.32064602375030515, 0.2425013224283854);26.1692905426;1.0;4;0;0;0;0;();(-2000.0, -2000.0);
06:38:47:158;06:38:47:158;0;5;-1.5;1;0;0;0;0;1;1;1;1;06:38:47:155;1447954724.96;(0.32077152729034425, 0.24232881334092882);26.0566215515;1.0;4;0;0;0;0;();(-2000.0, -2000.0);
06:38:47:174;06:38:47:174;0;0;-1.5;1;0;0;0;0;1;1;1;1;06:38:47:155;1447954724.96;(0.32077152729034425, 0.24232881334092882);26.0566215515;1.0;4;0;0;0;0;();(-2000.0, -2000.0);
06:38:47:191;06:38:47:191;0;5;-1.5;1;0;0;0;0;1;1;1;1;06:38:47:155;1447954724.96;(0.32077152729034425, 0.24232881334092882);26.0566215515;1.0;4;0;0;0;0;();(-2000.0, -2000.0);
06:38:47:224;06:38:47:224;0;10;-1.5;1;0;0;0;0;1;1;1;1;06:38:47:155;1447954724.96;(0.32077152729034425, 0.24232881334092882);26.0566215515;1.0;4;0;0;0;0;();(-2000.0, -2000.0);
06:38:47:240;06:38:47:240;0;15;-1.5;1;0;0;0;0;1;1;1;1;06:38:47:236;1447954725.03;(0.32066538333892824, 0.24293212890625004);26.5913677216;1.0;4;0;0;0;0;();(-2000.0, -2000.0);
06:38:47:257;06:38:47:257;0;5;-1.5;1;0;0;0;0;1;1;1;1;06:38:47:236;1447954725.03;(0.32066538333892824, 0.24293212890625004);26.5913677216;1.0;4;0;0;0;0;();(-2000.0, -2000.0);
06:38:47:273;06:38:47:273;0;11;-1.5;1;0;0;0;0;1;1;1;1;06:38:47:236;1447954725.03;(0.32066538333892824, 0.24293212890625004);26.5913677216;1.0;4;0;0;0;0;();(-2000.0, -2000.0);
06:38:47:290;06:38:47:290;0;5;-1.5;1;0;0;0;0;1;1;1;1;06:38:47:236;1447954725.03;(0.32066538333892824, 0.24293212890625004);26.5913677216;1.0;4;0;0;0;0;();(-2000.0, -2000.0);
06:38:47:323;06:38:47:323;0;15;-1.5;1;0;0;0;0;1;1;1;1;06:38:47:320;1447954725.09;(0.32064735889434814, 0.2428265041775174);26.0708713531;1.0;4;0;0;0;0;();(-2000.0, -2000.0);
06:38:47:340;06:38:47:340;0;11;-1.5;1;0;0;0;0;1;1;1;1;06:38:47:320;1447954725.09;(0.32064735889434814, 0.2428265041775174);26.0708713531;1.0;4;0;0;0;0;();(-2000.0, -2000.0);
06:38:47:356;06:38:47:356;0;5;-1.5;1;0;0;0;0;1;1;1;1;06:38:47:320;1447954725.09;(0.32064735889434814, 0.2428265041775174);26.0708713531;1.0;4;0;0;0;0;();(-2000.0, -2000.0);
06:38:47:373;06:38:47:373;0;10;-1.5;1;0;0;0;0;1;1;1;1;06:38:47:360;1447954725.16;(0.3208155632019043, 0.24246597290039062);26.5287094116;1.0;4;0;0;0;0;();(-2000.0, -2000.0);
06:38:47:389;06:38:47:389;0;5;-1.5;1;0;0;0;0;1;1;1;1;06:38:47:360;1447954725.16;(0.3208155632019043, 0.24246597290039062);26.5287094116;1.0;4;0;0;0;0;();(-2000.0, -2000.0);
06:38:47:422;06:38:47:422;0;0;-1.5;1;0;0;0;0;1;1;1;1;06:38:47:360;1447954725.16;(0.3208155632019043, 0.24246597290039062);26.5287094116;1.0;4;0;0;0;0;();(-2000.0, -2000.0);
06:38:47:439;06:38:47:439;0;0;-1.5;1;0;0;0;0;1;1;1;1;06:38:47:360;1447954725.16;(0.3208155632019043, 0.24246597290039062);26.5287094116;1.0;4;0;0;0;0;();(-2000.0, -2000.0);
06:38:47:456;06:38:47:456;0;8;-1.5;1;0;0;0;0;1;1;1;1;06:38:47:444;1447954725.23;(0.3206284523010254, 0.24300308227539058);26.3684520721;1.0;4;0;0;0;0;();(-2000.0, -2000.0);
06:38:47:472;06:38:47:472;0;10;-1.5;1;0;0;0;0;1;1;1;1;06:38:47:444;1447954725.23;(0.3206284523010254, 0.24300308227539058);26.3684520721;1.0;4;0;0;0;0;();(-2000.0, -2000.0);
06:38:47:505;06:38:47:505;0;11;-1.5;1;0;0;0;0;1;1;1;1;06:38:47:444;1447954725.23;(0.3206284523010254, 0.24300308227539058);26.3684520721;1.0;4;0;0;0;0;();(-2000.0, -2000.0);
06:38:47:522;06:38:47:522;0;0;-1.5;1;0;0;0;0;1;1;1;1;06:38:47:444;1447954725.23;(0.3206284523010254, 0.24300308227539058);26.3684520721;1.0;4;0;0;0;0;();(-2000.0, -2000.0);
06:38:47:539;06:38:47:538;0;10;-1.5;1;0;0;0;0;1;1;1;1;06:38:47:527;1447954725.29;(0.3209555149078369, 0.24292034573025179);26.4119358063;1.0;4;0;0;0;0;();(-2000.0, -2000.0);
06:38:47:555;06:38:47:555;0;15;-1.5;1;0;0;0;0;1;1;1;1;06:38:47:527;1447954725.29;(0.3209555149078369, 0.24292034573025179);26.4119358063;1.0;4;0;0;0;0;();(-2000.0, -2000.0);
06:38:47:572;06:38:47:571;0;10;-1.5;1;0;0;0;0;1;1;1;1;06:38:47:568;1447954725.36;(0.32056269645690916, 0.2432403564453125);26.2173461914;1.0;4;0;0;0;0;();(-2000.0, -2000.0);
06:38:47:605;06:38:47:605;0;5;-1.5;1;0;0;0;0;1;1;1;1;06:38:47:568;1447954725.36;(0.32056269645690916, 0.2432403564453125);26.2173461914;1.0;4;0;0;0;0;();(-2000.0, -2000.0);
06:38:47:621;06:38:47:621;0;0;-1.5;1;0;0;0;0;1;1;1;1;06:38:47:568;1447954725.36;(0.32056269645690916, 0.2432403564453125);26.2173461914;1.0;4;0;0;0;0;();(-2000.0, -2000.0);
06:38:47:638;06:38:47:638;0;5;-1.5;1;0;0;0;0;1;1;1;1;06:38:47:568;1447954725.36;(0.32056269645690916, 0.2432403564453125);26.2173461914;1.0;4;0;0;0;0;();(-2000.0, -2000.0);
06:38:47:654;06:38:47:654;0;0;-1.5;1;0;0;0;0;1;1;1;1;06:38:47:652;1447954725.43;(0.32056972980499265, 0.24289711846245665);26.1646728516;1.0;4;0;0;0;0;();(-2000.0, -2000.0);
06:38:47:671;06:38:47:671;0;5;-1.5;1;0;0;0;0;1;1;1;1;06:38:47:652;1447954725.43;(0.32056972980499265, 0.24289711846245665);26.1646728516;1.0;4;0;0;0;0;();(-2000.0, -2000.0);
06:38:47:704;06:38:47:704;0;5;-1.5;1;0;0;0;0;1;1;1;1;06:38:47:652;1447954725.43;(0.32056972980499265, 0.24289711846245665);26.1646728516;1.0;4;0;0;0;0;();(-2000.0, -2000.0);
06:38:47:721;06:38:47:721;0;8;-1.5;1;0;0;0;0;1;1;1;1;06:38:47:652;1447954725.43;(0.32056972980499265, 0.24289711846245665);26.1646728516;1.0;4;0;0;0;0;();(-2000.0, -2000.0);
06:38:47:737;06:38:47:737;0;5;-1.5;1;0;0;0;0;1;1;1;1;06:38:47:735;1447954725.49;(0.32029616832733154, 0.24277894761827257);26.0057563782;1.0;4;0;0;0;0;();(-2000.0, -2000.0);
06:38:47:754;06:38:47:754;0;0;-1.5;1;0;0;0;0;1;1;1;1;06:38:47:735;1447954725.49;(0.32029616832733154, 0.24277894761827257);26.0057563782;1.0;4;0;0;0;0;();(-2000.0, -2000.0);
06:38:47:771;06:38:47:771;0;10;-1.5;1;0;0;0;0;1;1;1;1;06:38:47:735;1447954725.49;(0.32029616832733154, 0.24277894761827257);26.0057563782;1.0;4;0;0;0;0;();(-2000.0, -2000.0);
06:38:47:804;06:38:47:804;0;5;-1.5;1;0;0;0;0;1;1;1;1;06:38:47:776;1447954725.56;(0.32032179832458496, 0.24280471801757808);26.2612018585;1.0;4;0;0;0;0;();(-2000.0, -2000.0);
06:38:47:820;06:38:47:820;0;11;-1.5;1;0;0;0;0;1;1;1;1;06:38:47:776;1447954725.56;(0.32032179832458496, 0.24280471801757808);26.2612018585;1.0;4;0;0;0;0;();(-2000.0, -2000.0);
06:38:47:837;06:38:47:837;0;5;-1.5;1;0;0;0;0;1;1;1;1;06:38:47:776;1447954725.56;(0.32032179832458496, 0.24280471801757808);26.2612018585;1.0;4;0;0;0;0;();(-2000.0, -2000.0);
06:38:47:853;06:38:47:853;0;10;-1.5;1;0;0;0;0;1;1;1;1;06:38:47:776;1447954725.56;(0.32032179832458496, 0.24280471801757808);26.2612018585;1.0;4;0;0;0;0;();(-2000.0, -2000.0);
06:38:47:870;06:38:47:870;0;5;-1.5;1;0;0;0;0;1;1;1;1;06:38:47:859;1447954725.63;(0.3204943656921387, 0.243100823296441);26.9685554504;1.0;4;0;0;0;0;();(-2000.0, -2000.0);
06:38:47:903;06:38:47:903;0;0;-1.5;1;0;0;0;0;1;1;1;1;06:38:47:900;1447954725.69;(0.3203390121459961, 0.24255650838216147);26.0603981018;1.0;4;0;0;0;0;();(-2000.0, -2000.0);
06:38:47:920;06:38:47:919;0;11;-1.5;1;0;0;0;0;1;1;1;1;06:38:47:900;1447954725.69;(0.3203390121459961, 0.24255650838216147);26.0603981018;1.0;4;0;0;0;0;();(-2000.0, -2000.0);
06:38:47:936;06:38:47:936;0;0;-1.5;1;0;0;0;0;1;1;1;1;06:38:47:900;1447954725.69;(0.3203390121459961, 0.24255650838216147);26.0603981018;1.0;4;0;0;0;0;();(-2000.0, -2000.0);
06:38:47:953;06:38:47:953;0;10;-1.5;1;0;0;0;0;1;1;1;1;06:38:47:900;1447954725.69;(0.3203390121459961, 0.24255650838216147);26.0603981018;1.0;4;0;0;0;0;();(-2000.0, -2000.0);
06:38:47:969;06:38:47:969;0;15;-1.5;1;0;0;0;0;1;1;1;1;06:38:47:900;1447954725.69;(0.3203390121459961, 0.24255650838216147);26.0603981018;1.0;4;0;0;0;0;();(-2000.0, -2000.0);
06:38:48:002;06:38:48:002;0;5;-1.5;1;0;0;0;0;1;1;1;1;06:38:47:983;1447954725.76;(0.3208367347717285, 0.24267756144205732);26.2564144135;1.0;4;0;0;0;0;();(-2000.0, -2000.0);
06:38:48:019;06:38:48:019;0;10;-1.5;1;0;0;0;0;1;1;1;1;06:38:47:983;1447954725.76;(0.3208367347717285, 0.24267756144205732);26.2564144135;1.0;4;0;0;0;0;();(-2000.0, -2000.0);
06:38:48:035;06:38:48:035;0;15;-1.5;1;0;0;0;0;1;1;1;1;06:38:47:983;1447954725.76;(0.3208367347717285, 0.24267756144205732);26.2564144135;1.0;4;0;0;0;0;();(-2000.0, -2000.0);
06:38:48:052;06:38:48:052;0;5;-1.5;1;0;0;0;0;1;1;1;1;06:38:47:983;1447954725.76;(0.3208367347717285, 0.24267756144205732);26.2564144135;1.0;4;0;0;0;0;();(-2000.0, -2000.0);
06:38:48:085;06:38:48:085;0;5;-1.5;1;0;0;0;0;1;1;1;1;06:38:48:069;1447954725.83;(0.32055392265319826, 0.24306971232096353);26.2770290375;1.0;4;0;0;0;0;();(-2000.0, -2000.0);
06:38:48:102;06:38:48:102;0;15;-1.5;1;0;0;0;0;1;1;1;1;06:38:48:069;1447954725.83;(0.32055392265319826, 0.24306971232096353);26.2770290375;1.0;4;0;0;0;0;();(-2000.0, -2000.0);
06:38:48:118;06:38:48:118;0;5;-1.5;1;0;0;0;0;1;1;1;1;06:38:48:107;1447954725.89;(0.320368218421936, 0.2428174336751302);26.4107952118;1.0;4;0;0;0;0;();(-2000.0, -2000.0);
06:38:48:135;06:38:48:135;0;0;-1.5;1;0;0;0;0;1;1;1;1;06:38:48:107;1447954725.89;(0.320368218421936, 0.2428174336751302);26.4107952118;1.0;4;0;0;0;0;();(-2000.0, -2000.0);
06:38:48:151;06:38:48:151;0;5;-1.5;1;0;0;0;0;1;1;1;1;06:38:48:107;1447954725.89;(0.320368218421936, 0.2428174336751302);26.4107952118;1.0;4;0;0;0;0;();(-2000.0, -2000.0);
06:38:48:185;06:38:48:185;0;5;-1.5;1;0;0;0;0;1;1;1;1;06:38:48:107;1447954725.89;(0.320368218421936, 0.2428174336751302);26.4107952118;1.0;4;0;0;0;0;();(-2000.0, -2000.0);
06:38:48:201;06:38:48:201;0;11;-1.5;1;0;0;0;0;1;1;1;1;06:38:48:191;1447954725.96;(0.32040455341339114, 0.24248547024197054);26.3726196289;1.0;4;0;0;0;0;();(-2000.0, -2000.0);
06:38:48:218;06:38:48:218;0;0;-1.5;1;0;0;0;0;1;1;1;1;06:38:48:191;1447954725.96;(0.32040455341339114, 0.24248547024197054);26.3726196289;1.0;4;0;0;0;0;();(-2000.0, -2000.0);
06:38:48:234;06:38:48:234;0;11;-1.5;1;0;0;0;0;1;1;1;1;06:38:48:231;1447954726.03;(0.3205105304718018, 0.24220538669162328);26.4038028717;1.0;4;0;0;0;0;();(-2000.0, -2000.0);
06:38:48:251;06:38:48:251;0;5;-1.5;1;0;0;0;0;1;1;1;1;06:38:48:231;1447954726.03;(0.3205105304718018, 0.24220538669162328);26.4038028717;1.0;4;0;0;0;0;();(-2000.0, -2000.0);
06:38:48:284;06:38:48:284;0;15;-1.5;1;0;0;0;0;1;1;1;1;06:38:48:231;1447954726.03;(0.3205105304718018, 0.24220538669162328);26.4038028717;1.0;4;0;0;0;0;();(-2000.0, -2000.0);
06:38:48:300;06:38:48:300;0;11;-1.5;1;0;0;0;0;1;1;1;1;06:38:48:231;1447954726.03;(0.3205105304718018, 0.24220538669162328);26.4038028717;1.0;4;0;0;0;0;();(-2000.0, -2000.0);
06:38:48:317;06:38:48:317;0;5;-1.5;1;0;0;0;0;1;1;1;1;06:38:48:315;1447954726.09;(0.32042930126190183, 0.24259914822048612);26.9468288422;1.0;4;0;0;0;0;();(-2000.0, -2000.0);
06:38:48:334;06:38:48:334;0;10;-1.5;1;0;0;0;0;1;1;1;1;06:38:48:315;1447954726.09;(0.32042930126190183, 0.24259914822048612);26.9468288422;1.0;4;0;0;0;0;();(-2000.0, -2000.0);
06:38:48:350;06:38:48:350;0;15;-1.5;1;0;0;0;0;1;1;1;1;06:38:48:315;1447954726.09;(0.32042930126190183, 0.24259914822048612);26.9468288422;1.0;4;0;0;0;0;();(-2000.0, -2000.0);
06:38:48:383;06:38:48:383;0;0;-1.5;1;0;0;0;0;1;1;1;1;06:38:48:355;1447954726.16;(0.3206178665161133, 0.24274249606662324);26.3938674927;1.0;4;0;0;0;0;();(-2000.0, -2000.0);
06:38:48:400;06:38:48:400;0;11;-1.5;1;0;0;0;0;1;1;1;1;06:38:48:355;1447954726.16;(0.3206178665161133, 0.24274249606662324);26.3938674927;1.0;4;0;0;0;0;();(-2000.0, -2000.0);
06:38:48:416;06:38:48:416;0;15;-1.5;1;0;0;0;0;1;1;1;1;06:38:48:355;1447954726.16;(0.3206178665161133, 0.24274249606662324);26.3938674927;1.0;4;0;0;0;0;();(-2000.0, -2000.0);
06:38:48:433;06:38:48:433;0;10;-1.5;1;0;0;0;0;1;1;1;1;06:38:48:355;1447954726.16;(0.3206178665161133, 0.24274249606662324);26.3938674927;1.0;4;0;0;0;0;();(-2000.0, -2000.0);
06:38:48:450;06:38:48:450;0;15;-1.5;1;0;0;0;0;1;1;1;1;06:38:48:439;1447954726.23;(0.32056996822357176, 0.24293484157986112);26.6326751709;1.0;4;0;0;0;0;();(-2000.0, -2000.0);
06:38:48:483;06:38:48:483;0;0;-1.5;1;0;0;0;0;1;1;1;1;06:38:48:439;1447954726.23;(0.32056996822357176, 0.24293484157986112);26.6326751709;1.0;4;0;0;0;0;();(-2000.0, -2000.0);
06:38:48:499;06:38:48:499;0;10;-1.5;1;0;0;0;0;1;1;1;1;06:38:48:439;1447954726.23;(0.32056996822357176, 0.24293484157986112);26.6326751709;1.0;4;0;0;0;0;();(-2000.0, -2000.0);
06:38:48:516;06:38:48:516;0;15;-1.5;1;0;0;0;0;1;1;1;1;06:38:48:439;1447954726.23;(0.32056996822357176, 0.24293484157986112);26.6326751709;1.0;4;0;0;0;0;();(-2000.0, -2000.0);
06:38:48:532;06:38:48:532;0;5;-1.5;1;0;0;0;0;1;1;1;1;06:38:48:523;1447954726.29;(0.3204404592514038, 0.24244520399305558);26.2621860504;0.991248525737;4;0;0;0;0;();(-2000.0, -2000.0);
06:38:48:566;06:38:48:566;0;5;-1.5;1;0;0;0;0;1;1;1;1;06:38:48:563;1447954726.36;(0.3206417798995972, 0.2424034966362847);26.768535614;1.0;4;0;0;0;0;();(-2000.0, -2000.0);
06:38:48:582;06:38:48:582;0;15;-1.5;1;0;0;0;0;1;1;1;1;06:38:48:563;1447954726.36;(0.3206417798995972, 0.2424034966362847);26.768535614;1.0;4;0;0;0;0;();(-2000.0, -2000.0);
06:38:48:599;06:38:48:599;0;5;-1.5;1;0;0;0;0;1;1;1;1;06:38:48:563;1447954726.36;(0.3206417798995972, 0.2424034966362847);26.768535614;1.0;4;0;0;0;0;();(-2000.0, -2000.0);
06:38:48:615;06:38:48:615;0;15;-1.5;1;0;0;0;0;1;1;1;1;06:38:48:563;1447954726.36;(0.3206417798995972, 0.2424034966362847);26.768535614;1.0;4;0;0;0;0;();(-2000.0, -2000.0);
06:38:48:632;06:38:48:632;0;5;-1.5;1;0;0;0;0;1;1;1;1;06:38:48:563;1447954726.36;(0.3206417798995972, 0.2424034966362847);26.768535614;1.0;4;0;0;0;0;();(-2000.0, -2000.0);
06:38:48:665;06:38:48:665;0;5;-1.5;1;0;0;0;0;1;1;1;1;06:38:48:647;1447954726.43;(0.32042441368103025, 0.24246554904513884);26.1610355377;1.0;4;0;0;0;0;();(-2000.0, -2000.0);
06:38:48:682;06:38:48:681;0;15;-1.5;1;0;0;0;0;1;1;1;1;06:38:48:647;1447954726.43;(0.32042441368103025, 0.24246554904513884);26.1610355377;1.0;4;0;0;0;0;();(-2000.0, -2000.0);
06:38:48:698;06:38:48:698;0;5;-1.5;1;0;0;0;0;1;1;1;1;06:38:48:647;1447954726.43;(0.32042441368103025, 0.24246554904513884);26.1610355377;1.0;4;0;0;0;0;();(-2000.0, -2000.0);
06:38:48:715;06:38:48:715;0;9;-1.5;1;0;0;0;0;1;1;1;1;06:38:48:647;1447954726.43;(0.32042441368103025, 0.24246554904513884);26.1610355377;1.0;4;0;0;0;0;();(-2000.0, -2000.0);
06:38:48:731;06:38:48:731;0;5;-1.5;1;0;0;0;0;1;1;1;1;06:38:48:647;1447954726.43;(0.32042441368103025, 0.24246554904513884);26.1610355377;1.0;4;0;0;0;0;();(-2000.0, -2000.0);
06:38:48:764;06:38:48:764;0;5;-1.5;1;0;0;0;0;1;1;1;1;06:38:48:732;1447954726.49;(0.3203438758850098, 0.2425708346896701);26.5069160461;1.0;4;0;0;0;0;();(-2000.0, -2000.0);
06:38:48:781;06:38:48:781;0;10;-1.5;1;0;0;0;0;1;1;1;1;06:38:48:771;1447954726.56;(0.32059621810913086, 0.24267272949218754);26.2895755768;1.0;4;0;0;0;0;();(-2000.0, -2000.0);
06:38:48:797;06:38:48:797;0;15;-1.5;1;0;0;0;0;1;1;1;1;06:38:48:771;1447954726.56;(0.32059621810913086, 0.24267272949218754);26.2895755768;1.0;4;0;0;0;0;();(-2000.0, -2000.0);
06:38:48:814;06:38:48:814;0;11;-1.5;1;0;0;0;0;1;1;1;1;06:38:48:771;1447954726.56;(0.32059621810913086, 0.24267272949218754);26.2895755768;1.0;4;0;0;0;0;();(-2000.0, -2000.0);
06:38:48:831;06:38:48:831;0;15;-1.5;1;0;0;0;0;1;1;1;1;06:38:48:771;1447954726.56;(0.32059621810913086, 0.24267272949218754);26.2895755768;1.0;4;0;0;0;0;();(-2000.0, -2000.0);
06:38:48:864;06:38:48:864;0;0;-1.5;1;0;0;0;0;1;1;1;1;06:38:48:856;1447954726.63;(0.3203105926513672, 0.24250259399414065);25.9248847961;1.0;4;0;0;0;0;();(-2000.0, -2000.0);
06:38:48:880;06:38:48:880;0;0;-1.5;1;0;0;0;0;1;1;1;1;06:38:48:856;1447954726.63;(0.3203105926513672, 0.24250259399414065);25.9248847961;1.0;4;0;0;0;0;();(-2000.0, -2000.0);
06:38:48:897;06:38:48:897;0;15;-1.5;1;0;0;0;0;1;1;1;1;06:38:48:856;1447954726.63;(0.3203105926513672, 0.24250259399414065);25.9248847961;1.0;4;0;0;0;0;();(-2000.0, -2000.0);
06:38:48:914;06:38:48:913;0;10;-1.5;1;0;0;0;0;1;1;1;1;06:38:48:856;1447954726.63;(0.3203105926513672, 0.24250259399414065);25.9248847961;1.0;4;0;0;0;0;();(-2000.0, -2000.0);
06:38:48:930;06:38:48:930;0;0;-1.5;1;0;0;0;0;1;1;1;1;06:38:48:856;1447954726.63;(0.3203105926513672, 0.24250259399414065);25.9248847961;1.0;4;0;0;0;0;();(-2000.0, -2000.0);
06:38:48:963;06:38:48:963;0;0;-1.5;1;0;0;0;0;1;1;1;1;06:38:48:939;1447954726.69;(0.32044167518615724, 0.24228312174479172);26.3503494263;1.0;4;0;0;0;0;();(-2000.0, -2000.0);
06:38:48:980;06:38:48:980;0;10;-1.5;1;0;0;0;0;1;1;1;1;06:38:48:980;1447954726.76;(0.3205026388168335, 0.24270146687825522);26.268245697;1.0;4;0;0;0;0;();(-2000.0, -2000.0);
06:38:48:996;06:38:48:996;0;15;-1.5;1;0;0;0;0;1;1;1;1;06:38:48:980;1447954726.76;(0.3205026388168335, 0.24270146687825522);26.268245697;1.0;4;0;0;0;0;();(-2000.0, -2000.0);
06:38:49:013;06:38:49:013;0;5;-1.5;1;0;0;0;0;1;1;1;1;06:38:48:980;1447954726.76;(0.3205026388168335, 0.24270146687825522);26.268245697;1.0;4;0;0;0;0;();(-2000.0, -2000.0);
06:38:49:029;06:38:49:029;0;0;-1.5;1;0;0;0;0;1;1;1;1;06:38:48:980;1447954726.76;(0.3205026388168335, 0.24270146687825522);26.268245697;1.0;4;0;0;0;0;();(-2000.0, -2000.0);
06:38:49:063;06:38:49:062;0;10;-1.5;1;0;0;0;0;1;1;1;1;06:38:48:980;1447954726.76;(0.3205026388168335, 0.24270146687825522);26.268245697;1.0;4;0;0;0;0;();(-2000.0, -2000.0);
06:38:49:079;06:38:49:079;0;5;-1.5;1;0;0;0;0;1;1;1;1;06:38:49:064;1447954726.83;(0.32077105045318605, 0.24276911417643232);26.4589862823;1.0;4;0;0;0;0;();(-2000.0, -2000.0);
06:38:49:096;06:38:49:096;0;0;-1.5;1;0;0;0;0;1;1;1;1;06:38:49:064;1447954726.83;(0.32077105045318605, 0.24276911417643232);26.4589862823;1.0;4;0;0;0;0;();(-2000.0, -2000.0);
06:38:49:112;06:38:49:112;0;5;-1.5;1;0;0;0;0;1;1;1;1;06:38:49:104;1447954726.89;(0.32078702449798585, 0.24288660685221353);26.6087684631;1.0;4;0;0;0;0;();(-2000.0, -2000.0);
06:38:49:145;06:38:49:145;0;8;-1.5;1;0;0;0;0;1;1;1;1;06:38:49:104;1447954726.89;(0.32078702449798585, 0.24288660685221353);26.6087684631;1.0;4;0;0;0;0;();(-2000.0, -2000.0);
06:38:49:162;06:38:49:162;0;1;-1.5;1;0;0;0;0;1;1;1;1;06:38:49:104;1447954726.89;(0.32078702449798585, 0.24288660685221353);26.6087684631;1.0;4;0;0;0;0;();(-2000.0, -2000.0);
06:38:49:179;06:38:49:178;0;0;-1.5;1;0;0;0;0;1;1;1;1;06:38:49:104;1447954726.89;(0.32078702449798585, 0.24288660685221353);26.6087684631;1.0;4;0;0;0;0;();(-2000.0, -2000.0);
06:38:49:195;06:38:49:195;0;11;-1.5;1;0;0;0;0;1;1;1;1;06:38:49:187;1447954726.96;(0.3203460216522217, 0.24236704508463547);26.9573860168;1.0;4;0;0;0;0;();(-2000.0, -2000.0);
06:38:49:212;06:38:49:212;0;5;-1.5;1;0;0;0;0;1;1;1;1;06:38:49:187;1447954726.96;(0.3203460216522217, 0.24236704508463547);26.9573860168;1.0;4;0;0;0;0;();(-2000.0, -2000.0);
06:38:49:245;06:38:49:245;0;5;-1.5;1;0;0;0;0;1;1;1;1;06:38:49:228;1447954727.03;(0.3207357406616211, 0.242368655734592);26.8651561737;1.0;4;0;0;0;0;();(-2000.0, -2000.0);
06:38:49:261;06:38:49:261;0;11;-1.5;1;0;0;0;0;1;1;1;1;06:38:49:228;1447954727.03;(0.3207357406616211, 0.242368655734592);26.8651561737;1.0;4;0;0;0;0;();(-2000.0, -2000.0);
06:38:49:278;06:38:49:278;0;0;-1.5;1;0;0;0;0;1;1;1;1;06:38:49:228;1447954727.03;(0.3207357406616211, 0.242368655734592);26.8651561737;1.0;4;0;0;0;0;();(-2000.0, -2000.0);
06:38:49:295;06:38:49:294;0;10;-1.5;1;0;0;0;0;1;1;1;1;06:38:49:228;1447954727.03;(0.3207357406616211, 0.242368655734592);26.8651561737;1.0;4;0;0;0;0;();(-2000.0, -2000.0);
06:38:49:311;06:38:49:311;0;5;-1.5;1;0;0;0;0;1;1;1;1;06:38:49:228;1447954727.03;(0.3207357406616211, 0.242368655734592);26.8651561737;1.0;4;0;0;0;0;();(-2000.0, -2000.0);
06:38:49:344;06:38:49:344;0;5;-1.5;1;0;0;0;0;1;1;1;1;06:38:49:312;1447954727.09;(0.3206213712692261, 0.24248326619466143);26.9672584534;1.0;4;0;0;0;0;();(-2000.0, -2000.0);
06:38:49:361;06:38:49:361;0;11;-1.5;1;0;0;0;0;1;1;1;1;06:38:49:312;1447954727.09;(0.3206213712692261, 0.24248326619466143);26.9672584534;1.0;4;0;0;0;0;();(-2000.0, -2000.0);
06:38:49:378;06:38:49:377;0;15;-1.5;1;0;0;0;0;1;1;1;1;06:38:49:312;1447954727.09;(0.3206213712692261, 0.24248326619466143);26.9672584534;1.0;4;0;0;0;0;();(-2000.0, -2000.0);
06:38:49:394;06:38:49:394;0;10;-1.5;1;0;0;0;0;1;1;1;1;06:38:49:312;1447954727.09;(0.3206213712692261, 0.24248326619466143);26.9672584534;1.0;4;0;0;0;0;();(-2000.0, -2000.0);
06:38:49:411;06:38:49:411;0;15;-1.5;1;0;0;0;0;1;1;1;1;06:38:49:396;1447954727.16;(0.32072184085845945, 0.2421289232042101);26.6059646606;1.0;4;0;0;0;0;();(-2000.0, -2000.0);
06:38:49:444;06:38:49:444;0;0;-1.5;1;0;0;0;0;1;1;1;1;06:38:49:435;1447954727.23;(0.32056312561035155, 0.24283599853515625);26.8001785278;1.0;4;0;0;0;0;();(-2000.0, -2000.0);
06:38:49:460;06:38:49:460;0;5;-1.5;1;0;0;0;0;1;1;1;1;06:38:49:435;1447954727.23;(0.32056312561035155, 0.24283599853515625);26.8001785278;1.0;4;0;0;0;0;();(-2000.0, -2000.0);
06:38:49:477;06:38:49:477;0;15;-1.5;1;0;0;0;0;1;1;1;1;06:38:49:435;1447954727.23;(0.32056312561035155, 0.24283599853515625);26.8001785278;1.0;4;0;0;0;0;();(-2000.0, -2000.0);
06:38:49:493;06:38:49:493;0;5;-1.5;1;0;0;0;0;1;1;1;1;06:38:49:435;1447954727.23;(0.32056312561035155, 0.24283599853515625);26.8001785278;1.0;4;0;0;0;0;();(-2000.0, -2000.0);
06:38:49:510;06:38:49:510;0;0;-1.5;1;0;0;0;0;1;1;1;1;06:38:49:435;1447954727.23;(0.32056312561035155, 0.24283599853515625);26.8001785278;1.0;4;0;0;0;0;();(-2000.0, -2000.0);
06:38:49:543;06:38:49:543;0;8;-1.5;1;0;0;0;0;1;1;1;1;06:38:49:520;1447954727.29;(0.32067697048187255, 0.24277699788411455);25.9885807037;1.0;4;0;0;0;0;();(-2000.0, -2000.0);
06:38:49:560;06:38:49:559;0;5;-1.5;1;0;0;0;0;1;1;1;1;06:38:49:520;1447954727.29;(0.32067697048187255, 0.24277699788411455);25.9885807037;1.0;4;0;0;0;0;();(-2000.0, -2000.0);
06:38:49:576;06:38:49:576;0;11;-1.5;1;0;0;0;0;1;1;1;1;06:38:49:560;1447954727.36;(0.32023053169250487, 0.2428740607367621);26.6059513092;1.0;4;0;0;0;0;();(-2000.0, -2000.0);
06:38:49:593;06:38:49:593;0;5;-1.5;1;0;0;0;0;1;1;1;1;06:38:49:560;1447954727.36;(0.32023053169250487, 0.2428740607367621);26.6059513092;1.0;4;0;0;0;0;();(-2000.0, -2000.0);
06:38:49:609;06:38:49:609;0;7;-1.5;1;0;0;0;0;1;1;1;1;06:38:49:560;1447954727.36;(0.32023053169250487, 0.2428740607367621);26.6059513092;1.0;4;0;0;0;0;();(-2000.0, -2000.0);
06:38:49:642;06:38:49:642;0;15;-1.5;1;0;0;0;0;1;1;1;1;06:38:49:560;1447954727.36;(0.32023053169250487, 0.2428740607367621);26.6059513092;1.0;4;0;0;0;0;();(-2000.0, -2000.0);
06:38:49:659;06:38:49:659;0;5;-1.5;1;0;0;0;0;1;1;1;1;06:38:49:644;1447954727.43;(0.32044575214385984, 0.24274622599283857);26.2433757782;1.0;4;0;0;0;0;();(-2000.0, -2000.0);
06:38:49:676;06:38:49:676;0;0;-1.5;1;0;0;0;0;1;1;1;1;06:38:49:644;1447954727.43;(0.32044575214385984, 0.24274622599283857);26.2433757782;1.0;4;0;0;0;0;();(-2000.0, -2000.0);
06:38:49:692;06:38:49:692;0;10;-1.5;1;0;0;0;0;1;1;1;1;06:38:49:644;1447954727.43;(0.32044575214385984, 0.24274622599283857);26.2433757782;1.0;4;0;0;0;0;();(-2000.0, -2000.0);
06:38:49:725;06:38:49:725;0;15;-1.5;1;0;0;0;0;1;1;1;1;06:38:49:644;1447954727.43;(0.32044575214385984, 0.24274622599283857);26.2433757782;1.0;4;0;0;0;0;();(-2000.0, -2000.0);
06:38:49:742;06:38:49:742;0;11;-1.5;1;0;0;0;0;1;1;1;1;06:38:49:727;1447954727.49;(0.3206626415252686, 0.24296688503689234);26.1874580383;1.0;4;0;0;0;0;();(-2000.0, -2000.0);
06:38:49:758;06:38:49:758;0;0;-1.5;1;0;0;0;0;1;1;1;1;06:38:49:727;1447954727.49;(0.3206626415252686, 0.24296688503689234);26.1874580383;1.0;4;0;0;0;0;();(-2000.0, -2000.0);
06:38:49:775;06:38:49:775;0;10;-1.5;1;0;0;0;0;1;1;1;1;06:38:49:768;1447954727.56;(0.32024977207183836, 0.24206882052951384);26.1254272461;1.0;4;0;0;0;0;();(-2000.0, -2000.0);
06:38:49:792;06:38:49:792;0;5;-1.5;1;0;0;0;0;1;1;1;1;06:38:49:768;1447954727.56;(0.32024977207183836, 0.24206882052951384);26.1254272461;1.0;4;0;0;0;0;();(-2000.0, -2000.0);
06:38:49:825;06:38:49:825;0;5;-1.5;1;0;0;0;0;1;1;1;1;06:38:49:768;1447954727.56;(0.32024977207183836, 0.24206882052951384);26.1254272461;1.0;4;0;0;0;0;();(-2000.0, -2000.0);
06:38:49:841;06:38:49:841;0;11;-1.5;1;0;0;0;0;1;1;1;1;06:38:49:768;1447954727.56;(0.32024977207183836, 0.24206882052951384);26.1254272461;1.0;4;0;0;0;0;();(-2000.0, -2000.0);
06:38:49:858;06:38:49:858;0;15;-1.5;1;0;0;0;0;1;1;1;1;06:38:49:852;1447954727.63;(0.32053754329681394, 0.24240146213107638);25.8768692017;1.0;4;0;0;0;0;();(-2000.0, -2000.0);
06:38:49:874;06:38:49:874;0;10;-1.5;1;0;0;0;0;1;1;1;1;06:38:49:852;1447954727.63;(0.32053754329681394, 0.24240146213107638);25.8768692017;1.0;4;0;0;0;0;();(-2000.0, -2000.0);
06:38:49:891;06:38:49:891;0;15;-1.5;1;0;0;0;0;1;1;1;1;06:38:49:852;1447954727.63;(0.32053754329681394, 0.24240146213107638);25.8768692017;1.0;4;0;0;0;0;();(-2000.0, -2000.0);
06:38:49:924;06:38:49:924;0;1;-1.5;1;0;0;0;0;1;1;1;1;06:38:49:891;1447954727.69;(0.3206484794616699, 0.2423573811848958);26.1017494202;1.0;4;0;0;0;0;();(-2000.0, -2000.0);
06:38:49:941;06:38:49:941;0;5;-1.5;1;0;0;0;0;1;1;1;1;06:38:49:891;1447954727.69;(0.3206484794616699, 0.2423573811848958);26.1017494202;1.0;4;0;0;0;0;();(-2000.0, -2000.0);
06:38:49:957;06:38:49:957;0;15;-1.5;1;0;0;0;0;1;1;1;1;06:38:49:891;1447954727.69;(0.3206484794616699, 0.2423573811848958);26.1017494202;1.0;4;0;0;0;0;();(-2000.0, -2000.0);
06:38:49:974;06:38:49:974;0;5;-1.5;1;0;0;0;0;1;1;1;1;06:38:49:891;1447954727.69;(0.3206484794616699, 0.2423573811848958);26.1017494202;1.0;4;0;0;0;0;();(-2000.0, -2000.0);
06:38:49:991;06:38:49:991;0;7;-1.5;1;0;0;0;0;1;1;1;1;06:38:49:976;1447954727.76;(0.3205282211303711, 0.24225582546657987);26.3463535309;1.0;4;0;0;0;0;();(-2000.0, -2000.0);
06:38:50:023;06:38:50:023;0;6;-1.5;1;0;0;0;0;1;1;1;1;06:38:49:976;1447954727.76;(0.3205282211303711, 0.24225582546657987);26.3463535309;1.0;4;0;0;0;0;();(-2000.0, -2000.0);
06:38:50:040;06:38:50:040;0;5;-1.5;1;0;0;0;0;1;1;1;1;06:38:49:976;1447954727.76;(0.3205282211303711, 0.24225582546657987);26.3463535309;1.0;4;0;0;0;0;();(-2000.0, -2000.0);
06:38:50:057;06:38:50:057;0;11;-1.5;1;0;0;0;0;1;1;1;1;06:38:49:976;1447954727.76;(0.3205282211303711, 0.24225582546657987);26.3463535309;1.0;4;0;0;0;0;();(-2000.0, -2000.0);
06:38:50:073;06:38:50:073;0;5;-1.5;1;0;0;0;0;1;1;1;1;06:38:50:057;1447954727.83;(0.3207500696182251, 0.24245808919270828);26.770072937;1.0;4;0;0;0;0;();(-2000.0, -2000.0);
06:38:50:090;06:38:50:090;0;15;-1.5;1;0;0;0;0;1;1;1;1;06:38:50:057;1447954727.83;(0.3207500696182251, 0.24245808919270828);26.770072937;1.0;4;0;0;0;0;();(-2000.0, -2000.0);
06:38:50:123;06:38:50:123;0;10;-1.5;1;0;0;0;0;1;1;1;1;06:38:50:099;1447954727.89;(0.3206046104431152, 0.2423926459418403);26.6253700256;1.0;4;0;0;0;0;();(-2000.0, -2000.0);
06:38:50:139;06:38:50:139;0;0;-1.5;1;0;0;0;0;1;1;1;1;06:38:50:099;1447954727.89;(0.3206046104431152, 0.2423926459418403);26.6253700256;1.0;4;0;0;0;0;();(-2000.0, -2000.0);
06:38:50:156;06:38:50:156;0;11;-1.5;1;0;0;0;0;1;1;1;1;06:38:50:099;1447954727.89;(0.3206046104431152, 0.2423926459418403);26.6253700256;1.0;4;0;0;0;0;();(-2000.0, -2000.0);
06:38:50:176;06:38:50:176;0;15;-1.5;1;0;0;0;0;1;1;1;1;06:38:50:099;1447954727.89;(0.3206046104431152, 0.2423926459418403);26.6253700256;1.0;6;0;0;0;0;();(-2000.0, -2000.0);
06:38:50:189;06:38:50:189;0;10;-1.5;1;0;0;0;0;1;1;1;1;06:38:50:183;1447954727.96;(0.32030675411224363, 0.24268739488389757);26.1797790527;1.0;6;0;0;0;0;();(-2000.0, -2000.0);
06:38:50:222;06:38:50:222;0;11;-1.5;1;0;0;0;0;1;1;1;1;06:38:50:183;1447954727.96;(0.32030675411224363, 0.24268739488389757);26.1797790527;1.0;6;0;0;0;0;();(-2000.0, -2000.0);
06:38:50:239;06:38:50:239;0;5;-1.5;1;0;0;0;0;1;1;1;1;06:38:50:183;1447954727.96;(0.32030675411224363, 0.24268739488389757);26.1797790527;1.0;6;0;0;0;0;();(-2000.0, -2000.0);
06:38:50:255;06:38:50:255;0;10;-1.5;1;0;0;0;0;1;1;1;1;06:38:50:183;1447954727.96;(0.32030675411224363, 0.24268739488389757);26.1797790527;1.0;6;0;0;0;0;();(-2000.0, -2000.0);
06:38:50:272;06:38:50:272;0;5;-1.5;1;0;0;0;0;1;1;1;1;06:38:50:264;1447954728.03;(0.32036259174346926, 0.24317533704969618);26.6857299805;1.0;6;0;0;0;0;();(-2000.0, -2000.0);
06:38:50:305;06:38:50:305;0;0;-1.5;1;0;0;0;0;1;1;1;1;06:38:50:264;1447954728.03;(0.32036259174346926, 0.24317533704969618);26.6857299805;1.0;6;0;0;0;0;();(-2000.0, -2000.0);
06:38:50:322;06:38:50:322;0;5;-1.5;1;0;0;0;0;1;1;1;1;06:38:50:307;1447954728.09;(0.32073378562927246, 0.24202041625976567);26.6155872345;1.0;6;0;0;0;0;();(-2000.0, -2000.0);
06:38:50:338;06:38:50:338;0;5;-1.5;1;0;0;0;0;1;1;1;1;06:38:50:307;1447954728.09;(0.32073378562927246, 0.24202041625976567);26.6155872345;1.0;6;0;0;0;0;();(-2000.0, -2000.0);
