%Timestamp,timestamp_write;timestamp_gotpupil;eyetrackertime;norm_pos;diameter;confidence;timestamp_gotbitdata;CRC;SEQ;AnalogOutp1;AnalogOutp2;AnalogOutp3;AnalogOutp4;AnalogOutp5;AnalogOutp6;DigitalOutp1;DigitalOutp2;igitalOutp3;DigitalOutp4;nplanes;lastaction;lastactiondetails;lastactionairplanenumber;positivescore;negativescore;collidedairplanenumbers;targetpositions;collision_point
10:03:12:874;;;;;;;;;;;;;;10:03:12:852;1447966990.79;(0.5695556163787842, 0.410374026828342);70.6180953979;1.0;2;0;0;;0;0;();();(0.0, 0.0);
10:03:12:878;;;;;;;;;;;;;;10:03:12:852;1447966990.79;(0.5695556163787842, 0.410374026828342);70.6180953979;1.0;2;0;0;;0;0;();();(-2000.0, -2000.0);
10:03:12:879;;;;;;;;;;;;;;10:03:12:852;1447966990.79;(0.5695556163787842, 0.410374026828342);70.6180953979;1.0;2;0;0;;0;0;();();(-2000.0, -2000.0);
10:03:12:881;;;;;;;;;;;;;;10:03:12:852;1447966990.79;(0.5695556163787842, 0.410374026828342);70.6180953979;1.0;2;0;0;;0;0;();();(-2000.0, -2000.0);
10:03:12:882;;;;;;;;;;;;;;10:03:12:852;1447966990.79;(0.5695556163787842, 0.410374026828342);70.6180953979;1.0;2;0;0;;0;0;();();(-2000.0, -2000.0);
10:03:12:884;;;;;;;;;;;;;;10:03:12:852;1447966990.79;(0.5695556163787842, 0.410374026828342);70.6180953979;1.0;2;0;0;;0;0;();();(-2000.0, -2000.0);
10:03:12:886;;;;;;;;;;;;;;10:03:12:852;1447966990.79;(0.5695556163787842, 0.410374026828342);70.6180953979;1.0;2;0;0;;0;0;();();(-2000.0, -2000.0);
10:03:12:888;;;;;;;;;;;;;;10:03:12:852;1447966990.79;(0.5695556163787842, 0.410374026828342);70.6180953979;1.0;2;0;0;;0;0;();();(-2000.0, -2000.0);
10:03:12:895;;;;;;;;;;;;;;10:03:12:889;1447966990.83;(0.5695947170257568, 0.41024267408582904);70.7159042358;1.0;2;0;0;;0;0;();();(-2000.0, -2000.0);
10:03:12:897;;;;;;;;;;;;;;10:03:12:889;1447966990.83;(0.5695947170257568, 0.41024267408582904);70.7159042358;1.0;2;0;0;;0;0;();();(-2000.0, -2000.0);
10:03:12:898;;;;;;;;;;;;;;10:03:12:889;1447966990.83;(0.5695947170257568, 0.41024267408582904);70.7159042358;1.0;2;0;0;;0;0;();();(-2000.0, -2000.0);
10:03:12:900;;;;;;;;;;;;;;10:03:12:889;1447966990.83;(0.5695947170257568, 0.41024267408582904);70.7159042358;1.0;2;0;0;;0;0;();();(-2000.0, -2000.0);
10:03:12:901;;;;;;;;;;;;;;10:03:12:889;1447966990.83;(0.5695947170257568, 0.41024267408582904);70.7159042358;1.0;2;0;0;;0;0;();();(-2000.0, -2000.0);
10:03:12:903;;;;;;;;;;;;;;10:03:12:889;1447966990.83;(0.5695947170257568, 0.41024267408582904);70.7159042358;1.0;2;0;0;;0;0;();();(-2000.0, -2000.0);
10:03:12:904;;;;;;;;;;;;;;10:03:12:889;1447966990.83;(0.5695947170257568, 0.41024267408582904);70.7159042358;1.0;2;0;0;;0;0;();();(-2000.0, -2000.0);
10:03:12:906;;;;;;;;;;;;;;10:03:12:889;1447966990.83;(0.5695947170257568, 0.41024267408582904);70.7159042358;1.0;2;0;0;;0;0;();();(-2000.0, -2000.0);
10:03:12:912;;;;;;;;;;;;;;10:03:12:889;1447966990.83;(0.5695947170257568, 0.41024267408582904);70.7159042358;1.0;2;0;0;;0;0;();();(-2000.0, -2000.0);
10:03:12:914;;;;;;;;;;;;;;10:03:12:889;1447966990.83;(0.5695947170257568, 0.41024267408582904);70.7159042358;1.0;2;0;0;;0;0;();();(-2000.0, -2000.0);
10:03:12:929;;;;;;;;;;;;;;10:03:12:920;1447966990.86;(0.5695912361145019, 0.41015273200141056);70.8447418213;1.0;2;0;0;;0;0;();();(-2000.0, -2000.0);
10:03:12:945;;;;;;;;;;;;;;10:03:12:920;1447966990.86;(0.5695912361145019, 0.41015273200141056);70.8447418213;1.0;2;0;0;;0;0;();();(-2000.0, -2000.0);
10:03:12:962;;;;;;;;;;;;;;10:03:12:953;1447966990.89;(0.5699958801269531, 0.410452397664388);70.6435241699;1.0;2;0;0;;0;0;();();(-2000.0, -2000.0);
10:03:12:995;;;;;;;;;;;;;;10:03:12:988;1447966990.93;(0.570081090927124, 0.4106319427490235);70.7479629517;1.0;2;0;0;;0;0;();();(-2000.0, -2000.0);
10:03:13:036;;;;;;;;;;;;;;10:03:13:020;1447966990.96;(0.5700627326965332, 0.41064143710666234);70.7090835571;1.0;2;0;0;;0;0;();();(-2000.0, -2000.0);
10:03:13:038;;;;;;;;;;;;;;10:03:13:020;1447966990.96;(0.5700627326965332, 0.41064143710666234);70.7090835571;1.0;2;0;0;;0;0;();();(-2000.0, -2000.0);
10:03:18:038;;;;;;;;;;;;;;10:03:18:004;1447966995.96;(0.6003909111022949, 0.3907168918185764);68.9652023315;1.0;2;0;0;;0;0;();();(-2000.0, -2000.0);
10:03:18:040;;;;;;;;;;;;;;10:03:18:040;1447966995.99;(0.6000953674316406, 0.39086367289225266);68.6019287109;1.0;2;0;0;;0;0;();();(-2000.0, -2000.0);
10:03:18:042;;;;;;;;;;;;;;10:03:18:040;1447966995.99;(0.6000953674316406, 0.39086367289225266);68.6019287109;1.0;2;0;0;;0;0;();();(-2000.0, -2000.0);
10:03:18:044;;;;;;;;;;;;;;10:03:18:040;1447966995.99;(0.6000953674316406, 0.39086367289225266);68.6019287109;1.0;2;0;0;;0;0;();();(-2000.0, -2000.0);
10:03:18:046;;;;;;;;;;;;;;10:03:18:040;1447966995.99;(0.6000953674316406, 0.39086367289225266);68.6019287109;1.0;2;0;0;;0;0;();();(-2000.0, -2000.0);
10:03:18:048;;;;;;;;;;;;;;10:03:18:040;1447966995.99;(0.6000953674316406, 0.39086367289225266);68.6019287109;1.0;2;0;0;;0;0;();();(-2000.0, -2000.0);
10:03:18:050;;;;;;;;;;;;;;10:03:18:040;1447966995.99;(0.6000953674316406, 0.39086367289225266);68.6019287109;1.0;2;0;0;;0;0;();();(-2000.0, -2000.0);
10:03:18:052;;;;;;;;;;;;;;10:03:18:040;1447966995.99;(0.6000953674316406, 0.39086367289225266);68.6019287109;1.0;2;0;0;;0;0;();();(-2000.0, -2000.0);
10:03:18:054;;;;;;;;;;;;;;10:03:18:040;1447966995.99;(0.6000953674316406, 0.39086367289225266);68.6019287109;1.0;2;0;0;;0;0;();();(-2000.0, -2000.0);
10:03:18:056;;;;;;;;;;;;;;10:03:18:040;1447966995.99;(0.6000953674316406, 0.39086367289225266);68.6019287109;1.0;2;0;0;;0;0;();();(-2000.0, -2000.0);
10:03:18:058;;;;;;;;;;;;;;10:03:18:040;1447966995.99;(0.6000953674316406, 0.39086367289225266);68.6019287109;1.0;2;0;0;;0;0;();();(-2000.0, -2000.0);
10:03:18:059;;;;;;;;;;;;;;10:03:18:040;1447966995.99;(0.6000953674316406, 0.39086367289225266);68.6019287109;1.0;2;0;0;;0;0;();();(-2000.0, -2000.0);
10:03:18:061;;;;;;;;;;;;;;10:03:18:040;1447966995.99;(0.6000953674316406, 0.39086367289225266);68.6019287109;1.0;2;0;0;;0;0;();();(-2000.0, -2000.0);
10:03:18:063;;;;;;;;;;;;;;10:03:18:040;1447966995.99;(0.6000953674316406, 0.39086367289225266);68.6019287109;1.0;2;0;0;;0;0;();();(-2000.0, -2000.0);
10:03:18:064;;;;;;;;;;;;;;10:03:18:040;1447966995.99;(0.6000953674316406, 0.39086367289225266);68.6019287109;1.0;2;0;0;;0;0;();();(-2000.0, -2000.0);
10:03:18:066;;;;;;;;;;;;;;10:03:18:040;1447966995.99;(0.6000953674316406, 0.39086367289225266);68.6019287109;1.0;2;0;0;;0;0;();();(-2000.0, -2000.0);
10:03:18:074;;;;;;;;;;;;;;10:03:18:072;1447966996.03;(0.5997578144073487, 0.39093157450358074);68.5060424805;1.0;2;0;0;;0;0;();();(-2000.0, -2000.0);
10:03:18:078;;;;;;;;;;;;;;10:03:18:072;1447966996.03;(0.5997578144073487, 0.39093157450358074);68.5060424805;1.0;2;0;0;;0;0;();();(-2000.0, -2000.0);
10:03:18:081;;;;;;;;;;;;;;10:03:18:072;1447966996.03;(0.5997578144073487, 0.39093157450358074);68.5060424805;1.0;2;0;0;;0;0;();();(-2000.0, -2000.0);
10:03:18:096;;;;;;;;;;;;;;10:03:18:072;1447966996.03;(0.5997578144073487, 0.39093157450358074);68.5060424805;1.0;2;0;0;;0;0;();();(-2000.0, -2000.0);
10:03:18:112;;;;;;;;;;;;;;10:03:18:103;1447966996.06;(0.5991600513458252, 0.3909393734402127);68.1914367676;1.0;2;0;0;;0;0;();();(-2000.0, -2000.0);
10:03:18:145;;;;;;;;;;;;;;10:03:18:103;1447966996.06;(0.5991600513458252, 0.3909393734402127);68.1914367676;1.0;2;0;0;;0;0;();();(-2000.0, -2000.0);
10:03:18:161;;;;;;;;;;;;;;10:03:18:103;1447966996.06;(0.5991600513458252, 0.3909393734402127);68.1914367676;1.0;2;0;0;;0;0;();();(-2000.0, -2000.0);
10:03:18:187;;;;;;;;;;;;;;10:03:18:103;1447966996.06;(0.5991600513458252, 0.3909393734402127);68.1914367676;1.0;2;0;0;;0;0;();();(-2000.0, -2000.0);
10:03:18:228;;;;;;;;;;;;;;10:03:18:103;1447966996.06;(0.5991600513458252, 0.3909393734402127);68.1914367676;1.0;2;0;0;;0;0;();();(-2000.0, -2000.0);
10:03:18:230;;;;;;;;;;;;;;10:03:18:103;1447966996.06;(0.5991600513458252, 0.3909393734402127);68.1914367676;1.0;2;0;0;;0;0;();();(-2000.0, -2000.0);
10:03:18:272;;;;;;;;;;;;;;10:03:18:272;1447966996.23;(0.567531967163086, 0.4208696577284071);66.8505630493;1.0;2;0;0;;0;0;();();(-2000.0, -2000.0);
10:03:18:274;;;;;;;;;;;;;;10:03:18:272;1447966996.23;(0.567531967163086, 0.4208696577284071);66.8505630493;1.0;2;0;0;;0;0;();();(-2000.0, -2000.0);
10:03:18:276;;;;;;;;;;;;;;10:03:18:272;1447966996.23;(0.567531967163086, 0.4208696577284071);66.8505630493;1.0;2;0;0;;0;0;();();(-2000.0, -2000.0);
10:03:18:353;;;;;;;;;;;;;;10:03:18:340;1447966996.29;(0.5677015781402588, 0.4210988362630208);67.0946578979;1.0;2;0;0;;0;0;();();(-2000.0, -2000.0);
10:03:18:355;;;;;;;;;;;;;;10:03:18:340;1447966996.29;(0.5677015781402588, 0.4210988362630208);67.0946578979;1.0;2;0;0;;0;0;();();(-2000.0, -2000.0);
10:03:18:358;;;;;;;;;;;;;;10:03:18:340;1447966996.29;(0.5677015781402588, 0.4210988362630208);67.0946578979;1.0;2;0;0;;0;0;();();(-2000.0, -2000.0);
10:03:18:360;;;;;;;;;;;;;;10:03:18:340;1447966996.29;(0.5677015781402588, 0.4210988362630208);67.0946578979;1.0;2;0;0;;0;0;();();(-2000.0, -2000.0);
10:03:18:397;;;;;;;;;;;;;;10:03:18:372;1447966996.33;(0.5679248809814453, 0.42121132744683165);67.0636978149;1.0;2;0;0;;0;0;();();(-2000.0, -2000.0);
10:03:18:399;;;;;;;;;;;;;;10:03:18:372;1447966996.33;(0.5679248809814453, 0.42121132744683165);67.0636978149;1.0;2;0;0;;0;0;();();(-2000.0, -2000.0);
10:03:18:440;;;;;;;;;;;;;;10:03:18:439;1447966996.39;(0.5581035137176513, 0.42540545993381074);67.0419311523;1.0;2;0;0;;0;0;();();(-2000.0, -2000.0);
10:03:18:443;;;;;;;;;;;;;;10:03:18:439;1447966996.39;(0.5581035137176513, 0.42540545993381074);67.0419311523;1.0;2;0;0;;0;0;();();(-2000.0, -2000.0);
10:03:18:482;;;;;;;;;;;;;;10:03:18:476;1447966996.43;(0.5583754062652588, 0.42558161417643225);66.9208908081;1.0;2;0;0;;0;0;();();(-2000.0, -2000.0);
10:03:18:484;;;;;;;;;;;;;;10:03:18:476;1447966996.43;(0.5583754062652588, 0.42558161417643225);66.9208908081;1.0;2;0;0;;0;0;();();(-2000.0, -2000.0);
10:03:18:504;;;;;;;;;;;;;;10:03:18:476;1447966996.43;(0.5583754062652588, 0.42558161417643225);66.9208908081;1.0;2;0;0;;0;0;();();(-2000.0, -2000.0);
10:03:18:565;;;;;;;;;;;;;;10:03:18:543;1447966996.49;(0.5593470096588135, 0.4261349572075738);67.354095459;1.0;2;0;0;;0;0;();();(-2000.0, -2000.0);
10:03:18:568;;;;;;;;;;;;;;10:03:18:543;1447966996.49;(0.5593470096588135, 0.4261349572075738);67.354095459;1.0;2;0;0;;0;0;();();(-2000.0, -2000.0);
10:03:18:571;;;;;;;;;;;;;;10:03:18:543;1447966996.49;(0.5593470096588135, 0.4261349572075738);67.354095459;1.0;2;0;0;;0;0;();();(-2000.0, -2000.0);
10:03:18:605;;;;;;;;;;;;;;10:03:18:575;1447966996.53;(0.5598424434661865, 0.42598321702745223);67.3409347534;1.0;2;0;0;;0;0;();();(-2000.0, -2000.0);
10:03:18:607;;;;;;;;;;;;;;10:03:18:575;1447966996.53;(0.5598424434661865, 0.42598321702745223);67.3409347534;1.0;2;0;0;;0;0;();();(-2000.0, -2000.0);
10:03:18:642;;;;;;;;;;;;;;10:03:18:608;1447966996.56;(0.560349988937378, 0.425282457139757);67.5015258789;1.0;2;0;0;;0;0;();();(-2000.0, -2000.0);
10:03:18:644;;;;;;;;;;;;;;10:03:18:608;1447966996.56;(0.560349988937378, 0.425282457139757);67.5015258789;1.0;2;0;0;;0;0;();();(-2000.0, -2000.0);
10:03:18:659;;;;;;;;;;;;;;10:03:18:608;1447966996.56;(0.560349988937378, 0.425282457139757);67.5015258789;1.0;2;0;0;;0;0;();();(-2000.0, -2000.0);
10:03:18:680;;;;;;;;;;;;;;10:03:18:675;1447966996.59;(0.5738239288330078, 0.41791534423828125);71.5814743042;0.933229426894;2;0;0;;0;0;();();(-2000.0, -2000.0);
10:03:18:719;;;;;;;;;;;;;;10:03:18:708;1447966996.65;(0.5835643768310547, 0.4126562330457899);68.2175674438;1.0;2;0;0;;0;0;();();(-2000.0, -2000.0);
10:03:18:721;;;;;;;;;;;;;;10:03:18:708;1447966996.65;(0.5835643768310547, 0.4126562330457899);68.2175674438;1.0;2;0;0;;0;0;();();(-2000.0, -2000.0);
10:03:18:795;;;;;;;;;;;;;;10:03:18:776;1447966996.73;(0.584117078781128, 0.41233100891113283);68.7972335815;1.0;2;0;0;;0;0;();();(-2000.0, -2000.0);
10:03:18:797;;;;;;;;;;;;;;10:03:18:776;1447966996.73;(0.584117078781128, 0.41233100891113283);68.7972335815;1.0;2;0;0;;0;0;();();(-2000.0, -2000.0);
10:03:18:799;;;;;;;;;;;;;;10:03:18:776;1447966996.73;(0.584117078781128, 0.41233100891113283);68.7972335815;1.0;2;0;0;;0;0;();();(-2000.0, -2000.0);
10:03:18:801;;;;;;;;;;;;;;10:03:18:776;1447966996.73;(0.584117078781128, 0.41233100891113283);68.7972335815;1.0;2;0;0;;0;0;();();(-2000.0, -2000.0);
10:03:19:263;10:03:19:260;0;9;-1.5;1;0;0;0;0;1;1;1;1;10:03:19:243;1447966997.19;(0.5650452613830567, 0.4217920091417101);70.149597168;1.0;2;0;0;;0;0;();();(-2000.0, -2000.0);
10:03:19:265;10:03:19:265;0;9;-1.5;1;0;0;0;0;1;1;1;1;10:03:19:243;1447966997.19;(0.5650452613830567, 0.4217920091417101);70.149597168;1.0;2;0;0;;0;0;();();(-2000.0, -2000.0);
10:03:19:269;10:03:19:269;0;9;-1.5;1;0;0;0;0;1;1;1;1;10:03:19:243;1447966997.19;(0.5650452613830567, 0.4217920091417101);70.149597168;1.0;2;0;0;;0;0;();();(-2000.0, -2000.0);
10:03:19:272;10:03:19:272;0;3;-1.5;1;0;0;0;0;1;1;1;1;10:03:19:243;1447966997.19;(0.5650452613830567, 0.4217920091417101);70.149597168;1.0;2;0;0;;0;0;();();(-2000.0, -2000.0);
10:03:19:275;10:03:19:275;0;4;-1.5;1;0;0;0;0;1;1;1;1;10:03:19:243;1447966997.19;(0.5650452613830567, 0.4217920091417101);70.149597168;1.0;2;0;0;;0;0;();();(-2000.0, -2000.0);
10:03:19:278;10:03:19:278;0;4;-1.5;1;0;0;0;0;1;1;1;1;10:03:19:243;1447966997.19;(0.5650452613830567, 0.4217920091417101);70.149597168;1.0;2;0;0;;0;0;();();(-2000.0, -2000.0);
10:03:19:279;10:03:19:279;0;4;-1.5;1;0;0;0;0;1;1;1;1;10:03:19:243;1447966997.19;(0.5650452613830567, 0.4217920091417101);70.149597168;1.0;2;0;0;;0;0;();();(-2000.0, -2000.0);
10:03:19:282;10:03:19:282;0;4;-1.5;1;0;0;0;0;1;1;1;1;10:03:19:280;1447966997.23;(0.5769944667816163, 0.4175526512993707);70.8010559082;1.0;2;0;0;;0;0;();();(-2000.0, -2000.0);
10:03:19:284;10:03:19:284;0;4;-1.5;1;0;0;0;0;1;1;1;1;10:03:19:280;1447966997.23;(0.5769944667816163, 0.4175526512993707);70.8010559082;1.0;2;0;0;;0;0;();();(-2000.0, -2000.0);
10:03:19:285;10:03:19:285;0;15;-1.5;1;0;0;0;0;1;1;1;1;10:03:19:280;1447966997.23;(0.5769944667816163, 0.4175526512993707);70.8010559082;1.0;2;0;0;;0;0;();();(-2000.0, -2000.0);
10:03:19:288;10:03:19:288;0;10;-1.5;1;0;0;0;0;1;1;1;1;10:03:19:280;1447966997.23;(0.5769944667816163, 0.4175526512993707);70.8010559082;1.0;2;0;0;;0;0;();();(-2000.0, -2000.0);
10:03:19:289;10:03:19:289;0;10;-1.5;1;0;0;0;0;1;1;1;1;10:03:19:280;1447966997.23;(0.5769944667816163, 0.4175526512993707);70.8010559082;1.0;2;0;0;;0;0;();();(-2000.0, -2000.0);
10:03:19:292;10:03:19:292;0;10;-1.5;1;0;0;0;0;1;1;1;1;10:03:19:280;1447966997.23;(0.5769944667816163, 0.4175526512993707);70.8010559082;1.0;2;0;0;;0;0;();();(-2000.0, -2000.0);
10:03:19:294;10:03:19:294;0;10;-1.5;1;0;0;0;0;1;1;1;1;10:03:19:280;1447966997.23;(0.5769944667816163, 0.4175526512993707);70.8010559082;1.0;2;0;0;;0;0;();();(-2000.0, -2000.0);
10:03:19:296;10:03:19:296;0;10;-1.5;1;0;0;0;0;1;1;1;1;10:03:19:280;1447966997.23;(0.5769944667816163, 0.4175526512993707);70.8010559082;1.0;2;0;0;;0;0;();();(-2000.0, -2000.0);
10:03:19:298;10:03:19:298;0;10;-1.5;1;0;0;0;0;1;1;1;1;10:03:19:280;1447966997.23;(0.5769944667816163, 0.4175526512993707);70.8010559082;1.0;2;0;0;;0;0;();();(-2000.0, -2000.0);
10:03:19:303;10:03:19:303;0;10;-1.5;1;0;0;0;0;1;1;1;1;10:03:19:280;1447966997.23;(0.5769944667816163, 0.4175526512993707);70.8010559082;1.0;2;0;0;;0;0;();();(-2000.0, -2000.0);
10:03:19:305;10:03:19:305;0;10;-1.5;1;0;0;0;0;1;1;1;1;10:03:19:280;1447966997.23;(0.5769944667816163, 0.4175526512993707);70.8010559082;1.0;2;0;0;;0;0;();();(-2000.0, -2000.0);
10:03:19:309;10:03:19:309;0;10;-1.5;1;0;0;0;0;1;1;1;1;10:03:19:280;1447966997.23;(0.5769944667816163, 0.4175526512993707);70.8010559082;1.0;2;0;0;;0;0;();();(-2000.0, -2000.0);
10:03:19:336;10:03:19:336;0;4;-1.5;1;0;0;0;0;1;1;1;1;10:03:19:312;1447966997.26;(0.5774462223052979, 0.41713523864746094);70.3254013062;1.0;2;0;0;;0;0;();();(-2000.0, -2000.0);
10:03:19:353;10:03:19:353;0;15;-1.5;1;0;0;0;0;1;1;1;1;10:03:19:344;1447966997.29;(0.5773893833160401, 0.4175331115722656);69.9830322266;1.0;2;0;0;;0;0;();();(-2000.0, -2000.0);
10:03:19:369;10:03:19:369;0;5;-1.5;1;0;0;0;0;1;1;1;1;10:03:19:344;1447966997.29;(0.5773893833160401, 0.4175331115722656);69.9830322266;1.0;2;0;0;;0;0;();();(-2000.0, -2000.0);
10:03:19:386;10:03:19:386;0;15;-1.5;1;0;0;0;0;1;1;1;1;10:03:19:379;1447966997.33;(0.5769872188568115, 0.41770193311903214);69.9075317383;1.0;2;0;0;;0;0;();();(-2000.0, -2000.0);
10:03:19:410;10:03:19:410;0;15;-1.5;1;0;0;0;0;1;1;1;1;10:03:19:379;1447966997.33;(0.5769872188568115, 0.41770193311903214);69.9075317383;1.0;2;0;0;;0;0;();();(-2000.0, -2000.0);
10:03:19:432;10:03:19:432;0;4;-1.5;1;0;0;0;0;1;1;1;1;10:03:19:411;1447966997.36;(0.5765419483184815, 0.41801558600531685);69.8001785278;1.0;2;0;0;;0;0;();();(-2000.0, -2000.0);
10:03:19:450;10:03:19:450;0;0;-1.5;1;0;0;0;0;1;1;1;1;10:03:19:443;1447966997.39;(0.5762758255004883, 0.4183742947048611);69.6852264404;1.0;2;0;0;;0;0;();();(-2000.0, -2000.0);
10:03:19:467;10:03:19:467;0;4;-1.5;1;0;0;0;0;1;1;1;1;10:03:19:443;1447966997.39;(0.5762758255004883, 0.4183742947048611);69.6852264404;1.0;2;0;0;;0;0;();();(-2000.0, -2000.0);
10:03:19:557;10:03:19:557;0;10;-1.5;1;0;0;0;0;1;1;1;1;10:03:19:544;1447966997.49;(0.5756598949432373, 0.41885032653808596);69.0587997437;1.0;2;0;0;;0;0;();();(-2000.0, -2000.0);
10:03:19:559;10:03:19:559;0;14;-1.5;1;0;0;0;0;1;1;1;1;10:03:19:544;1447966997.49;(0.5756598949432373, 0.41885032653808596);69.0587997437;1.0;2;0;0;;0;0;();();(-2000.0, -2000.0);
10:03:19:562;10:03:19:562;0;4;-1.5;1;0;0;0;0;1;1;1;1;10:03:19:544;1447966997.49;(0.5756598949432373, 0.41885032653808596);69.0587997437;1.0;2;0;0;;0;0;();();(-2000.0, -2000.0);
10:03:19:565;10:03:19:565;0;4;-1.5;1;0;0;0;0;1;1;1;1;10:03:19:544;1447966997.49;(0.5756598949432373, 0.41885032653808596);69.0587997437;1.0;2;0;0;;0;0;();();(-2000.0, -2000.0);
10:03:19:594;10:03:19:594;0;9;-1.5;1;0;0;0;0;1;1;1;1;10:03:19:580;1447966997.53;(0.575239896774292, 0.4188014560275608);68.8464813232;1.0;2;0;0;;0;0;();();(-2000.0, -2000.0);
10:03:19:596;10:03:19:596;0;9;-1.5;1;0;0;0;0;1;1;1;1;10:03:19:580;1447966997.53;(0.575239896774292, 0.4188014560275608);68.8464813232;1.0;2;0;0;;0;0;();();(-2000.0, -2000.0);
10:03:19:632;10:03:19:632;0;4;-1.5;1;0;0;0;0;1;1;1;1;10:03:19:612;1447966997.56;(0.5750611782073974, 0.4188232845730252);68.8038635254;1.0;2;0;0;;0;0;();();(-2000.0, -2000.0);
10:03:19:634;10:03:19:634;0;4;-1.5;1;0;0;0;0;1;1;1;1;10:03:19:612;1447966997.56;(0.5750611782073974, 0.4188232845730252);68.8038635254;1.0;2;0;0;;0;0;();();(-2000.0, -2000.0);
10:03:19:669;10:03:19:669;0;9;-1.5;1;0;0;0;0;1;1;1;1;10:03:19:644;1447966997.59;(0.5749327659606933, 0.41893942091200087);68.7761383057;1.0;2;0;0;;0;0;();();(-2000.0, -2000.0);
10:03:19:672;10:03:19:672;0;9;-1.5;1;0;0;0;0;1;1;1;1;10:03:19:644;1447966997.59;(0.5749327659606933, 0.41893942091200087);68.7761383057;1.0;2;0;0;;0;0;();();(-2000.0, -2000.0);
10:03:19:700;10:03:19:700;0;15;-1.5;1;0;0;0;0;1;1;1;1;10:03:19:679;1447966997.63;(0.5748031616210938, 0.4190980275472005);68.9436035156;1.0;2;0;0;;0;0;();();(-2000.0, -2000.0);
10:03:19:732;10:03:19:732;0;4;-1.5;1;0;0;0;0;1;1;1;1;10:03:19:711;1447966997.66;(0.5749364376068116, 0.41885452270507817);68.9897537231;1.0;2;0;0;;0;0;();();(-2000.0, -2000.0);
10:03:19:736;10:03:19:736;0;15;-1.5;1;0;0;0;0;1;1;1;1;10:03:19:711;1447966997.66;(0.5749364376068116, 0.41885452270507817);68.9897537231;1.0;2;0;0;;0;0;();();(-2000.0, -2000.0);
10:03:19:765;10:03:19:765;0;5;-1.5;1;0;0;0;0;1;1;1;1;10:03:19:744;1447966997.69;(0.5751359939575196, 0.418663830227322);68.9555740356;1.0;2;0;0;;0;0;();();(-2000.0, -2000.0);
10:03:19:767;10:03:19:767;0;0;-1.5;1;0;0;0;0;1;1;1;1;10:03:19:744;1447966997.69;(0.5751359939575196, 0.418663830227322);68.9555740356;1.0;2;0;0;;0;0;();();(-2000.0, -2000.0);
10:03:19:801;10:03:19:801;0;15;-1.5;1;0;0;0;0;1;1;1;1;10:03:19:780;1447966997.73;(0.5753705978393555, 0.4188272264268663);68.9936981201;1.0;2;0;0;;0;0;();();(-2000.0, -2000.0);
10:03:19:818;10:03:19:817;0;10;-1.5;1;0;0;0;0;1;1;1;1;10:03:19:811;1447966997.76;(0.5753828048706054, 0.41891814337836375);69.0925827026;1.0;2;0;0;;0;0;();();(-2000.0, -2000.0);
10:03:19:839;10:03:19:838;0;9;-1.5;1;0;0;0;0;1;1;1;1;10:03:19:811;1447966997.76;(0.5753828048706054, 0.41891814337836375);69.0925827026;1.0;2;0;0;;0;0;();();(-2000.0, -2000.0);
10:03:19:869;10:03:19:869;0;8;-1.5;1;0;0;0;0;1;1;1;1;10:03:19:847;1447966997.79;(0.5781798362731934, 0.4164128621419271);69.8880310059;1.0;2;0;0;;0;0;();();(-2000.0, -2000.0);
10:03:19:872;10:03:19:872;0;10;-1.5;1;0;0;0;0;1;1;1;1;10:03:19:847;1447966997.79;(0.5781798362731934, 0.4164128621419271);69.8880310059;1.0;2;0;0;;0;0;();();(-2000.0, -2000.0);
10:03:19:931;10:03:19:931;0;0;-1.5;1;0;0;0;0;1;1;1;1;10:03:19:912;1447966997.86;(0.582181978225708, 0.41269645690917967);69.49949646;1.0;2;0;0;;0;0;();();(-2000.0, -2000.0);
10:03:19:934;10:03:19:934;0;10;-1.5;1;0;0;0;0;1;1;1;1;10:03:19:912;1447966997.86;(0.582181978225708, 0.41269645690917967);69.49949646;1.0;2;0;0;;0;0;();();(-2000.0, -2000.0);
10:03:19:937;10:03:19:937;0;10;-1.5;1;0;0;0;0;1;1;1;1;10:03:19:912;1447966997.86;(0.582181978225708, 0.41269645690917967);69.49949646;1.0;2;0;0;;0;0;();();(-2000.0, -2000.0);
10:03:19:967;10:03:19:967;0;10;-1.5;1;0;0;0;0;1;1;1;1;10:03:19:948;1447966997.89;(0.5823934555053711, 0.4126255459255642);69.4853210449;1.0;2;0;0;;0;0;();();(-2000.0, -2000.0);
10:03:19:971;10:03:19:971;0;10;-1.5;1;0;0;0;0;1;1;1;1;10:03:19:948;1447966997.89;(0.5823934555053711, 0.4126255459255642);69.4853210449;1.0;2;0;0;;0;0;();();(-2000.0, -2000.0);
10:03:20:004;10:03:20:004;0;10;-1.5;1;0;0;0;0;1;1;1;1;10:03:19:980;1447966997.93;(0.5824927806854248, 0.4125821855333116);69.3989028931;1.0;2;0;0;;0;0;();();(-2000.0, -2000.0);
10:03:20:006;10:03:20:006;0;10;-1.5;1;0;0;0;0;1;1;1;1;10:03:19:980;1447966997.93;(0.5824927806854248, 0.4125821855333116);69.3989028931;1.0;2;0;0;;0;0;();();(-2000.0, -2000.0);
10:03:20:041;10:03:20:041;0;10;-1.5;1;0;0;0;0;1;1;1;1;10:03:20:016;1447966997.96;(0.5825438022613525, 0.4123883989122179);69.7022018433;1.0;2;0;0;;0;0;();();(-2000.0, -2000.0);
10:03:20:058;10:03:20:058;0;11;-1.5;1;0;0;0;0;1;1;1;1;10:03:20:048;1447966997.99;(0.5826589584350585, 0.4128793080647787);69.7461471558;1.0;2;0;0;;0;0;();();(-2000.0, -2000.0);
10:03:20:078;10:03:20:078;0;5;-1.5;1;0;0;0;0;1;1;1;1;10:03:20:048;1447966997.99;(0.5826589584350585, 0.4128793080647787);69.7461471558;1.0;2;0;0;;0;0;();();(-2000.0, -2000.0);
10:03:20:149;10:03:20:149;0;0;-1.5;1;0;0;0;0;1;1;1;1;10:03:20:128;1447966998.06;(0.5826900005340576, 0.41204236348470047);69.6724700928;1.0;2;0;0;;0;0;();();(-2000.0, -2000.0);
10:03:20:152;10:03:20:151;0;0;-1.5;1;0;0;0;0;1;1;1;1;10:03:20:128;1447966998.06;(0.5826900005340576, 0.41204236348470047);69.6724700928;1.0;2;0;0;;0;0;();();(-2000.0, -2000.0);
10:03:20:154;10:03:20:154;0;0;-1.5;1;0;0;0;0;1;1;1;1;10:03:20:128;1447966998.06;(0.5826900005340576, 0.41204236348470047);69.6724700928;1.0;2;0;0;;0;0;();();(-2000.0, -2000.0);
10:03:20:157;10:03:20:157;0;0;-1.5;1;0;0;0;0;1;1;1;1;10:03:20:128;1447966998.06;(0.5826900005340576, 0.41204236348470047);69.6724700928;1.0;2;0;0;;0;0;();();(-2000.0, -2000.0);
10:03:20:182;10:03:20:182;0;15;-1.5;1;0;0;0;0;1;1;1;1;10:03:20:128;1447966998.06;(0.5826900005340576, 0.41204236348470047);69.6724700928;1.0;2;0;0;;0;0;();();(-2000.0, -2000.0);
10:03:20:186;10:03:20:186;0;10;-1.5;1;0;0;0;0;1;1;1;1;10:03:20:128;1447966998.06;(0.5826900005340576, 0.41204236348470047);69.6724700928;1.0;2;0;0;;0;0;();();(-2000.0, -2000.0);
10:03:20:221;10:03:20:221;0;9;-1.5;1;0;0;0;0;1;1;1;1;10:03:20:192;1447966998.14;(0, 0);0;0;2;0;0;;0;0;();();(-2000.0, -2000.0);
10:03:20:224;10:03:20:223;0;9;-1.5;1;0;0;0;0;1;1;1;1;10:03:20:192;1447966998.14;(0, 0);0;0;2;0;0;;0;0;();();(-2000.0, -2000.0);
10:03:20:252;10:03:20:252;0;15;-1.5;1;0;0;0;0;1;1;1;1;10:03:20:227;1447966998.16;(0, 0);0;0;2;0;0;;0;0;();();(-2000.0, -2000.0);
10:03:20:268;10:03:20:268;0;5;-1.5;1;0;0;0;0;1;1;1;1;10:03:20:260;1447966998.19;(0.4721802234649658, 0.4342318640814887);69.8167495728;0.853221195657;2;0;0;;0;0;();();(-2000.0, -2000.0);
10:03:20:291;10:03:20:291;0;10;-1.5;1;0;0;0;0;1;1;1;1;10:03:20:260;1447966998.19;(0.4721802234649658, 0.4342318640814887);69.8167495728;0.853221195657;2;0;0;;0;0;();();(-2000.0, -2000.0);
10:03:20:361;10:03:20:361;0;10;-1.5;1;0;0;0;0;1;1;1;1;10:03:20:360;1447966998.29;(0.46273140907287597, 0.42237917582194007);70.0007858276;1.0;2;0;0;;0;0;();();(-2000.0, -2000.0);
10:03:20:364;10:03:20:364;0;13;-1.5;1;0;0;0;0;1;1;1;1;10:03:20:360;1447966998.29;(0.46273140907287597, 0.42237917582194007);70.0007858276;1.0;2;0;0;;0;0;();();(-2000.0, -2000.0);
10:03:20:366;10:03:20:366;0;4;-1.5;1;0;0;0;0;1;1;1;1;10:03:20:360;1447966998.29;(0.46273140907287597, 0.42237917582194007);70.0007858276;1.0;2;0;0;;0;0;();();(-2000.0, -2000.0);
10:03:20:369;10:03:20:369;0;15;-1.5;1;0;0;0;0;1;1;1;1;10:03:20:360;1447966998.29;(0.46273140907287597, 0.42237917582194007);70.0007858276;1.0;2;0;0;;0;0;();();(-2000.0, -2000.0);
10:03:20:397;10:03:20:397;0;4;-1.5;1;0;0;0;0;1;1;1;1;10:03:20:395;1447966998.33;(0.4760692596435547, 0.4197411855061849);70.6404418945;0.794200537199;2;0;0;;0;0;();();(-2000.0, -2000.0);
10:03:20:432;10:03:20:432;0;15;-1.5;1;0;0;0;0;1;1;1;1;10:03:20:429;1447966998.36;(0.48735527992248534, 0.41834479437934025);71.3875198364;0.907396686137;2;0;0;;0;0;();();(-2000.0, -2000.0);
10:03:20:435;10:03:20:435;0;15;-1.5;1;0;0;0;0;1;1;1;1;10:03:20:429;1447966998.36;(0.48735527992248534, 0.41834479437934025);71.3875198364;0.907396686137;2;0;0;;0;0;();();(-2000.0, -2000.0);
10:03:20:469;10:03:20:469;0;15;-1.5;1;0;0;0;0;1;1;1;1;10:03:20:460;1447966998.39;(0.49619007110595703, 0.41689906650119357);71.2318954468;1.0;2;0;0;;0;0;();();(-2000.0, -2000.0);
10:03:20:472;10:03:20:471;0;15;-1.5;1;0;0;0;0;1;1;1;1;10:03:20:460;1447966998.39;(0.49619007110595703, 0.41689906650119357);71.2318954468;1.0;2;0;0;;0;0;();();(-2000.0, -2000.0);
10:03:20:485;10:03:20:485;0;10;-1.5;1;0;0;0;0;1;1;1;1;10:03:20:460;1447966998.39;(0.49619007110595703, 0.41689906650119357);71.2318954468;1.0;2;0;0;;0;0;();();(-2000.0, -2000.0);
10:03:20:502;10:03:20:502;0;0;-1.5;1;0;0;0;0;1;1;1;1;10:03:20:496;1447966998.43;(0.5017842292785645, 0.4163732740614149);71.1766967773;0.982053034043;2;0;0;;0;0;();();(-2000.0, -2000.0);
10:03:20:570;10:03:20:570;0;10;-1.5;1;0;0;0;0;1;1;1;1;10:03:20:560;1447966998.49;(0.5069204330444336, 0.415444819132487);70.218963623;1.0;2;0;0;;0;0;();();(-2000.0, -2000.0);
10:03:20:573;10:03:20:573;0;10;-1.5;1;0;0;0;0;1;1;1;1;10:03:20:560;1447966998.49;(0.5069204330444336, 0.415444819132487);70.218963623;1.0;2;0;0;;0;0;();();(-2000.0, -2000.0);
10:03:20:575;10:03:20:575;0;10;-1.5;1;0;0;0;0;1;1;1;1;10:03:20:560;1447966998.49;(0.5069204330444336, 0.415444819132487);70.218963623;1.0;2;0;0;;0;0;();();(-2000.0, -2000.0);
10:03:20:607;10:03:20:607;0;10;-1.5;1;0;0;0;0;1;1;1;1;10:03:20:592;1447966998.56;(0.5080402851104736, 0.4154884762234158);69.6517944336;0.863519952356;2;0;0;;0;0;();();(-2000.0, -2000.0);
10:03:20:611;10:03:20:611;0;10;-1.5;1;0;0;0;0;1;1;1;1;10:03:20:592;1447966998.56;(0.5080402851104736, 0.4154884762234158);69.6517944336;0.863519952356;2;0;0;;0;0;();();(-2000.0, -2000.0);
10:03:20:642;10:03:20:642;0;9;-1.5;1;0;0;0;0;1;1;1;1;10:03:20:592;1447966998.56;(0.5080402851104736, 0.4154884762234158);69.6517944336;0.863519952356;2;0;0;;0;0;();();(-2000.0, -2000.0);
10:03:20:645;10:03:20:645;0;5;-1.5;1;0;0;0;0;1;1;1;1;10:03:20:592;1447966998.56;(0.5080402851104736, 0.4154884762234158);69.6517944336;0.863519952356;2;0;0;;0;0;();();(-2000.0, -2000.0);
10:03:20:679;10:03:20:679;0;10;-1.5;1;0;0;0;0;1;1;1;1;10:03:20:592;1447966998.56;(0.5080402851104736, 0.4154884762234158);69.6517944336;0.863519952356;2;0;0;;0;0;();();(-2000.0, -2000.0);
10:03:20:695;10:03:20:695;0;15;-1.5;1;0;0;0;0;1;1;1;1;10:03:20:592;1447966998.56;(0.5080402851104736, 0.4154884762234158);69.6517944336;0.863519952356;2;0;0;;0;0;();();(-2000.0, -2000.0);
10:03:20:713;10:03:20:713;0;10;-1.5;1;0;0;0;0;1;1;1;1;10:03:20:592;1447966998.56;(0.5080402851104736, 0.4154884762234158);69.6517944336;0.863519952356;2;0;0;;0;0;();();(-2000.0, -2000.0);
10:03:20:786;10:03:20:786;0;4;-1.5;1;0;0;0;0;1;1;1;1;10:03:20:760;1447966998.73;(0.5399459838867188, 0.41754735310872393);65.7818222046;0.99815641226;2;0;0;;0;0;();();(-2000.0, -2000.0);
10:03:20:789;10:03:20:789;0;15;-1.5;1;0;0;0;0;1;1;1;1;10:03:20:760;1447966998.73;(0.5399459838867188, 0.41754735310872393);65.7818222046;0.99815641226;2;0;0;;0;0;();();(-2000.0, -2000.0);
10:03:20:792;10:03:20:792;0;15;-1.5;1;0;0;0;0;1;1;1;1;10:03:20:792;1447966998.76;(0.5404465198516846, 0.41851471794976125);65.6261444092;0.977757868671;2;0;0;;0;0;();();(-2000.0, -2000.0);
10:03:20:796;10:03:20:796;0;10;-1.5;1;0;0;0;0;1;1;1;1;10:03:20:792;1447966998.76;(0.5404465198516846, 0.41851471794976125);65.6261444092;0.977757868671;2;0;0;;0;0;();();(-2000.0, -2000.0);
10:03:20:822;10:03:20:822;0;15;-1.5;1;0;0;0;0;1;1;1;1;10:03:20:792;1447966998.76;(0.5404465198516846, 0.41851471794976125);65.6261444092;0.977757868671;2;0;0;;0;0;();();(-2000.0, -2000.0);
10:03:20:825;10:03:20:825;0;15;-1.5;1;0;0;0;0;1;1;1;1;10:03:20:792;1447966998.76;(0.5404465198516846, 0.41851471794976125);65.6261444092;0.977757868671;2;0;0;;0;0;();();(-2000.0, -2000.0);
10:03:20:854;10:03:20:854;0;15;-1.5;1;0;0;0;0;1;1;1;1;10:03:20:792;1447966998.76;(0.5404465198516846, 0.41851471794976125);65.6261444092;0.977757868671;2;0;0;;0;0;();();(-2000.0, -2000.0);
10:03:20:891;10:03:20:891;0;0;-1.5;1;0;0;0;0;1;1;1;1;10:03:20:860;1447966998.79;(0.540904951095581, 0.4187144809299045);65.1675186157;1.0;2;0;0;;0;0;();();(-2000.0, -2000.0);
10:03:20:894;10:03:20:894;0;10;-1.5;1;0;0;0;0;1;1;1;1;10:03:20:892;1447966998.86;(0.5416800022125244, 0.4193262312147352);64.2960281372;1.0;2;0;0;;0;0;();();(-2000.0, -2000.0);
10:03:20:909;10:03:20:909;0;5;-1.5;1;0;0;0;0;1;1;1;1;10:03:20:892;1447966998.86;(0.5416800022125244, 0.4193262312147352);64.2960281372;1.0;2;0;0;;0;0;();();(-2000.0, -2000.0);
10:03:20:925;10:03:20:925;0;15;-1.5;1;0;0;0;0;1;1;1;1;10:03:20:892;1447966998.86;(0.5416800022125244, 0.4193262312147352);64.2960281372;1.0;2;0;0;;0;0;();();(-2000.0, -2000.0);
10:03:20:986;10:03:20:986;0;15;-1.5;1;0;0;0;0;1;1;1;1;10:03:20:960;1447966998.89;(0.5417858600616455, 0.4195070478651258);64.1475982666;1.0;2;0;0;;0;0;();();(-2000.0, -2000.0);
10:03:20:989;10:03:20:989;0;15;-1.5;1;0;0;0;0;1;1;1;1;10:03:20:960;1447966998.89;(0.5417858600616455, 0.4195070478651258);64.1475982666;1.0;2;0;0;;0;0;();();(-2000.0, -2000.0);
10:03:20:992;10:03:20:992;0;10;-1.5;1;0;0;0;0;1;1;1;1;10:03:20:992;1447966998.93;(0.5418304920196533, 0.41992755466037324);63.7372512817;1.0;2;0;0;;0;0;();();(-2000.0, -2000.0);
10:03:21:021;10:03:21:021;0;10;-1.5;1;0;0;0;0;1;1;1;1;10:03:20:992;1447966998.93;(0.5418304920196533, 0.41992755466037324);63.7372512817;1.0;2;0;0;;0;0;();();(-2000.0, -2000.0);
10:03:21:024;10:03:21:024;0;10;-1.5;1;0;0;0;0;1;1;1;1;10:03:20:992;1447966998.93;(0.5418304920196533, 0.41992755466037324);63.7372512817;1.0;2;0;0;;0;0;();();(-2000.0, -2000.0);
10:03:21:056;10:03:21:056;0;0;-1.5;1;0;0;0;0;1;1;1;1;10:03:21:028;1447966998.99;(0.5417215824127197, 0.4204362657335069);62.9659881592;1.0;2;0;0;;0;0;();();(-2000.0, -2000.0);
10:03:21:091;10:03:21:091;0;10;-1.5;1;0;0;0;0;1;1;1;1;10:03:21:059;1447966999.03;(0.5415265560150146, 0.4204931471082899);62.7787475586;1.0;2;0;0;;0;0;();();(-2000.0, -2000.0);
10:03:21:094;10:03:21:094;0;4;-1.5;1;0;0;0;0;1;1;1;1;10:03:21:059;1447966999.03;(0.5415265560150146, 0.4204931471082899);62.7787475586;1.0;2;0;0;;0;0;();();(-2000.0, -2000.0);
10:03:21:109;10:03:21:109;0;15;-1.5;1;0;0;0;0;1;1;1;1;10:03:21:059;1447966999.03;(0.5415265560150146, 0.4204931471082899);62.7787475586;1.0;2;0;0;;0;0;();();(-2000.0, -2000.0);
10:03:21:126;10:03:21:126;0;10;-1.5;1;0;0;0;0;1;1;1;1;10:03:21:059;1447966999.03;(0.5415265560150146, 0.4204931471082899);62.7787475586;1.0;2;0;0;;0;0;();();(-2000.0, -2000.0);
10:03:21:198;10:03:21:198;0;4;-1.5;1;0;0;0;0;1;1;1;1;10:03:21:191;1447966999.13;(0.5407384395599365, 0.4214961581759983);62.2043571472;1.0;2;0;0;;0;0;();();(-2000.0, -2000.0);
10:03:21:200;10:03:21:200;0;4;-1.5;1;0;0;0;0;1;1;1;1;10:03:21:191;1447966999.13;(0.5407384395599365, 0.4214961581759983);62.2043571472;1.0;2;0;0;;0;0;();();(-2000.0, -2000.0);
10:03:21:202;10:03:21:202;0;4;-1.5;1;0;0;0;0;1;1;1;1;10:03:21:191;1447966999.13;(0.5407384395599365, 0.4214961581759983);62.2043571472;1.0;2;0;0;;0;0;();();(-2000.0, -2000.0);
10:03:21:232;10:03:21:232;0;5;-1.5;1;0;0;0;0;1;1;1;1;10:03:21:191;1447966999.13;(0.5407384395599365, 0.4214961581759983);62.2043571472;1.0;2;0;0;;0;0;();();(-2000.0, -2000.0);
10:03:21:234;10:03:21:234;0;15;-1.5;1;0;0;0;0;1;1;1;1;10:03:21:191;1447966999.13;(0.5407384395599365, 0.4214961581759983);62.2043571472;1.0;2;0;0;;0;0;();();(-2000.0, -2000.0);
10:03:21:271;10:03:21:271;0;15;-1.5;1;0;0;0;0;1;1;1;1;10:03:21:260;1447966999.21;(0.5044558048248291, 0.42138078477647567);60.9325942993;1.0;2;0;0;;0;0;();();(-2000.0, -2000.0);
10:03:21:274;10:03:21:274;0;9;-1.5;1;0;0;0;0;1;1;1;1;10:03:21:260;1447966999.21;(0.5044558048248291, 0.42138078477647567);60.9325942993;1.0;2;0;0;;0;0;();();(-2000.0, -2000.0);
10:03:21:307;10:03:21:307;0;15;-1.5;1;0;0;0;0;1;1;1;1;10:03:21:292;1447966999.24;(0.5036954402923584, 0.4215911865234375);61.4760017395;0.848753167226;2;0;0;;0;0;();();(-2000.0, -2000.0);
10:03:21:311;10:03:21:310;0;15;-1.5;1;0;0;0;0;1;1;1;1;10:03:21:292;1447966999.24;(0.5036954402923584, 0.4215911865234375);61.4760017395;0.848753167226;2;0;0;;0;0;();();(-2000.0, -2000.0);
10:03:21:323;10:03:21:323;0;4;-1.5;1;0;0;0;0;1;1;1;1;10:03:21:292;1447966999.24;(0.5036954402923584, 0.4215911865234375);61.4760017395;0.848753167226;2;0;0;;0;0;();();(-2000.0, -2000.0);
10:03:21:346;10:03:21:345;0;9;-1.5;1;0;0;0;0;1;1;1;1;10:03:21:328;1447966999.29;(0.5031539916992187, 0.4232225206163195);61.055316925;1.0;2;0;0;;0;0;();();(-2000.0, -2000.0);
10:03:21:403;10:03:21:403;0;15;-1.5;1;0;0;0;0;1;1;1;1;10:03:21:360;1447966999.33;(0.5030389785766601, 0.42388182746039493);60.9000015259;1.0;2;0;0;;0;0;();();(-2000.0, -2000.0);
10:03:21:405;10:03:21:405;0;10;-1.5;1;0;0;0;0;1;1;1;1;10:03:21:360;1447966999.33;(0.5030389785766601, 0.42388182746039493);60.9000015259;1.0;2;0;0;;0;0;();();(-2000.0, -2000.0);
10:03:21:408;10:03:21:408;0;10;-1.5;1;0;0;0;0;1;1;1;1;10:03:21:360;1447966999.33;(0.5030389785766601, 0.42388182746039493);60.9000015259;1.0;2;0;0;;0;0;();();(-2000.0, -2000.0);
10:03:21:439;10:03:21:439;0;9;-1.5;1;0;0;0;0;1;1;1;1;10:03:21:432;1447966999.39;(0.5023083209991455, 0.4248553805881077);60.9616470337;1.0;2;0;0;;0;0;();();(-2000.0, -2000.0);
10:03:21:474;10:03:21:474;0;10;-1.5;1;0;0;0;0;1;1;1;1;10:03:21:467;1447966999.43;(0.5019124507904053, 0.42515195210774737);61.2969741821;1.0;2;0;0;;0;0;();();(-2000.0, -2000.0);
10:03:21:476;10:03:21:476;0;10;-1.5;1;0;0;0;0;1;1;1;1;10:03:21:467;1447966999.43;(0.5019124507904053, 0.42515195210774737);61.2969741821;1.0;2;0;0;;0;0;();();(-2000.0, -2000.0);
10:03:21:494;10:03:21:494;0;15;-1.5;1;0;0;0;0;1;1;1;1;10:03:21:467;1447966999.43;(0.5019124507904053, 0.42515195210774737);61.2969741821;1.0;2;0;0;;0;0;();();(-2000.0, -2000.0);
10:03:21:511;10:03:21:511;0;4;-1.5;1;0;0;0;0;1;1;1;1;10:03:21:467;1447966999.43;(0.5019124507904053, 0.42515195210774737);61.2969741821;1.0;2;0;0;;0;0;();();(-2000.0, -2000.0);
10:03:21:533;10:03:21:533;0;10;-1.5;1;0;0;0;0;1;1;1;1;10:03:21:531;1447966999.49;(0, 0);0;0;2;0;0;;0;0;();();(-2000.0, -2000.0);
10:03:21:569;10:03:21:569;0;9;-1.5;1;0;0;0;0;1;1;1;1;10:03:21:568;1447966999.53;(0.04592507183551788, 0.5266841888427735);19.2710037231;0.953465451411;2;0;0;;0;0;();();(-2000.0, -2000.0);
10:03:21:572;10:03:21:572;0;9;-1.5;1;0;0;0;0;1;1;1;1;10:03:21:568;1447966999.53;(0.04592507183551788, 0.5266841888427735);19.2710037231;0.953465451411;2;0;0;;0;0;();();(-2000.0, -2000.0);
10:03:21:631;10:03:21:631;0;10;-1.5;1;0;0;0;0;1;1;1;1;10:03:21:601;1447966999.56;(0, 0);0;0;2;0;0;;0;0;();();(-2000.0, -2000.0);
10:03:21:633;10:03:21:633;0;10;-1.5;1;0;0;0;0;1;1;1;1;10:03:21:601;1447966999.56;(0, 0);0;0;2;0;0;;0;0;();();(-2000.0, -2000.0);
10:03:21:636;10:03:21:636;0;10;-1.5;1;0;0;0;0;1;1;1;1;10:03:21:601;1447966999.56;(0, 0);0;0;2;0;0;;0;0;();();(-2000.0, -2000.0);
10:03:21:663;10:03:21:663;0;9;-1.5;1;0;0;0;0;1;1;1;1;10:03:21:601;1447966999.56;(0, 0);0;0;2;0;0;;0;0;();();(-2000.0, -2000.0);
10:03:21:665;10:03:21:665;0;9;-1.5;1;0;0;0;0;1;1;1;1;10:03:21:601;1447966999.56;(0, 0);0;0;2;0;0;;0;0;();();(-2000.0, -2000.0);
10:03:21:698;10:03:21:698;0;10;-1.5;1;0;0;0;0;1;1;1;1;10:03:21:668;1447966999.63;(0.6502804279327392, 0.35695436265733504);62.8534698486;1.0;2;0;0;;0;0;();();(-2000.0, -2000.0);
10:03:21:733;10:03:21:733;0;9;-1.5;1;0;0;0;0;1;1;1;1;10:03:21:732;1447966999.66;(0.6445191860198974, 0.3614746517605252);62.7231826782;1.0;2;0;0;;0;0;();();(-2000.0, -2000.0);
10:03:21:735;10:03:21:735;0;2;-1.5;1;0;0;0;0;1;1;1;1;10:03:21:732;1447966999.66;(0.6445191860198974, 0.3614746517605252);62.7231826782;1.0;2;0;0;;0;0;();();(-2000.0, -2000.0);
10:03:21:750;10:03:21:749;0;0;-1.5;1;0;0;0;0;1;1;1;1;10:03:21:732;1447966999.66;(0.6445191860198974, 0.3614746517605252);62.7231826782;1.0;2;0;0;;0;0;();();(-2000.0, -2000.0);
10:03:21:767;10:03:21:767;0;5;-1.5;1;0;0;0;0;1;1;1;1;10:03:21:732;1447966999.66;(0.6445191860198974, 0.3614746517605252);62.7231826782;1.0;2;0;0;;0;0;();();(-2000.0, -2000.0);
10:03:21:807;10:03:21:807;0;4;-1.5;1;0;0;0;0;1;1;1;1;10:03:21:799;1447966999.73;(0.6348934173583984, 0.3718474917941623);63.6281738281;1.0;2;0;0;;0;0;();();(-2000.0, -2000.0);
10:03:21:809;10:03:21:809;0;4;-1.5;1;0;0;0;0;1;1;1;1;10:03:21:799;1447966999.73;(0.6348934173583984, 0.3718474917941623);63.6281738281;1.0;2;0;0;;0;0;();();(-2000.0, -2000.0);
10:03:21:874;10:03:21:874;0;10;-1.5;1;0;0;0;0;1;1;1;1;10:03:21:868;1447966999.83;(0.6319433212280273, 0.37023595174153645);63.5331459045;1.0;2;0;0;;0;0;();();(-2000.0, -2000.0);
10:03:21:877;10:03:21:877;0;10;-1.5;1;0;0;0;0;1;1;1;1;10:03:21:868;1447966999.83;(0.6319433212280273, 0.37023595174153645);63.5331459045;1.0;2;0;0;;0;0;();();(-2000.0, -2000.0);
10:03:21:879;10:03:21:879;0;1;-1.5;1;0;0;0;0;1;1;1;1;10:03:21:868;1447966999.83;(0.6319433212280273, 0.37023595174153645);63.5331459045;1.0;2;0;0;;0;0;();();(-2000.0, -2000.0);
10:03:21:912;10:03:21:912;0;15;-1.5;1;0;0;0;0;1;1;1;1;10:03:21:868;1447966999.83;(0.6319433212280273, 0.37023595174153645);63.5331459045;1.0;2;0;0;;0;0;();();(-2000.0, -2000.0);
10:03:21:916;10:03:21:916;0;15;-1.5;1;0;0;0;0;1;1;1;1;10:03:21:868;1447966999.83;(0.6319433212280273, 0.37023595174153645);63.5331459045;1.0;2;0;0;;0;0;();();(-2000.0, -2000.0);
10:03:21:944;10:03:21:944;0;0;-1.5;1;0;0;0;0;1;1;1;1;10:03:21:936;1447966999.89;(0.6266645431518555, 0.37432518005371096);63.6051101685;1.0;2;0;0;;0;0;();();(-2000.0, -2000.0);
10:03:21:947;10:03:21:947;0;0;-1.5;1;0;0;0;0;1;1;1;1;10:03:21:936;1447966999.89;(0.6266645431518555, 0.37432518005371096);63.6051101685;1.0;2;0;0;;0;0;();();(-2000.0, -2000.0);
10:03:21:980;10:03:21:980;0;15;-1.5;1;0;0;0;0;1;1;1;1;10:03:21:936;1447966999.89;(0.6266645431518555, 0.37432518005371096);63.6051101685;1.0;2;0;0;;0;0;();();(-2000.0, -2000.0);
10:03:21:996;10:03:21:996;0;4;-1.5;1;0;0;0;0;1;1;1;1;10:03:21:936;1447966999.89;(0.6266645431518555, 0.37432518005371096);63.6051101685;1.0;2;0;0;;0;0;();();(-2000.0, -2000.0);
10:03:22:018;10:03:22:018;0;10;-1.5;1;0;0;0;0;1;1;1;1;10:03:22:006;1447966999.96;(0.6233295440673828, 0.3765496995713976);64.5074920654;0.935265526272;2;0;0;;0;0;();();(-2000.0, -2000.0);
10:03:22:083;10:03:22:083;0;9;-1.5;1;0;0;0;0;1;1;1;1;10:03:22:068;1447967000.03;(0.6204360961914063, 0.37845391167534725);64.483757019;0.905192696475;2;0;0;;0;0;();();(-2000.0, -2000.0);
10:03:22:085;10:03:22:085;0;9;-1.5;1;0;0;0;0;1;1;1;1;10:03:22:068;1447967000.03;(0.6204360961914063, 0.37845391167534725);64.483757019;0.905192696475;2;0;0;;0;0;();();(-2000.0, -2000.0);
10:03:22:088;10:03:22:088;0;5;-1.5;1;0;0;0;0;1;1;1;1;10:03:22:068;1447967000.03;(0.6204360961914063, 0.37845391167534725);64.483757019;0.905192696475;2;0;0;;0;0;();();(-2000.0, -2000.0);
10:03:22:092;10:03:22:092;0;5;-1.5;1;0;0;0;0;1;1;1;1;10:03:22:068;1447967000.03;(0.6204360961914063, 0.37845391167534725);64.483757019;0.905192696475;2;0;0;;0;0;();();(-2000.0, -2000.0);
10:03:22:119;10:03:22:119;0;4;-1.5;1;0;0;0;0;1;1;1;1;10:03:22:104;1447967000.06;(0.61904935836792, 0.3795498741997613);64.4847335815;0.818536527507;2;0;0;;0;0;();();(-2000.0, -2000.0);
10:03:22:156;10:03:22:156;0;9;-1.5;1;0;0;0;0;1;1;1;1;10:03:22:136;1447967000.09;(0.6176223754882812, 0.3804620954725477);64.5429000854;0.853744214975;2;0;0;;0;0;();();(-2000.0, -2000.0);
10:03:22:159;10:03:22:159;0;15;-1.5;1;0;0;0;0;1;1;1;1;10:03:22:136;1447967000.09;(0.6176223754882812, 0.3804620954725477);64.5429000854;0.853744214975;2;0;0;;0;0;();();(-2000.0, -2000.0);
10:03:22:190;10:03:22:190;0;5;-1.5;1;0;0;0;0;1;1;1;1;10:03:22:168;1447967000.13;(0.6165025234222412, 0.38124605814615886);64.4237976074;0.878066422494;2;0;0;;0;0;();();(-2000.0, -2000.0);
10:03:22:192;10:03:22:192;0;5;-1.5;1;0;0;0;0;1;1;1;1;10:03:22:168;1447967000.13;(0.6165025234222412, 0.38124605814615886);64.4237976074;0.878066422494;2;0;0;;0;0;();();(-2000.0, -2000.0);
10:03:22:207;10:03:22:207;0;9;-1.5;1;0;0;0;0;1;1;1;1;10:03:22:200;1447967000.16;(0.6156672954559326, 0.3816635979546441);64.2269210815;0.93587336908;2;0;0;;0;0;();();(-2000.0, -2000.0);
10:03:22:225;10:03:22:225;0;4;-1.5;1;0;0;0;0;1;1;1;1;10:03:22:200;1447967000.16;(0.6156672954559326, 0.3816635979546441);64.2269210815;0.93587336908;2;0;0;;0;0;();();(-2000.0, -2000.0);
10:03:22:299;10:03:22:299;0;15;-1.5;1;0;0;0;0;1;1;1;1;10:03:22:296;1447967000.26;(0.6134862422943115, 0.3840702904595269);64.0314865112;0.876435320884;2;0;0;;0;0;();();(-2000.0, -2000.0);
10:03:22:301;10:03:22:301;0;15;-1.5;1;0;0;0;0;1;1;1;1;10:03:22:296;1447967000.26;(0.6134862422943115, 0.3840702904595269);64.0314865112;0.876435320884;2;0;0;;0;0;();();(-2000.0, -2000.0);
10:03:22:304;10:03:22:304;0;9;-1.5;1;0;0;0;0;1;1;1;1;10:03:22:296;1447967000.26;(0.6134862422943115, 0.3840702904595269);64.0314865112;0.876435320884;2;0;0;;0;0;();();(-2000.0, -2000.0);
10:03:22:330;10:03:22:330;0;0;-1.5;1;0;0;0;0;1;1;1;1;10:03:22:296;1447967000.26;(0.6134862422943115, 0.3840702904595269);64.0314865112;0.876435320884;2;0;0;;0;0;();();(-2000.0, -2000.0);
10:03:22:334;10:03:22:334;0;10;-1.5;1;0;0;0;0;1;1;1;1;10:03:22:331;1447967000.29;(0.6124936580657959, 0.38508750067816844);64.5192947388;0.909130452636;2;0;0;;0;0;();();(-2000.0, -2000.0);
10:03:22:371;10:03:22:371;0;10;-1.5;1;0;0;0;0;1;1;1;1;10:03:22:367;1447967000.33;(0.6116479396820068, 0.38644532097710504);65.1106033325;0.935318140053;2;0;0;;0;0;();();(-2000.0, -2000.0);
10:03:22:375;10:03:22:375;0;4;-1.5;1;0;0;0;0;1;1;1;1;10:03:22:367;1447967000.33;(0.6116479396820068, 0.38644532097710504);65.1106033325;0.935318140053;2;0;0;;0;0;();();(-2000.0, -2000.0);
10:03:22:406;10:03:22:406;0;10;-1.5;1;0;0;0;0;1;1;1;1;10:03:22:404;1447967000.36;(0.6108012676239014, 0.3876428392198351);65.8340988159;0.937570669018;2;0;0;;0;0;();();(-2000.0, -2000.0);
10:03:22:409;10:03:22:409;0;10;-1.5;1;0;0;0;0;1;1;1;1;10:03:22:404;1447967000.36;(0.6108012676239014, 0.3876428392198351);65.8340988159;0.937570669018;2;0;0;;0;0;();();(-2000.0, -2000.0);
10:03:22:422;10:03:22:422;0;15;-1.5;1;0;0;0;0;1;1;1;1;10:03:22:404;1447967000.36;(0.6108012676239014, 0.3876428392198351);65.8340988159;0.937570669018;2;0;0;;0;0;();();(-2000.0, -2000.0);
10:03:22:445;10:03:22:445;0;4;-1.5;1;0;0;0;0;1;1;1;1;10:03:22:435;1447967000.39;(0.6102676868438721, 0.3878850301106771);65.7910003662;0.934620410748;2;0;0;;0;0;();();(-2000.0, -2000.0);
10:03:22:493;10:03:22:493;0;10;-1.5;1;0;0;0;0;1;1;1;1;10:03:22:435;1447967000.39;(0.6102676868438721, 0.3878850301106771);65.7910003662;0.934620410748;2;0;0;;0;0;();();(-2000.0, -2000.0);
10:03:22:496;10:03:22:496;0;10;-1.5;1;0;0;0;0;1;1;1;1;10:03:22:435;1447967000.39;(0.6102676868438721, 0.3878850301106771);65.7910003662;0.934620410748;2;0;0;;0;0;();();(-2000.0, -2000.0);
10:03:22:514;10:03:22:514;0;5;-1.5;1;0;0;0;0;1;1;1;1;10:03:22:435;1447967000.39;(0.6102676868438721, 0.3878850301106771);65.7910003662;0.934620410748;2;0;0;;0;0;();();(-2000.0, -2000.0);
10:03:22:565;10:03:22:565;0;10;-1.5;1;0;0;0;0;1;1;1;1;10:03:22:536;1447967000.43;(0.6246747970581055, 0.3812347412109375);69.8349990845;0.936495680284;2;0;0;;0;0;();();(-2000.0, -2000.0);
10:03:22:568;10:03:22:568;0;10;-1.5;1;0;0;0;0;1;1;1;1;10:03:22:536;1447967000.43;(0.6246747970581055, 0.3812347412109375);69.8349990845;0.936495680284;2;0;0;;0;0;();();(-2000.0, -2000.0);
10:03:22:570;10:03:22:570;0;10;-1.5;1;0;0;0;0;1;1;1;1;10:03:22:536;1447967000.43;(0.6246747970581055, 0.3812347412109375);69.8349990845;0.936495680284;2;0;0;;0;0;();();(-2000.0, -2000.0);
10:03:22:600;10:03:22:600;0;10;-1.5;1;0;0;0;0;1;1;1;1;10:03:22:572;1447967000.53;(0.6347590923309326, 0.375385496351454);69.6903152466;1.0;2;0;0;;0;0;();();(-2000.0, -2000.0);
10:03:22:617;10:03:22:617;0;15;-1.5;1;0;0;0;0;1;1;1;1;10:03:22:603;1447967000.56;(0.6341898441314697, 0.37616297403971355);69.6692123413;1.0;2;0;0;;0;0;();();(-2000.0, -2000.0);
10:03:22:639;10:03:22:639;0;4;-1.5;1;0;0;0;0;1;1;1;1;10:03:22:631;1447967000.59;(0.6334170341491699, 0.3768094380696615);69.5234375;0.952410867507;2;0;0;;0;0;();();(-2000.0, -2000.0);
10:03:22:672;10:03:22:671;0;4;-1.5;1;0;0;0;0;1;1;1;1;10:03:22:663;1447967000.63;(0.6327423095703125, 0.3775005764431424);69.7197647095;0.999179232266;2;0;0;;0;0;();();(-2000.0, -2000.0);
10:03:22:674;10:03:22:674;0;4;-1.5;1;0;0;0;0;1;1;1;1;10:03:22:663;1447967000.63;(0.6327423095703125, 0.3775005764431424);69.7197647095;0.999179232266;2;0;0;;0;0;();();(-2000.0, -2000.0);
10:03:22:739;10:03:22:739;0;15;-1.5;1;0;0;0;0;1;1;1;1;10:03:22:727;1447967000.69;(0.6318143367767334, 0.3793228997124566);70.1083984375;1.0;2;0;0;;0;0;();();(-2000.0, -2000.0);
10:03:22:741;10:03:22:741;0;15;-1.5;1;0;0;0;0;1;1;1;1;10:03:22:727;1447967000.69;(0.6318143367767334, 0.3793228997124566);70.1083984375;1.0;2;0;0;;0;0;();();(-2000.0, -2000.0);
10:03:22:744;10:03:22:744;0;15;-1.5;1;0;0;0;0;1;1;1;1;10:03:22:727;1447967000.69;(0.6318143367767334, 0.3793228997124566);70.1083984375;1.0;2;0;0;;0;0;();();(-2000.0, -2000.0);
10:03:22:777;10:03:22:777;0;5;-1.5;1;0;0;0;0;1;1;1;1;10:03:22:727;1447967000.69;(0.6318143367767334, 0.3793228997124566);70.1083984375;1.0;2;0;0;;0;0;();();(-2000.0, -2000.0);
10:03:22:780;10:03:22:780;0;9;-1.5;1;0;0;0;0;1;1;1;1;10:03:22:727;1447967000.69;(0.6318143367767334, 0.3793228997124566);70.1083984375;1.0;2;0;0;;0;0;();();(-2000.0, -2000.0);
10:03:22:813;10:03:22:813;0;10;-1.5;1;0;0;0;0;1;1;1;1;10:03:22:796;1447967000.73;(0.621766185760498, 0.3653731875949435);69.7122039795;0.849700777122;2;0;0;;0;0;();();(-2000.0, -2000.0);
10:03:22:815;10:03:22:815;0;10;-1.5;1;0;0;0;0;1;1;1;1;10:03:22:796;1447967000.73;(0.621766185760498, 0.3653731875949435);69.7122039795;0.849700777122;2;0;0;;0;0;();();(-2000.0, -2000.0);
10:03:22:850;10:03:22:850;0;9;-1.5;1;0;0;0;0;1;1;1;1;10:03:22:832;1447967000.76;(0.6180789470672607, 0.36150559319390196);69.1817474365;1.0;2;0;0;;0;0;();();(-2000.0, -2000.0);
10:03:22:853;10:03:22:853;0;9;-1.5;1;0;0;0;0;1;1;1;1;10:03:22:832;1447967000.76;(0.6180789470672607, 0.36150559319390196);69.1817474365;1.0;2;0;0;;0;0;();();(-2000.0, -2000.0);
10:03:22:867;10:03:22:867;0;4;-1.5;1;0;0;0;0;1;1;1;1;10:03:22:864;1447967000.83;(0.6174814224243164, 0.3629672156439887);68.4246292114;1.0;2;0;0;;0;0;();();(-2000.0, -2000.0);
10:03:22:883;10:03:22:883;0;9;-1.5;1;0;0;0;0;1;1;1;1;10:03:22:864;1447967000.83;(0.6174814224243164, 0.3629672156439887);68.4246292114;1.0;2;0;0;;0;0;();();(-2000.0, -2000.0);
10:03:22:952;10:03:22:952;0;9;-1.5;1;0;0;0;0;1;1;1;1;10:03:22:896;1447967000.86;(0.617228364944458, 0.3642161899142795);67.9128189087;1.0;2;0;0;;0;0;();();(-2000.0, -2000.0);
10:03:22:955;10:03:22:954;0;5;-1.5;1;0;0;0;0;1;1;1;1;10:03:22:896;1447967000.86;(0.617228364944458, 0.3642161899142795);67.9128189087;1.0;2;0;0;;0;0;();();(-2000.0, -2000.0);
10:03:22:957;10:03:22:957;0;5;-1.5;1;0;0;0;0;1;1;1;1;10:03:22:896;1447967000.86;(0.617228364944458, 0.3642161899142795);67.9128189087;1.0;2;0;0;;0;0;();();(-2000.0, -2000.0);
10:03:22:985;10:03:22:985;0;4;-1.5;1;0;0;0;0;1;1;1;1;10:03:22:960;1447967000.89;(0.6168672561645507, 0.36455370585123703);67.5576629639;1.0;2;0;0;;0;0;();();(-2000.0, -2000.0);
10:03:22:989;10:03:22:989;0;4;-1.5;1;0;0;0;0;1;1;1;1;10:03:22:960;1447967000.89;(0.6168672561645507, 0.36455370585123703);67.5576629639;1.0;2;0;0;;0;0;();();(-2000.0, -2000.0);
10:03:23:020;10:03:23:020;0;4;-1.5;1;0;0;0;0;1;1;1;1;10:03:22:991;1447967000.96;(0.6165068626403809, 0.3659122467041016);67.2425537109;1.0;2;0;0;;0;0;();();(-2000.0, -2000.0);
10:03:23:050;10:03:23:050;0;1;-1.5;1;0;0;0;0;1;1;1;1;10:03:22:991;1447967000.96;(0.6165068626403809, 0.3659122467041016);67.2425537109;1.0;2;0;0;;0;0;();();(-2000.0, -2000.0);
10:03:23:054;10:03:23:054;0;5;-1.5;1;0;0;0;0;1;1;1;1;10:03:22:991;1447967000.96;(0.6165068626403809, 0.3659122467041016);67.2425537109;1.0;2;0;0;;0;0;();();(-2000.0, -2000.0);
10:03:23:067;10:03:23:067;0;15;-1.5;1;0;0;0;0;1;1;1;1;10:03:23:060;1447967000.99;(0.6163376808166504, 0.3663868798149956);66.8905639648;1.0;2;0;0;;0;0;();();(-2000.0, -2000.0);
10:03:23:089;10:03:23:089;0;4;-1.5;1;0;0;0;0;1;1;1;1;10:03:23:060;1447967000.99;(0.6163376808166504, 0.3663868798149956);66.8905639648;1.0;2;0;0;;0;0;();();(-2000.0, -2000.0);
10:03:23:159;10:03:23:159;0;10;-1.5;1;0;0;0;0;1;1;1;1;10:03:23:128;1447967001.09;(0.6160102844238281, 0.3668367597791884);67.1520309448;1.0;2;0;0;;0;0;();();(-2000.0, -2000.0);
10:03:23:171;10:03:23:171;0;10;-1.5;1;0;0;0;0;1;1;1;1;10:03:23:160;1447967001.13;(0.6159722328186035, 0.36685935126410585);67.3994064331;1.0;2;0;0;;0;0;();();(-2000.0, -2000.0);
10:03:23:175;10:03:23:175;0;10;-1.5;1;0;0;0;0;1;1;1;1;10:03:23:160;1447967001.13;(0.6159722328186035, 0.36685935126410585);67.3994064331;1.0;2;0;0;;0;0;();();(-2000.0, -2000.0);
10:03:23:196;10:03:23:196;0;15;-1.5;1;0;0;0;0;1;1;1;1;10:03:23:160;1447967001.13;(0.6159722328186035, 0.36685935126410585);67.3994064331;1.0;2;0;0;;0;0;();();(-2000.0, -2000.0);
10:03:23:200;10:03:23:200;0;10;-1.5;1;0;0;0;0;1;1;1;1;10:03:23:160;1447967001.13;(0.6159722328186035, 0.36685935126410585);67.3994064331;1.0;2;0;0;;0;0;();();(-2000.0, -2000.0);
10:03:23:233;10:03:23:232;0;10;-1.5;1;0;0;0;0;1;1;1;1;10:03:23:228;1447967001.16;(0.6161168098449707, 0.3657904730902778);68.0824356079;1.0;2;0;0;;0;0;();();(-2000.0, -2000.0);
10:03:23:235;10:03:23:235;0;10;-1.5;1;0;0;0;0;1;1;1;1;10:03:23:228;1447967001.16;(0.6161168098449707, 0.3657904730902778);68.0824356079;1.0;2;0;0;;0;0;();();(-2000.0, -2000.0);
10:03:23:290;10:03:23:290;0;0;-1.5;1;0;0;0;0;1;1;1;1;10:03:23:260;1447967001.19;(0.6181536197662354, 0.35969450208875864);67.5548400879;1.0;4;0;0;;0;0;();();(-2000.0, -2000.0);
10:03:23:296;10:03:23:296;0;10;-1.5;1;0;0;0;0;1;1;1;1;10:03:23:260;1447967001.19;(0.6181536197662354, 0.35969450208875864);67.5548400879;1.0;4;0;0;;0;0;();();(-2000.0, -2000.0);
10:03:23:301;10:03:23:301;0;12;-1.5;1;0;0;0;0;1;1;1;1;10:03:23:296;1447967001.26;(0.6179479598999024, 0.36028700934516056);67.8144836426;1.0;4;0;0;;0;0;();();(-2000.0, -2000.0);
10:03:23:304;10:03:23:304;0;5;-1.5;1;0;0;0;0;1;1;1;1;10:03:23:296;1447967001.26;(0.6179479598999024, 0.36028700934516056);67.8144836426;1.0;4;0;0;;0;0;();();(-2000.0, -2000.0);
10:03:23:343;10:03:23:343;0;4;-1.5;1;0;0;0;0;1;1;1;1;10:03:23:296;1447967001.26;(0.6179479598999024, 0.36028700934516056);67.8144836426;1.0;4;0;0;;0;0;();();(-2000.0, -2000.0);
10:03:23:346;10:03:23:346;0;15;-1.5;1;0;0;0;0;1;1;1;1;10:03:23:296;1447967001.26;(0.6179479598999024, 0.36028700934516056);67.8144836426;1.0;4;0;0;;0;0;();();(-2000.0, -2000.0);
10:03:23:382;10:03:23:382;0;0;-1.5;1;0;0;0;0;1;1;1;1;10:03:23:360;1447967001.33;(0.6176530361175537, 0.36093025207519536);68.3683013916;1.0;4;0;0;;0;0;();();(-2000.0, -2000.0);
10:03:23:385;10:03:23:385;0;0;-1.5;1;0;0;0;0;1;1;1;1;10:03:23:360;1447967001.33;(0.6176530361175537, 0.36093025207519536);68.3683013916;1.0;4;0;0;;0;0;();();(-2000.0, -2000.0);
10:03:23:416;10:03:23:416;0;15;-1.5;1;0;0;0;0;1;1;1;1;10:03:23:360;1447967001.33;(0.6176530361175537, 0.36093025207519536);68.3683013916;1.0;4;0;0;;0;0;();();(-2000.0, -2000.0);
10:03:23:454;10:03:23:454;0;10;-1.5;1;0;0;0;0;1;1;1;1;10:03:23:428;1447967001.36;(0.2982568025588989, 0.4651992797851563);20.3435249329;0.668472301979;4;0;0;;0;0;();();(-2000.0, -2000.0);
10:03:23:457;10:03:23:457;0;10;-1.5;1;0;0;0;0;1;1;1;1;10:03:23:428;1447967001.36;(0.2982568025588989, 0.4651992797851563);20.3435249329;0.668472301979;4;0;0;;0;0;();();(-2000.0, -2000.0);
10:03:23:470;10:03:23:470;0;5;-1.5;1;0;0;0;0;1;1;1;1;10:03:23:460;1447967001.39;(0.5803303241729736, 0.42265201144748266);66.0306854248;0.921246789009;4;0;0;;0;0;();();(-2000.0, -2000.0);
10:03:23:491;10:03:23:491;0;10;-1.5;1;0;0;0;0;1;1;1;1;10:03:23:460;1447967001.39;(0.5803303241729736, 0.42265201144748266);66.0306854248;0.921246789009;4;0;0;;0;0;();();(-2000.0, -2000.0);
10:03:23:511;10:03:23:511;0;15;-1.5;1;0;0;0;0;1;1;1;1;10:03:23:493;1447967001.43;(0.5740744113922119, 0.43044492933485246);67.4286499023;1.0;4;0;0;;0;0;();();(-2000.0, -2000.0);
10:03:23:545;10:03:23:545;0;15;-1.5;1;0;0;0;0;1;1;1;1;10:03:23:528;1447967001.46;(0.5735833644866943, 0.4314156850179036);68.0204315186;1.0;4;0;0;;0;0;();();(-2000.0, -2000.0);
10:03:23:547;10:03:23:547;0;15;-1.5;1;0;0;0;0;1;1;1;1;10:03:23:528;1447967001.46;(0.5735833644866943, 0.4314156850179036);68.0204315186;1.0;4;0;0;;0;0;();();(-2000.0, -2000.0);
10:03:23:579;10:03:23:579;0;9;-1.5;1;0;0;0;0;1;1;1;1;10:03:23:559;1447967001.49;(0.5732169151306152, 0.4322905646430122);67.7944869995;1.0;4;0;0;;0;0;();();(-2000.0, -2000.0);
10:03:23:629;10:03:23:629;0;5;-1.5;1;0;0;0;0;1;1;1;1;10:03:23:595;1447967001.56;(0.572712516784668, 0.4338067796495225);67.767250061;1.0;4;0;0;;0;0;();();(-2000.0, -2000.0);
10:03:23:631;10:03:23:631;0;15;-1.5;1;0;0;0;0;1;1;1;1;10:03:23:595;1447967001.56;(0.572712516784668, 0.4338067796495225);67.767250061;1.0;4;0;0;;0;0;();();(-2000.0, -2000.0);
10:03:23:635;10:03:23:635;0;15;-1.5;1;0;0;0;0;1;1;1;1;10:03:23:595;1447967001.56;(0.572712516784668, 0.4338067796495225);67.767250061;1.0;4;0;0;;0;0;();();(-2000.0, -2000.0);
10:03:23:663;10:03:23:663;0;4;-1.5;1;0;0;0;0;1;1;1;1;10:03:23:595;1447967001.56;(0.572712516784668, 0.4338067796495225);67.767250061;1.0;4;0;0;;0;0;();();(-2000.0, -2000.0);
10:03:23:665;10:03:23:665;0;4;-1.5;1;0;0;0;0;1;1;1;1;10:03:23:664;1447967001.59;(0.5725012302398682, 0.4341647677951389);67.6480865479;1.0;4;0;0;;0;0;();();(-2000.0, -2000.0);
10:03:23:699;10:03:23:699;0;14;-1.5;1;0;0;0;0;1;1;1;1;10:03:23:696;1447967001.63;(0.5722678184509278, 0.434583494398329);67.4757232666;1.0;4;0;0;;0;0;();();(-2000.0, -2000.0);
10:03:23:736;10:03:23:736;0;15;-1.5;1;0;0;0;0;1;1;1;1;10:03:23:732;1447967001.66;(0.5718968868255615, 0.4346438513861762);67.4062271118;1.0;4;0;0;;0;0;();();(-2000.0, -2000.0);
10:03:23:740;10:03:23:740;0;15;-1.5;1;0;0;0;0;1;1;1;1;10:03:23:732;1447967001.66;(0.5718968868255615, 0.4346438513861762);67.4062271118;1.0;4;0;0;;0;0;();();(-2000.0, -2000.0);
10:03:23:806;10:03:23:806;0;15;-1.5;1;0;0;0;0;1;1;1;1;10:03:23:796;1447967001.73;(0.5927888870239257, 0.41105745103624136);67.283203125;1.0;4;0;0;;0;0;();();(-2000.0, -2000.0);
10:03:23:808;10:03:23:808;0;10;-1.5;1;0;0;0;0;1;1;1;1;10:03:23:796;1447967001.73;(0.5927888870239257, 0.41105745103624136);67.283203125;1.0;4;0;0;;0;0;();();(-2000.0, -2000.0);
10:03:23:811;10:03:23:811;0;10;-1.5;1;0;0;0;0;1;1;1;1;10:03:23:796;1447967001.73;(0.5927888870239257, 0.41105745103624136);67.283203125;1.0;4;0;0;;0;0;();();(-2000.0, -2000.0);
10:03:23:813;10:03:23:813;0;4;-1.5;1;0;0;0;0;1;1;1;1;10:03:23:796;1447967001.73;(0.5927888870239257, 0.41105745103624136);67.283203125;1.0;4;0;0;;0;0;();();(-2000.0, -2000.0);
10:03:23:843;10:03:23:843;0;9;-1.5;1;0;0;0;0;1;1;1;1;10:03:23:831;1447967001.79;(0.5923456192016602, 0.4123269399007161);67.2352142334;1.0;4;0;0;;0;0;();();(-2000.0, -2000.0);
10:03:23:845;10:03:23:845;0;14;-1.5;1;0;0;0;0;1;1;1;1;10:03:23:831;1447967001.79;(0.5923456192016602, 0.4123269399007161);67.2352142334;1.0;4;0;0;;0;0;();();(-2000.0, -2000.0);
10:03:23:881;10:03:23:881;0;4;-1.5;1;0;0;0;0;1;1;1;1;10:03:23:831;1447967001.79;(0.5923456192016602, 0.4123269399007161);67.2352142334;1.0;4;0;0;;0;0;();();(-2000.0, -2000.0);
10:03:23:884;10:03:23:884;0;4;-1.5;1;0;0;0;0;1;1;1;1;10:03:23:831;1447967001.79;(0.5923456192016602, 0.4123269399007161);67.2352142334;1.0;4;0;0;;0;0;();();(-2000.0, -2000.0);
10:03:23:909;10:03:23:909;0;9;-1.5;1;0;0;0;0;1;1;1;1;10:03:23:896;1447967001.86;(0.5918752193450928, 0.41312650044759114);67.390914917;1.0;4;0;0;;0;0;();();(-2000.0, -2000.0);
10:03:23:926;10:03:23:925;0;15;-1.5;1;0;0;0;0;1;1;1;1;10:03:23:896;1447967001.86;(0.5918752193450928, 0.41312650044759114);67.390914917;1.0;4;0;0;;0;0;();();(-2000.0, -2000.0);
10:03:23:946;10:03:23:946;0;5;-1.5;1;0;0;0;0;1;1;1;1;10:03:23:932;1447967001.89;(0.5916613578796387, 0.4127613915337457);67.6951141357;1.0;4;0;0;;0;0;();();(-2000.0, -2000.0);
10:03:24:011;10:03:24:010;0;5;-1.5;1;0;0;0;0;1;1;1;1;10:03:23:995;1447967001.93;(0.5933452129364014, 0.4080479092068142);68.0010299683;1.0;4;0;0;;0;0;();();(-2000.0, -2000.0);
10:03:24:014;10:03:24:014;0;5;-1.5;1;0;0;0;0;1;1;1;1;10:03:23:995;1447967001.93;(0.5933452129364014, 0.4080479092068142);68.0010299683;1.0;4;0;0;;0;0;();();(-2000.0, -2000.0);
10:03:24:017;10:03:24:017;0;5;-1.5;1;0;0;0;0;1;1;1;1;10:03:23:995;1447967001.93;(0.5933452129364014, 0.4080479092068142);68.0010299683;1.0;4;0;0;;0;0;();();(-2000.0, -2000.0);
10:03:24:043;10:03:24:042;0;4;-1.5;1;0;0;0;0;1;1;1;1;10:03:24:032;1447967001.99;(0.592767858505249, 0.40819112989637585);68.4904327393;1.0;4;0;0;;0;0;();();(-2000.0, -2000.0);
10:03:24:045;10:03:24:045;0;4;-1.5;1;0;0;0;0;1;1;1;1;10:03:24:032;1447967001.99;(0.592767858505249, 0.40819112989637585);68.4904327393;1.0;4;0;0;;0;0;();();(-2000.0, -2000.0);
10:03:24:073;10:03:24:072;0;9;-1.5;1;0;0;0;0;1;1;1;1;10:03:24:064;1447967002.03;(0.5926307201385498, 0.4081336975097656);68.902130127;1.0;4;0;0;;0;0;();();(-2000.0, -2000.0);
10:03:24:107;10:03:24:107;0;4;-1.5;1;0;0;0;0;1;1;1;1;10:03:24:064;1447967002.03;(0.5926307201385498, 0.4081336975097656);68.902130127;1.0;4;0;0;;0;0;();();(-2000.0, -2000.0);
10:03:24:110;10:03:24:110;0;4;-1.5;1;0;0;0;0;1;1;1;1;10:03:24:064;1447967002.03;(0.5926307201385498, 0.4081336975097656);68.902130127;1.0;4;0;0;;0;0;();();(-2000.0, -2000.0);
10:03:24:124;10:03:24:124;0;15;-1.5;1;0;0;0;0;1;1;1;1;10:03:24:064;1447967002.03;(0.5926307201385498, 0.4081336975097656);68.902130127;1.0;4;0;0;;0;0;();();(-2000.0, -2000.0);
10:03:24:147;10:03:24:147;0;4;-1.5;1;0;0;0;0;1;1;1;1;10:03:24:128;1447967002.09;(0.5920496463775635, 0.40827632480197484);69.1893157959;1.0;4;0;0;;0;0;();();(-2000.0, -2000.0);
10:03:24:211;10:03:24:211;0;15;-1.5;1;0;0;0;0;1;1;1;1;10:03:24:196;1447967002.16;(0.591763687133789, 0.4084409925672743);69.6022033691;1.0;4;0;0;;0;0;();();(-2000.0, -2000.0);
10:03:24:214;10:03:24:214;0;15;-1.5;1;0;0;0;0;1;1;1;1;10:03:24:196;1447967002.16;(0.591763687133789, 0.4084409925672743);69.6022033691;1.0;4;0;0;;0;0;();();(-2000.0, -2000.0);
10:03:24:216;10:03:24:216;0;15;-1.5;1;0;0;0;0;1;1;1;1;10:03:24:196;1447967002.16;(0.591763687133789, 0.4084409925672743);69.6022033691;1.0;4;0;0;;0;0;();();(-2000.0, -2000.0);
10:03:24:247;10:03:24:246;0;0;-1.5;1;0;0;0;0;1;1;1;1;10:03:24:232;1447967002.19;(0.5914779663085937, 0.4084949493408203);69.783996582;1.0;4;0;0;;0;0;();();(-2000.0, -2000.0);
10:03:24:249;10:03:24:249;0;0;-1.5;1;0;0;0;0;1;1;1;1;10:03:24:232;1447967002.19;(0.5914779663085937, 0.4084949493408203);69.783996582;1.0;4;0;0;;0;0;();();(-2000.0, -2000.0);
10:03:24:284;10:03:24:284;0;15;-1.5;1;0;0;0;0;1;1;1;1;10:03:24:263;1447967002.23;(0.5913018703460693, 0.408318837483724);70.1399002075;1.0;4;0;0;;0;0;();();(-2000.0, -2000.0);
10:03:24:286;10:03:24:286;0;10;-1.5;1;0;0;0;0;1;1;1;1;10:03:24:263;1447967002.23;(0.5913018703460693, 0.408318837483724);70.1399002075;1.0;4;0;0;;0;0;();();(-2000.0, -2000.0);
10:03:24:320;10:03:24:320;0;10;-1.5;1;0;0;0;0;1;1;1;1;10:03:24:296;1447967002.26;(0.5913392543792725, 0.4082485622829861);70.2828140259;1.0;4;0;0;;0;0;();();(-2000.0, -2000.0);
10:03:24:336;10:03:24:336;0;5;-1.5;1;0;0;0;0;1;1;1;1;10:03:24:332;1447967002.29;(0.5912861824035645, 0.40842242770724824);70.5916366577;1.0;4;0;0;;0;0;();();(-2000.0, -2000.0);
10:03:24:353;10:03:24:353;0;9;-1.5;1;0;0;0;0;1;1;1;1;10:03:24:332;1447967002.29;(0.5912861824035645, 0.40842242770724824);70.5916366577;1.0;4;0;0;;0;0;();();(-2000.0, -2000.0);
10:03:24:418;10:03:24:418;0;10;-1.5;1;0;0;0;0;1;1;1;1;10:03:24:400;1447967002.36;(0.5911817073822021, 0.4080661349826389);70.5662536621;1.0;4;0;0;;0;0;();();(-2000.0, -2000.0);
10:03:24:422;10:03:24:422;0;10;-1.5;1;0;0;0;0;1;1;1;1;10:03:24:400;1447967002.36;(0.5911817073822021, 0.4080661349826389);70.5662536621;1.0;4;0;0;;0;0;();();(-2000.0, -2000.0);
10:03:24:425;10:03:24:425;0;10;-1.5;1;0;0;0;0;1;1;1;1;10:03:24:400;1447967002.36;(0.5911817073822021, 0.4080661349826389);70.5662536621;1.0;4;0;0;;0;0;();();(-2000.0, -2000.0);
10:03:24:450;10:03:24:450;0;10;-1.5;1;0;0;0;0;1;1;1;1;10:03:24:432;1447967002.39;(0.5912600517272949, 0.40798361036512587);70.6853408813;1.0;4;0;0;;0;0;();();(-2000.0, -2000.0);
10:03:24:453;10:03:24:453;0;4;-1.5;1;0;0;0;0;1;1;1;1;10:03:24:432;1447967002.39;(0.5912600517272949, 0.40798361036512587);70.6853408813;1.0;4;0;0;;0;0;();();(-2000.0, -2000.0);
10:03:24:486;10:03:24:486;0;5;-1.5;1;0;0;0;0;1;1;1;1;10:03:24:432;1447967002.39;(0.5912600517272949, 0.40798361036512587);70.6853408813;1.0;4;0;0;;0;0;();();(-2000.0, -2000.0);
10:03:24:489;10:03:24:489;0;5;-1.5;1;0;0;0;0;1;1;1;1;10:03:24:432;1447967002.39;(0.5912600517272949, 0.40798361036512587);70.6853408813;1.0;4;0;0;;0;0;();();(-2000.0, -2000.0);
10:03:24:527;10:03:24:527;0;4;-1.5;1;0;0;0;0;1;1;1;1;10:03:24:507;1447967002.46;(0.5912262916564941, 0.4079695807562934);70.8931045532;1.0;4;0;0;;0;0;();();(-2000.0, -2000.0);
10:03:24:531;10:03:24:531;0;7;-1.5;1;0;0;0;0;1;1;1;1;10:03:24:507;1447967002.46;(0.5912262916564941, 0.4079695807562934);70.8931045532;1.0;4;0;0;;0;0;();();(-2000.0, -2000.0);
10:03:24:544;10:03:24:544;0;10;-1.5;1;0;0;0;0;1;1;1;1;10:03:24:531;1447967002.49;(0.5912614822387695, 0.40787035624186196);70.7857131958;1.0;4;0;0;;0;0;();();(-2000.0, -2000.0);
10:03:24:582;10:03:24:582;0;5;-1.5;1;0;0;0;0;1;1;1;1;10:03:24:531;1447967002.49;(0.5912614822387695, 0.40787035624186196);70.7857131958;1.0;4;0;0;;0;0;();();(-2000.0, -2000.0);
10:03:24:584;10:03:24:584;0;5;-1.5;1;0;0;0;0;1;1;1;1;10:03:24:531;1447967002.49;(0.5912614822387695, 0.40787035624186196);70.7857131958;1.0;4;0;0;;0;0;();();(-2000.0, -2000.0);
10:03:24:657;10:03:24:655;0;5;-1.5;1;0;0;0;0;1;1;1;1;10:03:24:632;1447967002.56;(0.5914830207824707, 0.40769441392686634);70.8129882812;1.0;4;0;0;;0;0;();();(-2000.0, -2000.0);
10:03:24:659;10:03:24:659;0;5;-1.5;1;0;0;0;0;1;1;1;1;10:03:24:632;1447967002.56;(0.5914830207824707, 0.40769441392686634);70.8129882812;1.0;4;0;0;;0;0;();();(-2000.0, -2000.0);
10:03:24:662;10:03:24:662;0;5;-1.5;1;0;0;0;0;1;1;1;1;10:03:24:632;1447967002.56;(0.5914830207824707, 0.40769441392686634);70.8129882812;1.0;4;0;0;;0;0;();();(-2000.0, -2000.0);
10:03:24:692;10:03:24:692;0;4;-1.5;1;0;0;0;0;1;1;1;1;10:03:24:664;1447967002.63;(0.591697359085083, 0.407533221774631);70.8922042847;1.0;4;0;0;;0;0;();();(-2000.0, -2000.0);
10:03:24:695;10:03:24:695;0;15;-1.5;1;0;0;0;0;1;1;1;1;10:03:24:664;1447967002.63;(0.591697359085083, 0.407533221774631);70.8922042847;1.0;4;0;0;;0;0;();();(-2000.0, -2000.0);
10:03:24:729;10:03:24:729;0;0;-1.5;1;0;0;0;0;1;1;1;1;10:03:24:700;1447967002.66;(0.5918344974517822, 0.4073985205756293);70.7133712769;1.0;4;0;0;;0;0;();();(-2000.0, -2000.0);
10:03:24:731;10:03:24:731;0;10;-1.5;1;0;0;0;0;1;1;1;1;10:03:24:700;1447967002.66;(0.5918344974517822, 0.4073985205756293);70.7133712769;1.0;4;0;0;;0;0;();();(-2000.0, -2000.0);
10:03:24:752;10:03:24:752;0;15;-1.5;1;0;0;0;0;1;1;1;1;10:03:24:732;1447967002.69;(0.591771125793457, 0.40769861009385855);70.6792068481;1.0;4;0;0;;0;0;();();(-2000.0, -2000.0);
10:03:24:770;10:03:24:770;0;10;-1.5;1;0;0;0;0;1;1;1;1;10:03:24:768;1447967002.73;(0.5917622566223144, 0.407355711195204);70.8092651367;1.0;4;0;0;;0;0;();();(-2000.0, -2000.0);
10:03:24:807;10:03:24:807;0;10;-1.5;1;0;0;0;0;1;1;1;1;10:03:24:799;1447967002.76;(0.5918930530548095, 0.4072025299072266);70.6475448608;1.0;4;0;0;;0;0;();();(-2000.0, -2000.0);
10:03:24:810;10:03:24:810;0;5;-1.5;1;0;0;0;0;1;1;1;1;10:03:24:799;1447967002.76;(0.5918930530548095, 0.4072025299072266);70.6475448608;1.0;4;0;0;;0;0;();();(-2000.0, -2000.0);
10:03:24:845;10:03:24:845;0;4;-1.5;1;0;0;0;0;1;1;1;1;10:03:24:799;1447967002.76;(0.5918930530548095, 0.4072025299072266);70.6475448608;1.0;4;0;0;;0;0;();();(-2000.0, -2000.0);
10:03:24:849;10:03:24:849;0;4;-1.5;1;0;0;0;0;1;1;1;1;10:03:24:799;1447967002.76;(0.5918930530548095, 0.4072025299072266);70.6475448608;1.0;4;0;0;;0;0;();();(-2000.0, -2000.0);
10:03:24:879;10:03:24:879;0;5;-1.5;1;0;0;0;0;1;1;1;1;10:03:24:869;1447967002.83;(0.5918853282928467, 0.40726941426595054);70.571762085;1.0;4;0;0;;0;0;();();(-2000.0, -2000.0);
