%Timestamp,timestamp_write;timestamp_gotpupil;eyetrackertime;norm_pos;diameter;confidence;timestamp_gotbitdata;CRC;SEQ;AnalogOutp1;AnalogOutp2;AnalogOutp3;AnalogOutp4;AnalogOutp5;AnalogOutp6;DigitalOutp1;DigitalOutp2;igitalOutp3;DigitalOutp4;nplanes;lastaction;lastactiondetails;positivescore;negativescore;targetpositions;collision_point
08:14:57:430;;;;;;;;;;;;;;1447960495.21;(0.3158193349838257, 0.25043462117513016);26.8765296936;1.0;2;0;0;0;0;();(0.0, 0.0);
08:14:57:433;;;;;;;;;;;;;;1447960495.21;(0.3158193349838257, 0.25043462117513016);26.8765296936;1.0;2;0;0;0;0;();(-2000.0, -2000.0);
08:14:57:435;;;;;;;;;;;;;;1447960495.21;(0.3158193349838257, 0.25043462117513016);26.8765296936;1.0;2;0;0;0;0;();(-2000.0, -2000.0);
08:14:57:437;;;;;;;;;;;;;;1447960495.21;(0.3158193349838257, 0.25043462117513016);26.8765296936;1.0;2;0;0;0;0;();(-2000.0, -2000.0);
08:14:57:438;;;;;;;;;;;;;;1447960495.21;(0.3158193349838257, 0.25043462117513016);26.8765296936;1.0;2;0;0;0;0;();(-2000.0, -2000.0);
08:14:57:440;;;;;;;;;;;;;;1447960495.21;(0.3158193349838257, 0.25043462117513016);26.8765296936;1.0;2;0;0;0;0;();(-2000.0, -2000.0);
08:14:57:442;;;;;;;;;;;;;;1447960495.21;(0.3158193349838257, 0.25043462117513016);26.8765296936;1.0;2;0;0;0;0;();(-2000.0, -2000.0);
08:14:57:445;;;;;;;;;;;;;;1447960495.21;(0.3158193349838257, 0.25043462117513016);26.8765296936;1.0;2;0;0;0;0;();(-2000.0, -2000.0);
08:14:57:447;;;;;;;;;;;;;;1447960495.21;(0.3158193349838257, 0.25043462117513016);26.8765296936;1.0;2;0;0;0;0;();(-2000.0, -2000.0);
08:14:57:449;;;;;;;;;;;;;;1447960495.21;(0.3158193349838257, 0.25043462117513016);26.8765296936;1.0;2;0;0;0;0;();(-2000.0, -2000.0);
08:14:57:451;;;;;;;;;;;;;;1447960495.21;(0.3158193349838257, 0.25043462117513016);26.8765296936;1.0;2;0;0;0;0;();(-2000.0, -2000.0);
08:14:57:454;;;;;;;;;;;;;;1447960495.21;(0.3158193349838257, 0.25043462117513016);26.8765296936;1.0;2;0;0;0;0;();(-2000.0, -2000.0);
08:14:57:456;;;;;;;;;;;;;;1447960495.21;(0.3158193349838257, 0.25043462117513016);26.8765296936;1.0;2;0;0;0;0;();(-2000.0, -2000.0);
08:14:57:458;;;;;;;;;;;;;;08:14:57:457;1447960495.28;(0.3154193639755249, 0.25077938503689234);26.7940006256;1.0;2;0;0;0;0;();(-2000.0, -2000.0);
08:14:57:460;;;;;;;;;;;;;;08:14:57:457;1447960495.28;(0.3154193639755249, 0.25077938503689234);26.7940006256;1.0;2;0;0;0;0;();(-2000.0, -2000.0);
08:14:57:461;;;;;;;;;;;;;;08:14:57:457;1447960495.28;(0.3154193639755249, 0.25077938503689234);26.7940006256;1.0;2;0;0;0;0;();(-2000.0, -2000.0);
08:14:57:466;;;;;;;;;;;;;;08:14:57:457;1447960495.28;(0.3154193639755249, 0.25077938503689234);26.7940006256;1.0;2;0;0;0;0;();(-2000.0, -2000.0);
08:14:57:468;;;;;;;;;;;;;;08:14:57:457;1447960495.28;(0.3154193639755249, 0.25077938503689234);26.7940006256;1.0;2;0;0;0;0;();(-2000.0, -2000.0);
08:14:57:482;;;;;;;;;;;;;;08:14:57:457;1447960495.28;(0.3154193639755249, 0.25077938503689234);26.7940006256;1.0;2;0;0;0;0;();(-2000.0, -2000.0);
08:14:57:499;;;;;;;;;;;;;;08:14:57:457;1447960495.28;(0.3154193639755249, 0.25077938503689234);26.7940006256;1.0;2;0;0;0;0;();(-2000.0, -2000.0);
08:14:57:532;;;;;;;;;;;;;;08:14:57:525;1447960495.34;(0.31555397510528566, 0.2503732469346788);26.384305954;1.0;2;0;0;0;0;();(-2000.0, -2000.0);
08:14:57:549;;;;;;;;;;;;;;08:14:57:525;1447960495.34;(0.31555397510528566, 0.2503732469346788);26.384305954;1.0;2;0;0;0;0;();(-2000.0, -2000.0);
08:14:57:565;;;;;;;;;;;;;;08:14:57:525;1447960495.34;(0.31555397510528566, 0.2503732469346788);26.384305954;1.0;2;0;0;0;0;();(-2000.0, -2000.0);
08:14:57:582;;;;;;;;;;;;;;08:14:57:525;1447960495.34;(0.31555397510528566, 0.2503732469346788);26.384305954;1.0;2;0;0;0;0;();(-2000.0, -2000.0);
08:15:02:456;;;;;;;;;;;;;;08:15:02:436;1447960500.28;(0.31551873683929443, 0.2507258097330729);26.401014328;1.0;2;0;0;0;0;();(-2000.0, -2000.0);
08:15:02:458;;;;;;;;;;;;;;08:15:02:436;1447960500.28;(0.31551873683929443, 0.2507258097330729);26.401014328;1.0;2;0;0;0;0;();(-2000.0, -2000.0);
08:15:02:461;;;;;;;;;;;;;;08:15:02:436;1447960500.28;(0.31551873683929443, 0.2507258097330729);26.401014328;1.0;2;0;0;0;0;();(-2000.0, -2000.0);
08:15:02:463;;;;;;;;;;;;;;08:15:02:436;1447960500.28;(0.31551873683929443, 0.2507258097330729);26.401014328;1.0;2;0;0;0;0;();(-2000.0, -2000.0);
08:15:02:466;;;;;;;;;;;;;;08:15:02:436;1447960500.28;(0.31551873683929443, 0.2507258097330729);26.401014328;1.0;2;0;0;0;0;();(-2000.0, -2000.0);
08:15:02:468;;;;;;;;;;;;;;08:15:02:436;1447960500.28;(0.31551873683929443, 0.2507258097330729);26.401014328;1.0;2;0;0;0;0;();(-2000.0, -2000.0);
08:15:02:470;;;;;;;;;;;;;;08:15:02:436;1447960500.28;(0.31551873683929443, 0.2507258097330729);26.401014328;1.0;2;0;0;0;0;();(-2000.0, -2000.0);
08:15:02:472;;;;;;;;;;;;;;08:15:02:436;1447960500.28;(0.31551873683929443, 0.2507258097330729);26.401014328;1.0;2;0;0;0;0;();(-2000.0, -2000.0);
08:15:02:474;;;;;;;;;;;;;;08:15:02:436;1447960500.28;(0.31551873683929443, 0.2507258097330729);26.401014328;1.0;2;0;0;0;0;();(-2000.0, -2000.0);
08:15:02:475;;;;;;;;;;;;;;08:15:02:436;1447960500.28;(0.31551873683929443, 0.2507258097330729);26.401014328;1.0;2;0;0;0;0;();(-2000.0, -2000.0);
08:15:02:477;;;;;;;;;;;;;;08:15:02:436;1447960500.28;(0.31551873683929443, 0.2507258097330729);26.401014328;1.0;2;0;0;0;0;();(-2000.0, -2000.0);
08:15:02:478;;;;;;;;;;;;;;08:15:02:436;1447960500.28;(0.31551873683929443, 0.2507258097330729);26.401014328;1.0;2;0;0;0;0;();(-2000.0, -2000.0);
08:15:02:480;;;;;;;;;;;;;;08:15:02:436;1447960500.28;(0.31551873683929443, 0.2507258097330729);26.401014328;1.0;2;0;0;0;0;();(-2000.0, -2000.0);
08:15:02:481;;;;;;;;;;;;;;08:15:02:436;1447960500.28;(0.31551873683929443, 0.2507258097330729);26.401014328;1.0;2;0;0;0;0;();(-2000.0, -2000.0);
08:15:02:483;;;;;;;;;;;;;;08:15:02:436;1447960500.28;(0.31551873683929443, 0.2507258097330729);26.401014328;1.0;2;0;0;0;0;();(-2000.0, -2000.0);
08:15:02:484;;;;;;;;;;;;;;08:15:02:436;1447960500.28;(0.31551873683929443, 0.2507258097330729);26.401014328;1.0;2;0;0;0;0;();(-2000.0, -2000.0);
08:15:02:488;;;;;;;;;;;;;;08:15:02:436;1447960500.28;(0.31551873683929443, 0.2507258097330729);26.401014328;1.0;2;0;0;0;0;();(-2000.0, -2000.0);
08:15:02:490;;;;;;;;;;;;;;08:15:02:436;1447960500.28;(0.31551873683929443, 0.2507258097330729);26.401014328;1.0;2;0;0;0;0;();(-2000.0, -2000.0);
08:15:02:505;;;;;;;;;;;;;;08:15:02:501;1447960500.34;(0.3155451774597168, 0.2509593539767795);26.9024562836;1.0;2;0;0;0;0;();(-2000.0, -2000.0);
08:15:02:521;;;;;;;;;;;;;;08:15:02:501;1447960500.34;(0.3155451774597168, 0.2509593539767795);26.9024562836;1.0;2;0;0;0;0;();(-2000.0, -2000.0);
08:15:02:538;;;;;;;;;;;;;;08:15:02:501;1447960500.34;(0.3155451774597168, 0.2509593539767795);26.9024562836;1.0;2;0;0;0;0;();(-2000.0, -2000.0);
08:15:02:571;;;;;;;;;;;;;;08:15:02:569;1447960500.41;(0.31542751789093015, 0.2507210625542535);26.7614536285;1.0;2;0;0;0;0;();(-2000.0, -2000.0);
08:15:02:587;;;;;;;;;;;;;;08:15:02:569;1447960500.41;(0.31542751789093015, 0.2507210625542535);26.7614536285;1.0;2;0;0;0;0;();(-2000.0, -2000.0);
08:15:02:604;;;;;;;;;;;;;;08:15:02:569;1447960500.41;(0.31542751789093015, 0.2507210625542535);26.7614536285;1.0;2;0;0;0;0;();(-2000.0, -2000.0);
08:15:02:621;;;;;;;;;;;;;;08:15:02:569;1447960500.41;(0.31542751789093015, 0.2507210625542535);26.7614536285;1.0;2;0;0;0;0;();(-2000.0, -2000.0);
08:15:02:654;;;;;;;;;;;;;;08:15:02:633;1447960500.48;(0.31525626182556155, 0.25059212578667533);26.9232673645;1.0;2;0;0;0;0;();(-2000.0, -2000.0);
08:15:02:671;;;;;;;;;;;;;;08:15:02:633;1447960500.48;(0.31525626182556155, 0.25059212578667533);26.9232673645;1.0;2;0;0;0;0;();(-2000.0, -2000.0);
08:15:02:687;;;;;;;;;;;;;;08:15:02:633;1447960500.48;(0.31525626182556155, 0.25059212578667533);26.9232673645;1.0;2;0;0;0;0;();(-2000.0, -2000.0);
08:15:02:704;;;;;;;;;;;;;;08:15:02:701;1447960500.54;(0.3156787872314453, 0.2505757649739583);26.3118400574;1.0;2;0;0;0;0;();(-2000.0, -2000.0);
08:15:02:720;;;;;;;;;;;;;;08:15:02:701;1447960500.54;(0.3156787872314453, 0.2505757649739583);26.3118400574;1.0;2;0;0;0;0;();(-2000.0, -2000.0);
08:15:02:753;;;;;;;;;;;;;;08:15:02:701;1447960500.54;(0.3156787872314453, 0.2505757649739583);26.3118400574;1.0;2;0;0;0;0;();(-2000.0, -2000.0);
08:15:02:770;;;;;;;;;;;;;;08:15:02:769;1447960500.61;(0.31576759815216066, 0.25050701565212674);26.6721763611;1.0;2;0;0;0;0;();(-2000.0, -2000.0);
08:15:02:786;;;;;;;;;;;;;;08:15:02:769;1447960500.61;(0.31576759815216066, 0.25050701565212674);26.6721763611;1.0;2;0;0;0;0;();(-2000.0, -2000.0);
08:15:02:803;;;;;;;;;;;;;;08:15:02:769;1447960500.61;(0.31576759815216066, 0.25050701565212674);26.6721763611;1.0;2;0;0;0;0;();(-2000.0, -2000.0);
08:15:02:819;;;;;;;;;;;;;;08:15:02:769;1447960500.61;(0.31576759815216066, 0.25050701565212674);26.6721763611;1.0;2;0;0;0;0;();(-2000.0, -2000.0);
08:15:02:853;;;;;;;;;;;;;;08:15:02:833;1447960500.68;(0.31561334133148194, 0.2506582472059462);26.8890018463;1.0;2;0;0;0;0;();(-2000.0, -2000.0);
08:15:02:869;;;;;;;;;;;;;;08:15:02:833;1447960500.68;(0.31561334133148194, 0.2506582472059462);26.8890018463;1.0;2;0;0;0;0;();(-2000.0, -2000.0);
08:15:02:886;;;;;;;;;;;;;;08:15:02:833;1447960500.68;(0.31561334133148194, 0.2506582472059462);26.8890018463;1.0;2;0;0;0;0;();(-2000.0, -2000.0);
08:15:02:902;;;;;;;;;;;;;;08:15:02:901;1447960500.74;(0.31560139656066893, 0.2508433871799045);26.593667984;1.0;2;0;0;0;0;();(-2000.0, -2000.0);
08:15:02:919;;;;;;;;;;;;;;08:15:02:901;1447960500.74;(0.31560139656066893, 0.2508433871799045);26.593667984;1.0;2;0;0;0;0;();(-2000.0, -2000.0);
08:15:02:952;;;;;;;;;;;;;;08:15:02:901;1447960500.74;(0.31560139656066893, 0.2508433871799045);26.593667984;1.0;2;0;0;0;0;();(-2000.0, -2000.0);
08:15:02:969;;;;;;;;;;;;;;08:15:02:964;1447960500.81;(0.31587278842926025, 0.2506207784016927);26.2186832428;1.0;2;0;0;0;0;();(-2000.0, -2000.0);
08:15:02:985;;;;;;;;;;;;;;08:15:02:964;1447960500.81;(0.31587278842926025, 0.2506207784016927);26.2186832428;1.0;2;0;0;0;0;();(-2000.0, -2000.0);
08:15:03:002;;;;;;;;;;;;;;08:15:02:964;1447960500.81;(0.31587278842926025, 0.2506207784016927);26.2186832428;1.0;2;0;0;0;0;();(-2000.0, -2000.0);
08:15:03:018;;;;;;;;;;;;;;08:15:02:964;1447960500.81;(0.31587278842926025, 0.2506207784016927);26.2186832428;1.0;2;0;0;0;0;();(-2000.0, -2000.0);
08:15:03:051;;;;;;;;;;;;;;08:15:03:032;1447960500.88;(0.31567015647888186, 0.25046717325846357);26.6054019928;1.0;2;0;0;0;0;();(-2000.0, -2000.0);
08:15:03:068;;;;;;;;;;;;;;08:15:03:032;1447960500.88;(0.31567015647888186, 0.25046717325846357);26.6054019928;1.0;2;0;0;0;0;();(-2000.0, -2000.0);
08:15:03:084;;;;;;;;;;;;;;08:15:03:032;1447960500.88;(0.31567015647888186, 0.25046717325846357);26.6054019928;1.0;2;0;0;0;0;();(-2000.0, -2000.0);
08:15:03:101;;;;;;;;;;;;;;08:15:03:101;1447960500.94;(0.31564531326293943, 0.2506034851074219);26.4817028046;1.0;2;0;0;0;0;();(-2000.0, -2000.0);
08:15:03:120;;;;;;;;;;;;;;08:15:03:101;1447960500.94;(0.31564531326293943, 0.2506034851074219);26.4817028046;1.0;2;0;0;0;0;();(-2000.0, -2000.0);
08:15:03:687;08:15:03:685;0;10;-1.5;1;0;0;0;0;1;1;1;1;08:15:03:629;1447960501.48;(0.3155102014541626, 0.2509612189398871);26.3826198578;1.0;2;0;0;0;0;();(-2000.0, -2000.0);
08:15:03:690;08:15:03:689;0;10;-1.5;1;0;0;0;0;1;1;1;1;08:15:03:629;1447960501.48;(0.3155102014541626, 0.2509612189398871);26.3826198578;1.0;2;0;0;0;0;();(-2000.0, -2000.0);
08:15:03:693;08:15:03:692;0;4;-1.5;1;0;0;0;0;1;1;1;1;08:15:03:629;1447960501.48;(0.3155102014541626, 0.2509612189398871);26.3826198578;1.0;2;0;0;0;0;();(-2000.0, -2000.0);
08:15:03:695;08:15:03:695;0;4;-1.5;1;0;0;0;0;1;1;1;1;08:15:03:629;1447960501.48;(0.3155102014541626, 0.2509612189398871);26.3826198578;1.0;2;0;0;0;0;();(-2000.0, -2000.0);
08:15:03:698;08:15:03:698;0;4;-1.5;1;0;0;0;0;1;1;1;1;08:15:03:696;1447960501.54;(0.3155245304107666, 0.250710211859809);26.5944404602;1.0;2;0;0;0;0;();(-2000.0, -2000.0);
08:15:03:700;08:15:03:700;0;4;-1.5;1;0;0;0;0;1;1;1;1;08:15:03:696;1447960501.54;(0.3155245304107666, 0.250710211859809);26.5944404602;1.0;2;0;0;0;0;();(-2000.0, -2000.0);
08:15:03:703;08:15:03:703;0;4;-1.5;1;0;0;0;0;1;1;1;1;08:15:03:696;1447960501.54;(0.3155245304107666, 0.250710211859809);26.5944404602;1.0;2;0;0;0;0;();(-2000.0, -2000.0);
08:15:03:705;08:15:03:705;0;4;-1.5;1;0;0;0;0;1;1;1;1;08:15:03:696;1447960501.54;(0.3155245304107666, 0.250710211859809);26.5944404602;1.0;2;0;0;0;0;();(-2000.0, -2000.0);
08:15:03:706;08:15:03:706;0;4;-1.5;1;0;0;0;0;1;1;1;1;08:15:03:696;1447960501.54;(0.3155245304107666, 0.250710211859809);26.5944404602;1.0;2;0;0;0;0;();(-2000.0, -2000.0);
08:15:03:708;08:15:03:708;0;4;-1.5;1;0;0;0;0;1;1;1;1;08:15:03:696;1447960501.54;(0.3155245304107666, 0.250710211859809);26.5944404602;1.0;2;0;0;0;0;();(-2000.0, -2000.0);
08:15:03:710;08:15:03:710;0;4;-1.5;1;0;0;0;0;1;1;1;1;08:15:03:696;1447960501.54;(0.3155245304107666, 0.250710211859809);26.5944404602;1.0;2;0;0;0;0;();(-2000.0, -2000.0);
08:15:03:711;08:15:03:711;0;4;-1.5;1;0;0;0;0;1;1;1;1;08:15:03:696;1447960501.54;(0.3155245304107666, 0.250710211859809);26.5944404602;1.0;2;0;0;0;0;();(-2000.0, -2000.0);
08:15:03:714;08:15:03:714;0;4;-1.5;1;0;0;0;0;1;1;1;1;08:15:03:696;1447960501.54;(0.3155245304107666, 0.250710211859809);26.5944404602;1.0;2;0;0;0;0;();(-2000.0, -2000.0);
08:15:03:716;08:15:03:715;0;4;-1.5;1;0;0;0;0;1;1;1;1;08:15:03:696;1447960501.54;(0.3155245304107666, 0.250710211859809);26.5944404602;1.0;2;0;0;0;0;();(-2000.0, -2000.0);
08:15:03:718;08:15:03:718;0;4;-1.5;1;0;0;0;0;1;1;1;1;08:15:03:696;1447960501.54;(0.3155245304107666, 0.250710211859809);26.5944404602;1.0;2;0;0;0;0;();(-2000.0, -2000.0);
08:15:03:720;08:15:03:720;0;0;-1.5;1;0;0;0;0;1;1;1;1;08:15:03:696;1447960501.54;(0.3155245304107666, 0.250710211859809);26.5944404602;1.0;2;0;0;0;0;();(-2000.0, -2000.0);
08:15:03:721;08:15:03:721;0;2;-1.5;1;0;0;0;0;1;1;1;1;08:15:03:696;1447960501.54;(0.3155245304107666, 0.250710211859809);26.5944404602;1.0;2;0;0;0;0;();(-2000.0, -2000.0);
08:15:03:726;08:15:03:725;0;4;-1.5;1;0;0;0;0;1;1;1;1;08:15:03:696;1447960501.54;(0.3155245304107666, 0.250710211859809);26.5944404602;1.0;2;0;0;0;0;();(-2000.0, -2000.0);
08:15:03:728;08:15:03:728;0;4;-1.5;1;0;0;0;0;1;1;1;1;08:15:03:696;1447960501.54;(0.3155245304107666, 0.250710211859809);26.5944404602;1.0;2;0;0;0;0;();(-2000.0, -2000.0);
08:15:03:742;08:15:03:742;0;0;-1.5;1;0;0;0;0;1;1;1;1;08:15:03:696;1447960501.54;(0.3155245304107666, 0.250710211859809);26.5944404602;1.0;2;0;0;0;0;();(-2000.0, -2000.0);
08:15:03:759;08:15:03:759;0;5;-1.5;1;0;0;0;0;1;1;1;1;08:15:03:696;1447960501.54;(0.3155245304107666, 0.250710211859809);26.5944404602;1.0;2;0;0;0;0;();(-2000.0, -2000.0);
08:15:03:775;08:15:03:775;0;10;-1.5;1;0;0;0;0;1;1;1;1;08:15:03:764;1447960501.61;(0.31547958850860597, 0.250638665093316);26.6816711426;1.0;2;0;0;0;0;();(-2000.0, -2000.0);
08:15:03:792;08:15:03:792;0;4;-1.5;1;0;0;0;0;1;1;1;1;08:15:03:764;1447960501.61;(0.31547958850860597, 0.250638665093316);26.6816711426;1.0;2;0;0;0;0;();(-2000.0, -2000.0);
08:15:03:825;08:15:03:825;0;4;-1.5;1;0;0;0;0;1;1;1;1;08:15:03:764;1447960501.61;(0.31547958850860597, 0.250638665093316);26.6816711426;1.0;2;0;0;0;0;();(-2000.0, -2000.0);
08:15:03:842;08:15:03:842;0;10;-1.5;1;0;0;0;0;1;1;1;1;08:15:03:829;1447960501.68;(0.3156881809234619, 0.2506143358018663);26.0873508453;1.0;2;0;0;0;0;();(-2000.0, -2000.0);
08:15:03:858;08:15:03:858;0;5;-1.5;1;0;0;0;0;1;1;1;1;08:15:03:829;1447960501.68;(0.3156881809234619, 0.2506143358018663);26.0873508453;1.0;2;0;0;0;0;();(-2000.0, -2000.0);
08:15:03:875;08:15:03:875;0;10;-1.5;1;0;0;0;0;1;1;1;1;08:15:03:829;1447960501.68;(0.3156881809234619, 0.2506143358018663);26.0873508453;1.0;2;0;0;0;0;();(-2000.0, -2000.0);
08:15:03:892;08:15:03:891;0;4;-1.5;1;0;0;0;0;1;1;1;1;08:15:03:829;1447960501.68;(0.3156881809234619, 0.2506143358018663);26.0873508453;1.0;2;0;0;0;0;();(-2000.0, -2000.0);
08:15:03:925;08:15:03:925;0;5;-1.5;1;0;0;0;0;1;1;1;1;08:15:03:896;1447960501.74;(0.31541740894317627, 0.250791252983941);26.2043628693;1.0;2;0;0;0;0;();(-2000.0, -2000.0);
08:15:03:941;08:15:03:941;0;10;-1.5;1;0;0;0;0;1;1;1;1;08:15:03:896;1447960501.74;(0.31541740894317627, 0.250791252983941);26.2043628693;1.0;2;0;0;0;0;();(-2000.0, -2000.0);
08:15:03:958;08:15:03:958;0;15;-1.5;1;0;0;0;0;1;1;1;1;08:15:03:896;1447960501.74;(0.31541740894317627, 0.250791252983941);26.2043628693;1.0;2;0;0;0;0;();(-2000.0, -2000.0);
08:15:03:974;08:15:03:974;0;15;-1.5;1;0;0;0;0;1;1;1;1;08:15:03:961;1447960501.81;(0.31519122123718263, 0.25061391194661453);26.7108345032;1.0;2;0;0;0;0;();(-2000.0, -2000.0);
08:15:04:007;08:15:04:007;0;10;-1.5;1;0;0;0;0;1;1;1;1;08:15:03:961;1447960501.81;(0.31519122123718263, 0.25061391194661453);26.7108345032;1.0;2;0;0;0;0;();(-2000.0, -2000.0);
08:15:04:024;08:15:04:024;0;15;-1.5;1;0;0;0;0;1;1;1;1;08:15:03:961;1447960501.81;(0.31519122123718263, 0.25061391194661453);26.7108345032;1.0;2;0;0;0;0;();(-2000.0, -2000.0);
08:15:04:041;08:15:04:041;0;13;-1.5;1;0;0;0;0;1;1;1;1;08:15:04:028;1447960501.88;(0.31561410427093506, 0.25074242485894094);26.3621311188;1.0;2;0;0;0;0;();(-2000.0, -2000.0);
08:15:04:057;08:15:04:057;0;4;-1.5;1;0;0;0;0;1;1;1;1;08:15:04:028;1447960501.88;(0.31561410427093506, 0.25074242485894094);26.3621311188;1.0;2;0;0;0;0;();(-2000.0, -2000.0);
08:15:04:074;08:15:04:074;0;10;-1.5;1;0;0;0;0;1;1;1;1;08:15:04:028;1447960501.88;(0.31561410427093506, 0.25074242485894094);26.3621311188;1.0;2;0;0;0;0;();(-2000.0, -2000.0);
08:15:04:107;08:15:04:107;0;11;-1.5;1;0;0;0;0;1;1;1;1;08:15:04:096;1447960501.94;(0.31544268131256104, 0.25082516140407984);26.5379543304;1.0;2;0;0;0;0;();(-2000.0, -2000.0);
08:15:04:123;08:15:04:123;0;15;-1.5;1;0;0;0;0;1;1;1;1;08:15:04:096;1447960501.94;(0.31544268131256104, 0.25082516140407984);26.5379543304;1.0;2;0;0;0;0;();(-2000.0, -2000.0);
08:15:04:140;08:15:04:140;0;10;-1.5;1;0;0;0;0;1;1;1;1;08:15:04:096;1447960501.94;(0.31544268131256104, 0.25082516140407984);26.5379543304;1.0;2;0;0;0;0;();(-2000.0, -2000.0);
08:15:04:156;08:15:04:156;0;0;-1.5;1;0;0;0;0;1;1;1;1;08:15:04:096;1447960501.94;(0.31544268131256104, 0.25082516140407984);26.5379543304;1.0;2;0;0;0;0;();(-2000.0, -2000.0);
08:15:04:173;08:15:04:173;0;4;-1.5;1;0;0;0;0;1;1;1;1;08:15:04:161;1447960502.01;(0.3157508850097656, 0.2507167392306857);26.7630329132;1.0;2;0;0;0;0;();(-2000.0, -2000.0);
08:15:04:206;08:15:04:206;0;0;-1.5;1;0;0;0;0;1;1;1;1;08:15:04:161;1447960502.01;(0.3157508850097656, 0.2507167392306857);26.7630329132;1.0;2;0;0;0;0;();(-2000.0, -2000.0);
08:15:04:223;08:15:04:223;0;15;-1.5;1;0;0;0;0;1;1;1;1;08:15:04:161;1447960502.01;(0.3157508850097656, 0.2507167392306857);26.7630329132;1.0;2;0;0;0;0;();(-2000.0, -2000.0);
08:15:04:239;08:15:04:239;0;5;-1.5;1;0;0;0;0;1;1;1;1;08:15:04:228;1447960502.08;(0.3157114744186401, 0.25047225952148433);26.4968490601;1.0;2;0;0;0;0;();(-2000.0, -2000.0);
08:15:04:256;08:15:04:256;0;15;-1.5;1;0;0;0;0;1;1;1;1;08:15:04:228;1447960502.08;(0.3157114744186401, 0.25047225952148433);26.4968490601;1.0;2;0;0;0;0;();(-2000.0, -2000.0);
08:15:04:272;08:15:04:272;0;4;-1.5;1;0;0;0;0;1;1;1;1;08:15:04:228;1447960502.08;(0.3157114744186401, 0.25047225952148433);26.4968490601;1.0;2;0;0;0;0;();(-2000.0, -2000.0);
08:15:04:306;08:15:04:305;0;5;-1.5;1;0;0;0;0;1;1;1;1;08:15:04:293;1447960502.14;(0.3153582811355591, 0.2505972120496962);26.472826004;1.0;2;0;0;0;0;();(-2000.0, -2000.0);
08:15:04:322;08:15:04:322;0;6;-1.5;1;0;0;0;0;1;1;1;1;08:15:04:293;1447960502.14;(0.3153582811355591, 0.2505972120496962);26.472826004;1.0;2;0;0;0;0;();(-2000.0, -2000.0);
08:15:04:339;08:15:04:339;0;4;-1.5;1;0;0;0;0;1;1;1;1;08:15:04:293;1447960502.14;(0.3153582811355591, 0.2505972120496962);26.472826004;1.0;2;0;0;0;0;();(-2000.0, -2000.0);
08:15:04:355;08:15:04:355;0;10;-1.5;1;0;0;0;0;1;1;1;1;08:15:04:293;1447960502.14;(0.3153582811355591, 0.2505972120496962);26.472826004;1.0;2;0;0;0;0;();(-2000.0, -2000.0);
08:15:04:372;08:15:04:372;0;4;-1.5;1;0;0;0;0;1;1;1;1;08:15:04:361;1447960502.21;(0.3154199838638306, 0.25101030137803815);26.3175926208;1.0;2;0;0;0;0;();(-2000.0, -2000.0);
08:15:04:405;08:15:04:405;0;15;-1.5;1;0;0;0;0;1;1;1;1;08:15:04:361;1447960502.21;(0.3154199838638306, 0.25101030137803815);26.3175926208;1.0;2;0;0;0;0;();(-2000.0, -2000.0);
08:15:04:422;08:15:04:422;0;10;-1.5;1;0;0;0;0;1;1;1;1;08:15:04:361;1447960502.21;(0.3154199838638306, 0.25101030137803815);26.3175926208;1.0;2;0;0;0;0;();(-2000.0, -2000.0);
08:15:04:438;08:15:04:438;0;4;-1.5;1;0;0;0;0;1;1;1;1;08:15:04:429;1447960502.28;(0.31550030708312987, 0.2505683051215277);26.4581813812;1.0;2;0;0;0;0;();(-2000.0, -2000.0);
08:15:04:455;08:15:04:455;0;10;-1.5;1;0;0;0;0;1;1;1;1;08:15:04:429;1447960502.28;(0.31550030708312987, 0.2505683051215277);26.4581813812;1.0;2;0;0;0;0;();(-2000.0, -2000.0);
08:15:04:471;08:15:04:471;0;5;-1.5;1;0;0;0;0;1;1;1;1;08:15:04:429;1447960502.28;(0.31550030708312987, 0.2505683051215277);26.4581813812;1.0;2;0;0;0;0;();(-2000.0, -2000.0);
08:15:04:504;08:15:04:504;0;4;-1.5;1;0;0;0;0;1;1;1;1;08:15:04:493;1447960502.34;(0.3152594566345215, 0.2508021884494358);26.8216323853;1.0;2;0;0;0;0;();(-2000.0, -2000.0);
08:15:04:521;08:15:04:521;0;10;-1.5;1;0;0;0;0;1;1;1;1;08:15:04:493;1447960502.34;(0.3152594566345215, 0.2508021884494358);26.8216323853;1.0;2;0;0;0;0;();(-2000.0, -2000.0);
08:15:04:538;08:15:04:537;0;0;-1.5;1;0;0;0;0;1;1;1;1;08:15:04:493;1447960502.34;(0.3152594566345215, 0.2508021884494358);26.8216323853;1.0;2;0;0;0;0;();(-2000.0, -2000.0);
08:15:04:554;08:15:04:554;0;10;-1.5;1;0;0;0;0;1;1;1;1;08:15:04:493;1447960502.34;(0.3152594566345215, 0.2508021884494358);26.8216323853;1.0;2;0;0;0;0;();(-2000.0, -2000.0);
08:15:04:587;08:15:04:587;0;10;-1.5;1;0;0;0;0;1;1;1;1;08:15:04:561;1447960502.41;(0.3154488801956177, 0.2506252712673611);26.4881458282;1.0;2;0;0;0;0;();(-2000.0, -2000.0);
08:15:04:604;08:15:04:604;0;15;-1.5;1;0;0;0;0;1;1;1;1;08:15:04:561;1447960502.41;(0.3154488801956177, 0.2506252712673611);26.4881458282;1.0;2;0;0;0;0;();(-2000.0, -2000.0);
08:15:04:620;08:15:04:620;0;4;-1.5;1;0;0;0;0;1;1;1;1;08:15:04:561;1447960502.41;(0.3154488801956177, 0.2506252712673611);26.4881458282;1.0;2;0;0;0;0;();(-2000.0, -2000.0);
08:15:04:637;08:15:04:637;0;0;-1.5;1;0;0;0;0;1;1;1;1;08:15:04:625;1447960502.48;(0.3155508518218994, 0.2505823771158854);26.258600235;1.0;2;0;0;0;0;();(-2000.0, -2000.0);
08:15:04:654;08:15:04:653;0;5;-1.5;1;0;0;0;0;1;1;1;1;08:15:04:625;1447960502.48;(0.3155508518218994, 0.2505823771158854);26.258600235;1.0;2;0;0;0;0;();(-2000.0, -2000.0);
08:15:04:687;08:15:04:687;0;4;-1.5;1;0;0;0;0;1;1;1;1;08:15:04:625;1447960502.48;(0.3155508518218994, 0.2505823771158854);26.258600235;1.0;2;0;0;0;0;();(-2000.0, -2000.0);
08:15:04:703;08:15:04:703;0;15;-1.5;1;0;0;0;0;1;1;1;1;08:15:04:692;1447960502.54;(0.31531510353088377, 0.2502337137858073);26.3509922028;1.0;2;0;0;0;0;();(-2000.0, -2000.0);
08:15:04:720;08:15:04:720;0;5;-1.5;1;0;0;0;0;1;1;1;1;08:15:04:692;1447960502.54;(0.31531510353088377, 0.2502337137858073);26.3509922028;1.0;2;0;0;0;0;();(-2000.0, -2000.0);
08:15:04:736;08:15:04:736;0;10;-1.5;1;0;0;0;0;1;1;1;1;08:15:04:692;1447960502.54;(0.31531510353088377, 0.2502337137858073);26.3509922028;1.0;2;0;0;0;0;();(-2000.0, -2000.0);
08:15:04:753;08:15:04:753;0;4;-1.5;1;0;0;0;0;1;1;1;1;08:15:04:692;1447960502.54;(0.31531510353088377, 0.2502337137858073);26.3509922028;1.0;2;0;0;0;0;();(-2000.0, -2000.0);
08:15:04:786;08:15:04:786;0;10;-1.5;1;0;0;0;0;1;1;1;1;08:15:04:760;1447960502.61;(0.31549055576324464, 0.250651380750868);26.4720287323;1.0;2;0;0;0;0;();(-2000.0, -2000.0);
08:15:04:802;08:15:04:802;0;0;-1.5;1;0;0;0;0;1;1;1;1;08:15:04:760;1447960502.61;(0.31549055576324464, 0.250651380750868);26.4720287323;1.0;2;0;0;0;0;();(-2000.0, -2000.0);
08:15:04:819;08:15:04:819;0;5;-1.5;1;0;0;0;0;1;1;1;1;08:15:04:760;1447960502.61;(0.31549055576324464, 0.250651380750868);26.4720287323;1.0;2;0;0;0;0;();(-2000.0, -2000.0);
08:15:04:836;08:15:04:836;0;10;-1.5;1;0;0;0;0;1;1;1;1;08:15:04:825;1447960502.68;(0.3152571678161621, 0.2503704494900174);26.3189277649;1.0;2;0;0;0;0;();(-2000.0, -2000.0);
08:15:04:852;08:15:04:852;0;4;-1.5;1;0;0;0;0;1;1;1;1;08:15:04:825;1447960502.68;(0.3152571678161621, 0.2503704494900174);26.3189277649;1.0;2;0;0;0;0;();(-2000.0, -2000.0);
08:15:04:886;08:15:04:885;0;15;-1.5;1;0;0;0;0;1;1;1;1;08:15:04:825;1447960502.68;(0.3152571678161621, 0.2503704494900174);26.3189277649;1.0;2;0;0;0;0;();(-2000.0, -2000.0);
08:15:04:902;08:15:04:902;0;10;-1.5;1;0;0;0;0;1;1;1;1;08:15:04:893;1447960502.74;(0.3155901670455933, 0.250516849093967);26.0670185089;1.0;2;0;0;0;0;();(-2000.0, -2000.0);
08:15:04:919;08:15:04:919;0;15;-1.5;1;0;0;0;0;1;1;1;1;08:15:04:893;1447960502.74;(0.3155901670455933, 0.250516849093967);26.0670185089;1.0;2;0;0;0;0;();(-2000.0, -2000.0);
08:15:04:935;08:15:04:935;0;10;-1.5;1;0;0;0;0;1;1;1;1;08:15:04:893;1447960502.74;(0.3155901670455933, 0.250516849093967);26.0670185089;1.0;2;0;0;0;0;();(-2000.0, -2000.0);
08:15:04:952;08:15:04:952;0;5;-1.5;1;0;0;0;0;1;1;1;1;08:15:04:893;1447960502.74;(0.3155901670455933, 0.250516849093967);26.0670185089;1.0;2;0;0;0;0;();(-2000.0, -2000.0);
08:15:04:985;08:15:04:985;0;5;-1.5;1;0;0;0;0;1;1;1;1;08:15:04:958;1447960502.81;(0.3154327869415283, 0.2506011962890625);26.7769031525;1.0;2;0;0;0;0;();(-2000.0, -2000.0);
08:15:05:002;08:15:05:002;0;10;-1.5;1;0;0;0;0;1;1;1;1;08:15:04:958;1447960502.81;(0.3154327869415283, 0.2506011962890625);26.7769031525;1.0;2;0;0;0;0;();(-2000.0, -2000.0);
08:15:05:019;08:15:05:019;0;0;-1.5;1;0;0;0;0;1;1;1;1;08:15:04:958;1447960502.81;(0.3154327869415283, 0.2506011962890625);26.7769031525;1.0;2;0;0;0;0;();(-2000.0, -2000.0);
08:15:05:036;08:15:05:036;0;5;-1.5;1;0;0;0;0;1;1;1;1;08:15:05:025;1447960502.88;(0.3158552169799805, 0.250795406765408);26.2431221008;1.0;2;0;0;0;0;();(-2000.0, -2000.0);
08:15:05:053;08:15:05:053;0;15;-1.5;1;0;0;0;0;1;1;1;1;08:15:05:025;1447960502.88;(0.3158552169799805, 0.250795406765408);26.2431221008;1.0;2;0;0;0;0;();(-2000.0, -2000.0);
08:15:05:086;08:15:05:086;0;10;-1.5;1;0;0;0;0;1;1;1;1;08:15:05:025;1447960502.88;(0.3158552169799805, 0.250795406765408);26.2431221008;1.0;2;0;0;0;0;();(-2000.0, -2000.0);
08:15:05:102;08:15:05:102;0;5;-1.5;1;0;0;0;0;1;1;1;1;08:15:05:088;1447960502.94;(0.31546032428741455, 0.2505924648708767);26.3127536774;1.0;2;0;0;0;0;();(-2000.0, -2000.0);
08:15:05:119;08:15:05:119;0;10;-1.5;1;0;0;0;0;1;1;1;1;08:15:05:088;1447960502.94;(0.31546032428741455, 0.2505924648708767);26.3127536774;1.0;2;0;0;0;0;();(-2000.0, -2000.0);
08:15:05:136;08:15:05:136;0;5;-1.5;1;0;0;0;0;1;1;1;1;08:15:05:088;1447960502.94;(0.31546032428741455, 0.2505924648708767);26.3127536774;1.0;2;0;0;0;0;();(-2000.0, -2000.0);
08:15:05:152;08:15:05:152;0;10;-1.5;1;0;0;0;0;1;1;1;1;08:15:05:088;1447960502.94;(0.31546032428741455, 0.2505924648708767);26.3127536774;1.0;2;0;0;0;0;();(-2000.0, -2000.0);
08:15:05:185;08:15:05:185;0;10;-1.5;1;0;0;0;0;1;1;1;1;08:15:05:157;1447960503.01;(0.31529176235198975, 0.25076429578993054);25.8848438263;1.0;2;0;0;0;0;();(-2000.0, -2000.0);
08:15:05:220;08:15:05:220;0;10;-1.5;1;0;0;0;0;1;1;1;1;08:15:05:157;1447960503.01;(0.31529176235198975, 0.25076429578993054);25.8848438263;1.0;2;0;0;0;0;();(-2000.0, -2000.0);
08:15:05:223;08:15:05:222;0;10;-1.5;1;0;0;0;0;1;1;1;1;08:15:05:157;1447960503.01;(0.31529176235198975, 0.25076429578993054);25.8848438263;1.0;2;0;0;0;0;();(-2000.0, -2000.0);
08:15:05:237;08:15:05:237;0;4;-1.5;1;0;0;0;0;1;1;1;1;08:15:05:224;1447960503.08;(0.3157552003860474, 0.25030653211805554);26.2715644836;1.0;2;0;0;0;0;();(-2000.0, -2000.0);
08:15:05:253;08:15:05:253;0;10;-1.5;1;0;0;0;0;1;1;1;1;08:15:05:224;1447960503.08;(0.3157552003860474, 0.25030653211805554);26.2715644836;1.0;2;0;0;0;0;();(-2000.0, -2000.0);
08:15:05:286;08:15:05:286;0;10;-1.5;1;0;0;0;0;1;1;1;1;08:15:05:224;1447960503.08;(0.3157552003860474, 0.25030653211805554);26.2715644836;1.0;2;0;0;0;0;();(-2000.0, -2000.0);
08:15:05:303;08:15:05:303;0;15;-1.5;1;0;0;0;0;1;1;1;1;08:15:05:289;1447960503.14;(0.3157864809036255, 0.25053117540147574);27.2606620789;1.0;2;0;0;0;0;();(-2000.0, -2000.0);
08:15:05:319;08:15:05:319;0;10;-1.5;1;0;0;0;0;1;1;1;1;08:15:05:289;1447960503.14;(0.3157864809036255, 0.25053117540147574);27.2606620789;1.0;2;0;0;0;0;();(-2000.0, -2000.0);
08:15:05:336;08:15:05:336;0;15;-1.5;1;0;0;0;0;1;1;1;1;08:15:05:289;1447960503.14;(0.3157864809036255, 0.25053117540147574);27.2606620789;1.0;2;0;0;0;0;();(-2000.0, -2000.0);
08:15:05:353;08:15:05:353;0;5;-1.5;1;0;0;0;0;1;1;1;1;08:15:05:289;1447960503.14;(0.3157864809036255, 0.25053117540147574);27.2606620789;1.0;2;0;0;0;0;();(-2000.0, -2000.0);
08:15:05:386;08:15:05:386;0;10;-1.5;1;0;0;0;0;1;1;1;1;08:15:05:357;1447960503.21;(0.3154058218002319, 0.2506913079155816);26.5914993286;1.0;2;0;0;0;0;();(-2000.0, -2000.0);
08:15:05:402;08:15:05:402;0;15;-1.5;1;0;0;0;0;1;1;1;1;08:15:05:357;1447960503.21;(0.3154058218002319, 0.2506913079155816);26.5914993286;1.0;2;0;0;0;0;();(-2000.0, -2000.0);
08:15:05:419;08:15:05:419;0;10;-1.5;1;0;0;0;0;1;1;1;1;08:15:05:357;1447960503.21;(0.3154058218002319, 0.2506913079155816);26.5914993286;1.0;2;0;0;0;0;();(-2000.0, -2000.0);
08:15:05:435;08:15:05:435;0;0;-1.5;1;0;0;0;0;1;1;1;1;08:15:05:424;1447960503.28;(0.31569738388061525, 0.25007095336914065);26.3671455383;1.0;2;0;0;0;0;();(-2000.0, -2000.0);
08:15:05:452;08:15:05:452;0;4;-1.5;1;0;0;0;0;1;1;1;1;08:15:05:424;1447960503.28;(0.31569738388061525, 0.25007095336914065);26.3671455383;1.0;2;0;0;0;0;();(-2000.0, -2000.0);
08:15:05:485;08:15:05:485;0;4;-1.5;1;0;0;0;0;1;1;1;1;08:15:05:424;1447960503.28;(0.31569738388061525, 0.25007095336914065);26.3671455383;1.0;2;0;0;0;0;();(-2000.0, -2000.0);
08:15:05:502;08:15:05:502;0;2;-1.5;1;0;0;0;0;1;1;1;1;08:15:05:488;1447960503.34;(0.31588494777679443, 0.25055058797200525);25.9459533691;1.0;2;0;0;0;0;();(-2000.0, -2000.0);
08:15:05:518;08:15:05:518;0;5;-1.5;1;0;0;0;0;1;1;1;1;08:15:05:488;1447960503.34;(0.31588494777679443, 0.25055058797200525);25.9459533691;1.0;2;0;0;0;0;();(-2000.0, -2000.0);
08:15:05:535;08:15:05:535;0;10;-1.5;1;0;0;0;0;1;1;1;1;08:15:05:488;1447960503.34;(0.31588494777679443, 0.25055058797200525);25.9459533691;1.0;2;0;0;0;0;();(-2000.0, -2000.0);
08:15:05:551;08:15:05:551;0;5;-1.5;1;0;0;0;0;1;1;1;1;08:15:05:488;1447960503.34;(0.31588494777679443, 0.25055058797200525);25.9459533691;1.0;2;0;0;0;0;();(-2000.0, -2000.0);
08:15:05:584;08:15:05:584;0;10;-1.5;1;0;0;0;0;1;1;1;1;08:15:05:557;1447960503.41;(0.31555535793304446, 0.2503572252061632);26.8207111359;1.0;2;0;0;0;0;();(-2000.0, -2000.0);
08:15:05:601;08:15:05:601;0;0;-1.5;1;0;0;0;0;1;1;1;1;08:15:05:557;1447960503.41;(0.31555535793304446, 0.2503572252061632);26.8207111359;1.0;2;0;0;0;0;();(-2000.0, -2000.0);
08:15:05:617;08:15:05:617;0;5;-1.5;1;0;0;0;0;1;1;1;1;08:15:05:557;1447960503.41;(0.31555535793304446, 0.2503572252061632);26.8207111359;1.0;2;0;0;0;0;();(-2000.0, -2000.0);
08:15:05:634;08:15:05:634;0;10;-1.5;1;0;0;0;0;1;1;1;1;08:15:05:621;1447960503.48;(0.31544592380523684, 0.2505989922417535);26.2062282562;1.0;2;0;0;0;0;();(-2000.0, -2000.0);
08:15:05:667;08:15:05:667;0;10;-1.5;1;0;0;0;0;1;1;1;1;08:15:05:621;1447960503.48;(0.31544592380523684, 0.2505989922417535);26.2062282562;1.0;2;0;0;0;0;();(-2000.0, -2000.0);
08:15:05:684;08:15:05:684;0;5;-1.5;1;0;0;0;0;1;1;1;1;08:15:05:621;1447960503.48;(0.31544592380523684, 0.2505989922417535);26.2062282562;1.0;2;0;0;0;0;();(-2000.0, -2000.0);
08:15:05:701;08:15:05:700;0;10;-1.5;1;0;0;0;0;1;1;1;1;08:15:05:688;1447960503.54;(0.3154337406158447, 0.25100589328342016);26.5897827148;1.0;2;0;0;0;0;();(-2000.0, -2000.0);
08:15:05:717;08:15:05:717;0;4;-1.5;1;0;0;0;0;1;1;1;1;08:15:05:688;1447960503.54;(0.3154337406158447, 0.25100589328342016);26.5897827148;1.0;2;0;0;0;0;();(-2000.0, -2000.0);
08:15:05:733;08:15:05:733;0;10;-1.5;1;0;0;0;0;1;1;1;1;08:15:05:688;1447960503.54;(0.3154337406158447, 0.25100589328342016);26.5897827148;1.0;2;0;0;0;0;();(-2000.0, -2000.0);
08:15:05:767;08:15:05:767;0;10;-1.5;1;0;0;0;0;1;1;1;1;08:15:05:753;1447960503.61;(0.31552212238311766, 0.2506863911946614);26.3772506714;1.0;2;0;0;0;0;();(-2000.0, -2000.0);
08:15:05:784;08:15:05:784;0;5;-1.5;1;0;0;0;0;1;1;1;1;08:15:05:753;1447960503.61;(0.31552212238311766, 0.2506863911946614);26.3772506714;1.0;2;0;0;0;0;();(-2000.0, -2000.0);
08:15:05:800;08:15:05:800;0;10;-1.5;1;0;0;0;0;1;1;1;1;08:15:05:753;1447960503.61;(0.31552212238311766, 0.2506863911946614);26.3772506714;1.0;2;0;0;0;0;();(-2000.0, -2000.0);
08:15:05:816;08:15:05:816;0;0;-1.5;1;0;0;0;0;1;1;1;1;08:15:05:753;1447960503.61;(0.31552212238311766, 0.2506863911946614);26.3772506714;1.0;2;0;0;0;0;();(-2000.0, -2000.0);
08:15:05:833;08:15:05:833;0;11;-1.5;1;0;0;0;0;1;1;1;1;08:15:05:820;1447960503.68;(0.31560986042022704, 0.2500454372829861);26.2017784119;1.0;2;0;0;0;0;();(-2000.0, -2000.0);
08:15:05:866;08:15:05:866;0;10;-1.5;1;0;0;0;0;1;1;1;1;08:15:05:820;1447960503.68;(0.31560986042022704, 0.2500454372829861);26.2017784119;1.0;2;0;0;0;0;();(-2000.0, -2000.0);
08:15:05:883;08:15:05:883;0;15;-1.5;1;0;0;0;0;1;1;1;1;08:15:05:820;1447960503.68;(0.31560986042022704, 0.2500454372829861);26.2017784119;1.0;2;0;0;0;0;();(-2000.0, -2000.0);
08:15:05:899;08:15:05:899;0;4;-1.5;1;0;0;0;0;1;1;1;1;08:15:05:888;1447960503.74;(0.3153554677963257, 0.2507887098524305);26.2468242645;1.0;2;0;0;0;0;();(-2000.0, -2000.0);
08:15:05:916;08:15:05:916;0;0;-1.5;1;0;0;0;0;1;1;1;1;08:15:05:888;1447960503.74;(0.3153554677963257, 0.2507887098524305);26.2468242645;1.0;2;0;0;0;0;();(-2000.0, -2000.0);
08:15:05:932;08:15:05:932;0;5;-1.5;1;0;0;0;0;1;1;1;1;08:15:05:888;1447960503.74;(0.3153554677963257, 0.2507887098524305);26.2468242645;1.0;2;0;0;0;0;();(-2000.0, -2000.0);
08:15:05:965;08:15:05:965;0;4;-1.5;1;0;0;0;0;1;1;1;1;08:15:05:953;1447960503.81;(0.3149277925491333, 0.2505770365397135);26.0562744141;1.0;2;0;0;0;0;();(-2000.0, -2000.0);
08:15:05:982;08:15:05:982;0;10;-1.5;1;0;0;0;0;1;1;1;1;08:15:05:953;1447960503.81;(0.3149277925491333, 0.2505770365397135);26.0562744141;1.0;2;0;0;0;0;();(-2000.0, -2000.0);
08:15:05:999;08:15:05:999;0;10;-1.5;1;0;0;0;0;1;1;1;1;08:15:05:953;1447960503.81;(0.3149277925491333, 0.2505770365397135);26.0562744141;1.0;2;0;0;0;0;();(-2000.0, -2000.0);
08:15:06:015;08:15:06:015;0;10;-1.5;1;0;0;0;0;1;1;1;1;08:15:05:953;1447960503.81;(0.3149277925491333, 0.2505770365397135);26.0562744141;1.0;2;0;0;0;0;();(-2000.0, -2000.0);
08:15:06:032;08:15:06:032;0;4;-1.5;1;0;0;0;0;1;1;1;1;08:15:06:021;1447960503.88;(0.31499950885772704, 0.2504517449273004);26.389043808;1.0;2;0;0;0;0;();(-2000.0, -2000.0);
08:15:06:065;08:15:06:065;0;5;-1.5;1;0;0;0;0;1;1;1;1;08:15:06:021;1447960503.88;(0.31499950885772704, 0.2504517449273004);26.389043808;1.0;2;0;0;0;0;();(-2000.0, -2000.0);
08:15:06:081;08:15:06:081;0;10;-1.5;1;0;0;0;0;1;1;1;1;08:15:06:021;1447960503.88;(0.31499950885772704, 0.2504517449273004);26.389043808;1.0;2;0;0;0;0;();(-2000.0, -2000.0);
08:15:06:101;08:15:06:101;0;1;-1.5;1;0;0;0;0;1;1;1;1;08:15:06:085;1447960503.94;(0.3153559923171997, 0.2507145351833767);26.3735237122;1.0;2;0;0;0;0;();(-2000.0, -2000.0);
08:15:06:114;08:15:06:114;0;10;-1.5;1;0;0;0;0;1;1;1;1;08:15:06:085;1447960503.94;(0.3153559923171997, 0.2507145351833767);26.3735237122;1.0;2;0;0;0;0;();(-2000.0, -2000.0);
08:15:06:131;08:15:06:131;0;4;-1.5;1;0;0;0;0;1;1;1;1;08:15:06:085;1447960503.94;(0.3153559923171997, 0.2507145351833767);26.3735237122;1.0;2;0;0;0;0;();(-2000.0, -2000.0);
08:15:06:164;08:15:06:164;0;15;-1.5;1;0;0;0;0;1;1;1;1;08:15:06:152;1447960504.01;(0.3153311491012573, 0.2511678059895833);26.2117786407;1.0;2;0;0;0;0;();(-2000.0, -2000.0);
08:15:06:181;08:15:06:181;0;10;-1.5;1;0;0;0;0;1;1;1;1;08:15:06:152;1447960504.01;(0.3153311491012573, 0.2511678059895833);26.2117786407;1.0;2;0;0;0;0;();(-2000.0, -2000.0);
08:15:06:198;08:15:06:197;0;4;-1.5;1;0;0;0;0;1;1;1;1;08:15:06:152;1447960504.01;(0.3153311491012573, 0.2511678059895833);26.2117786407;1.0;2;0;0;0;0;();(-2000.0, -2000.0);
08:15:06:214;08:15:06:214;0;10;-1.5;1;0;0;0;0;1;1;1;1;08:15:06:152;1447960504.01;(0.3153311491012573, 0.2511678059895833);26.2117786407;1.0;2;0;0;0;0;();(-2000.0, -2000.0);
08:15:06:247;08:15:06:247;0;10;-1.5;1;0;0;0;0;1;1;1;1;08:15:06:220;1447960504.08;(0.3153804302215576, 0.25050650702582467);26.6993198395;1.0;2;0;0;0;0;();(-2000.0, -2000.0);
08:15:06:264;08:15:06:264;0;4;-1.5;1;0;0;0;0;1;1;1;1;08:15:06:220;1447960504.08;(0.3153804302215576, 0.25050650702582467);26.6993198395;1.0;2;0;0;0;0;();(-2000.0, -2000.0);
08:15:06:280;08:15:06:280;0;8;-1.5;1;0;0;0;0;1;1;1;1;08:15:06:220;1447960504.08;(0.3153804302215576, 0.25050650702582467);26.6993198395;1.0;2;0;0;0;0;();(-2000.0, -2000.0);
08:15:06:297;08:15:06:297;0;0;-1.5;1;0;0;0;0;1;1;1;1;08:15:06:284;1447960504.14;(0.3152392625808716, 0.25027194552951393);26.539806366;1.0;2;0;0;0;0;();(-2000.0, -2000.0);
08:15:06:314;08:15:06:314;0;2;-1.5;1;0;0;0;0;1;1;1;1;08:15:06:284;1447960504.14;(0.3152392625808716, 0.25027194552951393);26.539806366;1.0;2;0;0;0;0;();(-2000.0, -2000.0);
08:15:06:347;08:15:06:347;0;10;-1.5;1;0;0;0;0;1;1;1;1;08:15:06:284;1447960504.14;(0.3152392625808716, 0.25027194552951393);26.539806366;1.0;2;0;0;0;0;();(-2000.0, -2000.0);
08:15:06:363;08:15:06:363;0;15;-1.5;1;0;0;0;0;1;1;1;1;08:15:06:352;1447960504.21;(0.315313458442688, 0.2503228081597222);26.822763443;1.0;2;0;0;0;0;();(-2000.0, -2000.0);
08:15:06:380;08:15:06:380;0;10;-1.5;1;0;0;0;0;1;1;1;1;08:15:06:352;1447960504.21;(0.315313458442688, 0.2503228081597222);26.822763443;1.0;2;0;0;0;0;();(-2000.0, -2000.0);
08:15:06:396;08:15:06:396;0;0;-1.5;1;0;0;0;0;1;1;1;1;08:15:06:352;1447960504.21;(0.315313458442688, 0.2503228081597222);26.822763443;1.0;2;0;0;0;0;();(-2000.0, -2000.0);
08:15:06:413;08:15:06:413;0;5;-1.5;1;0;0;0;0;1;1;1;1;08:15:06:352;1447960504.21;(0.315313458442688, 0.2503228081597222);26.822763443;1.0;2;0;0;0;0;();(-2000.0, -2000.0);
08:15:06:446;08:15:06:446;0;4;-1.5;1;0;0;0;0;1;1;1;1;08:15:06:417;1447960504.28;(0.31528410911560056, 0.2505866156684028);26.2669086456;1.0;2;0;0;0;0;();(-2000.0, -2000.0);
08:15:06:463;08:15:06:462;0;10;-1.5;1;0;0;0;0;1;1;1;1;08:15:06:417;1447960504.28;(0.31528410911560056, 0.2505866156684028);26.2669086456;1.0;2;0;0;0;0;();(-2000.0, -2000.0);
08:15:06:479;08:15:06:479;0;5;-1.5;1;0;0;0;0;1;1;1;1;08:15:06:417;1447960504.28;(0.31528410911560056, 0.2505866156684028);26.2669086456;1.0;2;0;0;0;0;();(-2000.0, -2000.0);
08:15:06:496;08:15:06:496;0;3;-1.5;1;0;0;0;0;1;1;1;1;08:15:06:484;1447960504.34;(0.3148975133895874, 0.2504444546169705);26.6041660309;1.0;2;0;0;0;0;();(-2000.0, -2000.0);
08:15:06:512;08:15:06:512;0;4;-1.5;1;0;0;0;0;1;1;1;1;08:15:06:484;1447960504.34;(0.3148975133895874, 0.2504444546169705);26.6041660309;1.0;2;0;0;0;0;();(-2000.0, -2000.0);
08:15:06:545;08:15:06:545;0;5;-1.5;1;0;0;0;0;1;1;1;1;08:15:06:484;1447960504.34;(0.3148975133895874, 0.2504444546169705);26.6041660309;1.0;2;0;0;0;0;();(-2000.0, -2000.0);
08:15:06:562;08:15:06:562;0;10;-1.5;1;0;0;0;0;1;1;1;1;08:15:06:552;1447960504.41;(0.31526434421539307, 0.25065316094292533);26.5743751526;1.0;2;0;0;0;0;();(-2000.0, -2000.0);
08:15:06:579;08:15:06:579;0;4;-1.5;1;0;0;0;0;1;1;1;1;08:15:06:552;1447960504.41;(0.31526434421539307, 0.25065316094292533);26.5743751526;1.0;2;0;0;0;0;();(-2000.0, -2000.0);
08:15:06:595;08:15:06:595;0;15;-1.5;1;0;0;0;0;1;1;1;1;08:15:06:552;1447960504.41;(0.31526434421539307, 0.25065316094292533);26.5743751526;1.0;2;0;0;0;0;();(-2000.0, -2000.0);
08:15:06:612;08:15:06:611;0;4;-1.5;1;0;0;0;0;1;1;1;1;08:15:06:552;1447960504.41;(0.31526434421539307, 0.25065316094292533);26.5743751526;1.0;2;0;0;0;0;();(-2000.0, -2000.0);
08:15:06:645;08:15:06:645;0;5;-1.5;1;0;0;0;0;1;1;1;1;08:15:06:616;1447960504.48;(0.31493842601776123, 0.250622812906901);26.8492889404;1.0;2;0;0;0;0;();(-2000.0, -2000.0);
08:15:06:661;08:15:06:661;0;10;-1.5;1;0;0;0;0;1;1;1;1;08:15:06:616;1447960504.48;(0.31493842601776123, 0.250622812906901);26.8492889404;1.0;2;0;0;0;0;();(-2000.0, -2000.0);
08:15:06:678;08:15:06:678;0;4;-1.5;1;0;0;0;0;1;1;1;1;08:15:06:616;1447960504.48;(0.31493842601776123, 0.250622812906901);26.8492889404;1.0;2;0;0;0;0;();(-2000.0, -2000.0);
08:15:06:701;08:15:06:701;0;12;-1.5;1;0;0;0;0;1;1;1;1;08:15:06:684;1447960504.54;(0.3149378538131714, 0.2507955763075087);26.5362091064;1.0;2;0;0;0;0;();(-2000.0, -2000.0);
08:15:06:719;08:15:06:718;0;0;-1.5;1;0;0;0;0;1;1;1;1;08:15:06:684;1447960504.54;(0.3149378538131714, 0.2507955763075087);26.5362091064;1.0;2;0;0;0;0;();(-2000.0, -2000.0);
08:15:06:736;08:15:06:736;0;5;-1.5;1;0;0;0;0;1;1;1;1;08:15:06:684;1447960504.54;(0.3149378538131714, 0.2507955763075087);26.5362091064;1.0;2;0;0;0;0;();(-2000.0, -2000.0);
08:15:06:752;08:15:06:752;0;15;-1.5;1;0;0;0;0;1;1;1;1;08:15:06:748;1447960504.61;(0.31523287296295166, 0.25075039333767357);26.3656406403;1.0;2;0;0;0;0;();(-2000.0, -2000.0);
08:15:06:785;08:15:06:785;0;0;-1.5;1;0;0;0;0;1;1;1;1;08:15:06:748;1447960504.61;(0.31523287296295166, 0.25075039333767357);26.3656406403;1.0;2;0;0;0;0;();(-2000.0, -2000.0);
08:15:06:801;08:15:06:801;0;5;-1.5;1;0;0;0;0;1;1;1;1;08:15:06:748;1447960504.61;(0.31523287296295166, 0.25075039333767357);26.3656406403;1.0;2;0;0;0;0;();(-2000.0, -2000.0);
08:15:06:818;08:15:06:818;0;10;-1.5;1;0;0;0;0;1;1;1;1;08:15:06:816;1447960504.68;(0.31546692848205565, 0.2507474263509114);26.6903343201;1.0;2;0;0;0;0;();(-2000.0, -2000.0);
08:15:06:835;08:15:06:834;0;15;-1.5;1;0;0;0;0;1;1;1;1;08:15:06:816;1447960504.68;(0.31546692848205565, 0.2507474263509114);26.6903343201;1.0;2;0;0;0;0;();(-2000.0, -2000.0);
08:15:06:851;08:15:06:851;0;10;-1.5;1;0;0;0;0;1;1;1;1;08:15:06:816;1447960504.68;(0.31546692848205565, 0.2507474263509114);26.6903343201;1.0;2;0;0;0;0;();(-2000.0, -2000.0);
08:15:06:884;08:15:06:884;0;9;-1.5;1;0;0;0;0;1;1;1;1;08:15:06:884;1447960504.74;(0.315606689453125, 0.25097503662109377);27.2556037903;1.0;2;0;0;0;0;();(-2000.0, -2000.0);
08:15:06:905;08:15:06:905;0;15;-1.5;1;0;0;0;0;1;1;1;1;08:15:06:884;1447960504.74;(0.315606689453125, 0.25097503662109377);27.2556037903;1.0;2;0;0;0;0;();(-2000.0, -2000.0);
08:15:06:922;08:15:06:922;0;4;-1.5;1;0;0;0;0;1;1;1;1;08:15:06:884;1447960504.74;(0.315606689453125, 0.25097503662109377);27.2556037903;1.0;2;0;0;0;0;();(-2000.0, -2000.0);
08:15:06:942;08:15:06:942;0;0;-1.5;1;0;0;0;0;1;1;1;1;08:15:06:884;1447960504.74;(0.315606689453125, 0.25097503662109377);27.2556037903;1.0;2;0;0;0;0;();(-2000.0, -2000.0);
08:15:06:959;08:15:06:958;0;5;-1.5;1;0;0;0;0;1;1;1;1;08:15:06:949;1447960504.81;(0.3156158208847046, 0.25073818630642364);26.6771221161;1.0;2;0;0;0;0;();(-2000.0, -2000.0);
08:15:06:975;08:15:06:975;0;10;-1.5;1;0;0;0;0;1;1;1;1;08:15:06:949;1447960504.81;(0.3156158208847046, 0.25073818630642364);26.6771221161;1.0;2;0;0;0;0;();(-2000.0, -2000.0);
08:15:06:992;08:15:06:991;0;4;-1.5;1;0;0;0;0;1;1;1;1;08:15:06:949;1447960504.81;(0.3156158208847046, 0.25073818630642364);26.6771221161;1.0;2;0;0;0;0;();(-2000.0, -2000.0);
08:15:07:025;08:15:07:025;0;4;-1.5;1;0;0;0;0;1;1;1;1;08:15:07:016;1447960504.88;(0.31558656692504883, 0.25096011691623266);26.5252094269;1.0;2;0;0;0;0;();(-2000.0, -2000.0);
08:15:07:041;08:15:07:041;0;10;-1.5;1;0;0;0;0;1;1;1;1;08:15:07:016;1447960504.88;(0.31558656692504883, 0.25096011691623266);26.5252094269;1.0;2;0;0;0;0;();(-2000.0, -2000.0);
08:15:07:058;08:15:07:058;0;5;-1.5;1;0;0;0;0;1;1;1;1;08:15:07:016;1447960504.88;(0.31558656692504883, 0.25096011691623266);26.5252094269;1.0;2;0;0;0;0;();(-2000.0, -2000.0);
08:15:07:074;08:15:07:074;0;4;-1.5;1;0;0;0;0;1;1;1;1;08:15:07:016;1447960504.88;(0.31558656692504883, 0.25096011691623266);26.5252094269;1.0;2;0;0;0;0;();(-2000.0, -2000.0);
08:15:07:091;08:15:07:091;0;4;-1.5;1;0;0;0;0;1;1;1;1;08:15:07:080;1447960504.94;(0.3156019449234009, 0.2507279290093316);26.1282615662;1.0;2;0;0;0;0;();(-2000.0, -2000.0);
08:15:07:126;08:15:07:126;0;5;-1.5;1;0;0;0;0;1;1;1;1;08:15:07:080;1447960504.94;(0.3156019449234009, 0.2507279290093316);26.1282615662;1.0;2;0;0;0;0;();(-2000.0, -2000.0);
08:15:07:144;08:15:07:144;0;10;-1.5;1;0;0;0;0;1;1;1;1;08:15:07:080;1447960504.94;(0.3156019449234009, 0.2507279290093316);26.1282615662;1.0;2;0;0;0;0;();(-2000.0, -2000.0);
08:15:07:161;08:15:07:161;0;6;-1.5;1;0;0;0;0;1;1;1;1;08:15:07:148;1447960505.01;(0.31548776626586916, 0.25078548855251737);26.5685768127;1.0;2;0;0;0;0;();(-2000.0, -2000.0);
08:15:07:177;08:15:07:177;0;10;-1.5;1;0;0;0;0;1;1;1;1;08:15:07:148;1447960505.01;(0.31548776626586916, 0.25078548855251737);26.5685768127;1.0;2;0;0;0;0;();(-2000.0, -2000.0);
08:15:07:194;08:15:07:194;0;0;-1.5;1;0;0;0;0;1;1;1;1;08:15:07:148;1447960505.01;(0.31548776626586916, 0.25078548855251737);26.5685768127;1.0;2;0;0;0;0;();(-2000.0, -2000.0);
08:15:07:232;08:15:07:232;0;15;-1.5;1;0;0;0;0;1;1;1;1;08:15:07:216;1447960505.08;(0.3152662754058838, 0.2508441501193577);26.2712421417;1.0;4;0;0;0;0;();(-2000.0, -2000.0);
08:15:07:243;08:15:07:243;0;4;-1.5;1;0;0;0;0;1;1;1;1;08:15:07:216;1447960505.08;(0.3152662754058838, 0.2508441501193577);26.2712421417;1.0;4;0;0;0;0;();(-2000.0, -2000.0);
08:15:07:260;08:15:07:260;0;15;-1.5;1;0;0;0;0;1;1;1;1;08:15:07:216;1447960505.08;(0.3152662754058838, 0.2508441501193577);26.2712421417;1.0;4;0;0;0;0;();(-2000.0, -2000.0);
08:15:07:276;08:15:07:276;0;5;-1.5;1;0;0;0;0;1;1;1;1;08:15:07:216;1447960505.08;(0.3152662754058838, 0.2508441501193577);26.2712421417;1.0;4;0;0;0;0;();(-2000.0, -2000.0);
08:15:07:293;08:15:07:293;0;4;-1.5;1;0;0;0;0;1;1;1;1;08:15:07:280;1447960505.14;(0.31527109146118165, 0.2507022433810764);26.4204025269;1.0;4;0;0;0;0;();(-2000.0, -2000.0);
08:15:07:314;08:15:07:314;0;4;-1.5;1;0;0;0;0;1;1;1;1;08:15:07:280;1447960505.14;(0.31527109146118165, 0.2507022433810764);26.4204025269;1.0;4;0;0;0;0;();(-2000.0, -2000.0);
08:15:07:347;08:15:07:347;0;5;-1.5;1;0;0;0;0;1;1;1;1;08:15:07:280;1447960505.14;(0.31527109146118165, 0.2507022433810764);26.4204025269;1.0;4;0;0;0;0;();(-2000.0, -2000.0);
08:15:07:364;08:15:07:364;0;10;-1.5;1;0;0;0;0;1;1;1;1;08:15:07:348;1447960505.21;(0.3153630495071411, 0.25077463785807297);26.7390861511;1.0;4;0;0;0;0;();(-2000.0, -2000.0);
08:15:07:380;08:15:07:380;0;5;-1.5;1;0;0;0;0;1;1;1;1;08:15:07:348;1447960505.21;(0.3153630495071411, 0.25077463785807297);26.7390861511;1.0;4;0;0;0;0;();(-2000.0, -2000.0);
08:15:07:397;08:15:07:397;0;10;-1.5;1;0;0;0;0;1;1;1;1;08:15:07:348;1447960505.21;(0.3153630495071411, 0.25077463785807297);26.7390861511;1.0;4;0;0;0;0;();(-2000.0, -2000.0);
08:15:07:413;08:15:07:413;0;4;-1.5;1;0;0;0;0;1;1;1;1;08:15:07:413;1447960505.28;(0.3154191255569458, 0.25046064588758676);26.3309326172;1.0;4;0;0;0;0;();(-2000.0, -2000.0);
08:15:07:446;08:15:07:446;0;15;-1.5;1;0;0;0;0;1;1;1;1;08:15:07:413;1447960505.28;(0.3154191255569458, 0.25046064588758676);26.3309326172;1.0;4;0;0;0;0;();(-2000.0, -2000.0);
08:15:07:463;08:15:07:463;0;15;-1.5;1;0;0;0;0;1;1;1;1;08:15:07:413;1447960505.28;(0.3154191255569458, 0.25046064588758676);26.3309326172;1.0;4;0;0;0;0;();(-2000.0, -2000.0);
08:15:07:479;08:15:07:479;0;4;-1.5;1;0;0;0;0;1;1;1;1;08:15:07:413;1447960505.28;(0.3154191255569458, 0.25046064588758676);26.3309326172;1.0;4;0;0;0;0;();(-2000.0, -2000.0);
08:15:07:496;08:15:07:496;0;10;-1.5;1;0;0;0;0;1;1;1;1;08:15:07:481;1447960505.34;(0.3152487277984619, 0.2504575941297743);26.282453537;1.0;4;0;0;0;0;();(-2000.0, -2000.0);
08:15:07:516;08:15:07:516;0;0;-1.5;1;0;0;0;0;1;1;1;1;08:15:07:481;1447960505.34;(0.3152487277984619, 0.2504575941297743);26.282453537;1.0;4;0;0;0;0;();(-2000.0, -2000.0);
08:15:07:534;08:15:07:534;0;10;-1.5;1;0;0;0;0;1;1;1;1;08:15:07:481;1447960505.34;(0.3152487277984619, 0.2504575941297743);26.282453537;1.0;4;0;0;0;0;();(-2000.0, -2000.0);
08:15:07:567;08:15:07:567;0;4;-1.5;1;0;0;0;0;1;1;1;1;08:15:07:548;1447960505.41;(0.31546735763549805, 0.25047234429253473);26.3568668365;1.0;4;0;0;0;0;();(-2000.0, -2000.0);
08:15:07:584;08:15:07:584;0;15;-1.5;1;0;0;0;0;1;1;1;1;08:15:07:548;1447960505.41;(0.31546735763549805, 0.25047234429253473);26.3568668365;1.0;4;0;0;0;0;();(-2000.0, -2000.0);
08:15:07:601;08:15:07:600;0;5;-1.5;1;0;0;0;0;1;1;1;1;08:15:07:548;1447960505.41;(0.31546735763549805, 0.25047234429253473);26.3568668365;1.0;4;0;0;0;0;();(-2000.0, -2000.0);
08:15:07:617;08:15:07:617;0;10;-1.5;1;0;0;0;0;1;1;1;1;08:15:07:612;1447960505.48;(0.3155738592147827, 0.2503209431966146);26.2581958771;1.0;4;0;0;0;0;();(-2000.0, -2000.0);
08:15:07:634;08:15:07:634;0;4;-1.5;1;0;0;0;0;1;1;1;1;08:15:07:612;1447960505.48;(0.3155738592147827, 0.2503209431966146);26.2581958771;1.0;4;0;0;0;0;();(-2000.0, -2000.0);
08:15:07:667;08:15:07:667;0;15;-1.5;1;0;0;0;0;1;1;1;1;08:15:07:612;1447960505.48;(0.3155738592147827, 0.2503209431966146);26.2581958771;1.0;4;0;0;0;0;();(-2000.0, -2000.0);
08:15:07:683;08:15:07:683;0;10;-1.5;1;0;0;0;0;1;1;1;1;08:15:07:680;1447960505.54;(0.315317702293396, 0.25076870388454864);26.6543216705;1.0;4;0;0;0;0;();(-2000.0, -2000.0);
08:15:07:700;08:15:07:700;0;5;-1.5;1;0;0;0;0;1;1;1;1;08:15:07:680;1447960505.54;(0.315317702293396, 0.25076870388454864);26.6543216705;1.0;4;0;0;0;0;();(-2000.0, -2000.0);
08:15:07:720;08:15:07:720;0;10;-1.5;1;0;0;0;0;1;1;1;1;08:15:07:680;1447960505.54;(0.315317702293396, 0.25076870388454864);26.6543216705;1.0;4;0;0;0;0;();(-2000.0, -2000.0);
08:15:07:739;08:15:07:739;0;0;-1.5;1;0;0;0;0;1;1;1;1;08:15:07:680;1447960505.54;(0.315317702293396, 0.25076870388454864);26.6543216705;1.0;4;0;0;0;0;();(-2000.0, -2000.0);
08:15:07:756;08:15:07:755;0;5;-1.5;1;0;0;0;0;1;1;1;1;08:15:07:745;1447960505.61;(0.31547400951385496, 0.25065689086914067);26.6529560089;1.0;4;0;0;0;0;();(-2000.0, -2000.0);
08:15:07:772;08:15:07:772;0;15;-1.5;1;0;0;0;0;1;1;1;1;08:15:07:745;1447960505.61;(0.31547400951385496, 0.25065689086914067);26.6529560089;1.0;4;0;0;0;0;();(-2000.0, -2000.0);
08:15:07:805;08:15:07:805;0;2;-1.5;1;0;0;0;0;1;1;1;1;08:15:07:745;1447960505.61;(0.31547400951385496, 0.25065689086914067);26.6529560089;1.0;4;0;0;0;0;();(-2000.0, -2000.0);
08:15:07:822;08:15:07:822;0;3;-1.5;1;0;0;0;0;1;1;1;1;08:15:07:812;1447960505.68;(0.315347695350647, 0.2504597981770833);26.3158969879;1.0;4;0;0;0;0;();(-2000.0, -2000.0);
08:15:07:838;08:15:07:838;0;15;-1.5;1;0;0;0;0;1;1;1;1;08:15:07:812;1447960505.68;(0.315347695350647, 0.2504597981770833);26.3158969879;1.0;4;0;0;0;0;();(-2000.0, -2000.0);
08:15:07:855;08:15:07:855;0;10;-1.5;1;0;0;0;0;1;1;1;1;08:15:07:812;1447960505.68;(0.315347695350647, 0.2504597981770833);26.3158969879;1.0;4;0;0;0;0;();(-2000.0, -2000.0);
08:15:07:871;08:15:07:871;0;15;-1.5;1;0;0;0;0;1;1;1;1;08:15:07:812;1447960505.68;(0.315347695350647, 0.2504597981770833);26.3158969879;1.0;4;0;0;0;0;();(-2000.0, -2000.0);
08:15:07:905;08:15:07:904;0;0;-1.5;1;0;0;0;0;1;1;1;1;08:15:07:877;1447960505.74;(0.31555049419403075, 0.25068088107638886);26.2443637848;1.0;4;0;0;0;0;();(-2000.0, -2000.0);
08:15:07:926;08:15:07:926;0;5;-1.5;1;0;0;0;0;1;1;1;1;08:15:07:877;1447960505.74;(0.31555049419403075, 0.25068088107638886);26.2443637848;1.0;4;0;0;0;0;();(-2000.0, -2000.0);
08:15:07:944;08:15:07:944;0;10;-1.5;1;0;0;0;0;1;1;1;1;08:15:07:877;1447960505.74;(0.31555049419403075, 0.25068088107638886);26.2443637848;1.0;4;0;0;0;0;();(-2000.0, -2000.0);
08:15:07:962;08:15:07:961;0;15;-1.5;1;0;0;0;0;1;1;1;1;08:15:07:945;1447960505.81;(0.3153524398803711, 0.250852542453342);26.7526245117;1.0;4;0;0;0;0;();(-2000.0, -2000.0);
08:15:07:978;08:15:07:978;0;4;-1.5;1;0;0;0;0;1;1;1;1;08:15:07:945;1447960505.81;(0.3153524398803711, 0.250852542453342);26.7526245117;1.0;4;0;0;0;0;();(-2000.0, -2000.0);
08:15:07:995;08:15:07:995;0;0;-1.5;1;0;0;0;0;1;1;1;1;08:15:07:945;1447960505.81;(0.3153524398803711, 0.250852542453342);26.7526245117;1.0;4;0;0;0;0;();(-2000.0, -2000.0);
08:15:08:011;08:15:08:011;0;10;-1.5;1;0;0;0;0;1;1;1;1;08:15:07:945;1447960505.81;(0.3153524398803711, 0.250852542453342);26.7526245117;1.0;4;0;0;0;0;();(-2000.0, -2000.0);
08:15:08:044;08:15:08:044;0;10;-1.5;1;0;0;0;0;1;1;1;1;08:15:08:014;1447960505.88;(0.3151282548904419, 0.2509023878309462);26.6411895752;1.0;4;0;0;0;0;();(-2000.0, -2000.0);
08:15:08:061;08:15:08:061;0;15;-1.5;1;0;0;0;0;1;1;1;1;08:15:08:014;1447960505.88;(0.3151282548904419, 0.2509023878309462);26.6411895752;1.0;4;0;0;0;0;();(-2000.0, -2000.0);
08:15:08:078;08:15:08:078;0;11;-1.5;1;0;0;0;0;1;1;1;1;08:15:08:076;1447960505.94;(0.31513223648071287, 0.25023430718315975);26.7828483582;1.0;4;0;0;0;0;();(-2000.0, -2000.0);
08:15:08:095;08:15:08:095;0;15;-1.5;1;0;0;0;0;1;1;1;1;08:15:08:076;1447960505.94;(0.31513223648071287, 0.25023430718315975);26.7828483582;1.0;4;0;0;0;0;();(-2000.0, -2000.0);
08:15:08:111;08:15:08:111;0;4;-1.5;1;0;0;0;0;1;1;1;1;08:15:08:076;1447960505.94;(0.31513223648071287, 0.25023430718315975);26.7828483582;1.0;4;0;0;0;0;();(-2000.0, -2000.0);
08:15:08:133;08:15:08:132;0;10;-1.5;1;0;0;0;0;1;1;1;1;08:15:08:076;1447960505.94;(0.31513223648071287, 0.25023430718315975);26.7828483582;1.0;4;0;0;0;0;();(-2000.0, -2000.0);
08:15:08:152;08:15:08:152;0;5;-1.5;1;0;0;0;0;1;1;1;1;08:15:08:145;1447960506.01;(0.3156130790710449, 0.2506732516818576);26.5535125732;1.0;4;0;0;0;0;();(-2000.0, -2000.0);
08:15:08:172;08:15:08:172;0;10;-1.5;1;0;0;0;0;1;1;1;1;08:15:08:145;1447960506.01;(0.3156130790710449, 0.2506732516818576);26.5535125732;1.0;4;0;0;0;0;();(-2000.0, -2000.0);
08:15:08:206;08:15:08:206;0;4;-1.5;1;0;0;0;0;1;1;1;1;08:15:08:145;1447960506.01;(0.3156130790710449, 0.2506732516818576);26.5535125732;1.0;4;0;0;0;0;();(-2000.0, -2000.0);
08:15:08:222;08:15:08:222;0;15;-1.5;1;0;0;0;0;1;1;1;1;08:15:08:208;1447960506.08;(0.31555800437927245, 0.25058788723415804);26.3439254761;1.0;4;0;0;0;0;();(-2000.0, -2000.0);
08:15:08:238;08:15:08:238;0;10;-1.5;1;0;0;0;0;1;1;1;1;08:15:08:208;1447960506.08;(0.31555800437927245, 0.25058788723415804);26.3439254761;1.0;4;0;0;0;0;();(-2000.0, -2000.0);
08:15:08:255;08:15:08:255;0;15;-1.5;1;0;0;0;0;1;1;1;1;08:15:08:208;1447960506.08;(0.31555800437927245, 0.25058788723415804);26.3439254761;1.0;4;0;0;0;0;();(-2000.0, -2000.0);
08:15:08:271;08:15:08:271;0;4;-1.5;1;0;0;0;0;1;1;1;1;08:15:08:208;1447960506.08;(0.31555800437927245, 0.25058788723415804);26.3439254761;1.0;4;0;0;0;0;();(-2000.0, -2000.0);
08:15:08:304;08:15:08:304;0;5;-1.5;1;0;0;0;0;1;1;1;1;08:15:08:277;1447960506.14;(0.31548824310302737, 0.2506929185655382);26.3009681702;1.0;4;0;0;0;0;();(-2000.0, -2000.0);
08:15:08:321;08:15:08:321;0;10;-1.5;1;0;0;0;0;1;1;1;1;08:15:08:277;1447960506.14;(0.31548824310302737, 0.2506929185655382);26.3009681702;1.0;4;0;0;0;0;();(-2000.0, -2000.0);
08:15:08:345;08:15:08:345;0;15;-1.5;1;0;0;0;0;1;1;1;1;08:15:08:344;1447960506.21;(0.31539967060089114, 0.2501943800184462);26.9229412079;1.0;4;0;0;0;0;();(-2000.0, -2000.0);
08:15:08:362;08:15:08:362;0;4;-1.5;1;0;0;0;0;1;1;1;1;08:15:08:344;1447960506.21;(0.31539967060089114, 0.2501943800184462);26.9229412079;1.0;4;0;0;0;0;();(-2000.0, -2000.0);
08:15:08:378;08:15:08:378;0;0;-1.5;1;0;0;0;0;1;1;1;1;08:15:08:344;1447960506.21;(0.31539967060089114, 0.2501943800184462);26.9229412079;1.0;4;0;0;0;0;();(-2000.0, -2000.0);
08:15:08:395;08:15:08:395;0;10;-1.5;1;0;0;0;0;1;1;1;1;08:15:08:344;1447960506.21;(0.31539967060089114, 0.2501943800184462);26.9229412079;1.0;4;0;0;0;0;();(-2000.0, -2000.0);
08:15:08:411;08:15:08:411;0;15;-1.5;1;0;0;0;0;1;1;1;1;08:15:08:408;1447960506.28;(0.31533830165863036, 0.25060034857855906);26.9373035431;1.0;4;0;0;0;0;();(-2000.0, -2000.0);
08:15:08:444;08:15:08:444;0;0;-1.5;1;0;0;0;0;1;1;1;1;08:15:08:408;1447960506.28;(0.31533830165863036, 0.25060034857855906);26.9373035431;1.0;4;0;0;0;0;();(-2000.0, -2000.0);
08:15:08:461;08:15:08:461;0;4;-1.5;1;0;0;0;0;1;1;1;1;08:15:08:408;1447960506.28;(0.31533830165863036, 0.25060034857855906);26.9373035431;1.0;4;0;0;0;0;();(-2000.0, -2000.0);
08:15:08:478;08:15:08:477;0;15;-1.5;1;0;0;0;0;1;1;1;1;08:15:08:476;1447960506.34;(0.31541311740875244, 0.25054126315646696);26.7073307037;1.0;4;0;0;0;0;();(-2000.0, -2000.0);
08:15:08:494;08:15:08:494;0;5;-1.5;1;0;0;0;0;1;1;1;1;08:15:08:476;1447960506.34;(0.31541311740875244, 0.25054126315646696);26.7073307037;1.0;4;0;0;0;0;();(-2000.0, -2000.0);
08:15:08:527;08:15:08:527;0;4;-1.5;1;0;0;0;0;1;1;1;1;08:15:08:476;1447960506.34;(0.31541311740875244, 0.25054126315646696);26.7073307037;1.0;4;0;0;0;0;();(-2000.0, -2000.0);
08:15:08:545;08:15:08:545;0;10;-1.5;1;0;0;0;0;1;1;1;1;08:15:08:540;1447960506.41;(0.31547329425811765, 0.2502635531955295);26.3826560974;1.0;4;0;0;0;0;();(-2000.0, -2000.0);
08:15:08:561;08:15:08:561;0;5;-1.5;1;0;0;0;0;1;1;1;1;08:15:08:540;1447960506.41;(0.31547329425811765, 0.2502635531955295);26.3826560974;1.0;4;0;0;0;0;();(-2000.0, -2000.0);
08:15:08:578;08:15:08:578;0;15;-1.5;1;0;0;0;0;1;1;1;1;08:15:08:540;1447960506.41;(0.31547329425811765, 0.2502635531955295);26.3826560974;1.0;4;0;0;0;0;();(-2000.0, -2000.0);
08:15:08:595;08:15:08:595;0;4;-1.5;1;0;0;0;0;1;1;1;1;08:15:08:540;1447960506.41;(0.31547329425811765, 0.2502635531955295);26.3826560974;1.0;4;0;0;0;0;();(-2000.0, -2000.0);
08:15:08:611;08:15:08:611;0;10;-1.5;1;0;0;0;0;1;1;1;1;08:15:08:609;1447960506.48;(0.31539909839630126, 0.250545162624783);26.538734436;1.0;4;0;0;0;0;();(-2000.0, -2000.0);
08:15:08:644;08:15:08:644;0;8;-1.5;1;0;0;0;0;1;1;1;1;08:15:08:609;1447960506.48;(0.31539909839630126, 0.250545162624783);26.538734436;1.0;4;0;0;0;0;();(-2000.0, -2000.0);
08:15:08:661;08:15:08:661;0;5;-1.5;1;0;0;0;0;1;1;1;1;08:15:08:609;1447960506.48;(0.31539909839630126, 0.250545162624783);26.538734436;1.0;4;0;0;0;0;();(-2000.0, -2000.0);
08:15:08:677;08:15:08:677;0;10;-1.5;1;0;0;0;0;1;1;1;1;08:15:08:676;1447960506.54;(0.31555678844451907, 0.2508416069878472);26.4740276337;1.0;4;0;0;0;0;();(-2000.0, -2000.0);
08:15:08:694;08:15:08:694;0;0;-1.5;1;0;0;0;0;1;1;1;1;08:15:08:676;1447960506.54;(0.31555678844451907, 0.2508416069878472);26.4740276337;1.0;4;0;0;0;0;();(-2000.0, -2000.0);
08:15:08:727;08:15:08:727;0;5;-1.5;1;0;0;0;0;1;1;1;1;08:15:08:676;1447960506.54;(0.31555678844451907, 0.2508416069878472);26.4740276337;1.0;4;0;0;0;0;();(-2000.0, -2000.0);
08:15:08:746;08:15:08:745;0;14;-1.5;1;0;0;0;0;1;1;1;1;08:15:08:740;1447960506.61;(0.31556220054626466, 0.2504016452365452);26.3774280548;1.0;4;0;0;0;0;();(-2000.0, -2000.0);
08:15:08:762;08:15:08:762;0;15;-1.5;1;0;0;0;0;1;1;1;1;08:15:08:740;1447960506.61;(0.31556220054626466, 0.2504016452365452);26.3774280548;1.0;4;0;0;0;0;();(-2000.0, -2000.0);
08:15:08:779;08:15:08:779;0;5;-1.5;1;0;0;0;0;1;1;1;1;08:15:08:740;1447960506.61;(0.31556220054626466, 0.2504016452365452);26.3774280548;1.0;4;0;0;0;0;();(-2000.0, -2000.0);
08:15:08:795;08:15:08:795;0;0;-1.5;1;0;0;0;0;1;1;1;1;08:15:08:740;1447960506.61;(0.31556220054626466, 0.2504016452365452);26.3774280548;1.0;4;0;0;0;0;();(-2000.0, -2000.0);
08:15:08:812;08:15:08:812;0;10;-1.5;1;0;0;0;0;1;1;1;1;08:15:08:808;1447960506.68;(0.3153956651687622, 0.2510402255588108);26.9885101318;1.0;4;0;0;0;0;();(-2000.0, -2000.0);
08:15:08:845;08:15:08:845;0;10;-1.5;1;0;0;0;0;1;1;1;1;08:15:08:808;1447960506.68;(0.3153956651687622, 0.2510402255588108);26.9885101318;1.0;4;0;0;0;0;();(-2000.0, -2000.0);
08:15:08:862;08:15:08:862;0;15;-1.5;1;0;0;0;0;1;1;1;1;08:15:08:808;1447960506.68;(0.3153956651687622, 0.2510402255588108);26.9885101318;1.0;4;0;0;0;0;();(-2000.0, -2000.0);
08:15:08:878;08:15:08:878;0;10;-1.5;1;0;0;0;0;1;1;1;1;08:15:08:872;1447960506.74;(0.3155834197998047, 0.251340569390191);26.3069591522;1.0;4;0;0;0;0;();(-2000.0, -2000.0);
08:15:08:895;08:15:08:895;0;15;-1.5;1;0;0;0;0;1;1;1;1;08:15:08:872;1447960506.74;(0.3155834197998047, 0.251340569390191);26.3069591522;1.0;4;0;0;0;0;();(-2000.0, -2000.0);
08:15:08:912;08:15:08:912;0;4;-1.5;1;0;0;0;0;1;1;1;1;08:15:08:872;1447960506.74;(0.3155834197998047, 0.251340569390191);26.3069591522;1.0;4;0;0;0;0;();(-2000.0, -2000.0);
08:15:08:962;08:15:08:962;0;10;-1.5;1;0;0;0;0;1;1;1;1;08:15:08:940;1447960506.81;(0.3156870126724243, 0.25093019273546);26.2502193451;1.0;4;0;0;0;0;();(-2000.0, -2000.0);
08:15:08:965;08:15:08:965;0;10;-1.5;1;0;0;0;0;1;1;1;1;08:15:08:940;1447960506.81;(0.3156870126724243, 0.25093019273546);26.2502193451;1.0;4;0;0;0;0;();(-2000.0, -2000.0);
08:15:08:978;08:15:08:978;0;5;-1.5;1;0;0;0;0;1;1;1;1;08:15:08:940;1447960506.81;(0.3156870126724243, 0.25093019273546);26.2502193451;1.0;4;0;0;0;0;();(-2000.0, -2000.0);
08:15:08:995;08:15:08:995;0;10;-1.5;1;0;0;0;0;1;1;1;1;08:15:08:940;1447960506.81;(0.3156870126724243, 0.25093019273546);26.2502193451;1.0;4;0;0;0;0;();(-2000.0, -2000.0);
08:15:09:022;08:15:09:012;0;4;-1.5;1;0;0;0;0;1;1;1;1;08:15:09:008;1447960506.88;(0.31546797752380373, 0.2508327060275608);26.4408073425;1.0;4;0;0;0;0;();(-2000.0, -2000.0);
08:15:09:045;08:15:09:045;0;5;-1.5;1;0;0;0;0;1;1;1;1;08:15:09:008;1447960506.88;(0.31546797752380373, 0.2508327060275608);26.4408073425;1.0;4;0;0;0;0;();(-2000.0, -2000.0);
08:15:09:062;08:15:09:061;0;10;-1.5;1;0;0;0;0;1;1;1;1;08:15:09:008;1447960506.88;(0.31546797752380373, 0.2508327060275608);26.4408073425;1.0;4;0;0;0;0;();(-2000.0, -2000.0);
08:15:09:078;08:15:09:078;0;4;-1.5;1;0;0;0;0;1;1;1;1;08:15:09:073;1447960506.94;(0.3156301259994507, 0.2506363762749566);27.0444221497;1.0;4;0;0;0;0;();(-2000.0, -2000.0);
08:15:09:095;08:15:09:095;0;10;-1.5;1;0;0;0;0;1;1;1;1;08:15:09:073;1447960506.94;(0.3156301259994507, 0.2506363762749566);27.0444221497;1.0;4;0;0;0;0;();(-2000.0, -2000.0);
08:15:09:111;08:15:09:111;0;5;-1.5;1;0;0;0;0;1;1;1;1;08:15:09:073;1447960506.94;(0.3156301259994507, 0.2506363762749566);27.0444221497;1.0;4;0;0;0;0;();(-2000.0, -2000.0);
08:15:09:144;08:15:09:144;0;5;-1.5;1;0;0;0;0;1;1;1;1;08:15:09:140;1447960507.01;(0.3155452013015747, 0.25106650458441837);26.493265152;1.0;4;0;0;0;0;();(-2000.0, -2000.0);
08:15:09:164;08:15:09:164;0;4;-1.5;1;0;0;0;0;1;1;1;1;08:15:09:140;1447960507.01;(0.3155452013015747, 0.25106650458441837);26.493265152;1.0;4;0;0;0;0;();(-2000.0, -2000.0);
08:15:09:181;08:15:09:181;0;0;-1.5;1;0;0;0;0;1;1;1;1;08:15:09:140;1447960507.01;(0.3155452013015747, 0.25106650458441837);26.493265152;1.0;4;0;0;0;0;();(-2000.0, -2000.0);
08:15:09:198;08:15:09:198;0;10;-1.5;1;0;0;0;0;1;1;1;1;08:15:09:140;1447960507.01;(0.3155452013015747, 0.25106650458441837);26.493265152;1.0;4;0;0;0;0;();(-2000.0, -2000.0);
08:15:09:214;08:15:09:214;0;10;-1.5;1;0;0;0;0;1;1;1;1;08:15:09:140;1447960507.01;(0.3155452013015747, 0.25106650458441837);26.493265152;1.0;4;0;0;0;0;();(-2000.0, -2000.0);
08:15:09:231;08:15:09:231;0;4;-1.5;1;0;0;0;0;1;1;1;1;08:15:09:140;1447960507.01;(0.3155452013015747, 0.25106650458441837);26.493265152;1.0;4;0;0;0;0;();(-2000.0, -2000.0);
08:15:09:264;08:15:09:264;0;10;-1.5;1;0;0;0;0;1;1;1;1;08:15:09:140;1447960507.01;(0.3155452013015747, 0.25106650458441837);26.493265152;1.0;4;0;0;0;0;();(-2000.0, -2000.0);
08:15:09:281;08:15:09:281;0;10;-1.5;1;0;0;0;0;1;1;1;1;08:15:09:273;1447960507.14;(0.3153707504272461, 0.25086856418185766);26.4306850433;1.0;4;0;0;0;0;();(-2000.0, -2000.0);
08:15:09:297;08:15:09:297;0;5;-1.5;1;0;0;0;0;1;1;1;1;08:15:09:273;1447960507.14;(0.3153707504272461, 0.25086856418185766);26.4306850433;1.0;4;0;0;0;0;();(-2000.0, -2000.0);
08:15:09:314;08:15:09:314;0;10;-1.5;1;0;0;0;0;1;1;1;1;08:15:09:273;1447960507.14;(0.3153707504272461, 0.25086856418185766);26.4306850433;1.0;4;0;0;0;0;();(-2000.0, -2000.0);
08:15:09:347;08:15:09:347;0;0;-1.5;1;0;0;0;0;1;1;1;1;08:15:09:340;1447960507.21;(0.31557469367980956, 0.25069173177083337);26.7845973969;1.0;4;0;0;0;0;();(-2000.0, -2000.0);
08:15:09:364;08:15:09:364;0;5;-1.5;1;0;0;0;0;1;1;1;1;08:15:09:340;1447960507.21;(0.31557469367980956, 0.25069173177083337);26.7845973969;1.0;4;0;0;0;0;();(-2000.0, -2000.0);
08:15:09:383;08:15:09:383;0;10;-1.5;1;0;0;0;0;1;1;1;1;08:15:09:340;1447960507.21;(0.31557469367980956, 0.25069173177083337);26.7845973969;1.0;4;0;0;0;0;();(-2000.0, -2000.0);
08:15:09:398;08:15:09:398;0;15;-1.5;1;0;0;0;0;1;1;1;1;08:15:09:340;1447960507.21;(0.31557469367980956, 0.25069173177083337);26.7845973969;1.0;4;0;0;0;0;();(-2000.0, -2000.0);
08:15:09:415;08:15:09:415;0;10;-1.5;1;0;0;0;0;1;1;1;1;08:15:09:404;1447960507.28;(0.3158771276473999, 0.2510612487792969);26.9681987762;1.0;4;0;0;0;0;();(-2000.0, -2000.0);
08:15:09:431;08:15:09:431;0;5;-1.5;1;0;0;0;0;1;1;1;1;08:15:09:404;1447960507.28;(0.3158771276473999, 0.2510612487792969);26.9681987762;1.0;4;0;0;0;0;();(-2000.0, -2000.0);
08:15:09:465;08:15:09:464;0;15;-1.5;1;0;0;0;0;1;1;1;1;08:15:09:404;1447960507.28;(0.3158771276473999, 0.2510612487792969);26.9681987762;1.0;4;0;0;0;0;();(-2000.0, -2000.0);
08:15:09:481;08:15:09:481;0;4;-1.5;1;0;0;0;0;1;1;1;1;08:15:09:472;1447960507.34;(0.315435791015625, 0.2505801730685764);26.78150177;1.0;4;0;0;0;0;();(-2000.0, -2000.0);
08:15:09:498;08:15:09:498;0;0;-1.5;1;0;0;0;0;1;1;1;1;08:15:09:472;1447960507.34;(0.315435791015625, 0.2505801730685764);26.78150177;1.0;4;0;0;0;0;();(-2000.0, -2000.0);
08:15:09:514;08:15:09:514;0;10;-1.5;1;0;0;0;0;1;1;1;1;08:15:09:472;1447960507.34;(0.315435791015625, 0.2505801730685764);26.78150177;1.0;4;0;0;0;0;();(-2000.0, -2000.0);
08:15:09:531;08:15:09:531;0;15;-1.5;1;0;0;0;0;1;1;1;1;08:15:09:472;1447960507.34;(0.315435791015625, 0.2505801730685764);26.78150177;1.0;4;0;0;0;0;();(-2000.0, -2000.0);
08:15:09:565;08:15:09:565;0;15;-1.5;1;0;0;0;0;1;1;1;1;08:15:09:536;1447960507.41;(0.3153543949127197, 0.25061840481228304);26.3682765961;1.0;4;0;0;0;0;();(-2000.0, -2000.0);
08:15:09:584;08:15:09:584;0;4;-1.5;1;0;0;0;0;1;1;1;1;08:15:09:536;1447960507.41;(0.3153543949127197, 0.25061840481228304);26.3682765961;1.0;4;0;0;0;0;();(-2000.0, -2000.0);
08:15:09:601;08:15:09:601;0;10;-1.5;1;0;0;0;0;1;1;1;1;08:15:09:536;1447960507.41;(0.3153543949127197, 0.25061840481228304);26.3682765961;1.0;4;0;0;0;0;();(-2000.0, -2000.0);
08:15:09:617;08:15:09:617;0;5;-1.5;1;0;0;0;0;1;1;1;1;08:15:09:536;1447960507.41;(0.3153543949127197, 0.25061840481228304);26.3682765961;1.0;4;0;0;0;0;();(-2000.0, -2000.0);
08:15:09:634;08:15:09:634;0;15;-1.5;1;0;0;0;0;1;1;1;1;08:15:09:536;1447960507.41;(0.3153543949127197, 0.25061840481228304);26.3682765961;1.0;4;0;0;0;0;();(-2000.0, -2000.0);
08:15:09:667;08:15:09:667;0;10;-1.5;1;0;0;0;0;1;1;1;1;08:15:09:536;1447960507.41;(0.3153543949127197, 0.25061840481228304);26.3682765961;1.0;4;0;0;0;0;();(-2000.0, -2000.0);
08:15:09:683;08:15:09:683;0;5;-1.5;1;0;0;0;0;1;1;1;1;08:15:09:673;1447960507.54;(0.31548380851745605, 0.25055906507703996);26.1959533691;1.0;4;0;0;0;0;();(-2000.0, -2000.0);
08:15:09:700;08:15:09:700;0;10;-1.5;1;0;0;0;0;1;1;1;1;08:15:09:673;1447960507.54;(0.31548380851745605, 0.25055906507703996);26.1959533691;1.0;4;0;0;0;0;();(-2000.0, -2000.0);
08:15:09:717;08:15:09:717;0;15;-1.5;1;0;0;0;0;1;1;1;1;08:15:09:673;1447960507.54;(0.31548380851745605, 0.25055906507703996);26.1959533691;1.0;4;0;0;0;0;();(-2000.0, -2000.0);
08:15:09:733;08:15:09:733;0;10;-1.5;1;0;0;0;0;1;1;1;1;08:15:09:673;1447960507.54;(0.31548380851745605, 0.25055906507703996);26.1959533691;1.0;4;0;0;0;0;();(-2000.0, -2000.0);
08:15:09:770;08:15:09:769;0;10;-1.5;1;0;0;0;0;1;1;1;1;08:15:09:736;1447960507.61;(0.31578240394592283, 0.2506451924641927);26.5550918579;1.0;4;0;0;0;0;();(-2000.0, -2000.0);
08:15:09:786;08:15:09:786;0;1;-1.5;1;0;0;0;0;1;1;1;1;08:15:09:736;1447960507.61;(0.31578240394592283, 0.2506451924641927);26.5550918579;1.0;4;0;0;0;0;();(-2000.0, -2000.0);
08:15:09:803;08:15:09:803;0;4;-1.5;1;0;0;0;0;1;1;1;1;08:15:09:736;1447960507.61;(0.31578240394592283, 0.2506451924641927);26.5550918579;1.0;4;0;0;0;0;();(-2000.0, -2000.0);
08:15:09:819;08:15:09:819;0;0;-1.5;1;0;0;0;0;1;1;1;1;08:15:09:805;1447960507.68;(0.31545817852020264, 0.2508371988932292);26.3509922028;1.0;4;0;0;0;0;();(-2000.0, -2000.0);
08:15:09:836;08:15:09:836;0;10;-1.5;1;0;0;0;0;1;1;1;1;08:15:09:805;1447960507.68;(0.31545817852020264, 0.2508371988932292);26.3509922028;1.0;4;0;0;0;0;();(-2000.0, -2000.0);
08:15:09:852;08:15:09:852;0;15;-1.5;1;0;0;0;0;1;1;1;1;08:15:09:805;1447960507.68;(0.31545817852020264, 0.2508371988932292);26.3509922028;1.0;4;0;0;0;0;();(-2000.0, -2000.0);
08:15:09:886;08:15:09:886;0;15;-1.5;1;0;0;0;0;1;1;1;1;08:15:09:869;1447960507.74;(0.3153937101364136, 0.25116526285807295);26.1448993683;1.0;4;0;0;0;0;();(-2000.0, -2000.0);
08:15:09:902;08:15:09:902;0;10;-1.5;1;0;0;0;0;1;1;1;1;08:15:09:869;1447960507.74;(0.3153937101364136, 0.25116526285807295);26.1448993683;1.0;4;0;0;0;0;();(-2000.0, -2000.0);
08:15:09:919;08:15:09:919;0;15;-1.5;1;0;0;0;0;1;1;1;1;08:15:09:869;1447960507.74;(0.3153937101364136, 0.25116526285807295);26.1448993683;1.0;4;0;0;0;0;();(-2000.0, -2000.0);
08:15:09:935;08:15:09:935;0;5;-1.5;1;0;0;0;0;1;1;1;1;08:15:09:869;1447960507.74;(0.3153937101364136, 0.25116526285807295);26.1448993683;1.0;4;0;0;0;0;();(-2000.0, -2000.0);
08:15:09:952;08:15:09:952;0;15;-1.5;1;0;0;0;0;1;1;1;1;08:15:09:937;1447960507.81;(0.315343451499939, 0.25100199381510413);26.5210170746;1.0;4;0;0;0;0;();(-2000.0, -2000.0);
08:15:09:992;08:15:09:992;0;10;-1.5;1;0;0;0;0;1;1;1;1;08:15:09:937;1447960507.81;(0.315343451499939, 0.25100199381510413);26.5210170746;1.0;4;0;0;0;0;();(-2000.0, -2000.0);
08:15:09:994;08:15:09:994;0;10;-1.5;1;0;0;0;0;1;1;1;1;08:15:09:937;1447960507.81;(0.315343451499939, 0.25100199381510413);26.5210170746;1.0;4;0;0;0;0;();(-2000.0, -2000.0);
08:15:10:025;08:15:10:025;0;10;-1.5;1;0;0;0;0;1;1;1;1;08:15:10:004;1447960507.88;(0.3156919002532959, 0.2502142164442275);26.3619117737;1.0;4;0;0;0;0;();(-2000.0, -2000.0);
08:15:10:042;08:15:10:042;0;6;-1.5;1;0;0;0;0;1;1;1;1;08:15:10:004;1447960507.88;(0.3156919002532959, 0.2502142164442275);26.3619117737;1.0;4;0;0;0;0;();(-2000.0, -2000.0);
08:15:10:058;08:15:10:058;0;10;-1.5;1;0;0;0;0;1;1;1;1;08:15:10:004;1447960507.88;(0.3156919002532959, 0.2502142164442275);26.3619117737;1.0;4;0;0;0;0;();(-2000.0, -2000.0);
08:15:10:075;08:15:10:075;0;0;-1.5;1;0;0;0;0;1;1;1;1;08:15:10:068;1447960507.94;(0.3155741453170776, 0.25049167209201384);26.6411418915;1.0;4;0;0;0;0;();(-2000.0, -2000.0);
08:15:10:091;08:15:10:091;0;10;-1.5;1;0;0;0;0;1;1;1;1;08:15:10:068;1447960507.94;(0.3155741453170776, 0.25049167209201384);26.6411418915;1.0;4;0;0;0;0;();(-2000.0, -2000.0);
08:15:10:124;08:15:10:124;0;3;-1.5;1;0;0;0;0;1;1;1;1;08:15:10:068;1447960507.94;(0.3155741453170776, 0.25049167209201384);26.6411418915;1.0;4;0;0;0;0;();(-2000.0, -2000.0);
08:15:10:141;08:15:10:141;0;0;-1.5;1;0;0;0;0;1;1;1;1;08:15:10:136;1447960508.01;(0.3151113748550415, 0.25053770277235243);26.0748195648;1.0;4;0;0;0;0;();(-2000.0, -2000.0);
08:15:10:157;08:15:10:157;0;10;-1.5;1;0;0;0;0;1;1;1;1;08:15:10:136;1447960508.01;(0.3151113748550415, 0.25053770277235243);26.0748195648;1.0;4;0;0;0;0;();(-2000.0, -2000.0);
08:15:10:174;08:15:10:174;0;15;-1.5;1;0;0;0;0;1;1;1;1;08:15:10:136;1447960508.01;(0.3151113748550415, 0.25053770277235243);26.0748195648;1.0;4;0;0;0;0;();(-2000.0, -2000.0);
08:15:10:198;08:15:10:198;0;4;-1.5;1;0;0;0;0;1;1;1;1;08:15:10:136;1447960508.01;(0.3151113748550415, 0.25053770277235243);26.0748195648;1.0;4;0;0;0;0;();(-2000.0, -2000.0);
08:15:10:216;08:15:10:215;0;10;-1.5;1;0;0;0;0;1;1;1;1;08:15:10:201;1447960508.08;(0.3153450727462769, 0.25103022257486984);26.1824207306;1.0;4;0;0;0;0;();(-2000.0, -2000.0);
08:15:10:232;08:15:10:232;0;0;-1.5;1;0;0;0;0;1;1;1;1;08:15:10:201;1447960508.08;(0.3153450727462769, 0.25103022257486984);26.1824207306;1.0;4;0;0;0;0;();(-2000.0, -2000.0);
08:15:10:265;08:15:10:265;0;15;-1.5;1;0;0;0;0;1;1;1;1;08:15:10:201;1447960508.08;(0.3153450727462769, 0.25103022257486984);26.1824207306;1.0;4;0;0;0;0;();(-2000.0, -2000.0);
08:15:10:282;08:15:10:282;0;10;-1.5;1;0;0;0;0;1;1;1;1;08:15:10:268;1447960508.14;(0.31563894748687743, 0.250660875108507);26.5044593811;1.0;4;0;0;0;0;();(-2000.0, -2000.0);
08:15:10:298;08:15:10:298;0;4;-1.5;1;0;0;0;0;1;1;1;1;08:15:10:268;1447960508.14;(0.31563894748687743, 0.250660875108507);26.5044593811;1.0;4;0;0;0;0;();(-2000.0, -2000.0);
08:15:10:315;08:15:10:315;0;5;-1.5;1;0;0;0;0;1;1;1;1;08:15:10:268;1447960508.14;(0.31563894748687743, 0.250660875108507);26.5044593811;1.0;4;0;0;0;0;();(-2000.0, -2000.0);
08:15:10:331;08:15:10:331;0;15;-1.5;1;0;0;0;0;1;1;1;1;08:15:10:268;1447960508.14;(0.31563894748687743, 0.250660875108507);26.5044593811;1.0;4;0;0;0;0;();(-2000.0, -2000.0);
08:15:10:365;08:15:10:365;0;15;-1.5;1;0;0;0;0;1;1;1;1;08:15:10:337;1447960508.21;(0.3156397581100464, 0.25023422241210935);26.3856582642;1.0;4;0;0;0;0;();(-2000.0, -2000.0);
08:15:10:381;08:15:10:381;0;5;-1.5;1;0;0;0;0;1;1;1;1;08:15:10:337;1447960508.21;(0.3156397581100464, 0.25023422241210935);26.3856582642;1.0;4;0;0;0;0;();(-2000.0, -2000.0);
08:15:10:404;08:15:10:403;0;10;-1.5;1;0;0;0;0;1;1;1;1;08:15:10:400;1447960508.28;(0.3152970314025879, 0.250317637125651);26.7061958313;1.0;4;0;0;0;0;();(-2000.0, -2000.0);
08:15:10:421;08:15:10:421;0;5;-1.5;1;0;0;0;0;1;1;1;1;08:15:10:400;1447960508.28;(0.3152970314025879, 0.250317637125651);26.7061958313;1.0;4;0;0;0;0;();(-2000.0, -2000.0);
08:15:10:438;08:15:10:438;0;10;-1.5;1;0;0;0;0;1;1;1;1;08:15:10:400;1447960508.28;(0.3152970314025879, 0.250317637125651);26.7061958313;1.0;4;0;0;0;0;();(-2000.0, -2000.0);
08:15:10:455;08:15:10:455;0;14;-1.5;1;0;0;0;0;1;1;1;1;08:15:10:400;1447960508.28;(0.3152970314025879, 0.250317637125651);26.7061958313;1.0;4;0;0;0;0;();(-2000.0, -2000.0);
08:15:10:472;08:15:10:471;0;10;-1.5;1;0;0;0;0;1;1;1;1;08:15:10:469;1447960508.34;(0.3156397581100464, 0.25039155748155384);26.6515789032;1.0;4;0;0;0;0;();(-2000.0, -2000.0);
08:15:10:505;08:15:10:505;0;4;-1.5;1;0;0;0;0;1;1;1;1;08:15:10:469;1447960508.34;(0.3156397581100464, 0.25039155748155384);26.6515789032;1.0;4;0;0;0;0;();(-2000.0, -2000.0);
08:15:10:521;08:15:10:521;0;15;-1.5;1;0;0;0;0;1;1;1;1;08:15:10:469;1447960508.34;(0.3156397581100464, 0.25039155748155384);26.6515789032;1.0;4;0;0;0;0;();(-2000.0, -2000.0);
08:15:10:538;08:15:10:538;0;10;-1.5;1;0;0;0;0;1;1;1;1;08:15:10:532;1447960508.41;(0.31540062427520754, 0.25104480319552946);26.5590114594;1.0;4;0;0;0;0;();(-2000.0, -2000.0);
08:15:10:554;08:15:10:554;0;0;-1.5;1;0;0;0;0;1;1;1;1;08:15:10:532;1447960508.41;(0.31540062427520754, 0.25104480319552946);26.5590114594;1.0;4;0;0;0;0;();(-2000.0, -2000.0);
08:15:10:571;08:15:10:571;0;10;-1.5;1;0;0;0;0;1;1;1;1;08:15:10:532;1447960508.41;(0.31540062427520754, 0.25104480319552946);26.5590114594;1.0;4;0;0;0;0;();(-2000.0, -2000.0);
08:15:10:610;08:15:10:610;0;4;-1.5;1;0;0;0;0;1;1;1;1;08:15:10:601;1447960508.48;(0.31565136909484864, 0.2505683051215277);26.2270317078;1.0;4;0;0;0;0;();(-2000.0, -2000.0);
08:15:10:629;08:15:10:628;0;10;-1.5;1;0;0;0;0;1;1;1;1;08:15:10:601;1447960508.48;(0.31565136909484864, 0.2505683051215277);26.2270317078;1.0;4;0;0;0;0;();(-2000.0, -2000.0);
08:15:10:645;08:15:10:645;0;5;-1.5;1;0;0;0;0;1;1;1;1;08:15:10:601;1447960508.48;(0.31565136909484864, 0.2505683051215277);26.2270317078;1.0;4;0;0;0;0;();(-2000.0, -2000.0);
08:15:10:662;08:15:10:662;0;10;-1.5;1;0;0;0;0;1;1;1;1;08:15:10:601;1447960508.48;(0.31565136909484864, 0.2505683051215277);26.2270317078;1.0;4;0;0;0;0;();(-2000.0, -2000.0);
08:15:10:679;08:15:10:679;0;15;-1.5;1;0;0;0;0;1;1;1;1;08:15:10:669;1447960508.54;(0.3151956796646118, 0.25066841973198783);26.2824573517;1.0;4;0;0;0;0;();(-2000.0, -2000.0);
08:15:10:695;08:15:10:695;0;10;-1.5;1;0;0;0;0;1;1;1;1;08:15:10:669;1447960508.54;(0.3151956796646118, 0.25066841973198783);26.2824573517;1.0;4;0;0;0;0;();(-2000.0, -2000.0);
08:15:10:711;08:15:10:711;0;0;-1.5;1;0;0;0;0;1;1;1;1;08:15:10:669;1447960508.54;(0.3151956796646118, 0.25066841973198783);26.2824573517;1.0;4;0;0;0;0;();(-2000.0, -2000.0);
08:15:10:745;08:15:10:745;0;15;-1.5;1;0;0;0;0;1;1;1;1;08:15:10:733;1447960508.61;(0.31544764041900636, 0.2510158114963108);26.7473869324;1.0;4;0;0;0;0;();(-2000.0, -2000.0);
08:15:10:761;08:15:10:761;0;10;-1.5;1;0;0;0;0;1;1;1;1;08:15:10:733;1447960508.61;(0.31544764041900636, 0.2510158114963108);26.7473869324;1.0;4;0;0;0;0;();(-2000.0, -2000.0);
08:15:10:778;08:15:10:778;0;0;-1.5;1;0;0;0;0;1;1;1;1;08:15:10:733;1447960508.61;(0.31544764041900636, 0.2510158114963108);26.7473869324;1.0;4;0;0;0;0;();(-2000.0, -2000.0);
08:15:10:794;08:15:10:794;0;4;-1.5;1;0;0;0;0;1;1;1;1;08:15:10:733;1447960508.61;(0.31544764041900636, 0.2510158114963108);26.7473869324;1.0;4;0;0;0;0;();(-2000.0, -2000.0);
08:15:10:816;08:15:10:816;0;10;-1.5;1;0;0;0;0;1;1;1;1;08:15:10:801;1447960508.68;(0.31504454612731936, 0.25078167385525174);26.8080615997;1.0;4;0;0;0;0;();(-2000.0, -2000.0);
08:15:10:837;08:15:10:836;0;15;-1.5;1;0;0;0;0;1;1;1;1;08:15:10:801;1447960508.68;(0.31504454612731936, 0.25078167385525174);26.8080615997;1.0;4;0;0;0;0;();(-2000.0, -2000.0);
08:15:10:853;08:15:10:853;0;15;-1.5;1;0;0;0;0;1;1;1;1;08:15:10:801;1447960508.68;(0.31504454612731936, 0.25078167385525174);26.8080615997;1.0;4;0;0;0;0;();(-2000.0, -2000.0);
08:15:10:886;08:15:10:886;0;10;-1.5;1;0;0;0;0;1;1;1;1;08:15:10:864;1447960508.74;(0.3155853509902954, 0.250045182969835);26.0994377136;1.0;4;0;0;0;0;();(-2000.0, -2000.0);
08:15:10:903;08:15:10:903;0;15;-1.5;1;0;0;0;0;1;1;1;1;08:15:10:864;1447960508.74;(0.3155853509902954, 0.250045182969835);26.0994377136;1.0;4;0;0;0;0;();(-2000.0, -2000.0);
08:15:10:920;08:15:10:920;0;10;-1.5;1;0;0;0;0;1;1;1;1;08:15:10:864;1447960508.74;(0.3155853509902954, 0.250045182969835);26.0994377136;1.0;4;0;0;0;0;();(-2000.0, -2000.0);
08:15:10:936;08:15:10:936;0;0;-1.5;1;0;0;0;0;1;1;1;1;08:15:10:932;1447960508.81;(0.3158797979354858, 0.25026457044813366);26.4252185822;1.0;4;0;0;0;0;();(-2000.0, -2000.0);
08:15:10:952;08:15:10:952;0;10;-1.5;1;0;0;0;0;1;1;1;1;08:15:10:932;1447960508.81;(0.3158797979354858, 0.25026457044813366);26.4252185822;1.0;4;0;0;0;0;();(-2000.0, -2000.0);
08:15:10:986;08:15:10:986;0;10;-1.5;1;0;0;0;0;1;1;1;1;08:15:10:932;1447960508.81;(0.3158797979354858, 0.25026457044813366);26.4252185822;1.0;4;0;0;0;0;();(-2000.0, -2000.0);
08:15:11:002;08:15:11:002;0;14;-1.5;1;0;0;0;0;1;1;1;1;08:15:10:932;1447960508.81;(0.3158797979354858, 0.25026457044813366);26.4252185822;1.0;4;0;0;0;0;();(-2000.0, -2000.0);
08:15:11:028;08:15:11:027;0;15;-1.5;1;0;0;0;0;1;1;1;1;08:15:10:932;1447960508.81;(0.3158797979354858, 0.25026457044813366);26.4252185822;1.0;4;0;0;0;0;();(-2000.0, -2000.0);
08:15:11:044;08:15:11:044;0;10;-1.5;1;0;0;0;0;1;1;1;1;08:15:10:932;1447960508.81;(0.3158797979354858, 0.25026457044813366);26.4252185822;1.0;4;0;0;0;0;();(-2000.0, -2000.0);
08:15:11:062;08:15:11:062;0;5;-1.5;1;0;0;0;0;1;1;1;1;08:15:10:932;1447960508.81;(0.3158797979354858, 0.25026457044813366);26.4252185822;1.0;4;0;0;0;0;();(-2000.0, -2000.0);
08:15:11:079;08:15:11:079;0;10;-1.5;1;0;0;0;0;1;1;1;1;08:15:11:064;1447960508.94;(0.3155810832977295, 0.25113499959309893);26.2978096008;1.0;4;0;0;0;0;();(-2000.0, -2000.0);
08:15:11:095;08:15:11:095;0;5;-1.5;1;0;0;0;0;1;1;1;1;08:15:11:064;1447960508.94;(0.3155810832977295, 0.25113499959309893);26.2978096008;1.0;4;0;0;0;0;();(-2000.0, -2000.0);
08:15:11:112;08:15:11:112;0;10;-1.5;1;0;0;0;0;1;1;1;1;08:15:11:064;1447960508.94;(0.3155810832977295, 0.25113499959309893);26.2978096008;1.0;4;0;0;0;0;();(-2000.0, -2000.0);
08:15:11:145;08:15:11:145;0;10;-1.5;1;0;0;0;0;1;1;1;1;08:15:11:064;1447960508.94;(0.3155810832977295, 0.25113499959309893);26.2978096008;1.0;4;0;0;0;0;();(-2000.0, -2000.0);
08:15:11:161;08:15:11:161;0;15;-1.5;1;0;0;0;0;1;1;1;1;08:15:11:064;1447960508.94;(0.3155810832977295, 0.25113499959309893);26.2978096008;1.0;4;0;0;0;0;();(-2000.0, -2000.0);
08:15:11:178;08:15:11:178;0;4;-1.5;1;0;0;0;0;1;1;1;1;08:15:11:064;1447960508.94;(0.3155810832977295, 0.25113499959309893);26.2978096008;1.0;4;0;0;0;0;();(-2000.0, -2000.0);
08:15:11:195;08:15:11:195;0;0;-1.5;1;0;0;0;0;1;1;1;1;08:15:11:064;1447960508.94;(0.3155810832977295, 0.25113499959309893);26.2978096008;1.0;4;0;0;0;0;();(-2000.0, -2000.0);
08:15:11:212;08:15:11:211;0;10;-1.5;1;0;0;0;0;1;1;1;1;08:15:11:196;1447960509.01;(0.3153920412063599, 0.25077887641059027);26.6353664398;1.0;4;0;0;0;0;();(-2000.0, -2000.0);
08:15:11:236;08:15:11:236;0;10;-1.5;1;0;0;0;0;1;1;1;1;08:15:11:196;1447960509.01;(0.3153920412063599, 0.25077887641059027);26.6353664398;1.0;4;0;0;0;0;();(-2000.0, -2000.0);
08:15:11:254;08:15:11:254;0;4;-1.5;1;0;0;0;0;1;1;1;1;08:15:11:196;1447960509.01;(0.3153920412063599, 0.25077887641059027);26.6353664398;1.0;4;0;0;0;0;();(-2000.0, -2000.0);
08:15:11:271;08:15:11:271;0;10;-1.5;1;0;0;0;0;1;1;1;1;08:15:11:265;1447960509.08;(0.3156093120574951, 0.25074412027994797);26.6961212158;1.0;4;0;0;0;0;();(-2000.0, -2000.0);
08:15:11:304;08:15:11:304;0;10;-1.5;1;0;0;0;0;1;1;1;1;08:15:11:265;1447960509.08;(0.3156093120574951, 0.25074412027994797);26.6961212158;1.0;4;0;0;0;0;();(-2000.0, -2000.0);
08:15:11:321;08:15:11:321;0;15;-1.5;1;0;0;0;0;1;1;1;1;08:15:11:265;1447960509.08;(0.3156093120574951, 0.25074412027994797);26.6961212158;1.0;4;0;0;0;0;();(-2000.0, -2000.0);
08:15:11:337;08:15:11:337;0;10;-1.5;1;0;0;0;0;1;1;1;1;08:15:11:328;1447960509.14;(0.31569757461547854, 0.2505909389919705);26.3201007843;1.0;4;0;0;0;0;();(-2000.0, -2000.0);
08:15:11:354;08:15:11:354;0;0;-1.5;1;0;0;0;0;1;1;1;1;08:15:11:328;1447960509.14;(0.31569757461547854, 0.2505909389919705);26.3201007843;1.0;4;0;0;0;0;();(-2000.0, -2000.0);
08:15:11:387;08:15:11:387;0;4;-1.5;1;0;0;0;0;1;1;1;1;08:15:11:328;1447960509.14;(0.31569757461547854, 0.2505909389919705);26.3201007843;1.0;4;0;0;0;0;();(-2000.0, -2000.0);
08:15:11:404;08:15:11:404;0;4;-1.5;1;0;0;0;0;1;1;1;1;08:15:11:397;1447960509.21;(0.3154940128326416, 0.2506280687120226);26.555065155;1.0;4;0;0;0;0;();(-2000.0, -2000.0);
08:15:11:420;08:15:11:420;0;0;-1.5;1;0;0;0;0;1;1;1;1;08:15:11:397;1447960509.21;(0.3154940128326416, 0.2506280687120226);26.555065155;1.0;4;0;0;0;0;();(-2000.0, -2000.0);
08:15:11:439;08:15:11:439;0;5;-1.5;1;0;0;0;0;1;1;1;1;08:15:11:397;1447960509.21;(0.3154940128326416, 0.2506280687120226);26.555065155;1.0;4;0;0;0;0;();(-2000.0, -2000.0);
08:15:11:456;08:15:11:456;0;15;-1.5;1;0;0;0;0;1;1;1;1;08:15:11:397;1447960509.21;(0.3154940128326416, 0.2506280687120226);26.555065155;1.0;4;0;0;0;0;();(-2000.0, -2000.0);
08:15:11:473;08:15:11:473;0;4;-1.5;1;0;0;0;0;1;1;1;1;08:15:11:464;1447960509.34;(0.31530349254608153, 0.2505838182237413);26.7822093964;1.0;4;0;0;0;0;();(-2000.0, -2000.0);
08:15:11:506;08:15:11:506;0;5;-1.5;1;0;0;0;0;1;1;1;1;08:15:11:464;1447960509.34;(0.31530349254608153, 0.2505838182237413);26.7822093964;1.0;4;0;0;0;0;();(-2000.0, -2000.0);
08:15:11:522;08:15:11:522;0;10;-1.5;1;0;0;0;0;1;1;1;1;08:15:11:464;1447960509.34;(0.31530349254608153, 0.2505838182237413);26.7822093964;1.0;4;0;0;0;0;();(-2000.0, -2000.0);
08:15:11:539;08:15:11:539;0;15;-1.5;1;0;0;0;0;1;1;1;1;08:15:11:464;1447960509.34;(0.31530349254608153, 0.2505838182237413);26.7822093964;1.0;4;0;0;0;0;();(-2000.0, -2000.0);
08:15:11:555;08:15:11:555;0;10;-1.5;1;0;0;0;0;1;1;1;1;08:15:11:464;1447960509.34;(0.31530349254608153, 0.2505838182237413);26.7822093964;1.0;4;0;0;0;0;();(-2000.0, -2000.0);
08:15:11:572;08:15:11:572;0;8;-1.5;1;0;0;0;0;1;1;1;1;08:15:11:464;1447960509.34;(0.31530349254608153, 0.2505838182237413);26.7822093964;1.0;4;0;0;0;0;();(-2000.0, -2000.0);
08:15:11:605;08:15:11:605;0;5;-1.5;1;0;0;0;0;1;1;1;1;08:15:11:596;1447960509.41;(0.3154197931289673, 0.25056186252170143);26.1407814026;1.0;4;0;0;0;0;();(-2000.0, -2000.0);
08:15:11:622;08:15:11:622;0;10;-1.5;1;0;0;0;0;1;1;1;1;08:15:11:596;1447960509.41;(0.3154197931289673, 0.25056186252170143);26.1407814026;1.0;4;0;0;0;0;();(-2000.0, -2000.0);
08:15:11:640;08:15:11:640;0;15;-1.5;1;0;0;0;0;1;1;1;1;08:15:11:596;1447960509.41;(0.3154197931289673, 0.25056186252170143);26.1407814026;1.0;4;0;0;0;0;();(-2000.0, -2000.0);
08:15:11:657;08:15:11:657;0;4;-1.5;1;0;0;0;0;1;1;1;1;08:15:11:596;1447960509.41;(0.3154197931289673, 0.25056186252170143);26.1407814026;1.0;4;0;0;0;0;();(-2000.0, -2000.0);
08:15:11:675;08:15:11:675;0;0;-1.5;1;0;0;0;0;1;1;1;1;08:15:11:660;1447960509.48;(0.31540493965148925, 0.25070783827039933);26.5257301331;1.0;4;0;0;0;0;();(-2000.0, -2000.0);
08:15:11:691;08:15:11:691;0;10;-1.5;1;0;0;0;0;1;1;1;1;08:15:11:660;1447960509.48;(0.31540493965148925, 0.25070783827039933);26.5257301331;1.0;4;0;0;0;0;();(-2000.0, -2000.0);
08:15:11:724;08:15:11:724;0;4;-1.5;1;0;0;0;0;1;1;1;1;08:15:11:660;1447960509.48;(0.31540493965148925, 0.25070783827039933);26.5257301331;1.0;4;0;0;0;0;();(-2000.0, -2000.0);
08:15:11:741;08:15:11:741;0;0;-1.5;1;0;0;0;0;1;1;1;1;08:15:11:729;1447960509.54;(0.3155303955078125, 0.2508346557617187);26.7423667908;1.0;4;0;0;0;0;();(-2000.0, -2000.0);
08:15:11:758;08:15:11:758;0;5;-1.5;1;0;0;0;0;1;1;1;1;08:15:11:729;1447960509.54;(0.3155303955078125, 0.2508346557617187);26.7423667908;1.0;4;0;0;0;0;();(-2000.0, -2000.0);
08:15:11:774;08:15:11:774;0;10;-1.5;1;0;0;0;0;1;1;1;1;08:15:11:729;1447960509.54;(0.3155303955078125, 0.2508346557617187);26.7423667908;1.0;4;0;0;0;0;();(-2000.0, -2000.0);
08:15:11:807;08:15:11:807;0;15;-1.5;1;0;0;0;0;1;1;1;1;08:15:11:796;1447960509.61;(0.3154628038406372, 0.2505836486816406);26.3685359955;1.0;4;0;0;0;0;();(-2000.0, -2000.0);
08:15:11:824;08:15:11:824;0;5;-1.5;1;0;0;0;0;1;1;1;1;08:15:11:796;1447960509.61;(0.3154628038406372, 0.2505836486816406);26.3685359955;1.0;4;0;0;0;0;();(-2000.0, -2000.0);
08:15:11:840;08:15:11:840;0;10;-1.5;1;0;0;0;0;1;1;1;1;08:15:11:796;1447960509.61;(0.3154628038406372, 0.2505836486816406);26.3685359955;1.0;4;0;0;0;0;();(-2000.0, -2000.0);
08:15:11:861;08:15:11:861;0;15;-1.5;1;0;0;0;0;1;1;1;1;08:15:11:861;1447960509.68;(0.3153028726577759, 0.25067291259765623);26.8512840271;1.0;4;0;0;0;0;();(-2000.0, -2000.0);
08:15:11:878;08:15:11:877;0;10;-1.5;1;0;0;0;0;1;1;1;1;08:15:11:861;1447960509.68;(0.3153028726577759, 0.25067291259765623);26.8512840271;1.0;4;0;0;0;0;();(-2000.0, -2000.0);
08:15:11:894;08:15:11:894;0;15;-1.5;1;0;0;0;0;1;1;1;1;08:15:11:861;1447960509.68;(0.3153028726577759, 0.25067291259765623);26.8512840271;1.0;4;0;0;0;0;();(-2000.0, -2000.0);
08:15:11:927;08:15:11:927;0;15;-1.5;1;0;0;0;0;1;1;1;1;08:15:11:861;1447960509.68;(0.3153028726577759, 0.25067291259765623);26.8512840271;1.0;4;0;0;0;0;();(-2000.0, -2000.0);
08:15:11:944;08:15:11:944;0;10;-1.5;1;0;0;0;0;1;1;1;1;08:15:11:929;1447960509.74;(0.31552772521972655, 0.2507652282714844);26.3442668915;1.0;4;0;0;0;0;();(-2000.0, -2000.0);
08:15:11:960;08:15:11:960;0;4;-1.5;1;0;0;0;0;1;1;1;1;08:15:11:929;1447960509.74;(0.31552772521972655, 0.2507652282714844);26.3442668915;1.0;4;0;0;0;0;();(-2000.0, -2000.0);
08:15:11:977;08:15:11:977;0;10;-1.5;1;0;0;0;0;1;1;1;1;08:15:11:929;1447960509.74;(0.31552772521972655, 0.2507652282714844);26.3442668915;1.0;4;0;0;0;0;();(-2000.0, -2000.0);
08:15:11:993;08:15:11:993;0;0;-1.5;1;0;0;0;0;1;1;1;1;08:15:11:992;1447960509.81;(0.3154590129852295, 0.25061840481228304);27.1549167633;1.0;4;0;0;0;0;();(-2000.0, -2000.0);
08:15:12:026;08:15:12:026;0;15;-1.5;1;0;0;0;0;1;1;1;1;08:15:11:992;1447960509.81;(0.3154590129852295, 0.25061840481228304);27.1549167633;1.0;4;0;0;0;0;();(-2000.0, -2000.0);
08:15:12:043;08:15:12:043;0;4;-1.5;1;0;0;0;0;1;1;1;1;08:15:11:992;1447960509.81;(0.3154590129852295, 0.25061840481228304);27.1549167633;1.0;4;0;0;0;0;();(-2000.0, -2000.0);
08:15:12:062;08:15:12:062;0;0;-1.5;1;0;0;0;0;1;1;1;1;08:15:12:061;1447960509.88;(0.3157421350479126, 0.2508868747287326);26.468667984;1.0;4;0;0;0;0;();(-2000.0, -2000.0);
08:15:12:079;08:15:12:079;0;5;-1.5;1;0;0;0;0;1;1;1;1;08:15:12:061;1447960509.88;(0.3157421350479126, 0.2508868747287326);26.468667984;1.0;4;0;0;0;0;();(-2000.0, -2000.0);
08:15:12:096;08:15:12:095;0;10;-1.5;1;0;0;0;0;1;1;1;1;08:15:12:061;1447960509.88;(0.3157421350479126, 0.2508868747287326);26.468667984;1.0;4;0;0;0;0;();(-2000.0, -2000.0);
08:15:12:112;08:15:12:112;0;4;-1.5;1;0;0;0;0;1;1;1;1;08:15:12:061;1447960509.88;(0.3157421350479126, 0.2508868747287326);26.468667984;1.0;4;0;0;0;0;();(-2000.0, -2000.0);
08:15:12:145;08:15:12:145;0;4;-1.5;1;0;0;0;0;1;1;1;1;08:15:12:129;1447960509.94;(0.3153109312057495, 0.25080337524414065);26.6509399414;1.0;4;0;0;0;0;();(-2000.0, -2000.0);
08:15:12:162;08:15:12:162;0;10;-1.5;1;0;0;0;0;1;1;1;1;08:15:12:129;1447960509.94;(0.3153109312057495, 0.25080337524414065);26.6509399414;1.0;4;0;0;0;0;();(-2000.0, -2000.0);
08:15:12:178;08:15:12:178;0;15;-1.5;1;0;0;0;0;1;1;1;1;08:15:12:129;1447960509.94;(0.3153109312057495, 0.25080337524414065);26.6509399414;1.0;4;0;0;0;0;();(-2000.0, -2000.0);
08:15:12:195;08:15:12:195;0;10;-1.5;1;0;0;0;0;1;1;1;1;08:15:12:192;1447960510.01;(0.31539466381073, 0.25057635837131076);26.2880115509;1.0;4;0;0;0;0;();(-2000.0, -2000.0);
08:15:12:212;08:15:12:212;0;4;-1.5;1;0;0;0;0;1;1;1;1;08:15:12:192;1447960510.01;(0.31539466381073, 0.25057635837131076);26.2880115509;1.0;4;0;0;0;0;();(-2000.0, -2000.0);
08:15:12:245;08:15:12:245;0;15;-1.5;1;0;0;0;0;1;1;1;1;08:15:12:192;1447960510.01;(0.31539466381073, 0.25057635837131076);26.2880115509;1.0;4;0;0;0;0;();(-2000.0, -2000.0);
08:15:12:261;08:15:12:261;0;10;-1.5;1;0;0;0;0;1;1;1;1;08:15:12:260;1447960510.08;(0.3154216051101685, 0.25057245890299484);26.2928180695;1.0;4;0;0;0;0;();(-2000.0, -2000.0);
08:15:12:280;08:15:12:279;0;9;-1.5;1;0;0;0;0;1;1;1;1;08:15:12:260;1447960510.08;(0.3154216051101685, 0.25057245890299484);26.2928180695;1.0;4;0;0;0;0;();(-2000.0, -2000.0);
08:15:12:297;08:15:12:297;0;5;-1.5;1;0;0;0;0;1;1;1;1;08:15:12:260;1447960510.08;(0.3154216051101685, 0.25057245890299484);26.2928180695;1.0;4;0;0;0;0;();(-2000.0, -2000.0);
08:15:12:314;08:15:12:314;0;0;-1.5;1;0;0;0;0;1;1;1;1;08:15:12:260;1447960510.08;(0.3154216051101685, 0.25057245890299484);26.2928180695;1.0;4;0;0;0;0;();(-2000.0, -2000.0);
08:15:12:347;08:15:12:347;0;15;-1.5;1;0;0;0;0;1;1;1;1;08:15:12:324;1447960510.14;(0.31562707424163816, 0.25113499959309893);26.2180919647;1.0;4;0;0;0;0;();(-2000.0, -2000.0);
08:15:12:364;08:15:12:364;0;10;-1.5;1;0;0;0;0;1;1;1;1;08:15:12:324;1447960510.14;(0.31562707424163816, 0.25113499959309893);26.2180919647;1.0;4;0;0;0;0;();(-2000.0, -2000.0);
08:15:12:385;08:15:12:385;0;7;-1.5;1;0;0;0;0;1;1;1;1;08:15:12:324;1447960510.14;(0.31562707424163816, 0.25113499959309893);26.2180919647;1.0;6;0;0;0;0;();(-2000.0, -2000.0);
08:15:12:397;08:15:12:397;0;5;-1.5;1;0;0;0;0;1;1;1;1;08:15:12:393;1447960510.21;(0.3153077125549316, 0.2507039388020833);26.2380886078;1.0;6;0;0;0;0;();(-2000.0, -2000.0);
08:15:12:414;08:15:12:413;0;0;-1.5;1;0;0;0;0;1;1;1;1;08:15:12:393;1447960510.21;(0.3153077125549316, 0.2507039388020833);26.2380886078;1.0;6;0;0;0;0;();(-2000.0, -2000.0);
08:15:12:447;08:15:12:447;0;15;-1.5;1;0;0;0;0;1;1;1;1;08:15:12:393;1447960510.21;(0.3153077125549316, 0.2507039388020833);26.2380886078;1.0;6;0;0;0;0;();(-2000.0, -2000.0);
08:15:12:463;08:15:12:463;0;10;-1.5;1;0;0;0;0;1;1;1;1;08:15:12:462;1447960510.28;(0.3151902675628662, 0.2504181755913628);26.0905151367;1.0;6;0;0;0;0;();(-2000.0, -2000.0);
08:15:12:482;08:15:12:482;0;10;-1.5;1;0;0;0;0;1;1;1;1;08:15:12:462;1447960510.28;(0.3151902675628662, 0.2504181755913628);26.0905151367;1.0;6;0;0;0;0;();(-2000.0, -2000.0);
08:15:12:498;08:15:12:498;0;5;-1.5;1;0;0;0;0;1;1;1;1;08:15:12:462;1447960510.28;(0.3151902675628662, 0.2504181755913628);26.0905151367;1.0;6;0;0;0;0;();(-2000.0, -2000.0);
08:15:12:515;08:15:12:515;0;3;-1.5;1;0;0;0;0;1;1;1;1;08:15:12:462;1447960510.28;(0.3151902675628662, 0.2504181755913628);26.0905151367;1.0;6;0;0;0;0;();(-2000.0, -2000.0);
08:15:12:532;08:15:12:531;0;4;-1.5;1;0;0;0;0;1;1;1;1;08:15:12:524;1447960510.34;(0.3151879072189331, 0.2508626302083333);26.6978607178;1.0;6;0;0;0;0;();(-2000.0, -2000.0);
08:15:12:565;08:15:12:565;0;5;-1.5;1;0;0;0;0;1;1;1;1;08:15:12:524;1447960510.34;(0.3151879072189331, 0.2508626302083333);26.6978607178;1.0;6;0;0;0;0;();(-2000.0, -2000.0);
08:15:12:581;08:15:12:581;0;10;-1.5;1;0;0;0;0;1;1;1;1;08:15:12:524;1447960510.34;(0.3151879072189331, 0.2508626302083333);26.6978607178;1.0;6;0;0;0;0;();(-2000.0, -2000.0);
08:15:12:598;08:15:12:598;0;15;-1.5;1;0;0;0;0;1;1;1;1;08:15:12:593;1447960510.41;(0.31532213687896726, 0.2503992716471354);26.8508605957;1.0;6;0;0;0;0;();(-2000.0, -2000.0);
08:15:12:614;08:15:12:614;0;4;-1.5;1;0;0;0;0;1;1;1;1;08:15:12:593;1447960510.41;(0.31532213687896726, 0.2503992716471354);26.8508605957;1.0;6;0;0;0;0;();(-2000.0, -2000.0);
08:15:12:631;08:15:12:631;0;0;-1.5;1;0;0;0;0;1;1;1;1;08:15:12:593;1447960510.41;(0.31532213687896726, 0.2503992716471354);26.8508605957;1.0;6;0;0;0;0;();(-2000.0, -2000.0);
08:15:12:664;08:15:12:664;0;4;-1.5;1;0;0;0;0;1;1;1;1;08:15:12:656;1447960510.48;(0.31547319889068604, 0.25056754218207467);26.5579147339;1.0;6;0;0;0;0;();(-2000.0, -2000.0);
08:15:12:681;08:15:12:680;0;15;-1.5;1;0;0;0;0;1;1;1;1;08:15:12:656;1447960510.48;(0.31547319889068604, 0.25056754218207467);26.5579147339;1.0;6;0;0;0;0;();(-2000.0, -2000.0);
08:15:12:700;08:15:12:700;0;14;-1.5;1;0;0;0;0;1;1;1;1;08:15:12:656;1447960510.48;(0.31547319889068604, 0.25056754218207467);26.5579147339;1.0;6;0;0;0;0;();(-2000.0, -2000.0);
08:15:12:716;08:15:12:716;0;10;-1.5;1;0;0;0;0;1;1;1;1;08:15:12:656;1447960510.48;(0.31547319889068604, 0.25056754218207467);26.5579147339;1.0;6;0;0;0;0;();(-2000.0, -2000.0);
08:15:12:733;08:15:12:733;0;15;-1.5;1;0;0;0;0;1;1;1;1;08:15:12:725;1447960510.54;(0.3152430772781372, 0.25092790391710074);26.3594093323;1.0;6;0;0;0;0;();(-2000.0, -2000.0);
08:15:12:766;08:15:12:766;0;10;-1.5;1;0;0;0;0;1;1;1;1;08:15:12:725;1447960510.54;(0.3152430772781372, 0.25092790391710074);26.3594093323;1.0;6;0;0;0;0;();(-2000.0, -2000.0);
08:15:12:783;08:15:12:783;0;5;-1.5;1;0;0;0;0;1;1;1;1;08:15:12:725;1447960510.54;(0.3152430772781372, 0.25092790391710074);26.3594093323;1.0;6;0;0;0;0;();(-2000.0, -2000.0);
08:15:12:800;08:15:12:799;0;10;-1.5;1;0;0;0;0;1;1;1;1;08:15:12:792;1447960510.61;(0.3155388593673706, 0.25068757798936636);26.0987949371;1.0;6;0;0;0;0;();(-2000.0, -2000.0);
08:15:12:816;08:15:12:816;0;5;-1.5;1;0;0;0;0;1;1;1;1;08:15:12:792;1447960510.61;(0.3155388593673706, 0.25068757798936636);26.0987949371;1.0;6;0;0;0;0;();(-2000.0, -2000.0);
08:15:12:833;08:15:12:833;0;4;-1.5;1;0;0;0;0;1;1;1;1;08:15:12:792;1447960510.61;(0.3155388593673706, 0.25068757798936636);26.0987949371;1.0;6;0;0;0;0;();(-2000.0, -2000.0);
08:15:12:870;08:15:12:869;0;2;-1.5;1;0;0;0;0;1;1;1;1;08:15:12:856;1447960510.68;(0.3151843547821045, 0.25076141357421877);26.3311367035;1.0;6;0;0;0;0;();(-2000.0, -2000.0);
08:15:12:882;08:15:12:882;0;5;-1.5;1;0;0;0;0;1;1;1;1;08:15:12:856;1447960510.68;(0.3151843547821045, 0.25076141357421877);26.3311367035;1.0;6;0;0;0;0;();(-2000.0, -2000.0);
08:15:12:901;08:15:12:901;0;10;-1.5;1;0;0;0;0;1;1;1;1;08:15:12:856;1447960510.68;(0.3151843547821045, 0.25076141357421877);26.3311367035;1.0;6;0;0;0;0;();(-2000.0, -2000.0);
08:15:12:917;08:15:12:917;0;4;-1.5;1;0;0;0;0;1;1;1;1;08:15:12:856;1447960510.68;(0.3151843547821045, 0.25076141357421877);26.3311367035;1.0;6;0;0;0;0;();(-2000.0, -2000.0);
08:15:12:935;08:15:12:935;0;10;-1.5;1;0;0;0;0;1;1;1;1;08:15:12:924;1447960510.74;(0.3152961254119873, 0.2507957458496094);26.4814491272;1.0;6;0;0;0;0;();(-2000.0, -2000.0);
08:15:12:952;08:15:12:952;0;0;-1.5;1;0;0;0;0;1;1;1;1;08:15:12:924;1447960510.74;(0.3152961254119873, 0.2507957458496094);26.4814491272;1.0;6;0;0;0;0;();(-2000.0, -2000.0);
08:15:12:985;08:15:12:985;0;15;-1.5;1;0;0;0;0;1;1;1;1;08:15:12:924;1447960510.74;(0.3152961254119873, 0.2507957458496094);26.4814491272;1.0;6;0;0;0;0;();(-2000.0, -2000.0);
08:15:13:002;08:15:13:002;0;10;-1.5;1;0;0;0;0;1;1;1;1;08:15:12:988;1447960510.81;(0.3151735782623291, 0.25087712605794266);26.5863685608;1.0;6;0;0;0;0;();(-2000.0, -2000.0);
08:15:13:018;08:15:13:018;0;0;-1.5;1;0;0;0;0;1;1;1;1;08:15:12:988;1447960510.81;(0.3151735782623291, 0.25087712605794266);26.5863685608;1.0;6;0;0;0;0;();(-2000.0, -2000.0);
08:15:13:035;08:15:13:035;0;5;-1.5;1;0;0;0;0;1;1;1;1;08:15:12:988;1447960510.81;(0.3151735782623291, 0.25087712605794266);26.5863685608;1.0;6;0;0;0;0;();(-2000.0, -2000.0);
08:15:13:051;08:15:13:051;0;15;-1.5;1;0;0;0;0;1;1;1;1;08:15:12:988;1447960510.81;(0.3151735782623291, 0.25087712605794266);26.5863685608;1.0;6;0;0;0;0;();(-2000.0, -2000.0);
08:15:13:085;08:15:13:084;0;15;-1.5;1;0;0;0;0;1;1;1;1;08:15:13:057;1447960510.88;(0.3157048225402832, 0.2508804321289062);25.9029350281;1.0;6;0;0;0;0;();(-2000.0, -2000.0);
08:15:13:101;08:15:13:101;0;5;-1.5;1;0;0;0;0;1;1;1;1;08:15:13:057;1447960510.88;(0.3157048225402832, 0.2508804321289062);25.9029350281;1.0;6;0;0;0;0;();(-2000.0, -2000.0);
08:15:13:120;08:15:13:120;0;0;-1.5;1;0;0;0;0;1;1;1;1;08:15:13:057;1447960510.88;(0.3157048225402832, 0.2508804321289062);25.9029350281;1.0;6;0;0;0;0;();(-2000.0, -2000.0);
08:15:13:136;08:15:13:136;0;4;-1.5;1;0;0;0;0;1;1;1;1;08:15:13:124;1447960510.94;(0.3156260967254639, 0.2510420057508681);26.7158603668;1.0;6;0;0;0;0;();(-2000.0, -2000.0);
08:15:13:153;08:15:13:153;0;10;-1.5;1;0;0;0;0;1;1;1;1;08:15:13:124;1447960510.94;(0.3156260967254639, 0.2510420057508681);26.7158603668;1.0;6;0;0;0;0;();(-2000.0, -2000.0);
08:15:13:186;08:15:13:186;0;10;-1.5;1;0;0;0;0;1;1;1;1;08:15:13:124;1447960510.94;(0.3156260967254639, 0.2510420057508681);26.7158603668;1.0;6;0;0;0;0;();(-2000.0, -2000.0);
08:15:13:203;08:15:13:203;0;9;-1.5;1;0;0;0;0;1;1;1;1;08:15:13:189;1447960511.01;(0.31563966274261473, 0.25072021484374996);26.2458248138;1.0;6;0;0;0;0;();(-2000.0, -2000.0);
08:15:13:219;08:15:13:219;0;10;-1.5;1;0;0;0;0;1;1;1;1;08:15:13:189;1447960511.01;(0.31563966274261473, 0.25072021484374996);26.2458248138;1.0;6;0;0;0;0;();(-2000.0, -2000.0);
08:15:13:236;08:15:13:236;0;15;-1.5;1;0;0;0;0;1;1;1;1;08:15:13:189;1447960511.01;(0.31563966274261473, 0.25072021484374996);26.2458248138;1.0;6;0;0;0;0;();(-2000.0, -2000.0);
08:15:13:252;08:15:13:252;0;10;-1.5;1;0;0;0;0;1;1;1;1;08:15:13:189;1447960511.01;(0.31563966274261473, 0.25072021484374996);26.2458248138;1.0;6;0;0;0;0;();(-2000.0, -2000.0);
08:15:13:286;08:15:13:285;0;10;-1.5;1;0;0;0;0;1;1;1;1;08:15:13:257;1447960511.08;(0.31550936698913573, 0.2507765028211806);26.2151927948;1.0;6;0;0;0;0;();(-2000.0, -2000.0);
08:15:13:303;08:15:13:303;0;7;-1.5;1;0;0;0;0;1;1;1;1;08:15:13:257;1447960511.08;(0.31550936698913573, 0.2507765028211806);26.2151927948;1.0;6;0;0;0;0;();(-2000.0, -2000.0);
08:15:13:321;08:15:13:321;0;10;-1.5;1;0;0;0;0;1;1;1;1;08:15:13:321;1447960511.14;(0.3155470609664917, 0.25117789374457467);26.1443824768;1.0;6;0;0;0;0;();(-2000.0, -2000.0);
08:15:13:338;08:15:13:338;0;0;-1.5;1;0;0;0;0;1;1;1;1;08:15:13:321;1447960511.14;(0.3155470609664917, 0.25117789374457467);26.1443824768;1.0;6;0;0;0;0;();(-2000.0, -2000.0);
08:15:13:356;08:15:13:356;0;1;-1.5;1;0;0;0;0;1;1;1;1;08:15:13:321;1447960511.14;(0.3155470609664917, 0.25117789374457467);26.1443824768;1.0;6;0;0;0;0;();(-2000.0, -2000.0);
08:15:13:372;08:15:13:372;0;15;-1.5;1;0;0;0;0;1;1;1;1;08:15:13:321;1447960511.14;(0.3155470609664917, 0.25117789374457467);26.1443824768;1.0;6;0;0;0;0;();(-2000.0, -2000.0);
08:15:13:406;08:15:13:406;0;10;-1.5;1;0;0;0;0;1;1;1;1;08:15:13:389;1447960511.21;(0.3150913238525391, 0.2501553853352865);25.7540302277;1.0;6;0;0;0;0;();(-2000.0, -2000.0);
08:15:13:422;08:15:13:422;0;5;-1.5;1;0;0;0;0;1;1;1;1;08:15:13:389;1447960511.21;(0.3150913238525391, 0.2501553853352865);25.7540302277;1.0;6;0;0;0;0;();(-2000.0, -2000.0);
08:15:13:439;08:15:13:439;0;10;-1.5;1;0;0;0;0;1;1;1;1;08:15:13:389;1447960511.21;(0.3150913238525391, 0.2501553853352865);25.7540302277;1.0;6;0;0;0;0;();(-2000.0, -2000.0);
08:15:13:455;08:15:13:455;0;4;-1.5;1;0;0;0;0;1;1;1;1;08:15:13:389;1447960511.21;(0.3150913238525391, 0.2501553853352865);25.7540302277;1.0;6;0;0;0;0;();(-2000.0, -2000.0);
08:15:13:472;08:15:13:472;0;8;-1.5;1;0;0;0;0;1;1;1;1;08:15:13:456;1447960511.28;(0.31531288623809817, 0.25087119208441844);26.1988964081;1.0;6;0;0;0;0;();(-2000.0, -2000.0);
08:15:13:505;08:15:13:505;0;10;-1.5;1;0;0;0;0;1;1;1;1;08:15:13:456;1447960511.28;(0.31531288623809817, 0.25087119208441844);26.1988964081;1.0;6;0;0;0;0;();(-2000.0, -2000.0);
08:15:13:522;08:15:13:521;0;5;-1.5;1;0;0;0;0;1;1;1;1;08:15:13:520;1447960511.34;(0.3153536319732666, 0.25086873372395835);26.4231624603;0.993574647185;6;0;0;0;0;();(-2000.0, -2000.0);
08:15:13:540;08:15:13:540;0;3;-1.5;1;0;0;0;0;1;1;1;1;08:15:13:520;1447960511.34;(0.3153536319732666, 0.25086873372395835);26.4231624603;0.993574647185;6;0;0;0;0;();(-2000.0, -2000.0);
08:15:13:557;08:15:13:557;0;4;-1.5;1;0;0;0;0;1;1;1;1;08:15:13:520;1447960511.34;(0.3153536319732666, 0.25086873372395835);26.4231624603;0.993574647185;6;0;0;0;0;();(-2000.0, -2000.0);
08:15:13:574;08:15:13:574;0;10;-1.5;1;0;0;0;0;1;1;1;1;08:15:13:520;1447960511.34;(0.3153536319732666, 0.25086873372395835);26.4231624603;0.993574647185;6;0;0;0;0;();(-2000.0, -2000.0);
08:15:13:607;08:15:13:607;0;10;-1.5;1;0;0;0;0;1;1;1;1;08:15:13:588;1447960511.41;(0.3152057409286499, 0.25076412624782984);26.812915802;1.0;6;0;0;0;0;();(-2000.0, -2000.0);
08:15:13:623;08:15:13:623;0;15;-1.5;1;0;0;0;0;1;1;1;1;08:15:13:588;1447960511.41;(0.3152057409286499, 0.25076412624782984);26.812915802;1.0;6;0;0;0;0;();(-2000.0, -2000.0);
08:15:13:640;08:15:13:640;0;4;-1.5;1;0;0;0;0;1;1;1;1;08:15:13:588;1447960511.41;(0.3152057409286499, 0.25076412624782984);26.812915802;1.0;6;0;0;0;0;();(-2000.0, -2000.0);
08:15:13:657;08:15:13:657;0;0;-1.5;1;0;0;0;0;1;1;1;1;08:15:13:652;1447960511.48;(0.31530282497406004, 0.2509201897515191);26.4576206207;1.0;6;0;0;0;0;();(-2000.0, -2000.0);
08:15:13:673;08:15:13:673;0;10;-1.5;1;0;0;0;0;1;1;1;1;08:15:13:652;1447960511.48;(0.31530282497406004, 0.2509201897515191);26.4576206207;1.0;6;0;0;0;0;();(-2000.0, -2000.0);
08:15:13:706;08:15:13:706;0;4;-1.5;1;0;0;0;0;1;1;1;1;08:15:13:652;1447960511.48;(0.31530282497406004, 0.2509201897515191);26.4576206207;1.0;6;0;0;0;0;();(-2000.0, -2000.0);
08:15:13:723;08:15:13:723;0;15;-1.5;1;0;0;0;0;1;1;1;1;08:15:13:720;1447960511.54;(0.31545979976654054, 0.2510222540961371);26.6484489441;1.0;6;0;0;0;0;();(-2000.0, -2000.0);
08:15:13:742;08:15:13:742;0;5;-1.5;1;0;0;0;0;1;1;1;1;08:15:13:720;1447960511.54;(0.31545979976654054, 0.2510222540961371);26.6484489441;1.0;6;0;0;0;0;();(-2000.0, -2000.0);
08:15:13:758;08:15:13:758;0;10;-1.5;1;0;0;0;0;1;1;1;1;08:15:13:720;1447960511.54;(0.31545979976654054, 0.2510222540961371);26.6484489441;1.0;6;0;0;0;0;();(-2000.0, -2000.0);
08:15:13:776;08:15:13:775;0;5;-1.5;1;0;0;0;0;1;1;1;1;08:15:13:720;1447960511.54;(0.31545979976654054, 0.2510222540961371);26.6484489441;1.0;6;0;0;0;0;();(-2000.0, -2000.0);
08:15:13:798;08:15:13:798;0;10;-1.5;1;0;0;0;0;1;1;1;1;08:15:13:784;1447960511.61;(0.31533279418945315, 0.25024329291449654);26.6785259247;1.0;6;0;0;0;0;();(-2000.0, -2000.0);
08:15:13:826;08:15:13:825;0;10;-1.5;1;0;0;0;0;1;1;1;1;08:15:13:784;1447960511.61;(0.31533279418945315, 0.25024329291449654);26.6785259247;1.0;6;0;0;0;0;();(-2000.0, -2000.0);
08:15:13:842;08:15:13:842;0;15;-1.5;1;0;0;0;0;1;1;1;1;08:15:13:784;1447960511.61;(0.31533279418945315, 0.25024329291449654);26.6785259247;1.0;6;0;0;0;0;();(-2000.0, -2000.0);
08:15:13:859;08:15:13:858;0;15;-1.5;1;0;0;0;0;1;1;1;1;08:15:13:852;1447960511.68;(0.3155740022659302, 0.25117560492621527);26.2116603851;1.0;6;0;0;0;0;();(-2000.0, -2000.0);
08:15:13:875;08:15:13:875;0;4;-1.5;1;0;0;0;0;1;1;1;1;08:15:13:852;1447960511.68;(0.3155740022659302, 0.25117560492621527);26.2116603851;1.0;6;0;0;0;0;();(-2000.0, -2000.0);
08:15:13:892;08:15:13:892;0;10;-1.5;1;0;0;0;0;1;1;1;1;08:15:13:852;1447960511.68;(0.3155740022659302, 0.25117560492621527);26.2116603851;1.0;6;0;0;0;0;();(-2000.0, -2000.0);
08:15:13:925;08:15:13:925;0;10;-1.5;1;0;0;0;0;1;1;1;1;08:15:13:921;1447960511.74;(0.31541359424591064, 0.2505126953125);26.369052887;1.0;6;0;0;0;0;();(-2000.0, -2000.0);
08:15:13:941;08:15:13:941;0;5;-1.5;1;0;0;0;0;1;1;1;1;08:15:13:921;1447960511.74;(0.31541359424591064, 0.2505126953125);26.369052887;1.0;6;0;0;0;0;();(-2000.0, -2000.0);
08:15:13:962;08:15:13:962;0;10;-1.5;1;0;0;0;0;1;1;1;1;08:15:13:921;1447960511.74;(0.31541359424591064, 0.2505126953125);26.369052887;1.0;6;0;0;0;0;();(-2000.0, -2000.0);
08:15:13:979;08:15:13:979;0;15;-1.5;1;0;0;0;0;1;1;1;1;08:15:13:921;1447960511.74;(0.31541359424591064, 0.2505126953125);26.369052887;1.0;6;0;0;0;0;();(-2000.0, -2000.0);
08:15:13:996;08:15:13:996;0;5;-1.5;1;0;0;0;0;1;1;1;1;08:15:13:984;1447960511.81;(0.31545660495758054, 0.2508170233832465);26.5564746857;1.0;6;0;0;0;0;();(-2000.0, -2000.0);
08:15:14:013;08:15:14:013;0;15;-1.5;1;0;0;0;0;1;1;1;1;08:15:13:984;1447960511.81;(0.31545660495758054, 0.2508170233832465);26.5564746857;1.0;6;0;0;0;0;();(-2000.0, -2000.0);
08:15:14:046;08:15:14:046;0;15;-1.5;1;0;0;0;0;1;1;1;1;08:15:13:984;1447960511.81;(0.31545660495758054, 0.2508170233832465);26.5564746857;1.0;6;0;0;0;0;();(-2000.0, -2000.0);
08:15:14:063;08:15:14:062;0;13;-1.5;1;0;0;0;0;1;1;1;1;08:15:14:052;1447960511.88;(0.3154066801071167, 0.2505360921223958);26.4168014526;1.0;6;0;0;0;0;();(-2000.0, -2000.0);
08:15:14:079;08:15:14:079;0;0;-1.5;1;0;0;0;0;1;1;1;1;08:15:14:052;1447960511.88;(0.3154066801071167, 0.2505360921223958);26.4168014526;1.0;6;0;0;0;0;();(-2000.0, -2000.0);
08:15:14:096;08:15:14:096;0;5;-1.5;1;0;0;0;0;1;1;1;1;08:15:14:052;1447960511.88;(0.3154066801071167, 0.2505360921223958);26.4168014526;1.0;6;0;0;0;0;();(-2000.0, -2000.0);
08:15:14:112;08:15:14:112;0;15;-1.5;1;0;0;0;0;1;1;1;1;08:15:14:052;1447960511.88;(0.3154066801071167, 0.2505360921223958);26.4168014526;1.0;6;0;0;0;0;();(-2000.0, -2000.0);
08:15:14:145;08:15:14:145;0;10;-1.5;1;0;0;0;0;1;1;1;1;08:15:14:117;1447960511.94;(0.31559553146362307, 0.25103649563259545);26.3545303345;1.0;6;0;0;0;0;();(-2000.0, -2000.0);
08:15:14:163;08:15:14:163;0;15;-1.5;1;0;0;0;0;1;1;1;1;08:15:14:117;1447960511.94;(0.31559553146362307, 0.25103649563259545);26.3545303345;1.0;6;0;0;0;0;();(-2000.0, -2000.0);
08:15:14:180;08:15:14:180;0;10;-1.5;1;0;0;0;0;1;1;1;1;08:15:14:117;1447960511.94;(0.31559553146362307, 0.25103649563259545);26.3545303345;1.0;6;0;0;0;0;();(-2000.0, -2000.0);
08:15:14:197;08:15:14:197;0;4;-1.5;1;0;0;0;0;1;1;1;1;08:15:14:184;1447960512.01;(0.31565132141113283, 0.25060882568359377);26.2937240601;1.0;6;0;0;0;0;();(-2000.0, -2000.0);
08:15:14:214;08:15:14:213;0;10;-1.5;1;0;0;0;0;1;1;1;1;08:15:14:184;1447960512.01;(0.31565132141113283, 0.25060882568359377);26.2937240601;1.0;6;0;0;0;0;();(-2000.0, -2000.0);
08:15:14:247;08:15:14:246;0;10;-1.5;1;0;0;0;0;1;1;1;1;08:15:14:184;1447960512.01;(0.31565132141113283, 0.25060882568359377);26.2937240601;1.0;6;0;0;0;0;();(-2000.0, -2000.0);
08:15:14:263;08:15:14:263;0;15;-1.5;1;0;0;0;0;1;1;1;1;08:15:14:252;1447960512.08;(0.3156047582626343, 0.2506140814887152);26.2435493469;1.0;6;0;0;0;0;();(-2000.0, -2000.0);
08:15:14:280;08:15:14:280;0;4;-1.5;1;0;0;0;0;1;1;1;1;08:15:14:252;1447960512.08;(0.3156047582626343, 0.2506140814887152);26.2435493469;1.0;6;0;0;0;0;();(-2000.0, -2000.0);
08:15:14:296;08:15:14:296;0;0;-1.5;1;0;0;0;0;1;1;1;1;08:15:14:252;1447960512.08;(0.3156047582626343, 0.2506140814887152);26.2435493469;1.0;6;0;0;0;0;();(-2000.0, -2000.0);
08:15:14:313;08:15:14:313;0;10;-1.5;1;0;0;0;0;1;1;1;1;08:15:14:252;1447960512.08;(0.3156047582626343, 0.2506140814887152);26.2435493469;1.0;6;0;0;0;0;();(-2000.0, -2000.0);
08:15:14:346;08:15:14:346;0;10;-1.5;1;0;0;0;0;1;1;1;1;08:15:14:317;1447960512.14;(0.31560003757476807, 0.25059611002604165);26.7400932312;1.0;6;0;0;0;0;();(-2000.0, -2000.0);
08:15:14:364;08:15:14:364;0;15;-1.5;1;0;0;0;0;1;1;1;1;08:15:14:317;1447960512.14;(0.31560003757476807, 0.25059611002604165);26.7400932312;1.0;6;0;0;0;0;();(-2000.0, -2000.0);
08:15:14:381;08:15:14:380;0;5;-1.5;1;0;0;0;0;1;1;1;1;08:15:14:317;1447960512.14;(0.31560003757476807, 0.25059611002604165);26.7400932312;1.0;6;0;0;0;0;();(-2000.0, -2000.0);
08:15:14:398;08:15:14:397;0;0;-1.5;1;0;0;0;0;1;1;1;1;08:15:14:385;1447960512.21;(0.31546571254730227, 0.2508174472384983);27.3064613342;1.0;6;0;0;0;0;();(-2000.0, -2000.0);
08:15:14:414;08:15:14:414;0;13;-1.5;1;0;0;0;0;1;1;1;1;08:15:14:385;1447960512.21;(0.31546571254730227, 0.2508174472384983);27.3064613342;1.0;6;0;0;0;0;();(-2000.0, -2000.0);
08:15:14:436;08:15:14:436;0;10;-1.5;1;0;0;0;0;1;1;1;1;08:15:14:385;1447960512.21;(0.31546571254730227, 0.2508174472384983);27.3064613342;1.0;8;0;0;0;0;();(-2000.0, -2000.0);
08:15:14:464;08:15:14:464;0;0;-1.5;1;0;0;0;0;1;1;1;1;08:15:14:449;1447960512.28;(0.3157865285873413, 0.250843980577257);27.2739067078;1.0;8;0;0;0;0;();(-2000.0, -2000.0);
08:15:14:480;08:15:14:480;0;5;-1.5;1;0;0;0;0;1;1;1;1;08:15:14:449;1447960512.28;(0.3157865285873413, 0.250843980577257);27.2739067078;1.0;8;0;0;0;0;();(-2000.0, -2000.0);
08:15:14:497;08:15:14:497;0;10;-1.5;1;0;0;0;0;1;1;1;1;08:15:14:449;1447960512.28;(0.3157865285873413, 0.250843980577257);27.2739067078;1.0;8;0;0;0;0;();(-2000.0, -2000.0);
08:15:14:513;08:15:14:513;0;4;-1.5;1;0;0;0;0;1;1;1;1;08:15:14:449;1447960512.28;(0.3157865285873413, 0.250843980577257);27.2739067078;1.0;8;0;0;0;0;();(-2000.0, -2000.0);
08:15:14:547;08:15:14:547;0;4;-1.5;1;0;0;0;0;1;1;1;1;08:15:14:517;1447960512.34;(0.315649151802063, 0.25069224039713545);26.4318180084;1.0;8;0;0;0;0;();(-2000.0, -2000.0);
08:15:14:565;08:15:14:565;0;10;-1.5;1;0;0;0;0;1;1;1;1;08:15:14:517;1447960512.34;(0.315649151802063, 0.25069224039713545);26.4318180084;1.0;8;0;0;0;0;();(-2000.0, -2000.0);
08:15:14:581;08:15:14:581;0;5;-1.5;1;0;0;0;0;1;1;1;1;08:15:14:517;1447960512.34;(0.315649151802063, 0.25069224039713545);26.4318180084;1.0;8;0;0;0;0;();(-2000.0, -2000.0);
08:15:14:598;08:15:14:598;0;10;-1.5;1;0;0;0;0;1;1;1;1;08:15:14:585;1447960512.41;(0.315531849861145, 0.2508632236056858);26.5149936676;1.0;8;0;0;0;0;();(-2000.0, -2000.0);
08:15:14:615;08:15:14:615;0;15;-1.5;1;0;0;0;0;1;1;1;1;08:15:14:585;1447960512.41;(0.315531849861145, 0.2508632236056858);26.5149936676;1.0;8;0;0;0;0;();(-2000.0, -2000.0);
08:15:14:631;08:15:14:631;0;10;-1.5;1;0;0;0;0;1;1;1;1;08:15:14:585;1447960512.41;(0.315531849861145, 0.2508632236056858);26.5149936676;1.0;8;0;0;0;0;();(-2000.0, -2000.0);
08:15:14:664;08:15:14:664;0;10;-1.5;1;0;0;0;0;1;1;1;1;08:15:14:649;1447960512.48;(0.31552259922027587, 0.2506275600857205);26.6453838348;1.0;8;0;0;0;0;();(-2000.0, -2000.0);
08:15:14:681;08:15:14:681;0;15;-1.5;1;0;0;0;0;1;1;1;1;08:15:14:649;1447960512.48;(0.31552259922027587, 0.2506275600857205);26.6453838348;1.0;8;0;0;0;0;();(-2000.0, -2000.0);
08:15:14:704;08:15:14:703;0;4;-1.5;1;0;0;0;0;1;1;1;1;08:15:14:649;1447960512.48;(0.31552259922027587, 0.2506275600857205);26.6453838348;1.0;8;0;0;0;0;();(-2000.0, -2000.0);
08:15:14:714;08:15:14:714;0;0;-1.5;1;0;0;0;0;1;1;1;1;08:15:14:649;1447960512.48;(0.31552259922027587, 0.2506275600857205);26.6453838348;1.0;8;0;0;0;0;();(-2000.0, -2000.0);
08:15:14:747;08:15:14:747;0;15;-1.5;1;0;0;0;0;1;1;1;1;08:15:14:716;1447960512.54;(0.3158224105834961, 0.25077099270290804);26.8203201294;1.0;8;0;0;0;0;();(-2000.0, -2000.0);
08:15:14:766;08:15:14:766;0;4;-1.5;1;0;0;0;0;1;1;1;1;08:15:14:716;1447960512.54;(0.3158224105834961, 0.25077099270290804);26.8203201294;1.0;8;0;0;0;0;();(-2000.0, -2000.0);
08:15:14:783;08:15:14:783;0;0;-1.5;1;0;0;0;0;1;1;1;1;08:15:14:780;1447960512.61;(0.31554813385009767, 0.25105573866102426);26.6787528992;1.0;8;0;0;0;0;();(-2000.0, -2000.0);
08:15:14:800;08:15:14:800;0;5;-1.5;1;0;0;0;0;1;1;1;1;08:15:14:780;1447960512.61;(0.31554813385009767, 0.25105573866102426);26.6787528992;1.0;8;0;0;0;0;();(-2000.0, -2000.0);
08:15:14:817;08:15:14:817;0;10;-1.5;1;0;0;0;0;1;1;1;1;08:15:14:780;1447960512.61;(0.31554813385009767, 0.25105573866102426);26.6787528992;1.0;8;0;0;0;0;();(-2000.0, -2000.0);
08:15:14:833;08:15:14:833;0;4;-1.5;1;0;0;0;0;1;1;1;1;08:15:14:780;1447960512.61;(0.31554813385009767, 0.25105573866102426);26.6787528992;1.0;8;0;0;0;0;();(-2000.0, -2000.0);
08:15:14:866;08:15:14:866;0;4;-1.5;1;0;0;0;0;1;1;1;1;08:15:14:848;1447960512.68;(0.31548233032226564, 0.25094960530598953);26.2482089996;1.0;8;0;0;0;0;();(-2000.0, -2000.0);
08:15:14:883;08:15:14:883;0;10;-1.5;1;0;0;0;0;1;1;1;1;08:15:14:848;1447960512.68;(0.31548233032226564, 0.25094960530598953);26.2482089996;1.0;8;0;0;0;0;();(-2000.0, -2000.0);
08:15:14:899;08:15:14:899;0;4;-1.5;1;0;0;0;0;1;1;1;1;08:15:14:848;1447960512.68;(0.31548233032226564, 0.25094960530598953);26.2482089996;1.0;8;0;0;0;0;();(-2000.0, -2000.0);
08:15:14:916;08:15:14:916;0;10;-1.5;1;0;0;0;0;1;1;1;1;08:15:14:916;1447960512.74;(0.3154755115509033, 0.25065104166666663);26.5896148682;1.0;8;0;0;0;0;();(-2000.0, -2000.0);
08:15:14:932;08:15:14:932;0;5;-1.5;1;0;0;0;0;1;1;1;1;08:15:14:916;1447960512.74;(0.3154755115509033, 0.25065104166666663);26.5896148682;1.0;8;0;0;0;0;();(-2000.0, -2000.0);
08:15:14:969;08:15:14:969;0;13;-1.5;1;0;0;0;0;1;1;1;1;08:15:14:916;1447960512.74;(0.3154755115509033, 0.25065104166666663);26.5896148682;1.0;8;0;0;0;0;();(-2000.0, -2000.0);
08:15:14:987;08:15:14:987;0;4;-1.5;1;0;0;0;0;1;1;1;1;08:15:14:980;1447960512.81;(0.31521992683410643, 0.2508368598090278);26.5382022858;1.0;8;0;0;0;0;();(-2000.0, -2000.0);
08:15:15:004;08:15:15:004;0;0;-1.5;1;0;0;0;0;1;1;1;1;08:15:14:980;1447960512.81;(0.31521992683410643, 0.2508368598090278);26.5382022858;1.0;8;0;0;0;0;();(-2000.0, -2000.0);
08:15:15:021;08:15:15:021;0;5;-1.5;1;0;0;0;0;1;1;1;1;08:15:14:980;1447960512.81;(0.31521992683410643, 0.2508368598090278);26.5382022858;1.0;8;0;0;0;0;();(-2000.0, -2000.0);
08:15:15:037;08:15:15:037;0;10;-1.5;1;0;0;0;0;1;1;1;1;08:15:14:980;1447960512.81;(0.31521992683410643, 0.2508368598090278);26.5382022858;1.0;8;0;0;0;0;();(-2000.0, -2000.0);
08:15:15:054;08:15:15:054;0;5;-1.5;1;0;0;0;0;1;1;1;1;08:15:15:048;1447960512.88;(0.3155326843261719, 0.2509423149956598);26.0170116425;1.0;8;0;0;0;0;();(-2000.0, -2000.0);
08:15:15:087;08:15:15:087;0;4;-1.5;1;0;0;0;0;1;1;1;1;08:15:15:048;1447960512.88;(0.3155326843261719, 0.2509423149956598);26.0170116425;1.0;8;0;0;0;0;();(-2000.0, -2000.0);
08:15:15:104;08:15:15:103;0;10;-1.5;1;0;0;0;0;1;1;1;1;08:15:15:048;1447960512.88;(0.3155326843261719, 0.2509423149956598);26.0170116425;1.0;8;0;0;0;0;();(-2000.0, -2000.0);
08:15:15:120;08:15:15:120;0;5;-1.5;1;0;0;0;0;1;1;1;1;08:15:15:112;1447960512.94;(0.31587586402893064, 0.25060280693901915);26.166135788;1.0;8;0;0;0;0;();(-2000.0, -2000.0);
08:15:15:137;08:15:15:137;0;15;-1.5;1;0;0;0;0;1;1;1;1;08:15:15:112;1447960512.94;(0.31587586402893064, 0.25060280693901915);26.166135788;1.0;8;0;0;0;0;();(-2000.0, -2000.0);
08:15:15:153;08:15:15:153;0;4;-1.5;1;0;0;0;0;1;1;1;1;08:15:15:112;1447960512.94;(0.31587586402893064, 0.25060280693901915);26.166135788;1.0;8;0;0;0;0;();(-2000.0, -2000.0);
08:15:15:176;08:15:15:175;0;4;-1.5;1;0;0;0;0;1;1;1;1;08:15:15:112;1447960512.94;(0.31587586402893064, 0.25060280693901915);26.166135788;1.0;8;0;0;0;0;();(-2000.0, -2000.0);
08:15:15:192;08:15:15:192;0;0;-1.5;1;0;0;0;0;1;1;1;1;08:15:15:180;1447960513.01;(0.31565101146698, 0.250821770562066);26.61369133;1.0;8;0;0;0;0;();(-2000.0, -2000.0);
08:15:15:225;08:15:15:225;0;5;-1.5;1;0;0;0;0;1;1;1;1;08:15:15:180;1447960513.01;(0.31565101146698, 0.250821770562066);26.61369133;1.0;8;0;0;0;0;();(-2000.0, -2000.0);
08:15:15:242;08:15:15:242;0;4;-1.5;1;0;0;0;0;1;1;1;1;08:15:15:180;1447960513.01;(0.31565101146698, 0.250821770562066);26.61369133;1.0;8;0;0;0;0;();(-2000.0, -2000.0);
08:15:15:259;08:15:15:258;0;0;-1.5;1;0;0;0;0;1;1;1;1;08:15:15:248;1447960513.08;(0.3156372785568237, 0.25067486233181424);26.5883312225;1.0;8;0;0;0;0;();(-2000.0, -2000.0);
08:15:15:275;08:15:15:275;0;14;-1.5;1;0;0;0;0;1;1;1;1;08:15:15:248;1447960513.08;(0.3156372785568237, 0.25067486233181424);26.5883312225;1.0;8;0;0;0;0;();(-2000.0, -2000.0);
08:15:15:292;08:15:15:291;0;15;-1.5;1;0;0;0;0;1;1;1;1;08:15:15:248;1447960513.08;(0.3156372785568237, 0.25067486233181424);26.5883312225;1.0;8;0;0;0;0;();(-2000.0, -2000.0);
08:15:15:325;08:15:15:325;0;15;-1.5;1;0;0;0;0;1;1;1;1;08:15:15:312;1447960513.14;(0.31563804149627683, 0.25059009128146703);26.7372627258;1.0;8;0;0;0;0;();(-2000.0, -2000.0);
08:15:15:341;08:15:15:341;0;4;-1.5;1;0;0;0;0;1;1;1;1;08:15:15:312;1447960513.14;(0.31563804149627683, 0.25059009128146703);26.7372627258;1.0;8;0;0;0;0;();(-2000.0, -2000.0);
08:15:15:358;08:15:15:358;0;10;-1.5;1;0;0;0;0;1;1;1;1;08:15:15:312;1447960513.14;(0.31563804149627683, 0.25059009128146703);26.7372627258;1.0;8;0;0;0;0;();(-2000.0, -2000.0);
08:15:15:374;08:15:15:374;0;5;-1.5;1;0;0;0;0;1;1;1;1;08:15:15:312;1447960513.14;(0.31563804149627683, 0.25059009128146703);26.7372627258;1.0;8;0;0;0;0;();(-2000.0, -2000.0);
08:15:15:391;08:15:15:391;0;15;-1.5;1;0;0;0;0;1;1;1;1;08:15:15:380;1447960513.21;(0.3155960559844971, 0.25066155327690975);26.8280887604;1.0;8;0;0;0;0;();(-2000.0, -2000.0);
08:15:15:424;08:15:15:424;0;2;-1.5;1;0;0;0;0;1;1;1;1;08:15:15:380;1447960513.21;(0.3155960559844971, 0.25066155327690975);26.8280887604;1.0;8;0;0;0;0;();(-2000.0, -2000.0);
08:15:15:441;08:15:15:441;0;5;-1.5;1;0;0;0;0;1;1;1;1;08:15:15:380;1447960513.21;(0.3155960559844971, 0.25066155327690975);26.8280887604;1.0;8;0;0;0;0;();(-2000.0, -2000.0);
08:15:15:459;08:15:15:457;0;2;-1.5;1;0;0;0;0;1;1;1;1;08:15:15:445;1447960513.28;(0.31540186405181886, 0.25109100341796875);26.7145786285;1.0;8;0;0;0;0;();(-2000.0, -2000.0);
08:15:15:474;08:15:15:474;0;4;-1.5;1;0;0;0;0;1;1;1;1;08:15:15:445;1447960513.28;(0.31540186405181886, 0.25109100341796875);26.7145786285;1.0;8;0;0;0;0;();(-2000.0, -2000.0);
08:15:15:507;08:15:15:507;0;5;-1.5;1;0;0;0;0;1;1;1;1;08:15:15:445;1447960513.28;(0.31540186405181886, 0.25109100341796875);26.7145786285;1.0;8;0;0;0;0;();(-2000.0, -2000.0);
08:15:15:523;08:15:15:523;0;10;-1.5;1;0;0;0;0;1;1;1;1;08:15:15:513;1447960513.34;(0.3152284860610962, 0.25095986260308156);26.0526924133;1.0;8;0;0;0;0;();(-2000.0, -2000.0);
08:15:15:540;08:15:15:540;0;15;-1.5;1;0;0;0;0;1;1;1;1;08:15:15:513;1447960513.34;(0.3152284860610962, 0.25095986260308156);26.0526924133;1.0;8;0;0;0;0;();(-2000.0, -2000.0);
08:15:15:557;08:15:15:557;0;10;-1.5;1;0;0;0;0;1;1;1;1;08:15:15:513;1447960513.34;(0.3152284860610962, 0.25095986260308156);26.0526924133;1.0;8;0;0;0;0;();(-2000.0, -2000.0);
08:15:15:574;08:15:15:574;0;4;-1.5;1;0;0;0;0;1;1;1;1;08:15:15:513;1447960513.34;(0.3152284860610962, 0.25095986260308156);26.0526924133;1.0;8;0;0;0;0;();(-2000.0, -2000.0);
08:15:15:603;08:15:15:603;0;5;-1.5;1;0;0;0;0;1;1;1;1;08:15:15:580;1447960513.41;(0.31537389755249023, 0.2503513760036893);26.4794998169;1.0;8;0;0;0;0;();(-2000.0, -2000.0);
08:15:15:620;08:15:15:620;0;10;-1.5;1;0;0;0;0;1;1;1;1;08:15:15:580;1447960513.41;(0.31537389755249023, 0.2503513760036893);26.4794998169;1.0;8;0;0;0;0;();(-2000.0, -2000.0);
08:15:15:637;08:15:15:637;0;15;-1.5;1;0;0;0;0;1;1;1;1;08:15:15:580;1447960513.41;(0.31537389755249023, 0.2503513760036893);26.4794998169;1.0;8;0;0;0;0;();(-2000.0, -2000.0);
08:15:15:653;08:15:15:653;0;10;-1.5;1;0;0;0;0;1;1;1;1;08:15:15:644;1447960513.48;(0.3154278755187988, 0.2507175021701389);26.5585269928;1.0;8;0;0;0;0;();(-2000.0, -2000.0);
08:15:15:687;08:15:15:686;0;10;-1.5;1;0;0;0;0;1;1;1;1;08:15:15:644;1447960513.48;(0.3154278755187988, 0.2507175021701389);26.5585269928;1.0;8;0;0;0;0;();(-2000.0, -2000.0);
08:15:15:703;08:15:15:703;0;5;-1.5;1;0;0;0;0;1;1;1;1;08:15:15:644;1447960513.48;(0.3154278755187988, 0.2507175021701389);26.5585269928;1.0;8;0;0;0;0;();(-2000.0, -2000.0);
08:15:15:720;08:15:15:720;0;10;-1.5;1;0;0;0;0;1;1;1;1;08:15:15:712;1447960513.54;(0.3154949426651001, 0.25091188218858507);26.2331752777;1.0;8;0;0;0;0;();(-2000.0, -2000.0);
08:15:15:736;08:15:15:736;0;7;-1.5;1;0;0;0;0;1;1;1;1;08:15:15:712;1447960513.54;(0.3154949426651001, 0.25091188218858507);26.2331752777;1.0;8;0;0;0;0;();(-2000.0, -2000.0);
08:15:15:753;08:15:15:753;0;0;-1.5;1;0;0;0;0;1;1;1;1;08:15:15:712;1447960513.54;(0.3154949426651001, 0.25091188218858507);26.2331752777;1.0;8;0;0;0;0;();(-2000.0, -2000.0);
08:15:15:786;08:15:15:786;0;10;-1.5;1;0;0;0;0;1;1;1;1;08:15:15:777;1447960513.61;(0.3154973030090332, 0.2503514607747396);26.8095550537;1.0;8;0;0;0;0;();(-2000.0, -2000.0);
08:15:15:803;08:15:15:802;0;15;-1.5;1;0;0;0;0;1;1;1;1;08:15:15:777;1447960513.61;(0.3154973030090332, 0.2503514607747396);26.8095550537;1.0;8;0;0;0;0;();(-2000.0, -2000.0);
08:15:15:819;08:15:15:819;0;5;-1.5;1;0;0;0;0;1;1;1;1;08:15:15:777;1447960513.61;(0.3154973030090332, 0.2503514607747396);26.8095550537;1.0;8;0;0;0;0;();(-2000.0, -2000.0);
08:15:15:836;08:15:15:836;0;0;-1.5;1;0;0;0;0;1;1;1;1;08:15:15:777;1447960513.61;(0.3154973030090332, 0.2503514607747396);26.8095550537;1.0;8;0;0;0;0;();(-2000.0, -2000.0);
08:15:15:852;08:15:15:852;0;4;-1.5;1;0;0;0;0;1;1;1;1;08:15:15:844;1447960513.68;(0.31548798084259033, 0.2504512363009983);26.444814682;1.0;8;0;0;0;0;();(-2000.0, -2000.0);
08:15:15:885;08:15:15:885;0;4;-1.5;1;0;0;0;0;1;1;1;1;08:15:15:844;1447960513.68;(0.31548798084259033, 0.2504512363009983);26.444814682;1.0;8;0;0;0;0;();(-2000.0, -2000.0);
08:15:15:902;08:15:15:902;0;0;-1.5;1;0;0;0;0;1;1;1;1;08:15:15:844;1447960513.68;(0.31548798084259033, 0.2504512363009983);26.444814682;1.0;8;0;0;0;0;();(-2000.0, -2000.0);
08:15:15:919;08:15:15:918;0;5;-1.5;1;0;0;0;0;1;1;1;1;08:15:15:913;1447960513.74;(0.3154317855834961, 0.2506780836317274);26.3770084381;1.0;8;0;0;0;0;();(-2000.0, -2000.0);
