%Timestamp,timestamp_write;timestamp_gotpupil;eyetrackertime;norm_pos;diameter;confidence;timestamp_gotbitdata;CRC;SEQ;AnalogOutp1;AnalogOutp2;AnalogOutp3;AnalogOutp4;AnalogOutp5;AnalogOutp6;DigitalOutp1;DigitalOutp2;igitalOutp3;DigitalOutp4;nplanes;lastaction;lastactiondetails;positivescore;negativescore;targetpositions;collision_point
04:21:30:285;;;;;;;;;;;;;;1447946487.92;(0.3196920871734619, 0.8153116438123915);36.2519454956;1.0;2;0;0;0;0;();(0.0, 0.0);
04:21:30:294;;;;;;;;;;;;;;1447946487.92;(0.3196920871734619, 0.8153116438123915);36.2519454956;1.0;2;0;0;0;0;();(-2000.0, -2000.0);
04:21:30:299;;;;;;;;;;;;;;1447946487.92;(0.3196920871734619, 0.8153116438123915);36.2519454956;1.0;2;0;0;0;0;();(-2000.0, -2000.0);
04:21:30:302;;;;;;;;;;;;;;1447946487.92;(0.3196920871734619, 0.8153116438123915);36.2519454956;1.0;2;0;0;0;0;();(-2000.0, -2000.0);
04:21:30:306;;;;;;;;;;;;;;1447946487.92;(0.3196920871734619, 0.8153116438123915);36.2519454956;1.0;2;0;0;0;0;();(-2000.0, -2000.0);
04:21:30:309;;;;;;;;;;;;;;1447946487.92;(0.3196920871734619, 0.8153116438123915);36.2519454956;1.0;2;0;0;0;0;();(-2000.0, -2000.0);
04:21:30:314;;;;;;;;;;;;;;1447946487.92;(0.3196920871734619, 0.8153116438123915);36.2519454956;1.0;2;0;0;0;0;();(-2000.0, -2000.0);
04:21:30:317;;;;;;;;;;;;;;1447946487.92;(0.3196920871734619, 0.8153116438123915);36.2519454956;1.0;2;0;0;0;0;();(-2000.0, -2000.0);
04:21:30:321;;;;;;;;;;;;;;04:21:30:320;1447946487.99;(0.3197347402572632, 0.8154204686482748);35.9950332642;1.0;2;0;0;0;0;();(-2000.0, -2000.0);
04:21:30:325;;;;;;;;;;;;;;04:21:30:320;1447946487.99;(0.3197347402572632, 0.8154204686482748);35.9950332642;1.0;2;0;0;0;0;();(-2000.0, -2000.0);
04:21:30:328;;;;;;;;;;;;;;04:21:30:320;1447946487.99;(0.3197347402572632, 0.8154204686482748);35.9950332642;1.0;2;0;0;0;0;();(-2000.0, -2000.0);
04:21:30:331;;;;;;;;;;;;;;04:21:30:320;1447946487.99;(0.3197347402572632, 0.8154204686482748);35.9950332642;1.0;2;0;0;0;0;();(-2000.0, -2000.0);
04:21:30:333;;;;;;;;;;;;;;04:21:30:320;1447946487.99;(0.3197347402572632, 0.8154204686482748);35.9950332642;1.0;2;0;0;0;0;();(-2000.0, -2000.0);
04:21:30:334;;;;;;;;;;;;;;04:21:30:320;1447946487.99;(0.3197347402572632, 0.8154204686482748);35.9950332642;1.0;2;0;0;0;0;();(-2000.0, -2000.0);
04:21:30:336;;;;;;;;;;;;;;04:21:30:320;1447946487.99;(0.3197347402572632, 0.8154204686482748);35.9950332642;1.0;2;0;0;0;0;();(-2000.0, -2000.0);
04:21:30:338;;;;;;;;;;;;;;04:21:30:320;1447946487.99;(0.3197347402572632, 0.8154204686482748);35.9950332642;1.0;2;0;0;0;0;();(-2000.0, -2000.0);
04:21:30:372;;;;;;;;;;;;;;04:21:30:320;1447946487.99;(0.3197347402572632, 0.8154204686482748);35.9950332642;1.0;2;0;0;0;0;();(-2000.0, -2000.0);
04:21:30:375;;;;;;;;;;;;;;04:21:30:320;1447946487.99;(0.3197347402572632, 0.8154204686482748);35.9950332642;1.0;2;0;0;0;0;();(-2000.0, -2000.0);
04:21:30:377;;;;;;;;;;;;;;04:21:30:320;1447946487.99;(0.3197347402572632, 0.8154204686482748);35.9950332642;1.0;2;0;0;0;0;();(-2000.0, -2000.0);
04:21:30:381;;;;;;;;;;;;;;04:21:30:320;1447946487.99;(0.3197347402572632, 0.8154204686482748);35.9950332642;1.0;2;0;0;0;0;();(-2000.0, -2000.0);
04:21:30:383;;;;;;;;;;;;;;04:21:30:320;1447946487.99;(0.3197347402572632, 0.8154204686482748);35.9950332642;1.0;2;0;0;0;0;();(-2000.0, -2000.0);
04:21:30:406;;;;;;;;;;;;;;04:21:30:387;1447946488.05;(0.31966865062713623, 0.8151970121595595);36.0320930481;1.0;2;0;0;0;0;();(-2000.0, -2000.0);
04:21:30:422;;;;;;;;;;;;;;04:21:30:387;1447946488.05;(0.31966865062713623, 0.8151970121595595);36.0320930481;1.0;2;0;0;0;0;();(-2000.0, -2000.0);
04:21:30:440;;;;;;;;;;;;;;04:21:30:387;1447946488.05;(0.31966865062713623, 0.8151970121595595);36.0320930481;1.0;2;0;0;0;0;();(-2000.0, -2000.0);
04:21:35:351;;;;;;;;;;;;;;04:21:32:295;1447946489.99;(0.31953470706939696, 0.8148588180541992);36.361492157;1.0;2;0;0;0;0;();(-2000.0, -2000.0);
04:21:35:355;;;;;;;;;;;;;;04:21:32:295;1447946489.99;(0.31953470706939696, 0.8148588180541992);36.361492157;1.0;2;0;0;0;0;();(-2000.0, -2000.0);
04:21:35:359;;;;;;;;;;;;;;04:21:32:295;1447946489.99;(0.31953470706939696, 0.8148588180541992);36.361492157;1.0;2;0;0;0;0;();(-2000.0, -2000.0);
04:21:35:363;;;;;;;;;;;;;;04:21:32:295;1447946489.99;(0.31953470706939696, 0.8148588180541992);36.361492157;1.0;2;0;0;0;0;();(-2000.0, -2000.0);
04:21:35:366;;;;;;;;;;;;;;04:21:32:295;1447946489.99;(0.31953470706939696, 0.8148588180541992);36.361492157;1.0;2;0;0;0;0;();(-2000.0, -2000.0);
04:21:35:368;;;;;;;;;;;;;;04:21:32:295;1447946489.99;(0.31953470706939696, 0.8148588180541992);36.361492157;1.0;2;0;0;0;0;();(-2000.0, -2000.0);
04:21:35:370;;;;;;;;;;;;;;04:21:32:295;1447946489.99;(0.31953470706939696, 0.8148588180541992);36.361492157;1.0;2;0;0;0;0;();(-2000.0, -2000.0);
04:21:35:371;;;;;;;;;;;;;;04:21:32:295;1447946489.99;(0.31953470706939696, 0.8148588180541992);36.361492157;1.0;2;0;0;0;0;();(-2000.0, -2000.0);
04:21:35:374;;;;;;;;;;;;;;04:21:32:295;1447946489.99;(0.31953470706939696, 0.8148588180541992);36.361492157;1.0;2;0;0;0;0;();(-2000.0, -2000.0);
04:21:35:375;;;;;;;;;;;;;;04:21:32:295;1447946489.99;(0.31953470706939696, 0.8148588180541992);36.361492157;1.0;2;0;0;0;0;();(-2000.0, -2000.0);
04:21:35:378;;;;;;;;;;;;;;04:21:32:295;1447946489.99;(0.31953470706939696, 0.8148588180541992);36.361492157;1.0;2;0;0;0;0;();(-2000.0, -2000.0);
04:21:35:379;;;;;;;;;;;;;;04:21:32:295;1447946489.99;(0.31953470706939696, 0.8148588180541992);36.361492157;1.0;2;0;0;0;0;();(-2000.0, -2000.0);
04:21:35:381;;;;;;;;;;;;;;04:21:32:295;1447946489.99;(0.31953470706939696, 0.8148588180541992);36.361492157;1.0;2;0;0;0;0;();(-2000.0, -2000.0);
04:21:35:383;;;;;;;;;;;;;;04:21:32:295;1447946489.99;(0.31953470706939696, 0.8148588180541992);36.361492157;1.0;2;0;0;0;0;();(-2000.0, -2000.0);
04:21:35:385;;;;;;;;;;;;;;04:21:32:295;1447946489.99;(0.31953470706939696, 0.8148588180541992);36.361492157;1.0;2;0;0;0;0;();(-2000.0, -2000.0);
04:21:35:386;;;;;;;;;;;;;;04:21:32:295;1447946489.99;(0.31953470706939696, 0.8148588180541992);36.361492157;1.0;2;0;0;0;0;();(-2000.0, -2000.0);
04:21:35:387;;;;;;;;;;;;;;04:21:32:295;1447946489.99;(0.31953470706939696, 0.8148588180541992);36.361492157;1.0;2;0;0;0;0;();(-2000.0, -2000.0);
04:21:35:391;;;;;;;;;;;;;;04:21:32:295;1447946489.99;(0.31953470706939696, 0.8148588180541992);36.361492157;1.0;2;0;0;0;0;();(-2000.0, -2000.0);
04:21:35:394;;;;;;;;;;;;;;04:21:32:295;1447946489.99;(0.31953470706939696, 0.8148588180541992);36.361492157;1.0;2;0;0;0;0;();(-2000.0, -2000.0);
04:21:35:424;;;;;;;;;;;;;;04:21:32:295;1447946489.99;(0.31953470706939696, 0.8148588180541992);36.361492157;1.0;2;0;0;0;0;();(-2000.0, -2000.0);
04:21:35:441;;;;;;;;;;;;;;04:21:32:295;1447946489.99;(0.31953470706939696, 0.8148588180541992);36.361492157;1.0;2;0;0;0;0;();(-2000.0, -2000.0);
04:21:35:457;;;;;;;;;;;;;;04:21:32:295;1447946489.99;(0.31953470706939696, 0.8148588180541992);36.361492157;1.0;2;0;0;0;0;();(-2000.0, -2000.0);
04:21:35:474;;;;;;;;;;;;;;04:21:32:295;1447946489.99;(0.31953470706939696, 0.8148588180541992);36.361492157;1.0;2;0;0;0;0;();(-2000.0, -2000.0);
04:21:35:491;;;;;;;;;;;;;;04:21:32:295;1447946489.99;(0.31953470706939696, 0.8148588180541992);36.361492157;1.0;2;0;0;0;0;();(-2000.0, -2000.0);
04:21:35:524;;;;;;;;;;;;;;04:21:32:295;1447946489.99;(0.31953470706939696, 0.8148588180541992);36.361492157;1.0;2;0;0;0;0;();(-2000.0, -2000.0);
04:21:35:540;;;;;;;;;;;;;;04:21:32:295;1447946489.99;(0.31953470706939696, 0.8148588180541992);36.361492157;1.0;2;0;0;0;0;();(-2000.0, -2000.0);
04:21:35:557;;;;;;;;;;;;;;04:21:32:295;1447946489.99;(0.31953470706939696, 0.8148588180541992);36.361492157;1.0;2;0;0;0;0;();(-2000.0, -2000.0);
04:21:35:573;;;;;;;;;;;;;;04:21:32:295;1447946489.99;(0.31953470706939696, 0.8148588180541992);36.361492157;1.0;2;0;0;0;0;();(-2000.0, -2000.0);
04:21:35:590;;;;;;;;;;;;;;04:21:32:295;1447946489.99;(0.31953470706939696, 0.8148588180541992);36.361492157;1.0;2;0;0;0;0;();(-2000.0, -2000.0);
04:21:35:623;;;;;;;;;;;;;;04:21:32:295;1447946489.99;(0.31953470706939696, 0.8148588180541992);36.361492157;1.0;2;0;0;0;0;();(-2000.0, -2000.0);
04:21:35:640;;;;;;;;;;;;;;04:21:32:295;1447946489.99;(0.31953470706939696, 0.8148588180541992);36.361492157;1.0;2;0;0;0;0;();(-2000.0, -2000.0);
04:21:35:656;;;;;;;;;;;;;;04:21:32:295;1447946489.99;(0.31953470706939696, 0.8148588180541992);36.361492157;1.0;2;0;0;0;0;();(-2000.0, -2000.0);
04:21:35:673;;;;;;;;;;;;;;04:21:32:295;1447946489.99;(0.31953470706939696, 0.8148588180541992);36.361492157;1.0;2;0;0;0;0;();(-2000.0, -2000.0);
04:21:35:689;;;;;;;;;;;;;;04:21:32:295;1447946489.99;(0.31953470706939696, 0.8148588180541992);36.361492157;1.0;2;0;0;0;0;();(-2000.0, -2000.0);
04:21:35:723;;;;;;;;;;;;;;04:21:32:295;1447946489.99;(0.31953470706939696, 0.8148588180541992);36.361492157;1.0;2;0;0;0;0;();(-2000.0, -2000.0);
04:21:35:739;;;;;;;;;;;;;;04:21:32:295;1447946489.99;(0.31953470706939696, 0.8148588180541992);36.361492157;1.0;2;0;0;0;0;();(-2000.0, -2000.0);
04:21:35:756;;;;;;;;;;;;;;04:21:32:295;1447946489.99;(0.31953470706939696, 0.8148588180541992);36.361492157;1.0;2;0;0;0;0;();(-2000.0, -2000.0);
04:21:35:773;;;;;;;;;;;;;;04:21:32:295;1447946489.99;(0.31953470706939696, 0.8148588180541992);36.361492157;1.0;2;0;0;0;0;();(-2000.0, -2000.0);
04:21:35:793;;;;;;;;;;;;;;04:21:32:295;1447946489.99;(0.31953470706939696, 0.8148588180541992);36.361492157;1.0;2;0;0;0;0;();(-2000.0, -2000.0);
04:21:35:810;;;;;;;;;;;;;;04:21:32:295;1447946489.99;(0.31953470706939696, 0.8148588180541992);36.361492157;1.0;2;0;0;0;0;();(-2000.0, -2000.0);
04:21:35:844;;;;;;;;;;;;;;04:21:32:295;1447946489.99;(0.31953470706939696, 0.8148588180541992);36.361492157;1.0;2;0;0;0;0;();(-2000.0, -2000.0);
04:21:35:861;;;;;;;;;;;;;;04:21:32:295;1447946489.99;(0.31953470706939696, 0.8148588180541992);36.361492157;1.0;2;0;0;0;0;();(-2000.0, -2000.0);
04:21:35:877;;;;;;;;;;;;;;04:21:32:295;1447946489.99;(0.31953470706939696, 0.8148588180541992);36.361492157;1.0;2;0;0;0;0;();(-2000.0, -2000.0);
04:21:35:893;;;;;;;;;;;;;;04:21:32:295;1447946489.99;(0.31953470706939696, 0.8148588180541992);36.361492157;1.0;2;0;0;0;0;();(-2000.0, -2000.0);
04:21:35:910;;;;;;;;;;;;;;04:21:32:295;1447946489.99;(0.31953470706939696, 0.8148588180541992);36.361492157;1.0;2;0;0;0;0;();(-2000.0, -2000.0);
04:21:35:943;;;;;;;;;;;;;;04:21:32:295;1447946489.99;(0.31953470706939696, 0.8148588180541992);36.361492157;1.0;2;0;0;0;0;();(-2000.0, -2000.0);
04:21:35:960;;;;;;;;;;;;;;04:21:32:295;1447946489.99;(0.31953470706939696, 0.8148588180541992);36.361492157;1.0;2;0;0;0;0;();(-2000.0, -2000.0);
04:21:35:976;;;;;;;;;;;;;;04:21:32:295;1447946489.99;(0.31953470706939696, 0.8148588180541992);36.361492157;1.0;2;0;0;0;0;();(-2000.0, -2000.0);
04:21:36:002;;;;;;;;;;;;;;04:21:32:295;1447946489.99;(0.31953470706939696, 0.8148588180541992);36.361492157;1.0;2;0;0;0;0;();(-2000.0, -2000.0);
04:21:36:019;;;;;;;;;;;;;;04:21:32:295;1447946489.99;(0.31953470706939696, 0.8148588180541992);36.361492157;1.0;2;0;0;0;0;();(-2000.0, -2000.0);
04:21:36:037;;;;;;;;;;;;;;04:21:32:295;1447946489.99;(0.31953470706939696, 0.8148588180541992);36.361492157;1.0;2;0;0;0;0;();(-2000.0, -2000.0);
04:21:36:575;04:21:36:573;0;4;-1.5;1;0;0;0;0;1;1;1;1;04:21:32:295;1447946489.99;(0.31953470706939696, 0.8148588180541992);36.361492157;1.0;2;0;0;0;0;();(-2000.0, -2000.0);
04:21:36:579;04:21:36:579;0;4;-1.5;1;0;0;0;0;1;1;1;1;04:21:32:295;1447946489.99;(0.31953470706939696, 0.8148588180541992);36.361492157;1.0;2;0;0;0;0;();(-2000.0, -2000.0);
04:21:36:582;04:21:36:582;0;4;-1.5;1;0;0;0;0;1;1;1;1;04:21:32:295;1447946489.99;(0.31953470706939696, 0.8148588180541992);36.361492157;1.0;2;0;0;0;0;();(-2000.0, -2000.0);
04:21:36:585;04:21:36:585;0;4;-1.5;1;0;0;0;0;1;1;1;1;04:21:32:295;1447946489.99;(0.31953470706939696, 0.8148588180541992);36.361492157;1.0;2;0;0;0;0;();(-2000.0, -2000.0);
04:21:36:587;04:21:36:586;0;7;-1.5;1;0;0;0;0;1;1;1;1;04:21:32:295;1447946489.99;(0.31953470706939696, 0.8148588180541992);36.361492157;1.0;2;0;0;0;0;();(-2000.0, -2000.0);
04:21:36:589;04:21:36:589;0;10;-1.5;1;0;0;0;0;1;1;1;1;04:21:32:295;1447946489.99;(0.31953470706939696, 0.8148588180541992);36.361492157;1.0;2;0;0;0;0;();(-2000.0, -2000.0);
04:21:36:591;04:21:36:591;0;10;-1.5;1;0;0;0;0;1;1;1;1;04:21:32:295;1447946489.99;(0.31953470706939696, 0.8148588180541992);36.361492157;1.0;2;0;0;0;0;();(-2000.0, -2000.0);
04:21:36:593;04:21:36:593;0;10;-1.5;1;0;0;0;0;1;1;1;1;04:21:32:295;1447946489.99;(0.31953470706939696, 0.8148588180541992);36.361492157;1.0;2;0;0;0;0;();(-2000.0, -2000.0);
04:21:36:595;04:21:36:595;0;10;-1.5;1;0;0;0;0;1;1;1;1;04:21:32:295;1447946489.99;(0.31953470706939696, 0.8148588180541992);36.361492157;1.0;2;0;0;0;0;();(-2000.0, -2000.0);
04:21:36:597;04:21:36:597;0;10;-1.5;1;0;0;0;0;1;1;1;1;04:21:32:295;1447946489.99;(0.31953470706939696, 0.8148588180541992);36.361492157;1.0;2;0;0;0;0;();(-2000.0, -2000.0);
04:21:36:599;04:21:36:599;0;10;-1.5;1;0;0;0;0;1;1;1;1;04:21:32:295;1447946489.99;(0.31953470706939696, 0.8148588180541992);36.361492157;1.0;2;0;0;0;0;();(-2000.0, -2000.0);
04:21:36:600;04:21:36:600;0;10;-1.5;1;0;0;0;0;1;1;1;1;04:21:32:295;1447946489.99;(0.31953470706939696, 0.8148588180541992);36.361492157;1.0;2;0;0;0;0;();(-2000.0, -2000.0);
04:21:36:602;04:21:36:602;0;10;-1.5;1;0;0;0;0;1;1;1;1;04:21:32:295;1447946489.99;(0.31953470706939696, 0.8148588180541992);36.361492157;1.0;2;0;0;0;0;();(-2000.0, -2000.0);
04:21:36:603;04:21:36:603;0;10;-1.5;1;0;0;0;0;1;1;1;1;04:21:32:295;1447946489.99;(0.31953470706939696, 0.8148588180541992);36.361492157;1.0;2;0;0;0;0;();(-2000.0, -2000.0);
04:21:36:605;04:21:36:605;0;10;-1.5;1;0;0;0;0;1;1;1;1;04:21:32:295;1447946489.99;(0.31953470706939696, 0.8148588180541992);36.361492157;1.0;2;0;0;0;0;();(-2000.0, -2000.0);
04:21:36:607;04:21:36:607;0;10;-1.5;1;0;0;0;0;1;1;1;1;04:21:32:295;1447946489.99;(0.31953470706939696, 0.8148588180541992);36.361492157;1.0;2;0;0;0;0;();(-2000.0, -2000.0);
04:21:36:608;04:21:36:608;0;4;-1.5;1;0;0;0;0;1;1;1;1;04:21:32:295;1447946489.99;(0.31953470706939696, 0.8148588180541992);36.361492157;1.0;2;0;0;0;0;();(-2000.0, -2000.0);
04:21:36:613;04:21:36:613;0;10;-1.5;1;0;0;0;0;1;1;1;1;04:21:32:295;1447946489.99;(0.31953470706939696, 0.8148588180541992);36.361492157;1.0;2;0;0;0;0;();(-2000.0, -2000.0);
04:21:36:615;04:21:36:615;0;8;-1.5;1;0;0;0;0;1;1;1;1;04:21:32:295;1447946489.99;(0.31953470706939696, 0.8148588180541992);36.361492157;1.0;2;0;0;0;0;();(-2000.0, -2000.0);
04:21:36:646;04:21:36:646;0;15;-1.5;1;0;0;0;0;1;1;1;1;04:21:32:295;1447946489.99;(0.31953470706939696, 0.8148588180541992);36.361492157;1.0;2;0;0;0;0;();(-2000.0, -2000.0);
04:21:36:663;04:21:36:663;0;10;-1.5;1;0;0;0;0;1;1;1;1;04:21:32:295;1447946489.99;(0.31953470706939696, 0.8148588180541992);36.361492157;1.0;2;0;0;0;0;();(-2000.0, -2000.0);
04:21:36:680;04:21:36:680;0;15;-1.5;1;0;0;0;0;1;1;1;1;04:21:32:295;1447946489.99;(0.31953470706939696, 0.8148588180541992);36.361492157;1.0;2;0;0;0;0;();(-2000.0, -2000.0);
04:21:36:698;04:21:36:698;0;5;-1.5;1;0;0;0;0;1;1;1;1;04:21:32:295;1447946489.99;(0.31953470706939696, 0.8148588180541992);36.361492157;1.0;2;0;0;0;0;();(-2000.0, -2000.0);
04:21:36:714;04:21:36:714;0;3;-1.5;1;0;0;0;0;1;1;1;1;04:21:32:295;1447946489.99;(0.31953470706939696, 0.8148588180541992);36.361492157;1.0;2;0;0;0;0;();(-2000.0, -2000.0);
04:21:36:746;04:21:36:746;0;9;-1.5;1;0;0;0;0;1;1;1;1;04:21:32:295;1447946489.99;(0.31953470706939696, 0.8148588180541992);36.361492157;1.0;2;0;0;0;0;();(-2000.0, -2000.0);
04:21:36:764;04:21:36:764;0;8;-1.5;1;0;0;0;0;1;1;1;1;04:21:32:295;1447946489.99;(0.31953470706939696, 0.8148588180541992);36.361492157;1.0;2;0;0;0;0;();(-2000.0, -2000.0);
04:21:36:780;04:21:36:780;0;10;-1.5;1;0;0;0;0;1;1;1;1;04:21:32:295;1447946489.99;(0.31953470706939696, 0.8148588180541992);36.361492157;1.0;2;0;0;0;0;();(-2000.0, -2000.0);
04:21:36:796;04:21:36:796;0;4;-1.5;1;0;0;0;0;1;1;1;1;04:21:32:295;1447946489.99;(0.31953470706939696, 0.8148588180541992);36.361492157;1.0;2;0;0;0;0;();(-2000.0, -2000.0);
04:21:36:814;04:21:36:814;0;10;-1.5;1;0;0;0;0;1;1;1;1;04:21:32:295;1447946489.99;(0.31953470706939696, 0.8148588180541992);36.361492157;1.0;2;0;0;0;0;();(-2000.0, -2000.0);
04:21:36:832;04:21:36:832;0;14;-1.5;1;0;0;0;0;1;1;1;1;04:21:32:295;1447946489.99;(0.31953470706939696, 0.8148588180541992);36.361492157;1.0;2;0;0;0;0;();(-2000.0, -2000.0);
04:21:36:860;04:21:36:860;0;5;-1.5;1;0;0;0;0;1;1;1;1;04:21:32:295;1447946489.99;(0.31953470706939696, 0.8148588180541992);36.361492157;1.0;2;0;0;0;0;();(-2000.0, -2000.0);
04:21:36:877;04:21:36:876;0;10;-1.5;1;0;0;0;0;1;1;1;1;04:21:32:295;1447946489.99;(0.31953470706939696, 0.8148588180541992);36.361492157;1.0;2;0;0;0;0;();(-2000.0, -2000.0);
04:21:36:893;04:21:36:893;0;4;-1.5;1;0;0;0;0;1;1;1;1;04:21:32:295;1447946489.99;(0.31953470706939696, 0.8148588180541992);36.361492157;1.0;2;0;0;0;0;();(-2000.0, -2000.0);
04:21:36:926;04:21:36:926;0;4;-1.5;1;0;0;0;0;1;1;1;1;04:21:32:295;1447946489.99;(0.31953470706939696, 0.8148588180541992);36.361492157;1.0;2;0;0;0;0;();(-2000.0, -2000.0);
04:21:36:943;04:21:36:943;0;10;-1.5;1;0;0;0;0;1;1;1;1;04:21:32:295;1447946489.99;(0.31953470706939696, 0.8148588180541992);36.361492157;1.0;2;0;0;0;0;();(-2000.0, -2000.0);
04:21:36:961;04:21:36:961;0;15;-1.5;1;0;0;0;0;1;1;1;1;04:21:32:295;1447946489.99;(0.31953470706939696, 0.8148588180541992);36.361492157;1.0;2;0;0;0;0;();(-2000.0, -2000.0);
04:21:36:976;04:21:36:976;0;10;-1.5;1;0;0;0;0;1;1;1;1;04:21:32:295;1447946489.99;(0.31953470706939696, 0.8148588180541992);36.361492157;1.0;2;0;0;0;0;();(-2000.0, -2000.0);
04:21:36:993;04:21:36:993;0;15;-1.5;1;0;0;0;0;1;1;1;1;04:21:32:295;1447946489.99;(0.31953470706939696, 0.8148588180541992);36.361492157;1.0;2;0;0;0;0;();(-2000.0, -2000.0);
04:21:37:030;04:21:37:030;0;10;-1.5;1;0;0;0;0;1;1;1;1;04:21:32:295;1447946489.99;(0.31953470706939696, 0.8148588180541992);36.361492157;1.0;2;0;0;0;0;();(-2000.0, -2000.0);
04:21:37:050;04:21:37:050;0;5;-1.5;1;0;0;0;0;1;1;1;1;04:21:32:295;1447946489.99;(0.31953470706939696, 0.8148588180541992);36.361492157;1.0;2;0;0;0;0;();(-2000.0, -2000.0);
04:21:37:075;04:21:37:075;0;10;-1.5;1;0;0;0;0;1;1;1;1;04:21:32:295;1447946489.99;(0.31953470706939696, 0.8148588180541992);36.361492157;1.0;2;0;0;0;0;();(-2000.0, -2000.0);
04:21:37:079;04:21:37:079;0;4;-1.5;1;0;0;0;0;1;1;1;1;04:21:32:295;1447946489.99;(0.31953470706939696, 0.8148588180541992);36.361492157;1.0;2;0;0;0;0;();(-2000.0, -2000.0);
04:21:37:092;04:21:37:092;0;15;-1.5;1;0;0;0;0;1;1;1;1;04:21:32:295;1447946489.99;(0.31953470706939696, 0.8148588180541992);36.361492157;1.0;2;0;0;0;0;();(-2000.0, -2000.0);
04:21:37:125;04:21:37:125;0;15;-1.5;1;0;0;0;0;1;1;1;1;04:21:32:295;1447946489.99;(0.31953470706939696, 0.8148588180541992);36.361492157;1.0;2;0;0;0;0;();(-2000.0, -2000.0);
04:21:37:142;04:21:37:142;0;4;-1.5;1;0;0;0;0;1;1;1;1;04:21:32:295;1447946489.99;(0.31953470706939696, 0.8148588180541992);36.361492157;1.0;2;0;0;0;0;();(-2000.0, -2000.0);
04:21:37:158;04:21:37:158;0;0;-1.5;1;0;0;0;0;1;1;1;1;04:21:32:295;1447946489.99;(0.31953470706939696, 0.8148588180541992);36.361492157;1.0;2;0;0;0;0;();(-2000.0, -2000.0);
04:21:37:175;04:21:37:174;0;9;-1.5;1;0;0;0;0;1;1;1;1;04:21:32:295;1447946489.99;(0.31953470706939696, 0.8148588180541992);36.361492157;1.0;2;0;0;0;0;();(-2000.0, -2000.0);
04:21:37:191;04:21:37:191;0;15;-1.5;1;0;0;0;0;1;1;1;1;04:21:32:295;1447946489.99;(0.31953470706939696, 0.8148588180541992);36.361492157;1.0;2;0;0;0;0;();(-2000.0, -2000.0);
04:21:37:248;04:21:37:248;0;5;-1.5;1;0;0;0;0;1;1;1;1;04:21:32:295;1447946489.99;(0.31953470706939696, 0.8148588180541992);36.361492157;1.0;2;0;0;0;0;();(-2000.0, -2000.0);
04:21:37:251;04:21:37:251;0;0;-1.5;1;0;0;0;0;1;1;1;1;04:21:32:295;1447946489.99;(0.31953470706939696, 0.8148588180541992);36.361492157;1.0;2;0;0;0;0;();(-2000.0, -2000.0);
04:21:37:269;04:21:37:269;0;10;-1.5;1;0;0;0;0;1;1;1;1;04:21:32:295;1447946489.99;(0.31953470706939696, 0.8148588180541992);36.361492157;1.0;2;0;0;0;0;();(-2000.0, -2000.0);
04:21:37:291;04:21:37:291;0;15;-1.5;1;0;0;0;0;1;1;1;1;04:21:32:295;1447946489.99;(0.31953470706939696, 0.8148588180541992);36.361492157;1.0;2;0;0;0;0;();(-2000.0, -2000.0);
04:21:37:296;04:21:37:296;0;4;-1.5;1;0;0;0;0;1;1;1;1;04:21:32:295;1447946489.99;(0.31953470706939696, 0.8148588180541992);36.361492157;1.0;2;0;0;0;0;();(-2000.0, -2000.0);
04:21:37:325;04:21:37:325;0;10;-1.5;1;0;0;0;0;1;1;1;1;04:21:32:295;1447946489.99;(0.31953470706939696, 0.8148588180541992);36.361492157;1.0;2;0;0;0;0;();(-2000.0, -2000.0);
04:21:37:341;04:21:37:341;0;5;-1.5;1;0;0;0;0;1;1;1;1;04:21:32:295;1447946489.99;(0.31953470706939696, 0.8148588180541992);36.361492157;1.0;2;0;0;0;0;();(-2000.0, -2000.0);
04:21:37:359;04:21:37:359;0;10;-1.5;1;0;0;0;0;1;1;1;1;04:21:32:295;1447946489.99;(0.31953470706939696, 0.8148588180541992);36.361492157;1.0;2;0;0;0;0;();(-2000.0, -2000.0);
04:21:37:374;04:21:37:374;0;4;-1.5;1;0;0;0;0;1;1;1;1;04:21:32:295;1447946489.99;(0.31953470706939696, 0.8148588180541992);36.361492157;1.0;2;0;0;0;0;();(-2000.0, -2000.0);
04:21:37:408;04:21:37:408;0;8;-1.5;1;0;0;0;0;1;1;1;1;04:21:32:295;1447946489.99;(0.31953470706939696, 0.8148588180541992);36.361492157;1.0;2;0;0;0;0;();(-2000.0, -2000.0);
04:21:37:425;04:21:37:425;0;10;-1.5;1;0;0;0;0;1;1;1;1;04:21:32:295;1447946489.99;(0.31953470706939696, 0.8148588180541992);36.361492157;1.0;2;0;0;0;0;();(-2000.0, -2000.0);
04:21:37:463;04:21:37:463;0;10;-1.5;1;0;0;0;0;1;1;1;1;04:21:32:295;1447946489.99;(0.31953470706939696, 0.8148588180541992);36.361492157;1.0;2;0;0;0;0;();(-2000.0, -2000.0);
04:21:37:467;04:21:37:467;0;15;-1.5;1;0;0;0;0;1;1;1;1;04:21:32:295;1447946489.99;(0.31953470706939696, 0.8148588180541992);36.361492157;1.0;2;0;0;0;0;();(-2000.0, -2000.0);
04:21:37:484;04:21:37:484;0;15;-1.5;1;0;0;0;0;1;1;1;1;04:21:32:295;1447946489.99;(0.31953470706939696, 0.8148588180541992);36.361492157;1.0;2;0;0;0;0;();(-2000.0, -2000.0);
04:21:37:501;04:21:37:501;0;5;-1.5;1;0;0;0;0;1;1;1;1;04:21:32:295;1447946489.99;(0.31953470706939696, 0.8148588180541992);36.361492157;1.0;2;0;0;0;0;();(-2000.0, -2000.0);
04:21:37:517;04:21:37:517;0;10;-1.5;1;0;0;0;0;1;1;1;1;04:21:32:295;1447946489.99;(0.31953470706939696, 0.8148588180541992);36.361492157;1.0;2;0;0;0;0;();(-2000.0, -2000.0);
04:21:37:534;04:21:37:534;0;4;-1.5;1;0;0;0;0;1;1;1;1;04:21:32:295;1447946489.99;(0.31953470706939696, 0.8148588180541992);36.361492157;1.0;2;0;0;0;0;();(-2000.0, -2000.0);
04:21:37:567;04:21:37:567;0;4;-1.5;1;0;0;0;0;1;1;1;1;04:21:32:295;1447946489.99;(0.31953470706939696, 0.8148588180541992);36.361492157;1.0;2;0;0;0;0;();(-2000.0, -2000.0);
04:21:37:584;04:21:37:583;0;10;-1.5;1;0;0;0;0;1;1;1;1;04:21:32:295;1447946489.99;(0.31953470706939696, 0.8148588180541992);36.361492157;1.0;2;0;0;0;0;();(-2000.0, -2000.0);
04:21:37:600;04:21:37:600;0;15;-1.5;1;0;0;0;0;1;1;1;1;04:21:32:295;1447946489.99;(0.31953470706939696, 0.8148588180541992);36.361492157;1.0;2;0;0;0;0;();(-2000.0, -2000.0);
04:21:37:617;04:21:37:617;0;9;-1.5;1;0;0;0;0;1;1;1;1;04:21:32:295;1447946489.99;(0.31953470706939696, 0.8148588180541992);36.361492157;1.0;2;0;0;0;0;();(-2000.0, -2000.0);
04:21:37:634;04:21:37:634;0;0;-1.5;1;0;0;0;0;1;1;1;1;04:21:32:295;1447946489.99;(0.31953470706939696, 0.8148588180541992);36.361492157;1.0;2;0;0;0;0;();(-2000.0, -2000.0);
04:21:37:672;04:21:37:672;0;5;-1.5;1;0;0;0;0;1;1;1;1;04:21:32:295;1447946489.99;(0.31953470706939696, 0.8148588180541992);36.361492157;1.0;2;0;0;0;0;();(-2000.0, -2000.0);
04:21:37:674;04:21:37:674;0;10;-1.5;1;0;0;0;0;1;1;1;1;04:21:32:295;1447946489.99;(0.31953470706939696, 0.8148588180541992);36.361492157;1.0;2;0;0;0;0;();(-2000.0, -2000.0);
04:21:37:692;04:21:37:691;0;4;-1.5;1;0;0;0;0;1;1;1;1;04:21:32:295;1447946489.99;(0.31953470706939696, 0.8148588180541992);36.361492157;1.0;2;0;0;0;0;();(-2000.0, -2000.0);
04:21:37:713;04:21:37:713;0;9;-1.5;1;0;0;0;0;1;1;1;1;04:21:32:295;1447946489.99;(0.31953470706939696, 0.8148588180541992);36.361492157;1.0;2;0;0;0;0;();(-2000.0, -2000.0);
04:21:37:746;04:21:37:746;0;10;-1.5;1;0;0;0;0;1;1;1;1;04:21:32:295;1447946489.99;(0.31953470706939696, 0.8148588180541992);36.361492157;1.0;2;0;0;0;0;();(-2000.0, -2000.0);
04:21:37:763;04:21:37:763;0;15;-1.5;1;0;0;0;0;1;1;1;1;04:21:32:295;1447946489.99;(0.31953470706939696, 0.8148588180541992);36.361492157;1.0;2;0;0;0;0;();(-2000.0, -2000.0);
04:21:37:779;04:21:37:779;0;10;-1.5;1;0;0;0;0;1;1;1;1;04:21:32:295;1447946489.99;(0.31953470706939696, 0.8148588180541992);36.361492157;1.0;2;0;0;0;0;();(-2000.0, -2000.0);
04:21:37:796;04:21:37:796;0;15;-1.5;1;0;0;0;0;1;1;1;1;04:21:32:295;1447946489.99;(0.31953470706939696, 0.8148588180541992);36.361492157;1.0;2;0;0;0;0;();(-2000.0, -2000.0);
04:21:37:813;04:21:37:813;0;5;-1.5;1;0;0;0;0;1;1;1;1;04:21:32:295;1447946489.99;(0.31953470706939696, 0.8148588180541992);36.361492157;1.0;2;0;0;0;0;();(-2000.0, -2000.0);
04:21:37:846;04:21:37:846;0;4;-1.5;1;0;0;0;0;1;1;1;1;04:21:32:295;1447946489.99;(0.31953470706939696, 0.8148588180541992);36.361492157;1.0;2;0;0;0;0;();(-2000.0, -2000.0);
04:21:37:885;04:21:37:885;0;9;-1.5;1;0;0;0;0;1;1;1;1;04:21:32:295;1447946489.99;(0.31953470706939696, 0.8148588180541992);36.361492157;1.0;2;0;0;0;0;();(-2000.0, -2000.0);
04:21:37:890;04:21:37:889;0;4;-1.5;1;0;0;0;0;1;1;1;1;04:21:32:295;1447946489.99;(0.31953470706939696, 0.8148588180541992);36.361492157;1.0;2;0;0;0;0;();(-2000.0, -2000.0);
04:21:37:906;04:21:37:906;0;10;-1.5;1;0;0;0;0;1;1;1;1;04:21:32:295;1447946489.99;(0.31953470706939696, 0.8148588180541992);36.361492157;1.0;2;0;0;0;0;();(-2000.0, -2000.0);
04:21:37:926;04:21:37:926;0;15;-1.5;1;0;0;0;0;1;1;1;1;04:21:32:295;1447946489.99;(0.31953470706939696, 0.8148588180541992);36.361492157;1.0;2;0;0;0;0;();(-2000.0, -2000.0);
04:21:37:944;04:21:37:944;0;4;-1.5;1;0;0;0;0;1;1;1;1;04:21:32:295;1447946489.99;(0.31953470706939696, 0.8148588180541992);36.361492157;1.0;2;0;0;0;0;();(-2000.0, -2000.0);
04:21:37:960;04:21:37:959;0;15;-1.5;1;0;0;0;0;1;1;1;1;04:21:32:295;1447946489.99;(0.31953470706939696, 0.8148588180541992);36.361492157;1.0;2;0;0;0;0;();(-2000.0, -2000.0);
04:21:37:976;04:21:37:976;0;5;-1.5;1;0;0;0;0;1;1;1;1;04:21:32:295;1447946489.99;(0.31953470706939696, 0.8148588180541992);36.361492157;1.0;2;0;0;0;0;();(-2000.0, -2000.0);
04:21:37:994;04:21:37:994;0;15;-1.5;1;0;0;0;0;1;1;1;1;04:21:32:295;1447946489.99;(0.31953470706939696, 0.8148588180541992);36.361492157;1.0;2;0;0;0;0;();(-2000.0, -2000.0);
04:21:38:026;04:21:38:026;0;15;-1.5;1;0;0;0;0;1;1;1;1;04:21:32:295;1447946489.99;(0.31953470706939696, 0.8148588180541992);36.361492157;1.0;2;0;0;0;0;();(-2000.0, -2000.0);
04:21:38:042;04:21:38:042;0;4;-1.5;1;0;0;0;0;1;1;1;1;04:21:32:295;1447946489.99;(0.31953470706939696, 0.8148588180541992);36.361492157;1.0;2;0;0;0;0;();(-2000.0, -2000.0);
04:21:38:059;04:21:38:059;0;10;-1.5;1;0;0;0;0;1;1;1;1;04:21:32:295;1447946489.99;(0.31953470706939696, 0.8148588180541992);36.361492157;1.0;2;0;0;0;0;();(-2000.0, -2000.0);
04:21:38:085;04:21:38:085;0;15;-1.5;1;0;0;0;0;1;1;1;1;04:21:32:295;1447946489.99;(0.31953470706939696, 0.8148588180541992);36.361492157;1.0;2;0;0;0;0;();(-2000.0, -2000.0);
04:21:38:102;04:21:38:101;0;4;-1.5;1;0;0;0;0;1;1;1;1;04:21:32:295;1447946489.99;(0.31953470706939696, 0.8148588180541992);36.361492157;1.0;2;0;0;0;0;();(-2000.0, -2000.0);
04:21:38:122;04:21:38:122;0;9;-1.5;1;0;0;0;0;1;1;1;1;04:21:32:295;1447946489.99;(0.31953470706939696, 0.8148588180541992);36.361492157;1.0;2;0;0;0;0;();(-2000.0, -2000.0);
04:21:38:139;04:21:38:139;0;5;-1.5;1;0;0;0;0;1;1;1;1;04:21:32:295;1447946489.99;(0.31953470706939696, 0.8148588180541992);36.361492157;1.0;2;0;0;0;0;();(-2000.0, -2000.0);
04:21:38:155;04:21:38:155;0;10;-1.5;1;0;0;0;0;1;1;1;1;04:21:32:295;1447946489.99;(0.31953470706939696, 0.8148588180541992);36.361492157;1.0;2;0;0;0;0;();(-2000.0, -2000.0);
04:21:38:172;04:21:38:172;0;15;-1.5;1;0;0;0;0;1;1;1;1;04:21:32:295;1447946489.99;(0.31953470706939696, 0.8148588180541992);36.361492157;1.0;2;0;0;0;0;();(-2000.0, -2000.0);
04:21:38:205;04:21:38:205;0;4;-1.5;1;0;0;0;0;1;1;1;1;04:21:32:295;1447946489.99;(0.31953470706939696, 0.8148588180541992);36.361492157;1.0;2;0;0;0;0;();(-2000.0, -2000.0);
04:21:38:222;04:21:38:222;0;10;-1.5;1;0;0;0;0;1;1;1;1;04:21:32:295;1447946489.99;(0.31953470706939696, 0.8148588180541992);36.361492157;1.0;2;0;0;0;0;();(-2000.0, -2000.0);
04:21:38:238;04:21:38:238;0;5;-1.5;1;0;0;0;0;1;1;1;1;04:21:32:295;1447946489.99;(0.31953470706939696, 0.8148588180541992);36.361492157;1.0;2;0;0;0;0;();(-2000.0, -2000.0);
04:21:38:255;04:21:38:255;0;10;-1.5;1;0;0;0;0;1;1;1;1;04:21:32:295;1447946489.99;(0.31953470706939696, 0.8148588180541992);36.361492157;1.0;2;0;0;0;0;();(-2000.0, -2000.0);
04:21:38:295;04:21:38:294;0;5;-1.5;1;0;0;0;0;1;1;1;1;04:21:32:295;1447946489.99;(0.31953470706939696, 0.8148588180541992);36.361492157;1.0;2;0;0;0;0;();(-2000.0, -2000.0);
04:21:38:297;04:21:38:297;0;5;-1.5;1;0;0;0;0;1;1;1;1;04:21:32:295;1447946489.99;(0.31953470706939696, 0.8148588180541992);36.361492157;1.0;2;0;0;0;0;();(-2000.0, -2000.0);
04:21:38:311;04:21:38:311;0;10;-1.5;1;0;0;0;0;1;1;1;1;04:21:32:295;1447946489.99;(0.31953470706939696, 0.8148588180541992);36.361492157;1.0;2;0;0;0;0;();(-2000.0, -2000.0);
04:21:38:344;04:21:38:344;0;9;-1.5;1;0;0;0;0;1;1;1;1;04:21:32:295;1447946489.99;(0.31953470706939696, 0.8148588180541992);36.361492157;1.0;2;0;0;0;0;();(-2000.0, -2000.0);
04:21:38:361;04:21:38:361;0;4;-1.5;1;0;0;0;0;1;1;1;1;04:21:32:295;1447946489.99;(0.31953470706939696, 0.8148588180541992);36.361492157;1.0;2;0;0;0;0;();(-2000.0, -2000.0);
04:21:38:377;04:21:38:377;0;10;-1.5;1;0;0;0;0;1;1;1;1;04:21:32:295;1447946489.99;(0.31953470706939696, 0.8148588180541992);36.361492157;1.0;2;0;0;0;0;();(-2000.0, -2000.0);
04:21:38:394;04:21:38:394;0;5;-1.5;1;0;0;0;0;1;1;1;1;04:21:32:295;1447946489.99;(0.31953470706939696, 0.8148588180541992);36.361492157;1.0;2;0;0;0;0;();(-2000.0, -2000.0);
04:21:38:427;04:21:38:427;0;4;-1.5;1;0;0;0;0;1;1;1;1;04:21:32:295;1447946489.99;(0.31953470706939696, 0.8148588180541992);36.361492157;1.0;2;0;0;0;0;();(-2000.0, -2000.0);
04:21:38:444;04:21:38:444;0;10;-1.5;1;0;0;0;0;1;1;1;1;04:21:32:295;1447946489.99;(0.31953470706939696, 0.8148588180541992);36.361492157;1.0;2;0;0;0;0;();(-2000.0, -2000.0);
04:21:38:529;04:21:38:529;0;15;-1.5;1;0;0;0;0;1;1;1;1;04:21:32:295;1447946489.99;(0.31953470706939696, 0.8148588180541992);36.361492157;1.0;2;0;0;0;0;();(-2000.0, -2000.0);
04:21:38:531;04:21:38:531;0;15;-1.5;1;0;0;0;0;1;1;1;1;04:21:32:295;1447946489.99;(0.31953470706939696, 0.8148588180541992);36.361492157;1.0;2;0;0;0;0;();(-2000.0, -2000.0);
04:21:38:533;04:21:38:533;0;15;-1.5;1;0;0;0;0;1;1;1;1;04:21:32:295;1447946489.99;(0.31953470706939696, 0.8148588180541992);36.361492157;1.0;2;0;0;0;0;();(-2000.0, -2000.0);
04:21:38:535;04:21:38:535;0;15;-1.5;1;0;0;0;0;1;1;1;1;04:21:32:295;1447946489.99;(0.31953470706939696, 0.8148588180541992);36.361492157;1.0;2;0;0;0;0;();(-2000.0, -2000.0);
04:21:38:546;04:21:38:546;0;5;-1.5;1;0;0;0;0;1;1;1;1;04:21:32:295;1447946489.99;(0.31953470706939696, 0.8148588180541992);36.361492157;1.0;2;0;0;0;0;();(-2000.0, -2000.0);
04:21:38:563;04:21:38:563;0;0;-1.5;1;0;0;0;0;1;1;1;1;04:21:32:295;1447946489.99;(0.31953470706939696, 0.8148588180541992);36.361492157;1.0;2;0;0;0;0;();(-2000.0, -2000.0);
04:21:38:579;04:21:38:579;0;10;-1.5;1;0;0;0;0;1;1;1;1;04:21:32:295;1447946489.99;(0.31953470706939696, 0.8148588180541992);36.361492157;1.0;2;0;0;0;0;();(-2000.0, -2000.0);
04:21:38:596;04:21:38:596;0;14;-1.5;1;0;0;0;0;1;1;1;1;04:21:32:295;1447946489.99;(0.31953470706939696, 0.8148588180541992);36.361492157;1.0;2;0;0;0;0;();(-2000.0, -2000.0);
04:21:38:612;04:21:38:612;0;5;-1.5;1;0;0;0;0;1;1;1;1;04:21:32:295;1447946489.99;(0.31953470706939696, 0.8148588180541992);36.361492157;1.0;2;0;0;0;0;();(-2000.0, -2000.0);
04:21:38:645;04:21:38:645;0;4;-1.5;1;0;0;0;0;1;1;1;1;04:21:32:295;1447946489.99;(0.31953470706939696, 0.8148588180541992);36.361492157;1.0;2;0;0;0;0;();(-2000.0, -2000.0);
04:21:38:662;04:21:38:662;0;15;-1.5;1;0;0;0;0;1;1;1;1;04:21:32:295;1447946489.99;(0.31953470706939696, 0.8148588180541992);36.361492157;1.0;2;0;0;0;0;();(-2000.0, -2000.0);
04:21:38:679;04:21:38:679;0;13;-1.5;1;0;0;0;0;1;1;1;1;04:21:32:295;1447946489.99;(0.31953470706939696, 0.8148588180541992);36.361492157;1.0;2;0;0;0;0;();(-2000.0, -2000.0);
04:21:38:695;04:21:38:695;0;0;-1.5;1;0;0;0;0;1;1;1;1;04:21:32:295;1447946489.99;(0.31953470706939696, 0.8148588180541992);36.361492157;1.0;2;0;0;0;0;();(-2000.0, -2000.0);
04:21:38:712;04:21:38:712;0;5;-1.5;1;0;0;0;0;1;1;1;1;04:21:32:295;1447946489.99;(0.31953470706939696, 0.8148588180541992);36.361492157;1.0;2;0;0;0;0;();(-2000.0, -2000.0);
04:21:38:745;04:21:38:745;0;4;-1.5;1;0;0;0;0;1;1;1;1;04:21:32:295;1447946489.99;(0.31953470706939696, 0.8148588180541992);36.361492157;1.0;2;0;0;0;0;();(-2000.0, -2000.0);
04:21:38:761;04:21:38:761;0;15;-1.5;1;0;0;0;0;1;1;1;1;04:21:32:295;1447946489.99;(0.31953470706939696, 0.8148588180541992);36.361492157;1.0;2;0;0;0;0;();(-2000.0, -2000.0);
04:21:38:778;04:21:38:778;0;5;-1.5;1;0;0;0;0;1;1;1;1;04:21:32:295;1447946489.99;(0.31953470706939696, 0.8148588180541992);36.361492157;1.0;2;0;0;0;0;();(-2000.0, -2000.0);
04:21:38:795;04:21:38:795;0;15;-1.5;1;0;0;0;0;1;1;1;1;04:21:32:295;1447946489.99;(0.31953470706939696, 0.8148588180541992);36.361492157;1.0;2;0;0;0;0;();(-2000.0, -2000.0);
04:21:38:828;04:21:38:828;0;9;-1.5;1;0;0;0;0;1;1;1;1;04:21:32:295;1447946489.99;(0.31953470706939696, 0.8148588180541992);36.361492157;1.0;2;0;0;0;0;();(-2000.0, -2000.0);
04:21:38:844;04:21:38:844;0;4;-1.5;1;0;0;0;0;1;1;1;1;04:21:32:295;1447946489.99;(0.31953470706939696, 0.8148588180541992);36.361492157;1.0;2;0;0;0;0;();(-2000.0, -2000.0);
04:21:38:861;04:21:38:861;0;10;-1.5;1;0;0;0;0;1;1;1;1;04:21:32:295;1447946489.99;(0.31953470706939696, 0.8148588180541992);36.361492157;1.0;2;0;0;0;0;();(-2000.0, -2000.0);
04:21:38:877;04:21:38:877;0;4;-1.5;1;0;0;0;0;1;1;1;1;04:21:32:295;1447946489.99;(0.31953470706939696, 0.8148588180541992);36.361492157;1.0;2;0;0;0;0;();(-2000.0, -2000.0);
04:21:38:895;04:21:38:895;0;10;-1.5;1;0;0;0;0;1;1;1;1;04:21:32:295;1447946489.99;(0.31953470706939696, 0.8148588180541992);36.361492157;1.0;2;0;0;0;0;();(-2000.0, -2000.0);
04:21:38:927;04:21:38:927;0;9;-1.5;1;0;0;0;0;1;1;1;1;04:21:32:295;1447946489.99;(0.31953470706939696, 0.8148588180541992);36.361492157;1.0;2;0;0;0;0;();(-2000.0, -2000.0);
04:21:38:944;04:21:38:944;0;15;-1.5;1;0;0;0;0;1;1;1;1;04:21:32:295;1447946489.99;(0.31953470706939696, 0.8148588180541992);36.361492157;1.0;2;0;0;0;0;();(-2000.0, -2000.0);
04:21:38:961;04:21:38:961;0;10;-1.5;1;0;0;0;0;1;1;1;1;04:21:32:295;1447946489.99;(0.31953470706939696, 0.8148588180541992);36.361492157;1.0;2;0;0;0;0;();(-2000.0, -2000.0);
04:21:38:977;04:21:38:977;0;15;-1.5;1;0;0;0;0;1;1;1;1;04:21:32:295;1447946489.99;(0.31953470706939696, 0.8148588180541992);36.361492157;1.0;2;0;0;0;0;();(-2000.0, -2000.0);
04:21:38:993;04:21:38:993;0;10;-1.5;1;0;0;0;0;1;1;1;1;04:21:32:295;1447946489.99;(0.31953470706939696, 0.8148588180541992);36.361492157;1.0;2;0;0;0;0;();(-2000.0, -2000.0);
04:21:39:028;04:21:39:026;0;10;-1.5;1;0;0;0;0;1;1;1;1;04:21:32:295;1447946489.99;(0.31953470706939696, 0.8148588180541992);36.361492157;1.0;2;0;0;0;0;();(-2000.0, -2000.0);
04:21:39:044;04:21:39:044;0;15;-1.5;1;0;0;0;0;1;1;1;1;04:21:32:295;1447946489.99;(0.31953470706939696, 0.8148588180541992);36.361492157;1.0;2;0;0;0;0;();(-2000.0, -2000.0);
04:21:39:060;04:21:39:060;0;13;-1.5;1;0;0;0;0;1;1;1;1;04:21:32:295;1447946489.99;(0.31953470706939696, 0.8148588180541992);36.361492157;1.0;2;0;0;0;0;();(-2000.0, -2000.0);
04:21:39:076;04:21:39:076;0;0;-1.5;1;0;0;0;0;1;1;1;1;04:21:32:295;1447946489.99;(0.31953470706939696, 0.8148588180541992);36.361492157;1.0;2;0;0;0;0;();(-2000.0, -2000.0);
04:21:39:101;04:21:39:101;0;5;-1.5;1;0;0;0;0;1;1;1;1;04:21:32:295;1447946489.99;(0.31953470706939696, 0.8148588180541992);36.361492157;1.0;4;0;0;0;0;();(-2000.0, -2000.0);
04:21:39:126;04:21:39:126;0;4;-1.5;1;0;0;0;0;1;1;1;1;04:21:32:295;1447946489.99;(0.31953470706939696, 0.8148588180541992);36.361492157;1.0;4;0;0;0;0;();(-2000.0, -2000.0);
04:21:39:143;04:21:39:143;0;10;-1.5;1;0;0;0;0;1;1;1;1;04:21:32:295;1447946489.99;(0.31953470706939696, 0.8148588180541992);36.361492157;1.0;4;0;0;0;0;();(-2000.0, -2000.0);
04:21:39:159;04:21:39:159;0;10;-1.5;1;0;0;0;0;1;1;1;1;04:21:32:295;1447946489.99;(0.31953470706939696, 0.8148588180541992);36.361492157;1.0;4;0;0;0;0;();(-2000.0, -2000.0);
04:21:39:176;04:21:39:176;0;10;-1.5;1;0;0;0;0;1;1;1;1;04:21:32:295;1447946489.99;(0.31953470706939696, 0.8148588180541992);36.361492157;1.0;4;0;0;0;0;();(-2000.0, -2000.0);
04:21:39:192;04:21:39:192;0;4;-1.5;1;0;0;0;0;1;1;1;1;04:21:32:295;1447946489.99;(0.31953470706939696, 0.8148588180541992);36.361492157;1.0;4;0;0;0;0;();(-2000.0, -2000.0);
04:21:39:225;04:21:39:225;0;4;-1.5;1;0;0;0;0;1;1;1;1;04:21:32:295;1447946489.99;(0.31953470706939696, 0.8148588180541992);36.361492157;1.0;4;0;0;0;0;();(-2000.0, -2000.0);
04:21:39:242;04:21:39:242;0;9;-1.5;1;0;0;0;0;1;1;1;1;04:21:32:295;1447946489.99;(0.31953470706939696, 0.8148588180541992);36.361492157;1.0;4;0;0;0;0;();(-2000.0, -2000.0);
04:21:39:259;04:21:39:259;0;5;-1.5;1;0;0;0;0;1;1;1;1;04:21:32:295;1447946489.99;(0.31953470706939696, 0.8148588180541992);36.361492157;1.0;4;0;0;0;0;();(-2000.0, -2000.0);
04:21:39:276;04:21:39:276;0;10;-1.5;1;0;0;0;0;1;1;1;1;04:21:32:295;1447946489.99;(0.31953470706939696, 0.8148588180541992);36.361492157;1.0;4;0;0;0;0;();(-2000.0, -2000.0);
04:21:39:292;04:21:39:292;0;15;-1.5;1;0;0;0;0;1;1;1;1;04:21:32:295;1447946489.99;(0.31953470706939696, 0.8148588180541992);36.361492157;1.0;4;0;0;0;0;();(-2000.0, -2000.0);
04:21:39:326;04:21:39:326;0;4;-1.5;1;0;0;0;0;1;1;1;1;04:21:32:295;1447946489.99;(0.31953470706939696, 0.8148588180541992);36.361492157;1.0;4;0;0;0;0;();(-2000.0, -2000.0);
04:21:39:341;04:21:39:341;0;10;-1.5;1;0;0;0;0;1;1;1;1;04:21:32:295;1447946489.99;(0.31953470706939696, 0.8148588180541992);36.361492157;1.0;4;0;0;0;0;();(-2000.0, -2000.0);
04:21:39:358;04:21:39:358;0;4;-1.5;1;0;0;0;0;1;1;1;1;04:21:32:295;1447946489.99;(0.31953470706939696, 0.8148588180541992);36.361492157;1.0;4;0;0;0;0;();(-2000.0, -2000.0);
04:21:39:375;04:21:39:375;0;10;-1.5;1;0;0;0;0;1;1;1;1;04:21:32:295;1447946489.99;(0.31953470706939696, 0.8148588180541992);36.361492157;1.0;4;0;0;0;0;();(-2000.0, -2000.0);
04:21:39:391;04:21:39:391;0;4;-1.5;1;0;0;0;0;1;1;1;1;04:21:32:295;1447946489.99;(0.31953470706939696, 0.8148588180541992);36.361492157;1.0;4;0;0;0;0;();(-2000.0, -2000.0);
04:21:39:424;04:21:39:424;0;5;-1.5;1;0;0;0;0;1;1;1;1;04:21:32:295;1447946489.99;(0.31953470706939696, 0.8148588180541992);36.361492157;1.0;4;0;0;0;0;();(-2000.0, -2000.0);
04:21:39:442;04:21:39:442;0;10;-1.5;1;0;0;0;0;1;1;1;1;04:21:32:295;1447946489.99;(0.31953470706939696, 0.8148588180541992);36.361492157;1.0;4;0;0;0;0;();(-2000.0, -2000.0);
04:21:39:458;04:21:39:458;0;15;-1.5;1;0;0;0;0;1;1;1;1;04:21:32:295;1447946489.99;(0.31953470706939696, 0.8148588180541992);36.361492157;1.0;4;0;0;0;0;();(-2000.0, -2000.0);
04:21:39:474;04:21:39:474;0;4;-1.5;1;0;0;0;0;1;1;1;1;04:21:32:295;1447946489.99;(0.31953470706939696, 0.8148588180541992);36.361492157;1.0;4;0;0;0;0;();(-2000.0, -2000.0);
04:21:39:508;04:21:39:508;0;10;-1.5;1;0;0;0;0;1;1;1;1;04:21:32:295;1447946489.99;(0.31953470706939696, 0.8148588180541992);36.361492157;1.0;4;0;0;0;0;();(-2000.0, -2000.0);
04:21:39:524;04:21:39:524;0;15;-1.5;1;0;0;0;0;1;1;1;1;04:21:32:295;1447946489.99;(0.31953470706939696, 0.8148588180541992);36.361492157;1.0;4;0;0;0;0;();(-2000.0, -2000.0);
04:21:39:540;04:21:39:540;0;4;-1.5;1;0;0;0;0;1;1;1;1;04:21:32:295;1447946489.99;(0.31953470706939696, 0.8148588180541992);36.361492157;1.0;4;0;0;0;0;();(-2000.0, -2000.0);
04:21:39:558;04:21:39:558;0;0;-1.5;1;0;0;0;0;1;1;1;1;04:21:32:295;1447946489.99;(0.31953470706939696, 0.8148588180541992);36.361492157;1.0;4;0;0;0;0;();(-2000.0, -2000.0);
04:21:39:574;04:21:39:573;0;5;-1.5;1;0;0;0;0;1;1;1;1;04:21:32:295;1447946489.99;(0.31953470706939696, 0.8148588180541992);36.361492157;1.0;4;0;0;0;0;();(-2000.0, -2000.0);
04:21:39:607;04:21:39:607;0;4;-1.5;1;0;0;0;0;1;1;1;1;04:21:32:295;1447946489.99;(0.31953470706939696, 0.8148588180541992);36.361492157;1.0;4;0;0;0;0;();(-2000.0, -2000.0);
04:21:39:623;04:21:39:623;0;4;-1.5;1;0;0;0;0;1;1;1;1;04:21:32:295;1447946489.99;(0.31953470706939696, 0.8148588180541992);36.361492157;1.0;4;0;0;0;0;();(-2000.0, -2000.0);
04:21:39:640;04:21:39:640;0;5;-1.5;1;0;0;0;0;1;1;1;1;04:21:32:295;1447946489.99;(0.31953470706939696, 0.8148588180541992);36.361492157;1.0;4;0;0;0;0;();(-2000.0, -2000.0);
04:21:39:656;04:21:39:656;0;0;-1.5;1;0;0;0;0;1;1;1;1;04:21:32:295;1447946489.99;(0.31953470706939696, 0.8148588180541992);36.361492157;1.0;4;0;0;0;0;();(-2000.0, -2000.0);
04:21:39:673;04:21:39:673;0;5;-1.5;1;0;0;0;0;1;1;1;1;04:21:32:295;1447946489.99;(0.31953470706939696, 0.8148588180541992);36.361492157;1.0;4;0;0;0;0;();(-2000.0, -2000.0);
04:21:39:706;04:21:39:706;0;4;-1.5;1;0;0;0;0;1;1;1;1;04:21:32:295;1447946489.99;(0.31953470706939696, 0.8148588180541992);36.361492157;1.0;4;0;0;0;0;();(-2000.0, -2000.0);
04:21:39:723;04:21:39:723;0;10;-1.5;1;0;0;0;0;1;1;1;1;04:21:32:295;1447946489.99;(0.31953470706939696, 0.8148588180541992);36.361492157;1.0;4;0;0;0;0;();(-2000.0, -2000.0);
04:21:39:739;04:21:39:739;0;5;-1.5;1;0;0;0;0;1;1;1;1;04:21:32:295;1447946489.99;(0.31953470706939696, 0.8148588180541992);36.361492157;1.0;4;0;0;0;0;();(-2000.0, -2000.0);
04:21:39:756;04:21:39:756;0;10;-1.5;1;0;0;0;0;1;1;1;1;04:21:32:295;1447946489.99;(0.31953470706939696, 0.8148588180541992);36.361492157;1.0;4;0;0;0;0;();(-2000.0, -2000.0);
04:21:39:772;04:21:39:772;0;4;-1.5;1;0;0;0;0;1;1;1;1;04:21:32:295;1447946489.99;(0.31953470706939696, 0.8148588180541992);36.361492157;1.0;4;0;0;0;0;();(-2000.0, -2000.0);
04:21:39:806;04:21:39:806;0;4;-1.5;1;0;0;0;0;1;1;1;1;04:21:32:295;1447946489.99;(0.31953470706939696, 0.8148588180541992);36.361492157;1.0;4;0;0;0;0;();(-2000.0, -2000.0);
04:21:39:822;04:21:39:822;0;10;-1.5;1;0;0;0;0;1;1;1;1;04:21:32:295;1447946489.99;(0.31953470706939696, 0.8148588180541992);36.361492157;1.0;4;0;0;0;0;();(-2000.0, -2000.0);
04:21:39:839;04:21:39:839;0;9;-1.5;1;0;0;0;0;1;1;1;1;04:21:32:295;1447946489.99;(0.31953470706939696, 0.8148588180541992);36.361492157;1.0;4;0;0;0;0;();(-2000.0, -2000.0);
04:21:39:855;04:21:39:855;0;9;-1.5;1;0;0;0;0;1;1;1;1;04:21:32:295;1447946489.99;(0.31953470706939696, 0.8148588180541992);36.361492157;1.0;4;0;0;0;0;();(-2000.0, -2000.0);
04:21:39:872;04:21:39:872;0;15;-1.5;1;0;0;0;0;1;1;1;1;04:21:32:295;1447946489.99;(0.31953470706939696, 0.8148588180541992);36.361492157;1.0;4;0;0;0;0;();(-2000.0, -2000.0);
04:21:39:905;04:21:39:905;0;15;-1.5;1;0;0;0;0;1;1;1;1;04:21:32:295;1447946489.99;(0.31953470706939696, 0.8148588180541992);36.361492157;1.0;4;0;0;0;0;();(-2000.0, -2000.0);
04:21:39:921;04:21:39:921;0;10;-1.5;1;0;0;0;0;1;1;1;1;04:21:32:295;1447946489.99;(0.31953470706939696, 0.8148588180541992);36.361492157;1.0;4;0;0;0;0;();(-2000.0, -2000.0);
04:21:39:938;04:21:39:938;0;15;-1.5;1;0;0;0;0;1;1;1;1;04:21:32:295;1447946489.99;(0.31953470706939696, 0.8148588180541992);36.361492157;1.0;4;0;0;0;0;();(-2000.0, -2000.0);
04:21:39:955;04:21:39:955;0;10;-1.5;1;0;0;0;0;1;1;1;1;04:21:32:295;1447946489.99;(0.31953470706939696, 0.8148588180541992);36.361492157;1.0;4;0;0;0;0;();(-2000.0, -2000.0);
04:21:39:988;04:21:39:988;0;4;-1.5;1;0;0;0;0;1;1;1;1;04:21:32:295;1447946489.99;(0.31953470706939696, 0.8148588180541992);36.361492157;1.0;4;0;0;0;0;();(-2000.0, -2000.0);
04:21:40:005;04:21:40:005;0;0;-1.5;1;0;0;0;0;1;1;1;1;04:21:32:295;1447946489.99;(0.31953470706939696, 0.8148588180541992);36.361492157;1.0;4;0;0;0;0;();(-2000.0, -2000.0);
04:21:40:021;04:21:40:021;0;9;-1.5;1;0;0;0;0;1;1;1;1;04:21:32:295;1447946489.99;(0.31953470706939696, 0.8148588180541992);36.361492157;1.0;4;0;0;0;0;();(-2000.0, -2000.0);
04:21:40:037;04:21:40:037;0;15;-1.5;1;0;0;0;0;1;1;1;1;04:21:32:295;1447946489.99;(0.31953470706939696, 0.8148588180541992);36.361492157;1.0;4;0;0;0;0;();(-2000.0, -2000.0);
04:21:40:055;04:21:40:055;0;5;-1.5;1;0;0;0;0;1;1;1;1;04:21:32:295;1447946489.99;(0.31953470706939696, 0.8148588180541992);36.361492157;1.0;4;0;0;0;0;();(-2000.0, -2000.0);
04:21:40:100;04:21:40:099;0;15;-1.5;1;0;0;0;0;1;1;1;1;04:21:32:295;1447946489.99;(0.31953470706939696, 0.8148588180541992);36.361492157;1.0;4;0;0;0;0;();(-2000.0, -2000.0);
04:21:40:106;04:21:40:106;0;10;-1.5;1;0;0;0;0;1;1;1;1;04:21:32:295;1447946489.99;(0.31953470706939696, 0.8148588180541992);36.361492157;1.0;4;0;0;0;0;();(-2000.0, -2000.0);
04:21:40:123;04:21:40:123;0;15;-1.5;1;0;0;0;0;1;1;1;1;04:21:32:295;1447946489.99;(0.31953470706939696, 0.8148588180541992);36.361492157;1.0;4;0;0;0;0;();(-2000.0, -2000.0);
04:21:40:139;04:21:40:139;0;10;-1.5;1;0;0;0;0;1;1;1;1;04:21:32:295;1447946489.99;(0.31953470706939696, 0.8148588180541992);36.361492157;1.0;4;0;0;0;0;();(-2000.0, -2000.0);
04:21:40:157;04:21:40:157;0;4;-1.5;1;0;0;0;0;1;1;1;1;04:21:32:295;1447946489.99;(0.31953470706939696, 0.8148588180541992);36.361492157;1.0;4;0;0;0;0;();(-2000.0, -2000.0);
04:21:40:172;04:21:40:172;0;10;-1.5;1;0;0;0;0;1;1;1;1;04:21:32:295;1447946489.99;(0.31953470706939696, 0.8148588180541992);36.361492157;1.0;4;0;0;0;0;();(-2000.0, -2000.0);
04:21:40:205;04:21:40:205;0;10;-1.5;1;0;0;0;0;1;1;1;1;04:21:32:295;1447946489.99;(0.31953470706939696, 0.8148588180541992);36.361492157;1.0;4;0;0;0;0;();(-2000.0, -2000.0);
04:21:40:223;04:21:40:223;0;8;-1.5;1;0;0;0;0;1;1;1;1;04:21:32:295;1447946489.99;(0.31953470706939696, 0.8148588180541992);36.361492157;1.0;4;0;0;0;0;();(-2000.0, -2000.0);
04:21:40:239;04:21:40:239;0;10;-1.5;1;0;0;0;0;1;1;1;1;04:21:32:295;1447946489.99;(0.31953470706939696, 0.8148588180541992);36.361492157;1.0;4;0;0;0;0;();(-2000.0, -2000.0);
04:21:40:255;04:21:40:255;0;4;-1.5;1;0;0;0;0;1;1;1;1;04:21:32:295;1447946489.99;(0.31953470706939696, 0.8148588180541992);36.361492157;1.0;4;0;0;0;0;();(-2000.0, -2000.0);
04:21:40:273;04:21:40:273;0;9;-1.5;1;0;0;0;0;1;1;1;1;04:21:32:295;1447946489.99;(0.31953470706939696, 0.8148588180541992);36.361492157;1.0;4;0;0;0;0;();(-2000.0, -2000.0);
04:21:40:305;04:21:40:305;0;10;-1.5;1;0;0;0;0;1;1;1;1;04:21:32:295;1447946489.99;(0.31953470706939696, 0.8148588180541992);36.361492157;1.0;4;0;0;0;0;();(-2000.0, -2000.0);
04:21:40:321;04:21:40:321;0;14;-1.5;1;0;0;0;0;1;1;1;1;04:21:32:295;1447946489.99;(0.31953470706939696, 0.8148588180541992);36.361492157;1.0;4;0;0;0;0;();(-2000.0, -2000.0);
04:21:40:339;04:21:40:339;0;4;-1.5;1;0;0;0;0;1;1;1;1;04:21:32:295;1447946489.99;(0.31953470706939696, 0.8148588180541992);36.361492157;1.0;4;0;0;0;0;();(-2000.0, -2000.0);
04:21:40:355;04:21:40:355;0;15;-1.5;1;0;0;0;0;1;1;1;1;04:21:32:295;1447946489.99;(0.31953470706939696, 0.8148588180541992);36.361492157;1.0;4;0;0;0;0;();(-2000.0, -2000.0);
04:21:40:388;04:21:40:388;0;15;-1.5;1;0;0;0;0;1;1;1;1;04:21:32:295;1447946489.99;(0.31953470706939696, 0.8148588180541992);36.361492157;1.0;4;0;0;0;0;();(-2000.0, -2000.0);
04:21:40:404;04:21:40:404;0;4;-1.5;1;0;0;0;0;1;1;1;1;04:21:32:295;1447946489.99;(0.31953470706939696, 0.8148588180541992);36.361492157;1.0;4;0;0;0;0;();(-2000.0, -2000.0);
04:21:40:421;04:21:40:421;0;15;-1.5;1;0;0;0;0;1;1;1;1;04:21:32:295;1447946489.99;(0.31953470706939696, 0.8148588180541992);36.361492157;1.0;4;0;0;0;0;();(-2000.0, -2000.0);
04:21:40:437;04:21:40:437;0;9;-1.5;1;0;0;0;0;1;1;1;1;04:21:32:295;1447946489.99;(0.31953470706939696, 0.8148588180541992);36.361492157;1.0;4;0;0;0;0;();(-2000.0, -2000.0);
04:21:40:455;04:21:40:455;0;10;-1.5;1;0;0;0;0;1;1;1;1;04:21:32:295;1447946489.99;(0.31953470706939696, 0.8148588180541992);36.361492157;1.0;4;0;0;0;0;();(-2000.0, -2000.0);
04:21:40:487;04:21:40:487;0;15;-1.5;1;0;0;0;0;1;1;1;1;04:21:32:295;1447946489.99;(0.31953470706939696, 0.8148588180541992);36.361492157;1.0;4;0;0;0;0;();(-2000.0, -2000.0);
04:21:40:505;04:21:40:505;0;4;-1.5;1;0;0;0;0;1;1;1;1;04:21:32:295;1447946489.99;(0.31953470706939696, 0.8148588180541992);36.361492157;1.0;4;0;0;0;0;();(-2000.0, -2000.0);
04:21:40:520;04:21:40:520;0;15;-1.5;1;0;0;0;0;1;1;1;1;04:21:32:295;1447946489.99;(0.31953470706939696, 0.8148588180541992);36.361492157;1.0;4;0;0;0;0;();(-2000.0, -2000.0);
04:21:40:537;04:21:40:537;0;5;-1.5;1;0;0;0;0;1;1;1;1;04:21:32:295;1447946489.99;(0.31953470706939696, 0.8148588180541992);36.361492157;1.0;4;0;0;0;0;();(-2000.0, -2000.0);
04:21:40:554;04:21:40:553;0;15;-1.5;1;0;0;0;0;1;1;1;1;04:21:32:295;1447946489.99;(0.31953470706939696, 0.8148588180541992);36.361492157;1.0;4;0;0;0;0;();(-2000.0, -2000.0);
04:21:40:587;04:21:40:586;0;9;-1.5;1;0;0;0;0;1;1;1;1;04:21:32:295;1447946489.99;(0.31953470706939696, 0.8148588180541992);36.361492157;1.0;4;0;0;0;0;();(-2000.0, -2000.0);
04:21:40:603;04:21:40:603;0;4;-1.5;1;0;0;0;0;1;1;1;1;04:21:32:295;1447946489.99;(0.31953470706939696, 0.8148588180541992);36.361492157;1.0;4;0;0;0;0;();(-2000.0, -2000.0);
04:21:40:620;04:21:40:620;0;10;-1.5;1;0;0;0;0;1;1;1;1;04:21:32:295;1447946489.99;(0.31953470706939696, 0.8148588180541992);36.361492157;1.0;4;0;0;0;0;();(-2000.0, -2000.0);
04:21:40:636;04:21:40:636;0;5;-1.5;1;0;0;0;0;1;1;1;1;04:21:32:295;1447946489.99;(0.31953470706939696, 0.8148588180541992);36.361492157;1.0;4;0;0;0;0;();(-2000.0, -2000.0);
04:21:40:653;04:21:40:653;0;9;-1.5;1;0;0;0;0;1;1;1;1;04:21:32:295;1447946489.99;(0.31953470706939696, 0.8148588180541992);36.361492157;1.0;4;0;0;0;0;();(-2000.0, -2000.0);
04:21:40:686;04:21:40:686;0;10;-1.5;1;0;0;0;0;1;1;1;1;04:21:32:295;1447946489.99;(0.31953470706939696, 0.8148588180541992);36.361492157;1.0;4;0;0;0;0;();(-2000.0, -2000.0);
04:21:40:703;04:21:40:702;0;15;-1.5;1;0;0;0;0;1;1;1;1;04:21:32:295;1447946489.99;(0.31953470706939696, 0.8148588180541992);36.361492157;1.0;4;0;0;0;0;();(-2000.0, -2000.0);
04:21:40:719;04:21:40:719;0;10;-1.5;1;0;0;0;0;1;1;1;1;04:21:32:295;1447946489.99;(0.31953470706939696, 0.8148588180541992);36.361492157;1.0;4;0;0;0;0;();(-2000.0, -2000.0);
04:21:40:736;04:21:40:736;0;15;-1.5;1;0;0;0;0;1;1;1;1;04:21:32:295;1447946489.99;(0.31953470706939696, 0.8148588180541992);36.361492157;1.0;4;0;0;0;0;();(-2000.0, -2000.0);
04:21:40:752;04:21:40:752;0;10;-1.5;1;0;0;0;0;1;1;1;1;04:21:32:295;1447946489.99;(0.31953470706939696, 0.8148588180541992);36.361492157;1.0;4;0;0;0;0;();(-2000.0, -2000.0);
04:21:40:785;04:21:40:785;0;10;-1.5;1;0;0;0;0;1;1;1;1;04:21:32:295;1447946489.99;(0.31953470706939696, 0.8148588180541992);36.361492157;1.0;4;0;0;0;0;();(-2000.0, -2000.0);
04:21:40:803;04:21:40:803;0;15;-1.5;1;0;0;0;0;1;1;1;1;04:21:32:295;1447946489.99;(0.31953470706939696, 0.8148588180541992);36.361492157;1.0;4;0;0;0;0;();(-2000.0, -2000.0);
04:21:40:818;04:21:40:818;0;14;-1.5;1;0;0;0;0;1;1;1;1;04:21:32:295;1447946489.99;(0.31953470706939696, 0.8148588180541992);36.361492157;1.0;4;0;0;0;0;();(-2000.0, -2000.0);
04:21:40:835;04:21:40:835;0;0;-1.5;1;0;0;0;0;1;1;1;1;04:21:32:295;1447946489.99;(0.31953470706939696, 0.8148588180541992);36.361492157;1.0;4;0;0;0;0;();(-2000.0, -2000.0);
04:21:40:851;04:21:40:851;0;9;-1.5;1;0;0;0;0;1;1;1;1;04:21:32:295;1447946489.99;(0.31953470706939696, 0.8148588180541992);36.361492157;1.0;4;0;0;0;0;();(-2000.0, -2000.0);
04:21:40:886;04:21:40:886;0;10;-1.5;1;0;0;0;0;1;1;1;1;04:21:32:295;1447946489.99;(0.31953470706939696, 0.8148588180541992);36.361492157;1.0;4;0;0;0;0;();(-2000.0, -2000.0);
04:21:40:904;04:21:40:904;0;10;-1.5;1;0;0;0;0;1;1;1;1;04:21:32:295;1447946489.99;(0.31953470706939696, 0.8148588180541992);36.361492157;1.0;4;0;0;0;0;();(-2000.0, -2000.0);
04:21:40:921;04:21:40:921;0;5;-1.5;1;0;0;0;0;1;1;1;1;04:21:32:295;1447946489.99;(0.31953470706939696, 0.8148588180541992);36.361492157;1.0;4;0;0;0;0;();(-2000.0, -2000.0);
04:21:40:938;04:21:40:938;0;0;-1.5;1;0;0;0;0;1;1;1;1;04:21:32:295;1447946489.99;(0.31953470706939696, 0.8148588180541992);36.361492157;1.0;4;0;0;0;0;();(-2000.0, -2000.0);
04:21:40:954;04:21:40:954;0;4;-1.5;1;0;0;0;0;1;1;1;1;04:21:32:295;1447946489.99;(0.31953470706939696, 0.8148588180541992);36.361492157;1.0;4;0;0;0;0;();(-2000.0, -2000.0);
04:21:40:988;04:21:40:988;0;7;-1.5;1;0;0;0;0;1;1;1;1;04:21:32:295;1447946489.99;(0.31953470706939696, 0.8148588180541992);36.361492157;1.0;4;0;0;0;0;();(-2000.0, -2000.0);
04:21:41:004;04:21:41:004;0;9;-1.5;1;0;0;0;0;1;1;1;1;04:21:32:295;1447946489.99;(0.31953470706939696, 0.8148588180541992);36.361492157;1.0;4;0;0;0;0;();(-2000.0, -2000.0);
04:21:41:020;04:21:41:020;0;15;-1.5;1;0;0;0;0;1;1;1;1;04:21:32:295;1447946489.99;(0.31953470706939696, 0.8148588180541992);36.361492157;1.0;4;0;0;0;0;();(-2000.0, -2000.0);
04:21:41:038;04:21:41:038;0;10;-1.5;1;0;0;0;0;1;1;1;1;04:21:32:295;1447946489.99;(0.31953470706939696, 0.8148588180541992);36.361492157;1.0;4;0;0;0;0;();(-2000.0, -2000.0);
04:21:41:054;04:21:41:054;0;15;-1.5;1;0;0;0;0;1;1;1;1;04:21:32:295;1447946489.99;(0.31953470706939696, 0.8148588180541992);36.361492157;1.0;4;0;0;0;0;();(-2000.0, -2000.0);
04:21:41:087;04:21:41:087;0;5;-1.5;1;0;0;0;0;1;1;1;1;04:21:32:295;1447946489.99;(0.31953470706939696, 0.8148588180541992);36.361492157;1.0;4;0;0;0;0;();(-2000.0, -2000.0);
04:21:41:105;04:21:41:105;0;10;-1.5;1;0;0;0;0;1;1;1;1;04:21:32:295;1447946489.99;(0.31953470706939696, 0.8148588180541992);36.361492157;1.0;4;0;0;0;0;();(-2000.0, -2000.0);
04:21:41:122;04:21:41:122;0;15;-1.5;1;0;0;0;0;1;1;1;1;04:21:32:295;1447946489.99;(0.31953470706939696, 0.8148588180541992);36.361492157;1.0;4;0;0;0;0;();(-2000.0, -2000.0);
04:21:41:138;04:21:41:138;0;4;-1.5;1;0;0;0;0;1;1;1;1;04:21:32:295;1447946489.99;(0.31953470706939696, 0.8148588180541992);36.361492157;1.0;4;0;0;0;0;();(-2000.0, -2000.0);
04:21:41:155;04:21:41:155;0;15;-1.5;1;0;0;0;0;1;1;1;1;04:21:32:295;1447946489.99;(0.31953470706939696, 0.8148588180541992);36.361492157;1.0;4;0;0;0;0;();(-2000.0, -2000.0);
04:21:41:208;04:21:41:208;0;5;-1.5;1;0;0;0;0;1;1;1;1;04:21:32:295;1447946489.99;(0.31953470706939696, 0.8148588180541992);36.361492157;1.0;4;0;0;0;0;();(-2000.0, -2000.0);
04:21:41:215;04:21:41:213;0;15;-1.5;1;0;0;0;0;1;1;1;1;04:21:32:295;1447946489.99;(0.31953470706939696, 0.8148588180541992);36.361492157;1.0;4;0;0;0;0;();(-2000.0, -2000.0);
04:21:41:225;04:21:41:225;0;5;-1.5;1;0;0;0;0;1;1;1;1;04:21:32:295;1447946489.99;(0.31953470706939696, 0.8148588180541992);36.361492157;1.0;4;0;0;0;0;();(-2000.0, -2000.0);
04:21:41:242;04:21:41:242;0;5;-1.5;1;0;0;0;0;1;1;1;1;04:21:32:295;1447946489.99;(0.31953470706939696, 0.8148588180541992);36.361492157;1.0;4;0;0;0;0;();(-2000.0, -2000.0);
04:21:41:258;04:21:41:258;0;2;-1.5;1;0;0;0;0;1;1;1;1;04:21:32:295;1447946489.99;(0.31953470706939696, 0.8148588180541992);36.361492157;1.0;4;0;0;0;0;();(-2000.0, -2000.0);
04:21:41:276;04:21:41:276;0;5;-1.5;1;0;0;0;0;1;1;1;1;04:21:32:295;1447946489.99;(0.31953470706939696, 0.8148588180541992);36.361492157;1.0;4;0;0;0;0;();(-2000.0, -2000.0);
04:21:41:292;04:21:41:292;0;9;-1.5;1;0;0;0;0;1;1;1;1;04:21:32:295;1447946489.99;(0.31953470706939696, 0.8148588180541992);36.361492157;1.0;4;0;0;0;0;();(-2000.0, -2000.0);
04:21:41:325;04:21:41:325;0;10;-1.5;1;0;0;0;0;1;1;1;1;04:21:32:295;1447946489.99;(0.31953470706939696, 0.8148588180541992);36.361492157;1.0;4;0;0;0;0;();(-2000.0, -2000.0);
04:21:41:342;04:21:41:342;0;15;-1.5;1;0;0;0;0;1;1;1;1;04:21:32:295;1447946489.99;(0.31953470706939696, 0.8148588180541992);36.361492157;1.0;4;0;0;0;0;();(-2000.0, -2000.0);
04:21:41:358;04:21:41:358;0;10;-1.5;1;0;0;0;0;1;1;1;1;04:21:32:295;1447946489.99;(0.31953470706939696, 0.8148588180541992);36.361492157;1.0;4;0;0;0;0;();(-2000.0, -2000.0);
04:21:41:374;04:21:41:374;0;15;-1.5;1;0;0;0;0;1;1;1;1;04:21:32:295;1447946489.99;(0.31953470706939696, 0.8148588180541992);36.361492157;1.0;4;0;0;0;0;();(-2000.0, -2000.0);
04:21:41:408;04:21:41:408;0;0;-1.5;1;0;0;0;0;1;1;1;1;04:21:32:295;1447946489.99;(0.31953470706939696, 0.8148588180541992);36.361492157;1.0;4;0;0;0;0;();(-2000.0, -2000.0);
04:21:41:424;04:21:41:424;0;10;-1.5;1;0;0;0;0;1;1;1;1;04:21:32:295;1447946489.99;(0.31953470706939696, 0.8148588180541992);36.361492157;1.0;4;0;0;0;0;();(-2000.0, -2000.0);
04:21:41:441;04:21:41:441;0;15;-1.5;1;0;0;0;0;1;1;1;1;04:21:32:295;1447946489.99;(0.31953470706939696, 0.8148588180541992);36.361492157;1.0;4;0;0;0;0;();(-2000.0, -2000.0);
04:21:41:458;04:21:41:458;0;4;-1.5;1;0;0;0;0;1;1;1;1;04:21:32:295;1447946489.99;(0.31953470706939696, 0.8148588180541992);36.361492157;1.0;4;0;0;0;0;();(-2000.0, -2000.0);
04:21:41:474;04:21:41:474;0;15;-1.5;1;0;0;0;0;1;1;1;1;04:21:32:295;1447946489.99;(0.31953470706939696, 0.8148588180541992);36.361492157;1.0;4;0;0;0;0;();(-2000.0, -2000.0);
04:21:41:507;04:21:41:507;0;15;-1.5;1;0;0;0;0;1;1;1;1;04:21:32:295;1447946489.99;(0.31953470706939696, 0.8148588180541992);36.361492157;1.0;4;0;0;0;0;();(-2000.0, -2000.0);
04:21:41:524;04:21:41:524;0;4;-1.5;1;0;0;0;0;1;1;1;1;04:21:32:295;1447946489.99;(0.31953470706939696, 0.8148588180541992);36.361492157;1.0;4;0;0;0;0;();(-2000.0, -2000.0);
04:21:41:540;04:21:41:540;0;15;-1.5;1;0;0;0;0;1;1;1;1;04:21:32:295;1447946489.99;(0.31953470706939696, 0.8148588180541992);36.361492157;1.0;4;0;0;0;0;();(-2000.0, -2000.0);
04:21:41:557;04:21:41:556;0;4;-1.5;1;0;0;0;0;1;1;1;1;04:21:32:295;1447946489.99;(0.31953470706939696, 0.8148588180541992);36.361492157;1.0;4;0;0;0;0;();(-2000.0, -2000.0);
04:21:41:580;04:21:41:580;0;0;-1.5;1;0;0;0;0;1;1;1;1;04:21:32:295;1447946489.99;(0.31953470706939696, 0.8148588180541992);36.361492157;1.0;6;0;0;0;0;();(-2000.0, -2000.0);
04:21:41:607;04:21:41:607;0;15;-1.5;1;0;0;0;0;1;1;1;1;04:21:32:295;1447946489.99;(0.31953470706939696, 0.8148588180541992);36.361492157;1.0;6;0;0;0;0;();(-2000.0, -2000.0);
04:21:41:624;04:21:41:624;0;4;-1.5;1;0;0;0;0;1;1;1;1;04:21:32:295;1447946489.99;(0.31953470706939696, 0.8148588180541992);36.361492157;1.0;6;0;0;0;0;();(-2000.0, -2000.0);
04:21:41:641;04:21:41:641;0;1;-1.5;1;0;0;0;0;1;1;1;1;04:21:32:295;1447946489.99;(0.31953470706939696, 0.8148588180541992);36.361492157;1.0;6;0;0;0;0;();(-2000.0, -2000.0);
04:21:41:657;04:21:41:657;0;5;-1.5;1;0;0;0;0;1;1;1;1;04:21:32:295;1447946489.99;(0.31953470706939696, 0.8148588180541992);36.361492157;1.0;6;0;0;0;0;();(-2000.0, -2000.0);
04:21:41:673;04:21:41:673;0;10;-1.5;1;0;0;0;0;1;1;1;1;04:21:32:295;1447946489.99;(0.31953470706939696, 0.8148588180541992);36.361492157;1.0;6;0;0;0;0;();(-2000.0, -2000.0);
04:21:41:707;04:21:41:707;0;15;-1.5;1;0;0;0;0;1;1;1;1;04:21:32:295;1447946489.99;(0.31953470706939696, 0.8148588180541992);36.361492157;1.0;6;0;0;0;0;();(-2000.0, -2000.0);
04:21:41:723;04:21:41:723;0;15;-1.5;1;0;0;0;0;1;1;1;1;04:21:32:295;1447946489.99;(0.31953470706939696, 0.8148588180541992);36.361492157;1.0;6;0;0;0;0;();(-2000.0, -2000.0);
04:21:41:740;04:21:41:740;0;10;-1.5;1;0;0;0;0;1;1;1;1;04:21:32:295;1447946489.99;(0.31953470706939696, 0.8148588180541992);36.361492157;1.0;6;0;0;0;0;();(-2000.0, -2000.0);
04:21:41:757;04:21:41:757;0;5;-1.5;1;0;0;0;0;1;1;1;1;04:21:32:295;1447946489.99;(0.31953470706939696, 0.8148588180541992);36.361492157;1.0;6;0;0;0;0;();(-2000.0, -2000.0);
04:21:41:773;04:21:41:773;0;10;-1.5;1;0;0;0;0;1;1;1;1;04:21:32:295;1447946489.99;(0.31953470706939696, 0.8148588180541992);36.361492157;1.0;6;0;0;0;0;();(-2000.0, -2000.0);
04:21:41:806;04:21:41:806;0;9;-1.5;1;0;0;0;0;1;1;1;1;04:21:32:295;1447946489.99;(0.31953470706939696, 0.8148588180541992);36.361492157;1.0;6;0;0;0;0;();(-2000.0, -2000.0);
04:21:41:822;04:21:41:822;0;15;-1.5;1;0;0;0;0;1;1;1;1;04:21:32:295;1447946489.99;(0.31953470706939696, 0.8148588180541992);36.361492157;1.0;6;0;0;0;0;();(-2000.0, -2000.0);
04:21:41:839;04:21:41:839;0;10;-1.5;1;0;0;0;0;1;1;1;1;04:21:32:295;1447946489.99;(0.31953470706939696, 0.8148588180541992);36.361492157;1.0;6;0;0;0;0;();(-2000.0, -2000.0);
04:21:41:856;04:21:41:856;0;4;-1.5;1;0;0;0;0;1;1;1;1;04:21:32:295;1447946489.99;(0.31953470706939696, 0.8148588180541992);36.361492157;1.0;6;0;0;0;0;();(-2000.0, -2000.0);
04:21:41:872;04:21:41:872;0;10;-1.5;1;0;0;0;0;1;1;1;1;04:21:32:295;1447946489.99;(0.31953470706939696, 0.8148588180541992);36.361492157;1.0;6;0;0;0;0;();(-2000.0, -2000.0);
04:21:41:905;04:21:41:905;0;10;-1.5;1;0;0;0;0;1;1;1;1;04:21:32:295;1447946489.99;(0.31953470706939696, 0.8148588180541992);36.361492157;1.0;6;0;0;0;0;();(-2000.0, -2000.0);
04:21:41:922;04:21:41:922;0;15;-1.5;1;0;0;0;0;1;1;1;1;04:21:32:295;1447946489.99;(0.31953470706939696, 0.8148588180541992);36.361492157;1.0;6;0;0;0;0;();(-2000.0, -2000.0);
04:21:41:939;04:21:41:939;0;4;-1.5;1;0;0;0;0;1;1;1;1;04:21:32:295;1447946489.99;(0.31953470706939696, 0.8148588180541992);36.361492157;1.0;6;0;0;0;0;();(-2000.0, -2000.0);
04:21:41:955;04:21:41:955;0;15;-1.5;1;0;0;0;0;1;1;1;1;04:21:32:295;1447946489.99;(0.31953470706939696, 0.8148588180541992);36.361492157;1.0;6;0;0;0;0;();(-2000.0, -2000.0);
04:21:41:972;04:21:41:972;0;5;-1.5;1;0;0;0;0;1;1;1;1;04:21:32:295;1447946489.99;(0.31953470706939696, 0.8148588180541992);36.361492157;1.0;6;0;0;0;0;();(-2000.0, -2000.0);
04:21:42:005;04:21:42:005;0;4;-1.5;1;0;0;0;0;1;1;1;1;04:21:32:295;1447946489.99;(0.31953470706939696, 0.8148588180541992);36.361492157;1.0;6;0;0;0;0;();(-2000.0, -2000.0);
04:21:42:021;04:21:42:021;0;15;-1.5;1;0;0;0;0;1;1;1;1;04:21:32:295;1447946489.99;(0.31953470706939696, 0.8148588180541992);36.361492157;1.0;6;0;0;0;0;();(-2000.0, -2000.0);
04:21:42:038;04:21:42:038;0;10;-1.5;1;0;0;0;0;1;1;1;1;04:21:32:295;1447946489.99;(0.31953470706939696, 0.8148588180541992);36.361492157;1.0;6;0;0;0;0;();(-2000.0, -2000.0);
04:21:42:055;04:21:42:055;0;0;-1.5;1;0;0;0;0;1;1;1;1;04:21:32:295;1447946489.99;(0.31953470706939696, 0.8148588180541992);36.361492157;1.0;6;0;0;0;0;();(-2000.0, -2000.0);
04:21:42:088;04:21:42:088;0;15;-1.5;1;0;0;0;0;1;1;1;1;04:21:32:295;1447946489.99;(0.31953470706939696, 0.8148588180541992);36.361492157;1.0;6;0;0;0;0;();(-2000.0, -2000.0);
04:21:42:104;04:21:42:104;0;4;-1.5;1;0;0;0;0;1;1;1;1;04:21:32:295;1447946489.99;(0.31953470706939696, 0.8148588180541992);36.361492157;1.0;6;0;0;0;0;();(-2000.0, -2000.0);
04:21:42:121;04:21:42:121;0;9;-1.5;1;0;0;0;0;1;1;1;1;04:21:32:295;1447946489.99;(0.31953470706939696, 0.8148588180541992);36.361492157;1.0;6;0;0;0;0;();(-2000.0, -2000.0);
04:21:42:137;04:21:42:137;0;5;-1.5;1;0;0;0;0;1;1;1;1;04:21:32:295;1447946489.99;(0.31953470706939696, 0.8148588180541992);36.361492157;1.0;6;0;0;0;0;();(-2000.0, -2000.0);
04:21:42:154;04:21:42:154;0;10;-1.5;1;0;0;0;0;1;1;1;1;04:21:32:295;1447946489.99;(0.31953470706939696, 0.8148588180541992);36.361492157;1.0;6;0;0;0;0;();(-2000.0, -2000.0);
04:21:42:187;04:21:42:187;0;10;-1.5;1;0;0;0;0;1;1;1;1;04:21:32:295;1447946489.99;(0.31953470706939696, 0.8148588180541992);36.361492157;1.0;6;0;0;0;0;();(-2000.0, -2000.0);
04:21:42:204;04:21:42:204;0;0;-1.5;1;0;0;0;0;1;1;1;1;04:21:32:295;1447946489.99;(0.31953470706939696, 0.8148588180541992);36.361492157;1.0;6;0;0;0;0;();(-2000.0, -2000.0);
04:21:42:221;04:21:42:221;0;10;-1.5;1;0;0;0;0;1;1;1;1;04:21:32:295;1447946489.99;(0.31953470706939696, 0.8148588180541992);36.361492157;1.0;6;0;0;0;0;();(-2000.0, -2000.0);
04:21:42:237;04:21:42:237;0;15;-1.5;1;0;0;0;0;1;1;1;1;04:21:32:295;1447946489.99;(0.31953470706939696, 0.8148588180541992);36.361492157;1.0;6;0;0;0;0;();(-2000.0, -2000.0);
04:21:42:253;04:21:42:253;0;10;-1.5;1;0;0;0;0;1;1;1;1;04:21:32:295;1447946489.99;(0.31953470706939696, 0.8148588180541992);36.361492157;1.0;6;0;0;0;0;();(-2000.0, -2000.0);
04:21:42:286;04:21:42:286;0;9;-1.5;1;0;0;0;0;1;1;1;1;04:21:32:295;1447946489.99;(0.31953470706939696, 0.8148588180541992);36.361492157;1.0;6;0;0;0;0;();(-2000.0, -2000.0);
04:21:42:303;04:21:42:303;0;15;-1.5;1;0;0;0;0;1;1;1;1;04:21:32:295;1447946489.99;(0.31953470706939696, 0.8148588180541992);36.361492157;1.0;6;0;0;0;0;();(-2000.0, -2000.0);
04:21:42:319;04:21:42:319;0;10;-1.5;1;0;0;0;0;1;1;1;1;04:21:32:295;1447946489.99;(0.31953470706939696, 0.8148588180541992);36.361492157;1.0;6;0;0;0;0;();(-2000.0, -2000.0);
04:21:42:337;04:21:42:337;0;15;-1.5;1;0;0;0;0;1;1;1;1;04:21:32:295;1447946489.99;(0.31953470706939696, 0.8148588180541992);36.361492157;1.0;6;0;0;0;0;();(-2000.0, -2000.0);
04:21:42:353;04:21:42:353;0;9;-1.5;1;0;0;0;0;1;1;1;1;04:21:32:295;1447946489.99;(0.31953470706939696, 0.8148588180541992);36.361492157;1.0;6;0;0;0;0;();(-2000.0, -2000.0);
04:21:42:386;04:21:42:386;0;10;-1.5;1;0;0;0;0;1;1;1;1;04:21:32:295;1447946489.99;(0.31953470706939696, 0.8148588180541992);36.361492157;1.0;6;0;0;0;0;();(-2000.0, -2000.0);
04:21:42:402;04:21:42:402;0;15;-1.5;1;0;0;0;0;1;1;1;1;04:21:32:295;1447946489.99;(0.31953470706939696, 0.8148588180541992);36.361492157;1.0;6;0;0;0;0;();(-2000.0, -2000.0);
04:21:42:419;04:21:42:419;0;4;-1.5;1;0;0;0;0;1;1;1;1;04:21:32:295;1447946489.99;(0.31953470706939696, 0.8148588180541992);36.361492157;1.0;6;0;0;0;0;();(-2000.0, -2000.0);
04:21:42:435;04:21:42:435;0;0;-1.5;1;0;0;0;0;1;1;1;1;04:21:32:295;1447946489.99;(0.31953470706939696, 0.8148588180541992);36.361492157;1.0;6;0;0;0;0;();(-2000.0, -2000.0);
04:21:42:452;04:21:42:452;0;12;-1.5;1;0;0;0;0;1;1;1;1;04:21:32:295;1447946489.99;(0.31953470706939696, 0.8148588180541992);36.361492157;1.0;6;0;0;0;0;();(-2000.0, -2000.0);
04:21:42:485;04:21:42:485;0;4;-1.5;1;0;0;0;0;1;1;1;1;04:21:32:295;1447946489.99;(0.31953470706939696, 0.8148588180541992);36.361492157;1.0;6;0;0;0;0;();(-2000.0, -2000.0);
04:21:42:502;04:21:42:502;0;10;-1.5;1;0;0;0;0;1;1;1;1;04:21:32:295;1447946489.99;(0.31953470706939696, 0.8148588180541992);36.361492157;1.0;6;0;0;0;0;();(-2000.0, -2000.0);
04:21:42:519;04:21:42:519;0;13;-1.5;1;0;0;0;0;1;1;1;1;04:21:32:295;1447946489.99;(0.31953470706939696, 0.8148588180541992);36.361492157;1.0;6;0;0;0;0;();(-2000.0, -2000.0);
04:21:42:535;04:21:42:535;0;0;-1.5;1;0;0;0;0;1;1;1;1;04:21:32:295;1447946489.99;(0.31953470706939696, 0.8148588180541992);36.361492157;1.0;6;0;0;0;0;();(-2000.0, -2000.0);
04:21:42:552;04:21:42:552;0;10;-1.5;1;0;0;0;0;1;1;1;1;04:21:32:295;1447946489.99;(0.31953470706939696, 0.8148588180541992);36.361492157;1.0;6;0;0;0;0;();(-2000.0, -2000.0);
04:21:42:585;04:21:42:585;0;4;-1.5;1;0;0;0;0;1;1;1;1;04:21:32:295;1447946489.99;(0.31953470706939696, 0.8148588180541992);36.361492157;1.0;6;0;0;0;0;();(-2000.0, -2000.0);
04:21:42:601;04:21:42:601;0;7;-1.5;1;0;0;0;0;1;1;1;1;04:21:32:295;1447946489.99;(0.31953470706939696, 0.8148588180541992);36.361492157;1.0;6;0;0;0;0;();(-2000.0, -2000.0);
