%Timestamp,timestamp_write;timestamp_gotpupil;eyetrackertime;norm_pos;diameter;confidence;timestamp_gotbitdata;CRC;SEQ;AnalogOutp1;AnalogOutp2;AnalogOutp3;AnalogOutp4;AnalogOutp5;AnalogOutp6;DigitalOutp1;DigitalOutp2;igitalOutp3;DigitalOutp4;nplanes;lastaction;lastactiondetails;positivescore;negativescore;targetpositions;collision_point
07:40:16:817;;;;;;;;;;;;;;07:40:16:778;1447958414.62;(0.2974617719650269, 0.2567286173502604);26.9353504181;1.0;2;0;0;0;0;();(0.0, 0.0);
07:40:16:849;;;;;;;;;;;;;;07:40:16:842;1447958414.68;(0.29734249114990235, 0.2569380866156684);26.9758491516;1.0;2;0;0;0;0;();(-2000.0, -2000.0);
07:40:16:853;;;;;;;;;;;;;;07:40:16:842;1447958414.68;(0.29734249114990235, 0.2569380866156684);26.9758491516;1.0;2;0;0;0;0;();(-2000.0, -2000.0);
07:40:16:857;;;;;;;;;;;;;;07:40:16:842;1447958414.68;(0.29734249114990235, 0.2569380866156684);26.9758491516;1.0;2;0;0;0;0;();(-2000.0, -2000.0);
07:40:16:860;;;;;;;;;;;;;;07:40:16:842;1447958414.68;(0.29734249114990235, 0.2569380866156684);26.9758491516;1.0;2;0;0;0;0;();(-2000.0, -2000.0);
07:40:16:864;;;;;;;;;;;;;;07:40:16:842;1447958414.68;(0.29734249114990235, 0.2569380866156684);26.9758491516;1.0;2;0;0;0;0;();(-2000.0, -2000.0);
07:40:16:868;;;;;;;;;;;;;;07:40:16:842;1447958414.68;(0.29734249114990235, 0.2569380866156684);26.9758491516;1.0;2;0;0;0;0;();(-2000.0, -2000.0);
07:40:16:871;;;;;;;;;;;;;;07:40:16:842;1447958414.68;(0.29734249114990235, 0.2569380866156684);26.9758491516;1.0;2;0;0;0;0;();(-2000.0, -2000.0);
07:40:16:875;;;;;;;;;;;;;;07:40:16:842;1447958414.68;(0.29734249114990235, 0.2569380866156684);26.9758491516;1.0;2;0;0;0;0;();(-2000.0, -2000.0);
07:40:16:879;;;;;;;;;;;;;;07:40:16:842;1447958414.68;(0.29734249114990235, 0.2569380866156684);26.9758491516;1.0;2;0;0;0;0;();(-2000.0, -2000.0);
07:40:16:882;;;;;;;;;;;;;;07:40:16:842;1447958414.68;(0.29734249114990235, 0.2569380866156684);26.9758491516;1.0;2;0;0;0;0;();(-2000.0, -2000.0);
07:40:16:886;;;;;;;;;;;;;;07:40:16:842;1447958414.68;(0.29734249114990235, 0.2569380866156684);26.9758491516;1.0;2;0;0;0;0;();(-2000.0, -2000.0);
07:40:16:889;;;;;;;;;;;;;;07:40:16:842;1447958414.68;(0.29734249114990235, 0.2569380866156684);26.9758491516;1.0;2;0;0;0;0;();(-2000.0, -2000.0);
07:40:16:893;;;;;;;;;;;;;;07:40:16:842;1447958414.68;(0.29734249114990235, 0.2569380866156684);26.9758491516;1.0;2;0;0;0;0;();(-2000.0, -2000.0);
07:40:16:896;;;;;;;;;;;;;;07:40:16:842;1447958414.68;(0.29734249114990235, 0.2569380866156684);26.9758491516;1.0;2;0;0;0;0;();(-2000.0, -2000.0);
07:40:16:900;;;;;;;;;;;;;;07:40:16:842;1447958414.68;(0.29734249114990235, 0.2569380866156684);26.9758491516;1.0;2;0;0;0;0;();(-2000.0, -2000.0);
07:40:17:098;;;;;;;;;;;;;;07:40:17:042;1447958414.88;(0.2973655700683594, 0.25666927761501734);27.0572414398;1.0;2;0;0;0;0;();(-2000.0, -2000.0);
07:40:17:100;;;;;;;;;;;;;;07:40:17:042;1447958414.88;(0.2973655700683594, 0.25666927761501734);27.0572414398;1.0;2;0;0;0;0;();(-2000.0, -2000.0);
07:40:17:102;;;;;;;;;;;;;;07:40:17:042;1447958414.88;(0.2973655700683594, 0.25666927761501734);27.0572414398;1.0;2;0;0;0;0;();(-2000.0, -2000.0);
07:40:17:104;;;;;;;;;;;;;;07:40:17:042;1447958414.88;(0.2973655700683594, 0.25666927761501734);27.0572414398;1.0;2;0;0;0;0;();(-2000.0, -2000.0);
07:40:17:106;;;;;;;;;;;;;;07:40:17:042;1447958414.88;(0.2973655700683594, 0.25666927761501734);27.0572414398;1.0;2;0;0;0;0;();(-2000.0, -2000.0);
07:40:17:109;;;;;;;;;;;;;;07:40:17:042;1447958414.88;(0.2973655700683594, 0.25666927761501734);27.0572414398;1.0;2;0;0;0;0;();(-2000.0, -2000.0);
07:40:17:112;;;;;;;;;;;;;;07:40:17:109;1447958414.95;(0.2973059892654419, 0.2568775600857205);27.1005859375;1.0;2;0;0;0;0;();(-2000.0, -2000.0);
07:40:17:115;;;;;;;;;;;;;;07:40:17:109;1447958414.95;(0.2973059892654419, 0.2568775600857205);27.1005859375;1.0;2;0;0;0;0;();(-2000.0, -2000.0);
07:40:17:117;;;;;;;;;;;;;;07:40:17:109;1447958414.95;(0.2973059892654419, 0.2568775600857205);27.1005859375;1.0;2;0;0;0;0;();(-2000.0, -2000.0);
07:40:17:119;;;;;;;;;;;;;;07:40:17:109;1447958414.95;(0.2973059892654419, 0.2568775600857205);27.1005859375;1.0;2;0;0;0;0;();(-2000.0, -2000.0);
07:40:17:121;;;;;;;;;;;;;;07:40:17:109;1447958414.95;(0.2973059892654419, 0.2568775600857205);27.1005859375;1.0;2;0;0;0;0;();(-2000.0, -2000.0);
07:40:17:123;;;;;;;;;;;;;;07:40:17:109;1447958414.95;(0.2973059892654419, 0.2568775600857205);27.1005859375;1.0;2;0;0;0;0;();(-2000.0, -2000.0);
07:40:17:125;;;;;;;;;;;;;;07:40:17:109;1447958414.95;(0.2973059892654419, 0.2568775600857205);27.1005859375;1.0;2;0;0;0;0;();(-2000.0, -2000.0);
07:40:17:126;;;;;;;;;;;;;;07:40:17:109;1447958414.95;(0.2973059892654419, 0.2568775600857205);27.1005859375;1.0;2;0;0;0;0;();(-2000.0, -2000.0);
07:40:21:158;;;;;;;;;;;;;;07:40:21:126;1447958418.95;(0.29732646942138674, 0.256439208984375);26.4108390808;1.0;2;0;0;0;0;();(-2000.0, -2000.0);
07:40:21:160;;;;;;;;;;;;;;07:40:21:126;1447958418.95;(0.29732646942138674, 0.256439208984375);26.4108390808;1.0;2;0;0;0;0;();(-2000.0, -2000.0);
07:40:21:161;;;;;;;;;;;;;;07:40:21:126;1447958418.95;(0.29732646942138674, 0.256439208984375);26.4108390808;1.0;2;0;0;0;0;();(-2000.0, -2000.0);
07:40:21:164;;;;;;;;;;;;;;07:40:21:126;1447958418.95;(0.29732646942138674, 0.256439208984375);26.4108390808;1.0;2;0;0;0;0;();(-2000.0, -2000.0);
07:40:21:166;;;;;;;;;;;;;;07:40:21:126;1447958418.95;(0.29732646942138674, 0.256439208984375);26.4108390808;1.0;2;0;0;0;0;();(-2000.0, -2000.0);
07:40:21:168;;;;;;;;;;;;;;07:40:21:126;1447958418.95;(0.29732646942138674, 0.256439208984375);26.4108390808;1.0;2;0;0;0;0;();(-2000.0, -2000.0);
07:40:21:170;;;;;;;;;;;;;;07:40:21:126;1447958418.95;(0.29732646942138674, 0.256439208984375);26.4108390808;1.0;2;0;0;0;0;();(-2000.0, -2000.0);
07:40:21:171;;;;;;;;;;;;;;07:40:21:126;1447958418.95;(0.29732646942138674, 0.256439208984375);26.4108390808;1.0;2;0;0;0;0;();(-2000.0, -2000.0);
07:40:21:173;;;;;;;;;;;;;;07:40:21:126;1447958418.95;(0.29732646942138674, 0.256439208984375);26.4108390808;1.0;2;0;0;0;0;();(-2000.0, -2000.0);
07:40:21:175;;;;;;;;;;;;;;07:40:21:126;1447958418.95;(0.29732646942138674, 0.256439208984375);26.4108390808;1.0;2;0;0;0;0;();(-2000.0, -2000.0);
07:40:21:177;;;;;;;;;;;;;;07:40:21:126;1447958418.95;(0.29732646942138674, 0.256439208984375);26.4108390808;1.0;2;0;0;0;0;();(-2000.0, -2000.0);
07:40:21:178;;;;;;;;;;;;;;07:40:21:126;1447958418.95;(0.29732646942138674, 0.256439208984375);26.4108390808;1.0;2;0;0;0;0;();(-2000.0, -2000.0);
07:40:21:180;;;;;;;;;;;;;;07:40:21:126;1447958418.95;(0.29732646942138674, 0.256439208984375);26.4108390808;1.0;2;0;0;0;0;();(-2000.0, -2000.0);
07:40:21:182;;;;;;;;;;;;;;07:40:21:126;1447958418.95;(0.29732646942138674, 0.256439208984375);26.4108390808;1.0;2;0;0;0;0;();(-2000.0, -2000.0);
07:40:21:183;;;;;;;;;;;;;;07:40:21:126;1447958418.95;(0.29732646942138674, 0.256439208984375);26.4108390808;1.0;2;0;0;0;0;();(-2000.0, -2000.0);
07:40:21:185;;;;;;;;;;;;;;07:40:21:126;1447958418.95;(0.29732646942138674, 0.256439208984375);26.4108390808;1.0;2;0;0;0;0;();(-2000.0, -2000.0);
07:40:21:186;;;;;;;;;;;;;;07:40:21:126;1447958418.95;(0.29732646942138674, 0.256439208984375);26.4108390808;1.0;2;0;0;0;0;();(-2000.0, -2000.0);
07:40:21:190;;;;;;;;;;;;;;07:40:21:126;1447958418.95;(0.29732646942138674, 0.256439208984375);26.4108390808;1.0;2;0;0;0;0;();(-2000.0, -2000.0);
07:40:21:191;;;;;;;;;;;;;;07:40:21:126;1447958418.95;(0.29732646942138674, 0.256439208984375);26.4108390808;1.0;2;0;0;0;0;();(-2000.0, -2000.0);
07:40:21:223;;;;;;;;;;;;;;07:40:21:194;1447958419.02;(0.2972627401351929, 0.25623779296875004);26.7438373566;1.0;2;0;0;0;0;();(-2000.0, -2000.0);
07:40:21:240;;;;;;;;;;;;;;07:40:21:194;1447958419.02;(0.2972627401351929, 0.25623779296875004);26.7438373566;1.0;2;0;0;0;0;();(-2000.0, -2000.0);
07:40:21:256;;;;;;;;;;;;;;07:40:21:194;1447958419.02;(0.2972627401351929, 0.25623779296875004);26.7438373566;1.0;2;0;0;0;0;();(-2000.0, -2000.0);
07:40:21:273;;;;;;;;;;;;;;07:40:21:262;1447958419.08;(0.2972529888153076, 0.25660798814561636);26.6001758575;1.0;2;0;0;0;0;();(-2000.0, -2000.0);
07:40:21:306;;;;;;;;;;;;;;07:40:21:262;1447958419.08;(0.2972529888153076, 0.25660798814561636);26.6001758575;1.0;2;0;0;0;0;();(-2000.0, -2000.0);
07:40:21:323;;;;;;;;;;;;;;07:40:21:262;1447958419.08;(0.2972529888153076, 0.25660798814561636);26.6001758575;1.0;2;0;0;0;0;();(-2000.0, -2000.0);
07:40:21:345;;;;;;;;;;;;;;07:40:21:330;1447958419.15;(0.29725472927093505, 0.256467776828342);26.6041851044;1.0;2;0;0;0;0;();(-2000.0, -2000.0);
07:40:21:366;;;;;;;;;;;;;;07:40:21:330;1447958419.15;(0.29725472927093505, 0.256467776828342);26.6041851044;1.0;2;0;0;0;0;();(-2000.0, -2000.0);
07:40:21:407;;;;;;;;;;;;;;07:40:21:394;1447958419.22;(0.29741806983947755, 0.256776852077908);26.799659729;1.0;2;0;0;0;0;();(-2000.0, -2000.0);
07:40:21:409;;;;;;;;;;;;;;07:40:21:394;1447958419.22;(0.29741806983947755, 0.256776852077908);26.799659729;1.0;2;0;0;0;0;();(-2000.0, -2000.0);
07:40:21:426;;;;;;;;;;;;;;07:40:21:394;1447958419.22;(0.29741806983947755, 0.256776852077908);26.799659729;1.0;2;0;0;0;0;();(-2000.0, -2000.0);
07:40:21:448;;;;;;;;;;;;;;07:40:21:430;1447958419.28;(0.2973816156387329, 0.25679160224066844);26.7939968109;1.0;2;0;0;0;0;();(-2000.0, -2000.0);
07:40:21:464;;;;;;;;;;;;;;07:40:21:430;1447958419.28;(0.2973816156387329, 0.25679160224066844);26.7939968109;1.0;2;0;0;0;0;();(-2000.0, -2000.0);
07:40:21:481;;;;;;;;;;;;;;07:40:21:430;1447958419.28;(0.2973816156387329, 0.25679160224066844);26.7939968109;1.0;2;0;0;0;0;();(-2000.0, -2000.0);
07:40:21:498;;;;;;;;;;;;;;07:40:21:430;1447958419.28;(0.2973816156387329, 0.25679160224066844);26.7939968109;1.0;2;0;0;0;0;();(-2000.0, -2000.0);
07:40:21:514;;;;;;;;;;;;;;07:40:21:430;1447958419.28;(0.2973816156387329, 0.25679160224066844);26.7939968109;1.0;2;0;0;0;0;();(-2000.0, -2000.0);
07:40:21:531;;;;;;;;;;;;;;07:40:21:530;1447958419.35;(0.2970117568969727, 0.25689832899305554);26.9423694611;1.0;2;0;0;0;0;();(-2000.0, -2000.0);
07:40:21:564;;;;;;;;;;;;;;07:40:21:530;1447958419.35;(0.2970117568969727, 0.25689832899305554);26.9423694611;1.0;2;0;0;0;0;();(-2000.0, -2000.0);
07:40:21:580;;;;;;;;;;;;;;07:40:21:530;1447958419.35;(0.2970117568969727, 0.25689832899305554);26.9423694611;1.0;2;0;0;0;0;();(-2000.0, -2000.0);
07:40:21:609;;;;;;;;;;;;;;07:40:21:599;1447958419.42;(0.2973388433456421, 0.25633400811089413);27.0013847351;1.0;2;0;0;0;0;();(-2000.0, -2000.0);
07:40:21:628;;;;;;;;;;;;;;07:40:21:599;1447958419.42;(0.2973388433456421, 0.25633400811089413);27.0013847351;1.0;2;0;0;0;0;();(-2000.0, -2000.0);
07:40:21:647;;;;;;;;;;;;;;07:40:21:630;1447958419.48;(0.29727537631988527, 0.256325446234809);26.8811092377;1.0;2;0;0;0;0;();(-2000.0, -2000.0);
07:40:21:664;;;;;;;;;;;;;;07:40:21:630;1447958419.48;(0.29727537631988527, 0.256325446234809);26.8811092377;1.0;2;0;0;0;0;();(-2000.0, -2000.0);
07:40:21:680;;;;;;;;;;;;;;07:40:21:630;1447958419.48;(0.29727537631988527, 0.256325446234809);26.8811092377;1.0;2;0;0;0;0;();(-2000.0, -2000.0);
07:40:21:697;;;;;;;;;;;;;;07:40:21:630;1447958419.48;(0.29727537631988527, 0.256325446234809);26.8811092377;1.0;2;0;0;0;0;();(-2000.0, -2000.0);
07:40:21:713;;;;;;;;;;;;;;07:40:21:699;1447958419.55;(0.2973002910614014, 0.25618091159396705);26.8272800446;1.0;2;0;0;0;0;();(-2000.0, -2000.0);
07:40:21:730;;;;;;;;;;;;;;07:40:21:699;1447958419.55;(0.2973002910614014, 0.25618091159396705);26.8272800446;1.0;2;0;0;0;0;();(-2000.0, -2000.0);
07:40:21:763;;;;;;;;;;;;;;07:40:21:699;1447958419.55;(0.2973002910614014, 0.25618091159396705);26.8272800446;1.0;2;0;0;0;0;();(-2000.0, -2000.0);
07:40:21:780;;;;;;;;;;;;;;07:40:21:699;1447958419.55;(0.2973002910614014, 0.25618091159396705);26.8272800446;1.0;2;0;0;0;0;();(-2000.0, -2000.0);
07:40:21:796;;;;;;;;;;;;;;07:40:21:699;1447958419.55;(0.2973002910614014, 0.25618091159396705);26.8272800446;1.0;2;0;0;0;0;();(-2000.0, -2000.0);
07:40:21:821;;;;;;;;;;;;;;07:40:21:798;1447958419.62;(0.2969568967819214, 0.2565847608778212);27.0957183838;1.0;2;0;0;0;0;();(-2000.0, -2000.0);
07:40:21:838;;;;;;;;;;;;;;07:40:21:830;1447958419.68;(0.2969294548034668, 0.2567351447211371);26.4011955261;1.0;2;0;0;0;0;();(-2000.0, -2000.0);
07:40:21:855;;;;;;;;;;;;;;07:40:21:830;1447958419.68;(0.2969294548034668, 0.2567351447211371);26.4011955261;1.0;2;0;0;0;0;();(-2000.0, -2000.0);
07:40:22:377;07:40:22:375;0;9;-1.5;1;0;0;0;0;1;1;1;1;07:40:22:366;1447958420.22;(0.2973864316940308, 0.2567200554741753);26.9620056152;1.0;2;0;0;0;0;();(-2000.0, -2000.0);
07:40:22:380;07:40:22:380;0;9;-1.5;1;0;0;0;0;1;1;1;1;07:40:22:366;1447958420.22;(0.2973864316940308, 0.2567200554741753);26.9620056152;1.0;2;0;0;0;0;();(-2000.0, -2000.0);
07:40:22:383;07:40:22:383;0;9;-1.5;1;0;0;0;0;1;1;1;1;07:40:22:366;1447958420.22;(0.2973864316940308, 0.2567200554741753);26.9620056152;1.0;2;0;0;0;0;();(-2000.0, -2000.0);
07:40:22:385;07:40:22:385;0;9;-1.5;1;0;0;0;0;1;1;1;1;07:40:22:366;1447958420.22;(0.2973864316940308, 0.2567200554741753);26.9620056152;1.0;2;0;0;0;0;();(-2000.0, -2000.0);
07:40:22:390;07:40:22:390;0;5;-1.5;1;0;0;0;0;1;1;1;1;07:40:22:366;1447958420.22;(0.2973864316940308, 0.2567200554741753);26.9620056152;1.0;2;0;0;0;0;();(-2000.0, -2000.0);
07:40:22:392;07:40:22:392;0;5;-1.5;1;0;0;0;0;1;1;1;1;07:40:22:366;1447958420.22;(0.2973864316940308, 0.2567200554741753);26.9620056152;1.0;2;0;0;0;0;();(-2000.0, -2000.0);
07:40:22:394;07:40:22:394;0;15;-1.5;1;0;0;0;0;1;1;1;1;07:40:22:366;1447958420.22;(0.2973864316940308, 0.2567200554741753);26.9620056152;1.0;2;0;0;0;0;();(-2000.0, -2000.0);
07:40:22:396;07:40:22:396;0;15;-1.5;1;0;0;0;0;1;1;1;1;07:40:22:366;1447958420.22;(0.2973864316940308, 0.2567200554741753);26.9620056152;1.0;2;0;0;0;0;();(-2000.0, -2000.0);
07:40:22:397;07:40:22:397;0;15;-1.5;1;0;0;0;0;1;1;1;1;07:40:22:366;1447958420.22;(0.2973864316940308, 0.2567200554741753);26.9620056152;1.0;2;0;0;0;0;();(-2000.0, -2000.0);
07:40:22:399;07:40:22:399;0;15;-1.5;1;0;0;0;0;1;1;1;1;07:40:22:366;1447958420.22;(0.2973864316940308, 0.2567200554741753);26.9620056152;1.0;2;0;0;0;0;();(-2000.0, -2000.0);
07:40:22:401;07:40:22:400;0;15;-1.5;1;0;0;0;0;1;1;1;1;07:40:22:366;1447958420.22;(0.2973864316940308, 0.2567200554741753);26.9620056152;1.0;2;0;0;0;0;();(-2000.0, -2000.0);
07:40:22:403;07:40:22:403;0;15;-1.5;1;0;0;0;0;1;1;1;1;07:40:22:366;1447958420.22;(0.2973864316940308, 0.2567200554741753);26.9620056152;1.0;2;0;0;0;0;();(-2000.0, -2000.0);
07:40:22:405;07:40:22:405;0;15;-1.5;1;0;0;0;0;1;1;1;1;07:40:22:366;1447958420.22;(0.2973864316940308, 0.2567200554741753);26.9620056152;1.0;2;0;0;0;0;();(-2000.0, -2000.0);
07:40:22:407;07:40:22:406;0;15;-1.5;1;0;0;0;0;1;1;1;1;07:40:22:366;1447958420.22;(0.2973864316940308, 0.2567200554741753);26.9620056152;1.0;2;0;0;0;0;();(-2000.0, -2000.0);
07:40:22:408;07:40:22:408;0;10;-1.5;1;0;0;0;0;1;1;1;1;07:40:22:366;1447958420.22;(0.2973864316940308, 0.2567200554741753);26.9620056152;1.0;2;0;0;0;0;();(-2000.0, -2000.0);
07:40:22:410;07:40:22:410;0;10;-1.5;1;0;0;0;0;1;1;1;1;07:40:22:366;1447958420.22;(0.2973864316940308, 0.2567200554741753);26.9620056152;1.0;2;0;0;0;0;();(-2000.0, -2000.0);
07:40:22:413;07:40:22:413;0;10;-1.5;1;0;0;0;0;1;1;1;1;07:40:22:366;1447958420.22;(0.2973864316940308, 0.2567200554741753);26.9620056152;1.0;2;0;0;0;0;();(-2000.0, -2000.0);
07:40:22:415;07:40:22:415;0;10;-1.5;1;0;0;0;0;1;1;1;1;07:40:22:366;1447958420.22;(0.2973864316940308, 0.2567200554741753);26.9620056152;1.0;2;0;0;0;0;();(-2000.0, -2000.0);
07:40:22:430;07:40:22:430;0;4;-1.5;1;0;0;0;0;1;1;1;1;07:40:22:366;1447958420.22;(0.2973864316940308, 0.2567200554741753);26.9620056152;1.0;2;0;0;0;0;();(-2000.0, -2000.0);
07:40:22:447;07:40:22:447;0;13;-1.5;1;0;0;0;0;1;1;1;1;07:40:22:437;1447958420.28;(0.29755995273590086, 0.2567535400390625);26.941411972;1.0;2;0;0;0;0;();(-2000.0, -2000.0);
07:40:22:463;07:40:22:463;0;0;-1.5;1;0;0;0;0;1;1;1;1;07:40:22:437;1447958420.28;(0.29755995273590086, 0.2567535400390625);26.941411972;1.0;2;0;0;0;0;();(-2000.0, -2000.0);
07:40:22:480;07:40:22:480;0;10;-1.5;1;0;0;0;0;1;1;1;1;07:40:22:437;1447958420.28;(0.29755995273590086, 0.2567535400390625);26.941411972;1.0;2;0;0;0;0;();(-2000.0, -2000.0);
07:40:22:496;07:40:22:496;0;15;-1.5;1;0;0;0;0;1;1;1;1;07:40:22:437;1447958420.28;(0.29755995273590086, 0.2567535400390625);26.941411972;1.0;2;0;0;0;0;();(-2000.0, -2000.0);
07:40:22:530;07:40:22:529;0;2;-1.5;1;0;0;0;0;1;1;1;1;07:40:22:502;1447958420.35;(0.29739067554473875, 0.25690019395616315);26.911485672;1.0;2;0;0;0;0;();(-2000.0, -2000.0);
07:40:22:546;07:40:22:546;0;5;-1.5;1;0;0;0;0;1;1;1;1;07:40:22:502;1447958420.35;(0.29739067554473875, 0.25690019395616315);26.911485672;1.0;2;0;0;0;0;();(-2000.0, -2000.0);
07:40:22:563;07:40:22:563;0;15;-1.5;1;0;0;0;0;1;1;1;1;07:40:22:502;1447958420.35;(0.29739067554473875, 0.25690019395616315);26.911485672;1.0;2;0;0;0;0;();(-2000.0, -2000.0);
07:40:22:579;07:40:22:579;0;4;-1.5;1;0;0;0;0;1;1;1;1;07:40:22:567;1447958420.42;(0.29739012718200686, 0.25699827406141496);27.0150775909;1.0;2;0;0;0;0;();(-2000.0, -2000.0);
07:40:22:612;07:40:22:612;0;5;-1.5;1;0;0;0;0;1;1;1;1;07:40:22:567;1447958420.42;(0.29739012718200686, 0.25699827406141496);27.0150775909;1.0;2;0;0;0;0;();(-2000.0, -2000.0);
07:40:22:629;07:40:22:629;0;0;-1.5;1;0;0;0;0;1;1;1;1;07:40:22:567;1447958420.42;(0.29739012718200686, 0.25699827406141496);27.0150775909;1.0;2;0;0;0;0;();(-2000.0, -2000.0);
07:40:22:645;07:40:22:645;0;4;-1.5;1;0;0;0;0;1;1;1;1;07:40:22:634;1447958420.48;(0.29726035594940187, 0.2565396626790365);26.4404830933;1.0;2;0;0;0;0;();(-2000.0, -2000.0);
07:40:22:662;07:40:22:662;0;9;-1.5;1;0;0;0;0;1;1;1;1;07:40:22:634;1447958420.48;(0.29726035594940187, 0.2565396626790365);26.4404830933;1.0;2;0;0;0;0;();(-2000.0, -2000.0);
07:40:22:679;07:40:22:678;0;5;-1.5;1;0;0;0;0;1;1;1;1;07:40:22:634;1447958420.48;(0.29726035594940187, 0.2565396626790365);26.4404830933;1.0;2;0;0;0;0;();(-2000.0, -2000.0);
07:40:22:712;07:40:22:712;0;5;-1.5;1;0;0;0;0;1;1;1;1;07:40:22:702;1447958420.55;(0.29713752269744875, 0.2563910590277778);26.5551986694;1.0;2;0;0;0;0;();(-2000.0, -2000.0);
07:40:22:728;07:40:22:728;0;10;-1.5;1;0;0;0;0;1;1;1;1;07:40:22:702;1447958420.55;(0.29713752269744875, 0.2563910590277778);26.5551986694;1.0;2;0;0;0;0;();(-2000.0, -2000.0);
07:40:22:745;07:40:22:745;0;4;-1.5;1;0;0;0;0;1;1;1;1;07:40:22:702;1447958420.55;(0.29713752269744875, 0.2563910590277778);26.5551986694;1.0;2;0;0;0;0;();(-2000.0, -2000.0);
07:40:22:761;07:40:22:761;0;9;-1.5;1;0;0;0;0;1;1;1;1;07:40:22:702;1447958420.55;(0.29713752269744875, 0.2563910590277778);26.5551986694;1.0;2;0;0;0;0;();(-2000.0, -2000.0);
07:40:22:778;07:40:22:778;0;5;-1.5;1;0;0;0;0;1;1;1;1;07:40:22:702;1447958420.55;(0.29713752269744875, 0.2563910590277778);26.5551986694;1.0;2;0;0;0;0;();(-2000.0, -2000.0);
07:40:22:811;07:40:22:811;0;14;-1.5;1;0;0;0;0;1;1;1;1;07:40:22:802;1447958420.62;(0.2968915939331055, 0.2567008124457465);26.7509479523;1.0;2;0;0;0;0;();(-2000.0, -2000.0);
07:40:22:828;07:40:22:827;0;9;-1.5;1;0;0;0;0;1;1;1;1;07:40:22:802;1447958420.62;(0.2968915939331055, 0.2567008124457465);26.7509479523;1.0;2;0;0;0;0;();(-2000.0, -2000.0);
07:40:22:844;07:40:22:844;0;4;-1.5;1;0;0;0;0;1;1;1;1;07:40:22:834;1447958420.68;(0.2969811201095581, 0.25650990804036455);26.7388954163;1.0;2;0;0;0;0;();(-2000.0, -2000.0);
07:40:22:861;07:40:22:861;0;10;-1.5;1;0;0;0;0;1;1;1;1;07:40:22:834;1447958420.68;(0.2969811201095581, 0.25650990804036455);26.7388954163;1.0;2;0;0;0;0;();(-2000.0, -2000.0);
07:40:22:877;07:40:22:877;0;4;-1.5;1;0;0;0;0;1;1;1;1;07:40:22:834;1447958420.68;(0.2969811201095581, 0.25650990804036455);26.7388954163;1.0;2;0;0;0;0;();(-2000.0, -2000.0);
07:40:22:911;07:40:22:911;0;15;-1.5;1;0;0;0;0;1;1;1;1;07:40:22:902;1447958420.75;(0.29719688892364504, 0.25665800306532116);26.8533115387;1.0;2;0;0;0;0;();(-2000.0, -2000.0);
07:40:22:928;07:40:22:928;0;9;-1.5;1;0;0;0;0;1;1;1;1;07:40:22:902;1447958420.75;(0.29719688892364504, 0.25665800306532116);26.8533115387;1.0;2;0;0;0;0;();(-2000.0, -2000.0);
07:40:22:944;07:40:22:944;0;0;-1.5;1;0;0;0;0;1;1;1;1;07:40:22:902;1447958420.75;(0.29719688892364504, 0.25665800306532116);26.8533115387;1.0;2;0;0;0;0;();(-2000.0, -2000.0);
07:40:22:960;07:40:22:960;0;5;-1.5;1;0;0;0;0;1;1;1;1;07:40:22:902;1447958420.75;(0.29719688892364504, 0.25665800306532116);26.8533115387;1.0;2;0;0;0;0;();(-2000.0, -2000.0);
07:40:22:977;07:40:22:977;0;15;-1.5;1;0;0;0;0;1;1;1;1;07:40:22:970;1447958420.82;(0.2972660779953003, 0.2567666795518663);27.1012954712;1.0;2;0;0;0;0;();(-2000.0, -2000.0);
07:40:23:010;07:40:23:010;0;0;-1.5;1;0;0;0;0;1;1;1;1;07:40:22:970;1447958420.82;(0.2972660779953003, 0.2567666795518663);27.1012954712;1.0;2;0;0;0;0;();(-2000.0, -2000.0);
07:40:23:027;07:40:23:027;0;5;-1.5;1;0;0;0;0;1;1;1;1;07:40:22:970;1447958420.82;(0.2972660779953003, 0.2567666795518663);27.1012954712;1.0;2;0;0;0;0;();(-2000.0, -2000.0);
07:40:23:061;07:40:23:061;0;4;-1.5;1;0;0;0;0;1;1;1;1;07:40:23:035;1447958420.88;(0.2974482536315918, 0.25639919704861114);26.5227432251;1.0;2;0;0;0;0;();(-2000.0, -2000.0);
07:40:23:063;07:40:23:063;0;4;-1.5;1;0;0;0;0;1;1;1;1;07:40:23:035;1447958420.88;(0.2974482536315918, 0.25639919704861114);26.5227432251;1.0;2;0;0;0;0;();(-2000.0, -2000.0);
07:40:23:079;07:40:23:079;0;15;-1.5;1;0;0;0;0;1;1;1;1;07:40:23:035;1447958420.88;(0.2974482536315918, 0.25639919704861114);26.5227432251;1.0;2;0;0;0;0;();(-2000.0, -2000.0);
07:40:23:096;07:40:23:096;0;4;-1.5;1;0;0;0;0;1;1;1;1;07:40:23:035;1447958420.88;(0.2974482536315918, 0.25639919704861114);26.5227432251;1.0;2;0;0;0;0;();(-2000.0, -2000.0);
07:40:23:129;07:40:23:129;0;4;-1.5;1;0;0;0;0;1;1;1;1;07:40:23:102;1447958420.95;(0.29753201007843016, 0.2568683200412326);26.6389980316;1.0;2;0;0;0;0;();(-2000.0, -2000.0);
07:40:23:146;07:40:23:146;0;9;-1.5;1;0;0;0;0;1;1;1;1;07:40:23:102;1447958420.95;(0.29753201007843016, 0.2568683200412326);26.6389980316;1.0;2;0;0;0;0;();(-2000.0, -2000.0);
07:40:23:162;07:40:23:162;0;0;-1.5;1;0;0;0;0;1;1;1;1;07:40:23:102;1447958420.95;(0.29753201007843016, 0.2568683200412326);26.6389980316;1.0;2;0;0;0;0;();(-2000.0, -2000.0);
07:40:23:179;07:40:23:179;0;10;-1.5;1;0;0;0;0;1;1;1;1;07:40:23:170;1447958421.02;(0.29743261337280275, 0.25632264879014754);27.015663147;1.0;2;0;0;0;0;();(-2000.0, -2000.0);
07:40:23:212;07:40:23:212;0;10;-1.5;1;0;0;0;0;1;1;1;1;07:40:23:170;1447958421.02;(0.29743261337280275, 0.25632264879014754);27.015663147;1.0;2;0;0;0;0;();(-2000.0, -2000.0);
07:40:23:228;07:40:23:228;0;4;-1.5;1;0;0;0;0;1;1;1;1;07:40:23:170;1447958421.02;(0.29743261337280275, 0.25632264879014754);27.015663147;1.0;2;0;0;0;0;();(-2000.0, -2000.0);
07:40:23:245;07:40:23:245;0;9;-1.5;1;0;0;0;0;1;1;1;1;07:40:23:238;1447958421.08;(0.2975360870361328, 0.25660171508789065);26.7085876465;1.0;2;0;0;0;0;();(-2000.0, -2000.0);
07:40:23:265;07:40:23:265;0;10;-1.5;1;0;0;0;0;1;1;1;1;07:40:23:238;1447958421.08;(0.2975360870361328, 0.25660171508789065);26.7085876465;1.0;2;0;0;0;0;();(-2000.0, -2000.0);
07:40:23:282;07:40:23:282;0;5;-1.5;1;0;0;0;0;1;1;1;1;07:40:23:238;1447958421.08;(0.2975360870361328, 0.25660171508789065);26.7085876465;1.0;2;0;0;0;0;();(-2000.0, -2000.0);
07:40:23:298;07:40:23:298;0;15;-1.5;1;0;0;0;0;1;1;1;1;07:40:23:238;1447958421.08;(0.2975360870361328, 0.25660171508789065);26.7085876465;1.0;2;0;0;0;0;();(-2000.0, -2000.0);
07:40:23:332;07:40:23:332;0;15;-1.5;1;0;0;0;0;1;1;1;1;07:40:23:303;1447958421.15;(0.29757330417633054, 0.25684780544704866);26.6879806519;1.0;2;0;0;0;0;();(-2000.0, -2000.0);
07:40:23:348;07:40:23:348;0;4;-1.5;1;0;0;0;0;1;1;1;1;07:40:23:303;1447958421.15;(0.29757330417633054, 0.25684780544704866);26.6879806519;1.0;2;0;0;0;0;();(-2000.0, -2000.0);
07:40:23:365;07:40:23:365;0;10;-1.5;1;0;0;0;0;1;1;1;1;07:40:23:303;1447958421.15;(0.29757330417633054, 0.25684780544704866);26.6879806519;1.0;2;0;0;0;0;();(-2000.0, -2000.0);
07:40:23:381;07:40:23:381;0;4;-1.5;1;0;0;0;0;1;1;1;1;07:40:23:370;1447958421.22;(0.2970989227294922, 0.2568316141764323);26.9589595795;1.0;2;0;0;0;0;();(-2000.0, -2000.0);
07:40:23:398;07:40:23:398;0;15;-1.5;1;0;0;0;0;1;1;1;1;07:40:23:370;1447958421.22;(0.2970989227294922, 0.2568316141764323);26.9589595795;1.0;2;0;0;0;0;();(-2000.0, -2000.0);
07:40:23:431;07:40:23:431;0;0;-1.5;1;0;0;0;0;1;1;1;1;07:40:23:370;1447958421.22;(0.2970989227294922, 0.2568316141764323);26.9589595795;1.0;2;0;0;0;0;();(-2000.0, -2000.0);
07:40:23:448;07:40:23:448;0;4;-1.5;1;0;0;0;0;1;1;1;1;07:40:23:438;1447958421.28;(0.2974036455154419, 0.25661222669813366);27.1150932312;1.0;2;0;0;0;0;();(-2000.0, -2000.0);
07:40:23:464;07:40:23:464;0;0;-1.5;1;0;0;0;0;1;1;1;1;07:40:23:438;1447958421.28;(0.2974036455154419, 0.25661222669813366);27.1150932312;1.0;2;0;0;0;0;();(-2000.0, -2000.0);
07:40:23:481;07:40:23:481;0;4;-1.5;1;0;0;0;0;1;1;1;1;07:40:23:438;1447958421.28;(0.2974036455154419, 0.25661222669813366);27.1150932312;1.0;2;0;0;0;0;();(-2000.0, -2000.0);
07:40:23:497;07:40:23:497;0;0;-1.5;1;0;0;0;0;1;1;1;1;07:40:23:438;1447958421.28;(0.2974036455154419, 0.25661222669813366);27.1150932312;1.0;2;0;0;0;0;();(-2000.0, -2000.0);
07:40:23:530;07:40:23:530;0;10;-1.5;1;0;0;0;0;1;1;1;1;07:40:23:506;1447958421.35;(0.29714651107788087, 0.25677193535698783);26.8711433411;1.0;2;0;0;0;0;();(-2000.0, -2000.0);
07:40:23:547;07:40:23:547;0;4;-1.5;1;0;0;0;0;1;1;1;1;07:40:23:506;1447958421.35;(0.29714651107788087, 0.25677193535698783);26.8711433411;1.0;2;0;0;0;0;();(-2000.0, -2000.0);
07:40:23:564;07:40:23:564;0;9;-1.5;1;0;0;0;0;1;1;1;1;07:40:23:506;1447958421.35;(0.29714651107788087, 0.25677193535698783);26.8711433411;1.0;2;0;0;0;0;();(-2000.0, -2000.0);
07:40:23:580;07:40:23:580;0;5;-1.5;1;0;0;0;0;1;1;1;1;07:40:23:571;1447958421.42;(0.2972522735595703, 0.2571209377712673);26.7118740082;1.0;2;0;0;0;0;();(-2000.0, -2000.0);
07:40:23:597;07:40:23:597;0;10;-1.5;1;0;0;0;0;1;1;1;1;07:40:23:571;1447958421.42;(0.2972522735595703, 0.2571209377712673);26.7118740082;1.0;2;0;0;0;0;();(-2000.0, -2000.0);
07:40:23:630;07:40:23:630;0;9;-1.5;1;0;0;0;0;1;1;1;1;07:40:23:571;1447958421.42;(0.2972522735595703, 0.2571209377712673);26.7118740082;1.0;2;0;0;0;0;();(-2000.0, -2000.0);
07:40:23:646;07:40:23:646;0;14;-1.5;1;0;0;0;0;1;1;1;1;07:40:23:639;1447958421.48;(0.2975019931793213, 0.2566991170247396);26.9027271271;1.0;2;0;0;0;0;();(-2000.0, -2000.0);
07:40:23:663;07:40:23:663;0;9;-1.5;1;0;0;0;0;1;1;1;1;07:40:23:639;1447958421.48;(0.2975019931793213, 0.2566991170247396);26.9027271271;1.0;2;0;0;0;0;();(-2000.0, -2000.0);
07:40:23:683;07:40:23:683;0;15;-1.5;1;0;0;0;0;1;1;1;1;07:40:23:639;1447958421.48;(0.2975019931793213, 0.2566991170247396);26.9027271271;1.0;2;0;0;0;0;();(-2000.0, -2000.0);
07:40:23:701;07:40:23:701;0;4;-1.5;1;0;0;0;0;1;1;1;1;07:40:23:639;1447958421.48;(0.2975019931793213, 0.2566991170247396);26.9027271271;1.0;2;0;0;0;0;();(-2000.0, -2000.0);
07:40:23:717;07:40:23:717;0;4;-1.5;1;0;0;0;0;1;1;1;1;07:40:23:706;1447958421.55;(0.297400164604187, 0.2566680908203125);27.2607593536;1.0;2;0;0;0;0;();(-2000.0, -2000.0);
07:40:23:751;07:40:23:750;0;10;-1.5;1;0;0;0;0;1;1;1;1;07:40:23:706;1447958421.55;(0.297400164604187, 0.2566680908203125);27.2607593536;1.0;2;0;0;0;0;();(-2000.0, -2000.0);
07:40:23:767;07:40:23:767;0;5;-1.5;1;0;0;0;0;1;1;1;1;07:40:23:706;1447958421.55;(0.297400164604187, 0.2566680908203125);27.2607593536;1.0;2;0;0;0;0;();(-2000.0, -2000.0);
07:40:23:784;07:40:23:784;0;9;-1.5;1;0;0;0;0;1;1;1;1;07:40:23:774;1447958421.62;(0.2975082635879517, 0.2567460801866319);27.1225528717;1.0;2;0;0;0;0;();(-2000.0, -2000.0);
07:40:23:800;07:40:23:800;0;4;-1.5;1;0;0;0;0;1;1;1;1;07:40:23:774;1447958421.62;(0.2975082635879517, 0.2567460801866319);27.1225528717;1.0;2;0;0;0;0;();(-2000.0, -2000.0);
07:40:23:817;07:40:23:817;0;10;-1.5;1;0;0;0;0;1;1;1;1;07:40:23:774;1447958421.62;(0.2975082635879517, 0.2567460801866319);27.1225528717;1.0;2;0;0;0;0;();(-2000.0, -2000.0);
07:40:23:850;07:40:23:850;0;10;-1.5;1;0;0;0;0;1;1;1;1;07:40:23:838;1447958421.68;(0.2977367162704468, 0.25633078681098087);26.7976341248;1.0;2;0;0;0;0;();(-2000.0, -2000.0);
07:40:23:866;07:40:23:866;0;14;-1.5;1;0;0;0;0;1;1;1;1;07:40:23:838;1447958421.68;(0.2977367162704468, 0.25633078681098087);26.7976341248;1.0;2;0;0;0;0;();(-2000.0, -2000.0);
07:40:23:887;07:40:23:887;0;5;-1.5;1;0;0;0;0;1;1;1;1;07:40:23:838;1447958421.68;(0.2977367162704468, 0.25633078681098087);26.7976341248;1.0;2;0;0;0;0;();(-2000.0, -2000.0);
07:40:23:914;07:40:23:912;0;10;-1.5;1;0;0;0;0;1;1;1;1;07:40:23:906;1447958421.75;(0.2973365068435669, 0.25613945855034725);27.0145683289;1.0;4;0;0;0;0;();(-2000.0, -2000.0);
07:40:23:923;07:40:23:923;0;4;-1.5;1;0;0;0;0;1;1;1;1;07:40:23:906;1447958421.75;(0.2973365068435669, 0.25613945855034725);27.0145683289;1.0;4;0;0;0;0;();(-2000.0, -2000.0);
07:40:23:940;07:40:23:940;0;9;-1.5;1;0;0;0;0;1;1;1;1;07:40:23:906;1447958421.75;(0.2973365068435669, 0.25613945855034725);27.0145683289;1.0;4;0;0;0;0;();(-2000.0, -2000.0);
07:40:23:957;07:40:23:957;0;4;-1.5;1;0;0;0;0;1;1;1;1;07:40:23:906;1447958421.75;(0.2973365068435669, 0.25613945855034725);27.0145683289;1.0;4;0;0;0;0;();(-2000.0, -2000.0);
07:40:23:990;07:40:23:990;0;5;-1.5;1;0;0;0;0;1;1;1;1;07:40:23:974;1447958421.82;(0.2972562789916992, 0.25664054022894967);26.6899738312;1.0;4;0;0;0;0;();(-2000.0, -2000.0);
07:40:24:006;07:40:24:006;0;10;-1.5;1;0;0;0;0;1;1;1;1;07:40:23:974;1447958421.82;(0.2972562789916992, 0.25664054022894967);26.6899738312;1.0;4;0;0;0;0;();(-2000.0, -2000.0);
07:40:24:023;07:40:24:023;0;4;-1.5;1;0;0;0;0;1;1;1;1;07:40:23:974;1447958421.82;(0.2972562789916992, 0.25664054022894967);26.6899738312;1.0;4;0;0;0;0;();(-2000.0, -2000.0);
07:40:24:039;07:40:24:039;0;9;-1.5;1;0;0;0;0;1;1;1;1;07:40:24:039;1447958421.88;(0.29728021621704104, 0.25668902926974824);26.5539779663;1.0;4;0;0;0;0;();(-2000.0, -2000.0);
07:40:24:056;07:40:24:056;0;5;-1.5;1;0;0;0;0;1;1;1;1;07:40:24:039;1447958421.88;(0.29728021621704104, 0.25668902926974824);26.5539779663;1.0;4;0;0;0;0;();(-2000.0, -2000.0);
07:40:24:100;07:40:24:100;0;15;-1.5;1;0;0;0;0;1;1;1;1;07:40:24:039;1447958421.88;(0.29728021621704104, 0.25668902926974824);26.5539779663;1.0;4;0;0;0;0;();(-2000.0, -2000.0);
07:40:24:102;07:40:24:102;0;9;-1.5;1;0;0;0;0;1;1;1;1;07:40:24:039;1447958421.88;(0.29728021621704104, 0.25668902926974824);26.5539779663;1.0;4;0;0;0;0;();(-2000.0, -2000.0);
07:40:24:119;07:40:24:119;0;5;-1.5;1;0;0;0;0;1;1;1;1;07:40:24:039;1447958421.88;(0.29728021621704104, 0.25668902926974824);26.5539779663;1.0;4;0;0;0;0;();(-2000.0, -2000.0);
07:40:24:137;07:40:24:137;0;10;-1.5;1;0;0;0;0;1;1;1;1;07:40:24:039;1447958421.88;(0.29728021621704104, 0.25668902926974824);26.5539779663;1.0;4;0;0;0;0;();(-2000.0, -2000.0);
07:40:24:171;07:40:24:171;0;10;-1.5;1;0;0;0;0;1;1;1;1;07:40:24:142;1447958421.95;(0.29718210697174074, 0.25664783053927953);26.8145465851;1.0;4;0;0;0;0;();(-2000.0, -2000.0);
07:40:24:187;07:40:24:187;0;15;-1.5;1;0;0;0;0;1;1;1;1;07:40:24:175;1447958422.02;(0.2972093105316162, 0.2566289265950521);26.9728393555;1.0;4;0;0;0;0;();(-2000.0, -2000.0);
07:40:24:204;07:40:24:204;0;9;-1.5;1;0;0;0;0;1;1;1;1;07:40:24:175;1447958422.02;(0.2972093105316162, 0.2566289265950521);26.9728393555;1.0;4;0;0;0;0;();(-2000.0, -2000.0);
07:40:24:220;07:40:24:220;0;5;-1.5;1;0;0;0;0;1;1;1;1;07:40:24:175;1447958422.02;(0.2972093105316162, 0.2566289265950521);26.9728393555;1.0;4;0;0;0;0;();(-2000.0, -2000.0);
07:40:24:237;07:40:24:237;0;10;-1.5;1;0;0;0;0;1;1;1;1;07:40:24:175;1447958422.02;(0.2972093105316162, 0.2566289265950521);26.9728393555;1.0;4;0;0;0;0;();(-2000.0, -2000.0);
07:40:24:270;07:40:24:270;0;9;-1.5;1;0;0;0;0;1;1;1;1;07:40:24:242;1447958422.08;(0.2976358652114868, 0.25635994805230033);26.5966701508;1.0;4;0;0;0;0;();(-2000.0, -2000.0);
07:40:24:287;07:40:24:286;0;0;-1.5;1;0;0;0;0;1;1;1;1;07:40:24:242;1447958422.08;(0.2976358652114868, 0.25635994805230033);26.5966701508;1.0;4;0;0;0;0;();(-2000.0, -2000.0);
07:40:24:310;07:40:24:310;0;5;-1.5;1;0;0;0;0;1;1;1;1;07:40:24:306;1447958422.15;(0.29731087684631347, 0.25705947875976565);26.6739311218;1.0;4;0;0;0;0;();(-2000.0, -2000.0);
07:40:24:326;07:40:24:326;0;15;-1.5;1;0;0;0;0;1;1;1;1;07:40:24:306;1447958422.15;(0.29731087684631347, 0.25705947875976565);26.6739311218;1.0;4;0;0;0;0;();(-2000.0, -2000.0);
07:40:24:343;07:40:24:343;0;4;-1.5;1;0;0;0;0;1;1;1;1;07:40:24:306;1447958422.15;(0.29731087684631347, 0.25705947875976565);26.6739311218;1.0;4;0;0;0;0;();(-2000.0, -2000.0);
07:40:24:360;07:40:24:360;0;9;-1.5;1;0;0;0;0;1;1;1;1;07:40:24:306;1447958422.15;(0.29731087684631347, 0.25705947875976565);26.6739311218;1.0;4;0;0;0;0;();(-2000.0, -2000.0);
07:40:24:376;07:40:24:376;0;5;-1.5;1;0;0;0;0;1;1;1;1;07:40:24:374;1447958422.22;(0.2971115350723267, 0.25665393405490455);27.3325138092;1.0;4;0;0;0;0;();(-2000.0, -2000.0);
07:40:24:409;07:40:24:409;0;4;-1.5;1;0;0;0;0;1;1;1;1;07:40:24:374;1447958422.22;(0.2971115350723267, 0.25665393405490455);27.3325138092;1.0;4;0;0;0;0;();(-2000.0, -2000.0);
07:40:24:426;07:40:24:426;0;9;-1.5;1;0;0;0;0;1;1;1;1;07:40:24:374;1447958422.22;(0.2971115350723267, 0.25665393405490455);27.3325138092;1.0;4;0;0;0;0;();(-2000.0, -2000.0);
07:40:24:442;07:40:24:442;0;4;-1.5;1;0;0;0;0;1;1;1;1;07:40:24:442;1447958422.28;(0.2971281766891479, 0.2563516404893663);26.0969905853;1.0;4;0;0;0;0;();(-2000.0, -2000.0);
07:40:24:459;07:40:24:459;0;10;-1.5;1;0;0;0;0;1;1;1;1;07:40:24:442;1447958422.28;(0.2971281766891479, 0.2563516404893663);26.0969905853;1.0;4;0;0;0;0;();(-2000.0, -2000.0);
07:40:24:492;07:40:24:492;0;9;-1.5;1;0;0;0;0;1;1;1;1;07:40:24:442;1447958422.28;(0.2971281766891479, 0.2563516404893663);26.0969905853;1.0;4;0;0;0;0;();(-2000.0, -2000.0);
07:40:24:515;07:40:24:515;0;15;-1.5;1;0;0;0;0;1;1;1;1;07:40:24:510;1447958422.35;(0.29722914695739744, 0.25746900770399306);26.6231517792;1.0;4;0;0;0;0;();(-2000.0, -2000.0);
07:40:24:532;07:40:24:532;0;9;-1.5;1;0;0;0;0;1;1;1;1;07:40:24:510;1447958422.35;(0.29722914695739744, 0.25746900770399306);26.6231517792;1.0;4;0;0;0;0;();(-2000.0, -2000.0);
07:40:24:550;07:40:24:550;0;10;-1.5;1;0;0;0;0;1;1;1;1;07:40:24:510;1447958422.35;(0.29722914695739744, 0.25746900770399306);26.6231517792;1.0;4;0;0;0;0;();(-2000.0, -2000.0);
07:40:24:566;07:40:24:566;0;4;-1.5;1;0;0;0;0;1;1;1;1;07:40:24:510;1447958422.35;(0.29722914695739744, 0.25746900770399306);26.6231517792;1.0;4;0;0;0;0;();(-2000.0, -2000.0);
07:40:24:583;07:40:24:583;0;9;-1.5;1;0;0;0;0;1;1;1;1;07:40:24:575;1447958422.42;(0.29720995426177976, 0.25666283501519094);26.7913169861;1.0;4;0;0;0;0;();(-2000.0, -2000.0);
07:40:24:600;07:40:24:599;0;5;-1.5;1;0;0;0;0;1;1;1;1;07:40:24:575;1447958422.42;(0.29720995426177976, 0.25666283501519094);26.7913169861;1.0;4;0;0;0;0;();(-2000.0, -2000.0);
07:40:24:616;07:40:24:616;0;10;-1.5;1;0;0;0;0;1;1;1;1;07:40:24:575;1447958422.42;(0.29720995426177976, 0.25666283501519094);26.7913169861;1.0;4;0;0;0;0;();(-2000.0, -2000.0);
07:40:24:649;07:40:24:649;0;9;-1.5;1;0;0;0;0;1;1;1;1;07:40:24:642;1447958422.48;(0.2971211910247803, 0.25635503133138016);26.9974327087;1.0;4;0;0;0;0;();(-2000.0, -2000.0);
07:40:24:666;07:40:24:666;0;9;-1.5;1;0;0;0;0;1;1;1;1;07:40:24:642;1447958422.48;(0.2971211910247803, 0.25635503133138016);26.9974327087;1.0;4;0;0;0;0;();(-2000.0, -2000.0);
07:40:24:682;07:40:24:682;0;10;-1.5;1;0;0;0;0;1;1;1;1;07:40:24:642;1447958422.48;(0.2971211910247803, 0.25635503133138016);26.9974327087;1.0;4;0;0;0;0;();(-2000.0, -2000.0);
07:40:24:699;07:40:24:699;0;0;-1.5;1;0;0;0;0;1;1;1;1;07:40:24:642;1447958422.48;(0.2971211910247803, 0.25635503133138016);26.9974327087;1.0;4;0;0;0;0;();(-2000.0, -2000.0);
07:40:24:724;07:40:24:724;0;10;-1.5;1;0;0;0;0;1;1;1;1;07:40:24:710;1447958422.55;(0.29752798080444337, 0.2565700954861111);26.6671829224;1.0;4;0;0;0;0;();(-2000.0, -2000.0);
07:40:24:740;07:40:24:740;0;15;-1.5;1;0;0;0;0;1;1;1;1;07:40:24:710;1447958422.55;(0.29752798080444337, 0.2565700954861111);26.6671829224;1.0;4;0;0;0;0;();(-2000.0, -2000.0);
07:40:24:757;07:40:24:757;0;4;-1.5;1;0;0;0;0;1;1;1;1;07:40:24:710;1447958422.55;(0.29752798080444337, 0.2565700954861111);26.6671829224;1.0;4;0;0;0;0;();(-2000.0, -2000.0);
07:40:24:790;07:40:24:790;0;5;-1.5;1;0;0;0;0;1;1;1;1;07:40:24:779;1447958422.62;(0.29757256507873536, 0.2571478101942274);26.8553771973;1.0;4;0;0;0;0;();(-2000.0, -2000.0);
07:40:24:807;07:40:24:807;0;10;-1.5;1;0;0;0;0;1;1;1;1;07:40:24:779;1447958422.62;(0.29757256507873536, 0.2571478101942274);26.8553771973;1.0;4;0;0;0;0;();(-2000.0, -2000.0);
07:40:24:823;07:40:24:823;0;4;-1.5;1;0;0;0;0;1;1;1;1;07:40:24:779;1447958422.62;(0.29757256507873536, 0.2571478101942274);26.8553771973;1.0;4;0;0;0;0;();(-2000.0, -2000.0);
07:40:24:840;07:40:24:840;0;9;-1.5;1;0;0;0;0;1;1;1;1;07:40:24:779;1447958422.62;(0.29757256507873536, 0.2571478101942274);26.8553771973;1.0;4;0;0;0;0;();(-2000.0, -2000.0);
07:40:24:856;07:40:24:856;0;5;-1.5;1;0;0;0;0;1;1;1;1;07:40:24:842;1447958422.68;(0.29717216491699217, 0.2567156473795573);27.198299408;1.0;4;0;0;0;0;();(-2000.0, -2000.0);
07:40:24:889;07:40:24:889;0;5;-1.5;1;0;0;0;0;1;1;1;1;07:40:24:842;1447958422.68;(0.29717216491699217, 0.2567156473795573);27.198299408;1.0;4;0;0;0;0;();(-2000.0, -2000.0);
07:40:24:906;07:40:24:906;0;9;-1.5;1;0;0;0;0;1;1;1;1;07:40:24:842;1447958422.68;(0.29717216491699217, 0.2567156473795573);27.198299408;1.0;4;0;0;0;0;();(-2000.0, -2000.0);
07:40:24:940;07:40:24:940;0;10;-1.5;1;0;0;0;0;1;1;1;1;07:40:24:910;1447958422.75;(0.297423791885376, 0.2566458808051215);26.7915477753;1.0;4;0;0;0;0;();(-2000.0, -2000.0);
07:40:24:944;07:40:24:944;0;5;-1.5;1;0;0;0;0;1;1;1;1;07:40:24:910;1447958422.75;(0.297423791885376, 0.2566458808051215);26.7915477753;1.0;4;0;0;0;0;();(-2000.0, -2000.0);
07:40:24:957;07:40:24:957;0;15;-1.5;1;0;0;0;0;1;1;1;1;07:40:24:910;1447958422.75;(0.297423791885376, 0.2566458808051215);26.7915477753;1.0;4;0;0;0;0;();(-2000.0, -2000.0);
07:40:24:991;07:40:24:991;0;4;-1.5;1;0;0;0;0;1;1;1;1;07:40:24:979;1447958422.82;(0.2975346326828003, 0.2569445292154948);26.7179489136;1.0;4;0;0;0;0;();(-2000.0, -2000.0);
07:40:25:007;07:40:25:007;0;9;-1.5;1;0;0;0;0;1;1;1;1;07:40:24:979;1447958422.82;(0.2975346326828003, 0.2569445292154948);26.7179489136;1.0;4;0;0;0;0;();(-2000.0, -2000.0);
07:40:25:024;07:40:25:024;0;0;-1.5;1;0;0;0;0;1;1;1;1;07:40:24:979;1447958422.82;(0.2975346326828003, 0.2569445292154948);26.7179489136;1.0;4;0;0;0;0;();(-2000.0, -2000.0);
07:40:25:041;07:40:25:040;0;10;-1.5;1;0;0;0;0;1;1;1;1;07:40:24:979;1447958422.82;(0.2975346326828003, 0.2569445292154948);26.7179489136;1.0;4;0;0;0;0;();(-2000.0, -2000.0);
07:40:25:057;07:40:25:057;0;15;-1.5;1;0;0;0;0;1;1;1;1;07:40:25:046;1447958422.88;(0.2973047733306885, 0.25679329766167536);26.905544281;1.0;4;0;0;0;0;();(-2000.0, -2000.0);
07:40:25:090;07:40:25:090;0;0;-1.5;1;0;0;0;0;1;1;1;1;07:40:25:046;1447958422.88;(0.2973047733306885, 0.25679329766167536);26.905544281;1.0;4;0;0;0;0;();(-2000.0, -2000.0);
07:40:25:107;07:40:25:107;0;10;-1.5;1;0;0;0;0;1;1;1;1;07:40:25:046;1447958422.88;(0.2973047733306885, 0.25679329766167536);26.905544281;1.0;4;0;0;0;0;();(-2000.0, -2000.0);
07:40:25:140;07:40:25:139;0;4;-1.5;1;0;0;0;0;1;1;1;1;07:40:25:110;1447958422.95;(0.2972069978713989, 0.25661722819010413);26.4632434845;1.0;4;0;0;0;0;();(-2000.0, -2000.0);
07:40:25:142;07:40:25:142;0;4;-1.5;1;0;0;0;0;1;1;1;1;07:40:25:110;1447958422.95;(0.2972069978713989, 0.25661722819010413);26.4632434845;1.0;4;0;0;0;0;();(-2000.0, -2000.0);
07:40:25:156;07:40:25:156;0;15;-1.5;1;0;0;0;0;1;1;1;1;07:40:25:110;1447958422.95;(0.2972069978713989, 0.25661722819010413);26.4632434845;1.0;4;0;0;0;0;();(-2000.0, -2000.0);
07:40:25:192;07:40:25:192;0;10;-1.5;1;0;0;0;0;1;1;1;1;07:40:25:179;1447958423.02;(0.29683215618133546, 0.25639470418294275);26.7945995331;1.0;4;0;0;0;0;();(-2000.0, -2000.0);
07:40:25:208;07:40:25:208;0;6;-1.5;1;0;0;0;0;1;1;1;1;07:40:25:179;1447958423.02;(0.29683215618133546, 0.25639470418294275);26.7945995331;1.0;4;0;0;0;0;();(-2000.0, -2000.0);
07:40:25:225;07:40:25:225;0;9;-1.5;1;0;0;0;0;1;1;1;1;07:40:25:179;1447958423.02;(0.29683215618133546, 0.25639470418294275);26.7945995331;1.0;4;0;0;0;0;();(-2000.0, -2000.0);
07:40:25:241;07:40:25:241;0;4;-1.5;1;0;0;0;0;1;1;1;1;07:40:25:179;1447958423.02;(0.29683215618133546, 0.25639470418294275);26.7945995331;1.0;4;0;0;0;0;();(-2000.0, -2000.0);
07:40:25:258;07:40:25:258;0;2;-1.5;1;0;0;0;0;1;1;1;1;07:40:25:246;1447958423.08;(0.29741995334625243, 0.2563435872395833);26.7195549011;1.0;4;0;0;0;0;();(-2000.0, -2000.0);
07:40:25:291;07:40:25:291;0;10;-1.5;1;0;0;0;0;1;1;1;1;07:40:25:246;1447958423.08;(0.29741995334625243, 0.2563435872395833);26.7195549011;1.0;4;0;0;0;0;();(-2000.0, -2000.0);
07:40:25:308;07:40:25:308;0;4;-1.5;1;0;0;0;0;1;1;1;1;07:40:25:246;1447958423.08;(0.29741995334625243, 0.2563435872395833);26.7195549011;1.0;4;0;0;0;0;();(-2000.0, -2000.0);
07:40:25:324;07:40:25:324;0;9;-1.5;1;0;0;0;0;1;1;1;1;07:40:25:314;1447958423.15;(0.2969275236129761, 0.2568987528483073);27.0402965546;1.0;4;0;0;0;0;();(-2000.0, -2000.0);
07:40:25:341;07:40:25:341;0;5;-1.5;1;0;0;0;0;1;1;1;1;07:40:25:314;1447958423.15;(0.2969275236129761, 0.2568987528483073);27.0402965546;1.0;4;0;0;0;0;();(-2000.0, -2000.0);
07:40:25:358;07:40:25:358;0;10;-1.5;1;0;0;0;0;1;1;1;1;07:40:25:314;1447958423.15;(0.2969275236129761, 0.2568987528483073);27.0402965546;1.0;4;0;0;0;0;();(-2000.0, -2000.0);
07:40:25:391;07:40:25:391;0;9;-1.5;1;0;0;0;0;1;1;1;1;07:40:25:378;1447958423.22;(0.2976060390472412, 0.2569598727756076);27.1867256165;1.0;4;0;0;0;0;();(-2000.0, -2000.0);
07:40:25:408;07:40:25:408;0;0;-1.5;1;0;0;0;0;1;1;1;1;07:40:25:378;1447958423.22;(0.2976060390472412, 0.2569598727756076);27.1867256165;1.0;4;0;0;0;0;();(-2000.0, -2000.0);
07:40:25:424;07:40:25:424;0;5;-1.5;1;0;0;0;0;1;1;1;1;07:40:25:378;1447958423.22;(0.2976060390472412, 0.2569598727756076);27.1867256165;1.0;4;0;0;0;0;();(-2000.0, -2000.0);
07:40:25:441;07:40:25:441;0;5;-1.5;1;0;0;0;0;1;1;1;1;07:40:25:378;1447958423.22;(0.2976060390472412, 0.2569598727756076);27.1867256165;1.0;4;0;0;0;0;();(-2000.0, -2000.0);
07:40:25:457;07:40:25:457;0;4;-1.5;1;0;0;0;0;1;1;1;1;07:40:25:446;1447958423.28;(0.2974708080291748, 0.2569363911946615);27.2675895691;1.0;4;0;0;0;0;();(-2000.0, -2000.0);
07:40:25:491;07:40:25:491;0;5;-1.5;1;0;0;0;0;1;1;1;1;07:40:25:446;1447958423.28;(0.2974708080291748, 0.2569363911946615);27.2675895691;1.0;4;0;0;0;0;();(-2000.0, -2000.0);
07:40:25:507;07:40:25:507;0;0;-1.5;1;0;0;0;0;1;1;1;1;07:40:25:446;1447958423.28;(0.2974708080291748, 0.2569363911946615);27.2675895691;1.0;4;0;0;0;0;();(-2000.0, -2000.0);
07:40:25:524;07:40:25:524;0;4;-1.5;1;0;0;0;0;1;1;1;1;07:40:25:515;1447958423.35;(0.29752416610717775, 0.25652762518988714);27.1805458069;1.0;4;0;0;0;0;();(-2000.0, -2000.0);
07:40:25:547;07:40:25:547;0;9;-1.5;1;0;0;0;0;1;1;1;1;07:40:25:515;1447958423.35;(0.29752416610717775, 0.25652762518988714);27.1805458069;1.0;4;0;0;0;0;();(-2000.0, -2000.0);
07:40:25:564;07:40:25:564;0;4;-1.5;1;0;0;0;0;1;1;1;1;07:40:25:515;1447958423.35;(0.29752416610717775, 0.25652762518988714);27.1805458069;1.0;4;0;0;0;0;();(-2000.0, -2000.0);
07:40:25:581;07:40:25:581;0;9;-1.5;1;0;0;0;0;1;1;1;1;07:40:25:578;1447958423.42;(0.2973067283630371, 0.256679450141059);26.8745956421;1.0;4;0;0;0;0;();(-2000.0, -2000.0);
07:40:25:598;07:40:25:598;0;15;-1.5;1;0;0;0;0;1;1;1;1;07:40:25:578;1447958423.42;(0.2973067283630371, 0.256679450141059);26.8745956421;1.0;4;0;0;0;0;();(-2000.0, -2000.0);
07:40:25:631;07:40:25:631;0;15;-1.5;1;0;0;0;0;1;1;1;1;07:40:25:578;1447958423.42;(0.2973067283630371, 0.256679450141059);26.8745956421;1.0;4;0;0;0;0;();(-2000.0, -2000.0);
07:40:25:647;07:40:25:647;0;9;-1.5;1;0;0;0;0;1;1;1;1;07:40:25:646;1447958423.48;(0.2974287509918213, 0.2567447238498264);26.8400249481;1.0;4;0;0;0;0;();(-2000.0, -2000.0);
07:40:25:664;07:40:25:664;0;0;-1.5;1;0;0;0;0;1;1;1;1;07:40:25:646;1447958423.48;(0.2974287509918213, 0.2567447238498264);26.8400249481;1.0;4;0;0;0;0;();(-2000.0, -2000.0);
07:40:25:680;07:40:25:680;0;10;-1.5;1;0;0;0;0;1;1;1;1;07:40:25:646;1447958423.48;(0.2974287509918213, 0.2567447238498264);26.8400249481;1.0;4;0;0;0;0;();(-2000.0, -2000.0);
07:40:25:697;07:40:25:697;0;15;-1.5;1;0;0;0;0;1;1;1;1;07:40:25:646;1447958423.48;(0.2974287509918213, 0.2567447238498264);26.8400249481;1.0;4;0;0;0;0;();(-2000.0, -2000.0);
07:40:25:730;07:40:25:730;0;0;-1.5;1;0;0;0;0;1;1;1;1;07:40:25:714;1447958423.55;(0.29733982086181643, 0.2567050509982639);26.974729538;1.0;4;0;0;0;0;();(-2000.0, -2000.0);
07:40:25:753;07:40:25:753;0;1;-1.5;1;0;0;0;0;1;1;1;1;07:40:25:714;1447958423.55;(0.29733982086181643, 0.2567050509982639);26.974729538;1.0;4;0;0;0;0;();(-2000.0, -2000.0);
07:40:25:771;07:40:25:771;0;9;-1.5;1;0;0;0;0;1;1;1;1;07:40:25:714;1447958423.55;(0.29733982086181643, 0.2567050509982639);26.974729538;1.0;4;0;0;0;0;();(-2000.0, -2000.0);
07:40:25:787;07:40:25:787;0;15;-1.5;1;0;0;0;0;1;1;1;1;07:40:25:782;1447958423.62;(0.2974322557449341, 0.2563674079047309);27.1176795959;1.0;4;0;0;0;0;();(-2000.0, -2000.0);
07:40:25:804;07:40:25:804;0;9;-1.5;1;0;0;0;0;1;1;1;1;07:40:25:782;1447958423.62;(0.2974322557449341, 0.2563674079047309);27.1176795959;1.0;4;0;0;0;0;();(-2000.0, -2000.0);
07:40:25:821;07:40:25:821;0;0;-1.5;1;0;0;0;0;1;1;1;1;07:40:25:782;1447958423.62;(0.2974322557449341, 0.2563674079047309);27.1176795959;1.0;4;0;0;0;0;();(-2000.0, -2000.0);
07:40:25:837;07:40:25:837;0;10;-1.5;1;0;0;0;0;1;1;1;1;07:40:25:782;1447958423.62;(0.2974322557449341, 0.2563674079047309);27.1176795959;1.0;4;0;0;0;0;();(-2000.0, -2000.0);
07:40:25:870;07:40:25:870;0;9;-1.5;1;0;0;0;0;1;1;1;1;07:40:25:846;1447958423.68;(0.29726834297180177, 0.2569488525390625);26.7969264984;1.0;4;0;0;0;0;();(-2000.0, -2000.0);
07:40:25:887;07:40:25:887;0;15;-1.5;1;0;0;0;0;1;1;1;1;07:40:25:846;1447958423.68;(0.29726834297180177, 0.2569488525390625);26.7969264984;1.0;4;0;0;0;0;();(-2000.0, -2000.0);
07:40:25:904;07:40:25:903;0;14;-1.5;1;0;0;0;0;1;1;1;1;07:40:25:846;1447958423.68;(0.29726834297180177, 0.2569488525390625);26.7969264984;1.0;4;0;0;0;0;();(-2000.0, -2000.0);
07:40:25:920;07:40:25:920;0;0;-1.5;1;0;0;0;0;1;1;1;1;07:40:25:914;1447958423.75;(0.2972963809967041, 0.25691341824001734);26.8953857422;1.0;4;0;0;0;0;();(-2000.0, -2000.0);
07:40:25:937;07:40:25:936;0;10;-1.5;1;0;0;0;0;1;1;1;1;07:40:25:914;1447958423.75;(0.2972963809967041, 0.25691341824001734);26.8953857422;1.0;4;0;0;0;0;();(-2000.0, -2000.0);
07:40:25:958;07:40:25:958;0;9;-1.5;1;0;0;0;0;1;1;1;1;07:40:25:914;1447958423.75;(0.2972963809967041, 0.25691341824001734);26.8953857422;1.0;4;0;0;0;0;();(-2000.0, -2000.0);
07:40:25:991;07:40:25:991;0;10;-1.5;1;0;0;0;0;1;1;1;1;07:40:25:982;1447958423.82;(0.2975423574447632, 0.25646413167317705);26.8254394531;1.0;4;0;0;0;0;();(-2000.0, -2000.0);
07:40:26:008;07:40:26:008;0;11;-1.5;1;0;0;0;0;1;1;1;1;07:40:25:982;1447958423.82;(0.2975423574447632, 0.25646413167317705);26.8254394531;1.0;4;0;0;0;0;();(-2000.0, -2000.0);
07:40:26:025;07:40:26:025;0;9;-1.5;1;0;0;0;0;1;1;1;1;07:40:25:982;1447958423.82;(0.2975423574447632, 0.25646413167317705);26.8254394531;1.0;4;0;0;0;0;();(-2000.0, -2000.0);
07:40:26:041;07:40:26:041;0;4;-1.5;1;0;0;0;0;1;1;1;1;07:40:25:982;1447958423.82;(0.2975423574447632, 0.25646413167317705);26.8254394531;1.0;4;0;0;0;0;();(-2000.0, -2000.0);
07:40:26:058;07:40:26:058;0;10;-1.5;1;0;0;0;0;1;1;1;1;07:40:26:050;1447958423.88;(0.2973386287689209, 0.2570218404134115);27.1491641998;1.0;4;0;0;0;0;();(-2000.0, -2000.0);
07:40:26:091;07:40:26:091;0;9;-1.5;1;0;0;0;0;1;1;1;1;07:40:26:050;1447958423.88;(0.2973386287689209, 0.2570218404134115);27.1491641998;1.0;4;0;0;0;0;();(-2000.0, -2000.0);
07:40:26:108;07:40:26:108;0;4;-1.5;1;0;0;0;0;1;1;1;1;07:40:26:050;1447958423.88;(0.2973386287689209, 0.2570218404134115);27.1491641998;1.0;4;0;0;0;0;();(-2000.0, -2000.0);
07:40:26:124;07:40:26:124;0;9;-1.5;1;0;0;0;0;1;1;1;1;07:40:26:114;1447958423.95;(0.2976053714752197, 0.25686993069118924);26.6281490326;1.0;4;0;0;0;0;();(-2000.0, -2000.0);
07:40:26:141;07:40:26:141;0;5;-1.5;1;0;0;0;0;1;1;1;1;07:40:26:114;1447958423.95;(0.2976053714752197, 0.25686993069118924);26.6281490326;1.0;4;0;0;0;0;();(-2000.0, -2000.0);
07:40:26:174;07:40:26:174;0;15;-1.5;1;0;0;0;0;1;1;1;1;07:40:26:114;1447958423.95;(0.2976053714752197, 0.25686993069118924);26.6281490326;1.0;4;0;0;0;0;();(-2000.0, -2000.0);
07:40:26:192;07:40:26:192;0;9;-1.5;1;0;0;0;0;1;1;1;1;07:40:26:182;1447958424.02;(0.29731409549713134, 0.25674150254991324);27.2134189606;1.0;4;0;0;0;0;();(-2000.0, -2000.0);
07:40:26:209;07:40:26:209;0;0;-1.5;1;0;0;0;0;1;1;1;1;07:40:26:182;1447958424.02;(0.29731409549713134, 0.25674150254991324);27.2134189606;1.0;4;0;0;0;0;();(-2000.0, -2000.0);
07:40:26:225;07:40:26:225;0;9;-1.5;1;0;0;0;0;1;1;1;1;07:40:26:182;1447958424.02;(0.29731409549713134, 0.25674150254991324);27.2134189606;1.0;4;0;0;0;0;();(-2000.0, -2000.0);
07:40:26:242;07:40:26:242;0;15;-1.5;1;0;0;0;0;1;1;1;1;07:40:26:182;1447958424.02;(0.29731409549713134, 0.25674150254991324);27.2134189606;1.0;4;0;0;0;0;();(-2000.0, -2000.0);
07:40:26:258;07:40:26:258;0;14;-1.5;1;0;0;0;0;1;1;1;1;07:40:26:251;1447958424.08;(0.29724462032318116, 0.2567406548394098);27.0638751984;1.0;4;0;0;0;0;();(-2000.0, -2000.0);
07:40:26:292;07:40:26:292;0;5;-1.5;1;0;0;0;0;1;1;1;1;07:40:26:251;1447958424.08;(0.29724462032318116, 0.2567406548394098);27.0638751984;1.0;4;0;0;0;0;();(-2000.0, -2000.0);
07:40:26:308;07:40:26:308;0;10;-1.5;1;0;0;0;0;1;1;1;1;07:40:26:251;1447958424.08;(0.29724462032318116, 0.2567406548394098);27.0638751984;1.0;4;0;0;0;0;();(-2000.0, -2000.0);
07:40:26:325;07:40:26:325;0;4;-1.5;1;0;0;0;0;1;1;1;1;07:40:26:319;1447958424.15;(0.2973656415939331, 0.2567972819010417);26.7134780884;1.0;4;0;0;0;0;();(-2000.0, -2000.0);
07:40:26:341;07:40:26:341;0;9;-1.5;1;0;0;0;0;1;1;1;1;07:40:26:319;1447958424.15;(0.2973656415939331, 0.2567972819010417);26.7134780884;1.0;4;0;0;0;0;();(-2000.0, -2000.0);
07:40:26:358;07:40:26:358;0;5;-1.5;1;0;0;0;0;1;1;1;1;07:40:26:319;1447958424.15;(0.2973656415939331, 0.2567972819010417);26.7134780884;1.0;4;0;0;0;0;();(-2000.0, -2000.0);
07:40:26:377;07:40:26:377;0;10;-1.5;1;0;0;0;0;1;1;1;1;07:40:26:319;1447958424.15;(0.2973656415939331, 0.2567972819010417);26.7134780884;1.0;4;0;0;0;0;();(-2000.0, -2000.0);
07:40:26:412;07:40:26:412;0;10;-1.5;1;0;0;0;0;1;1;1;1;07:40:26:383;1447958424.22;(0.2971925973892212, 0.25701107449001737);26.589630127;1.0;4;0;0;0;0;();(-2000.0, -2000.0);
07:40:26:429;07:40:26:429;0;15;-1.5;1;0;0;0;0;1;1;1;1;07:40:26:383;1447958424.22;(0.2971925973892212, 0.25701107449001737);26.589630127;1.0;4;0;0;0;0;();(-2000.0, -2000.0);
07:40:26:445;07:40:26:445;0;11;-1.5;1;0;0;0;0;1;1;1;1;07:40:26:383;1447958424.22;(0.2971925973892212, 0.25701107449001737);26.589630127;1.0;4;0;0;0;0;();(-2000.0, -2000.0);
07:40:26:462;07:40:26:462;0;0;-1.5;1;0;0;0;0;1;1;1;1;07:40:26:451;1447958424.28;(0.29695188999176025, 0.25662138197157114);27.3638114929;1.0;4;0;0;0;0;();(-2000.0, -2000.0);
07:40:26:479;07:40:26:479;0;10;-1.5;1;0;0;0;0;1;1;1;1;07:40:26:451;1447958424.28;(0.29695188999176025, 0.25662138197157114);27.3638114929;1.0;4;0;0;0;0;();(-2000.0, -2000.0);
07:40:26:512;07:40:26:512;0;9;-1.5;1;0;0;0;0;1;1;1;1;07:40:26:451;1447958424.28;(0.29695188999176025, 0.25662138197157114);27.3638114929;1.0;4;0;0;0;0;();(-2000.0, -2000.0);
07:40:26:528;07:40:26:528;0;0;-1.5;1;0;0;0;0;1;1;1;1;07:40:26:518;1447958424.35;(0.29741344451904295, 0.2565458509657118);26.9166927338;1.0;4;0;0;0;0;();(-2000.0, -2000.0);
07:40:26:545;07:40:26:545;0;10;-1.5;1;0;0;0;0;1;1;1;1;07:40:26:518;1447958424.35;(0.29741344451904295, 0.2565458509657118);26.9166927338;1.0;4;0;0;0;0;();(-2000.0, -2000.0);
07:40:26:561;07:40:26:561;0;15;-1.5;1;0;0;0;0;1;1;1;1;07:40:26:518;1447958424.35;(0.29741344451904295, 0.2565458509657118);26.9166927338;1.0;4;0;0;0;0;();(-2000.0, -2000.0);
07:40:26:583;07:40:26:583;0;4;-1.5;1;0;0;0;0;1;1;1;1;07:40:26:518;1447958424.35;(0.29741344451904295, 0.2565458509657118);26.9166927338;1.0;4;0;0;0;0;();(-2000.0, -2000.0);
07:40:26:599;07:40:26:599;0;9;-1.5;1;0;0;0;0;1;1;1;1;07:40:26:586;1447958424.42;(0.2973311424255371, 0.25678278605143234);27.0216884613;1.0;4;0;0;0;0;();(-2000.0, -2000.0);
07:40:26:616;07:40:26:616;0;5;-1.5;1;0;0;0;0;1;1;1;1;07:40:26:586;1447958424.42;(0.2973311424255371, 0.25678278605143234);27.0216884613;1.0;4;0;0;0;0;();(-2000.0, -2000.0);
07:40:26:649;07:40:26:649;0;15;-1.5;1;0;0;0;0;1;1;1;1;07:40:26:586;1447958424.42;(0.2973311424255371, 0.25678278605143234);27.0216884613;1.0;4;0;0;0;0;();(-2000.0, -2000.0);
07:40:26:666;07:40:26:666;0;9;-1.5;1;0;0;0;0;1;1;1;1;07:40:26:651;1447958424.48;(0.2975719451904297, 0.2568945990668403);26.8887958527;1.0;4;0;0;0;0;();(-2000.0, -2000.0);
07:40:26:689;07:40:26:689;0;0;-1.5;1;0;0;0;0;1;1;1;1;07:40:26:651;1447958424.48;(0.2975719451904297, 0.2568945990668403);26.8887958527;1.0;6;0;0;0;0;();(-2000.0, -2000.0);
07:40:26:699;07:40:26:699;0;10;-1.5;1;0;0;0;0;1;1;1;1;07:40:26:651;1447958424.48;(0.2975719451904297, 0.2568945990668403);26.8887958527;1.0;6;0;0;0;0;();(-2000.0, -2000.0);
07:40:26:732;07:40:26:732;0;10;-1.5;1;0;0;0;0;1;1;1;1;07:40:26:718;1447958424.55;(0.29723329544067384, 0.25681330362955734);27.123840332;1.0;6;0;0;0;0;();(-2000.0, -2000.0);
07:40:26:748;07:40:26:748;0;14;-1.5;1;0;0;0;0;1;1;1;1;07:40:26:718;1447958424.55;(0.29723329544067384, 0.25681330362955734);27.123840332;1.0;6;0;0;0;0;();(-2000.0, -2000.0);
07:40:26:765;07:40:26:765;0;10;-1.5;1;0;0;0;0;1;1;1;1;07:40:26:718;1447958424.55;(0.29723329544067384, 0.25681330362955734);27.123840332;1.0;6;0;0;0;0;();(-2000.0, -2000.0);
07:40:26:783;07:40:26:783;0;0;-1.5;1;0;0;0;0;1;1;1;1;07:40:26:718;1447958424.55;(0.29723329544067384, 0.25681330362955734);27.123840332;1.0;6;0;0;0;0;();(-2000.0, -2000.0);
07:40:26:802;07:40:26:802;0;4;-1.5;1;0;0;0;0;1;1;1;1;07:40:26:786;1447958424.62;(0.2973463773727417, 0.25707507663302953);26.6906032562;1.0;6;0;0;0;0;();(-2000.0, -2000.0);
07:40:26:818;07:40:26:818;0;15;-1.5;1;0;0;0;0;1;1;1;1;07:40:26:786;1447958424.62;(0.2973463773727417, 0.25707507663302953);26.6906032562;1.0;6;0;0;0;0;();(-2000.0, -2000.0);
07:40:26:851;07:40:26:851;0;10;-1.5;1;0;0;0;0;1;1;1;1;07:40:26:851;1447958424.68;(0.29736855030059817, 0.2565372043185764);26.7553653717;1.0;6;0;0;0;0;();(-2000.0, -2000.0);
07:40:26:868;07:40:26:868;0;5;-1.5;1;0;0;0;0;1;1;1;1;07:40:26:851;1447958424.68;(0.29736855030059817, 0.2565372043185764);26.7553653717;1.0;6;0;0;0;0;();(-2000.0, -2000.0);
07:40:26:885;07:40:26:885;0;15;-1.5;1;0;0;0;0;1;1;1;1;07:40:26:851;1447958424.68;(0.29736855030059817, 0.2565372043185764);26.7553653717;1.0;6;0;0;0;0;();(-2000.0, -2000.0);
07:40:26:901;07:40:26:901;0;4;-1.5;1;0;0;0;0;1;1;1;1;07:40:26:851;1447958424.68;(0.29736855030059817, 0.2565372043185764);26.7553653717;1.0;6;0;0;0;0;();(-2000.0, -2000.0);
07:40:26:918;07:40:26:918;0;15;-1.5;1;0;0;0;0;1;1;1;1;07:40:26:851;1447958424.68;(0.29736855030059817, 0.2565372043185764);26.7553653717;1.0;6;0;0;0;0;();(-2000.0, -2000.0);
07:40:26:951;07:40:26:951;0;10;-1.5;1;0;0;0;0;1;1;1;1;07:40:26:918;1447958424.75;(0.2973564386367798, 0.2563712226019965);26.4765625;1.0;6;0;0;0;0;();(-2000.0, -2000.0);
07:40:26:969;07:40:26:969;0;14;-1.5;1;0;0;0;0;1;1;1;1;07:40:26:918;1447958424.75;(0.2973564386367798, 0.2563712226019965);26.4765625;1.0;6;0;0;0;0;();(-2000.0, -2000.0);
07:40:26:994;07:40:26:994;0;9;-1.5;1;0;0;0;0;1;1;1;1;07:40:26:986;1447958424.82;(0.2973003387451172, 0.2564457363552517);26.8031311035;1.0;6;0;0;0;0;();(-2000.0, -2000.0);
07:40:27:011;07:40:27:011;0;0;-1.5;1;0;0;0;0;1;1;1;1;07:40:26:986;1447958424.82;(0.2973003387451172, 0.2564457363552517);26.8031311035;1.0;6;0;0;0;0;();(-2000.0, -2000.0);
07:40:27:028;07:40:27:028;0;5;-1.5;1;0;0;0;0;1;1;1;1;07:40:26:986;1447958424.82;(0.2973003387451172, 0.2564457363552517);26.8031311035;1.0;6;0;0;0;0;();(-2000.0, -2000.0);
07:40:27:044;07:40:27:044;0;1;-1.5;1;0;0;0;0;1;1;1;1;07:40:26:986;1447958424.82;(0.2973003387451172, 0.2564457363552517);26.8031311035;1.0;6;0;0;0;0;();(-2000.0, -2000.0);
07:40:27:061;07:40:27:061;0;4;-1.5;1;0;0;0;0;1;1;1;1;07:40:27:055;1447958424.88;(0.2970951318740845, 0.2569275750054254);26.8400440216;1.0;6;0;0;0;0;();(-2000.0, -2000.0);
07:40:27:077;07:40:27:077;0;15;-1.5;1;0;0;0;0;1;1;1;1;07:40:27:055;1447958424.88;(0.2970951318740845, 0.2569275750054254);26.8400440216;1.0;6;0;0;0;0;();(-2000.0, -2000.0);
07:40:27:111;07:40:27:111;0;0;-1.5;1;0;0;0;0;1;1;1;1;07:40:27:055;1447958424.88;(0.2970951318740845, 0.2569275750054254);26.8400440216;1.0;6;0;0;0;0;();(-2000.0, -2000.0);
07:40:27:127;07:40:27:127;0;4;-1.5;1;0;0;0;0;1;1;1;1;07:40:27:118;1447958424.95;(0.29746122360229493, 0.2565049065483941);26.6144351959;1.0;6;0;0;0;0;();(-2000.0, -2000.0);
07:40:27:144;07:40:27:144;0;9;-1.5;1;0;0;0;0;1;1;1;1;07:40:27:118;1447958424.95;(0.29746122360229493, 0.2565049065483941);26.6144351959;1.0;6;0;0;0;0;();(-2000.0, -2000.0);
07:40:27:160;07:40:27:160;0;4;-1.5;1;0;0;0;0;1;1;1;1;07:40:27:118;1447958424.95;(0.29746122360229493, 0.2565049065483941);26.6144351959;1.0;6;0;0;0;0;();(-2000.0, -2000.0);
07:40:27:177;07:40:27:177;0;10;-1.5;1;0;0;0;0;1;1;1;1;07:40:27:118;1447958424.95;(0.29746122360229493, 0.2565049065483941);26.6144351959;1.0;6;0;0;0;0;();(-2000.0, -2000.0);
07:40:27:208;07:40:27:208;0;10;-1.5;1;0;0;0;0;1;1;1;1;07:40:27:186;1447958425.02;(0.297273063659668, 0.25662519666883676);26.9252052307;1.0;6;0;0;0;0;();(-2000.0, -2000.0);
07:40:27:228;07:40:27:228;0;15;-1.5;1;0;0;0;0;1;1;1;1;07:40:27:186;1447958425.02;(0.297273063659668, 0.25662519666883676);26.9252052307;1.0;6;0;0;0;0;();(-2000.0, -2000.0);
07:40:27:244;07:40:27:244;0;11;-1.5;1;0;0;0;0;1;1;1;1;07:40:27:186;1447958425.02;(0.297273063659668, 0.25662519666883676);26.9252052307;1.0;6;0;0;0;0;();(-2000.0, -2000.0);
07:40:27:261;07:40:27:261;0;0;-1.5;1;0;0;0;0;1;1;1;1;07:40:27:254;1447958425.08;(0.29696366786956785, 0.25639190673828127);26.6403121948;1.0;6;0;0;0;0;();(-2000.0, -2000.0);
07:40:27:278;07:40:27:277;0;10;-1.5;1;0;0;0;0;1;1;1;1;07:40:27:254;1447958425.08;(0.29696366786956785, 0.25639190673828127);26.6403121948;1.0;6;0;0;0;0;();(-2000.0, -2000.0);
07:40:27:311;07:40:27:311;0;4;-1.5;1;0;0;0;0;1;1;1;1;07:40:27:254;1447958425.08;(0.29696366786956785, 0.25639190673828127);26.6403121948;1.0;6;0;0;0;0;();(-2000.0, -2000.0);
07:40:27:327;07:40:27:327;0;0;-1.5;1;0;0;0;0;1;1;1;1;07:40:27:322;1447958425.15;(0.29719369411468505, 0.25659467909071176);26.6183357239;1.0;6;0;0;0;0;();(-2000.0, -2000.0);
07:40:27:344;07:40:27:344;0;10;-1.5;1;0;0;0;0;1;1;1;1;07:40:27:322;1447958425.15;(0.29719369411468505, 0.25659467909071176);26.6183357239;1.0;6;0;0;0;0;();(-2000.0, -2000.0);
07:40:27:360;07:40:27:360;0;15;-1.5;1;0;0;0;0;1;1;1;1;07:40:27:322;1447958425.15;(0.29719369411468505, 0.25659467909071176);26.6183357239;1.0;6;0;0;0;0;();(-2000.0, -2000.0);
07:40:27:377;07:40:27:377;0;4;-1.5;1;0;0;0;0;1;1;1;1;07:40:27:322;1447958425.15;(0.29719369411468505, 0.25659467909071176);26.6183357239;1.0;6;0;0;0;0;();(-2000.0, -2000.0);
07:40:27:415;07:40:27:415;0;5;-1.5;1;0;0;0;0;1;1;1;1;07:40:27:386;1447958425.22;(0.297245717048645, 0.25651431613498266);26.8014431;1.0;6;0;0;0;0;();(-2000.0, -2000.0);
07:40:27:433;07:40:27:432;0;10;-1.5;1;0;0;0;0;1;1;1;1;07:40:27:386;1447958425.22;(0.297245717048645, 0.25651431613498266);26.8014431;1.0;6;0;0;0;0;();(-2000.0, -2000.0);
07:40:27:449;07:40:27:449;0;4;-1.5;1;0;0;0;0;1;1;1;1;07:40:27:386;1447958425.22;(0.297245717048645, 0.25651431613498266);26.8014431;1.0;6;0;0;0;0;();(-2000.0, -2000.0);
07:40:27:466;07:40:27:466;0;9;-1.5;1;0;0;0;0;1;1;1;1;07:40:27:455;1447958425.28;(0.29716031551361083, 0.25638597276475694);26.622505188;1.0;6;0;0;0;0;();(-2000.0, -2000.0);
07:40:27:482;07:40:27:482;0;14;-1.5;1;0;0;0;0;1;1;1;1;07:40:27:455;1447958425.28;(0.29716031551361083, 0.25638597276475694);26.622505188;1.0;6;0;0;0;0;();(-2000.0, -2000.0);
07:40:27:499;07:40:27:499;0;9;-1.5;1;0;0;0;0;1;1;1;1;07:40:27:455;1447958425.28;(0.29716031551361083, 0.25638597276475694);26.622505188;1.0;6;0;0;0;0;();(-2000.0, -2000.0);
07:40:27:532;07:40:27:532;0;10;-1.5;1;0;0;0;0;1;1;1;1;07:40:27:522;1447958425.35;(0.2971921443939209, 0.25676328870985243);26.867351532;1.0;6;0;0;0;0;();(-2000.0, -2000.0);
07:40:27:549;07:40:27:549;0;4;-1.5;1;0;0;0;0;1;1;1;1;07:40:27:522;1447958425.35;(0.2971921443939209, 0.25676328870985243);26.867351532;1.0;6;0;0;0;0;();(-2000.0, -2000.0);
07:40:27:565;07:40:27:565;0;14;-1.5;1;0;0;0;0;1;1;1;1;07:40:27:522;1447958425.35;(0.2971921443939209, 0.25676328870985243);26.867351532;1.0;6;0;0;0;0;();(-2000.0, -2000.0);
07:40:27:582;07:40:27:582;0;0;-1.5;1;0;0;0;0;1;1;1;1;07:40:27:522;1447958425.35;(0.2971921443939209, 0.25676328870985243);26.867351532;1.0;6;0;0;0;0;();(-2000.0, -2000.0);
07:40:27:598;07:40:27:598;0;10;-1.5;1;0;0;0;0;1;1;1;1;07:40:27:590;1447958425.42;(0.2971299648284912, 0.25689561631944446);27.0333175659;1.0;6;0;0;0;0;();(-2000.0, -2000.0);
07:40:27:620;07:40:27:619;0;15;-1.5;1;0;0;0;0;1;1;1;1;07:40:27:590;1447958425.42;(0.2971299648284912, 0.25689561631944446);27.0333175659;1.0;6;0;0;0;0;();(-2000.0, -2000.0);
07:40:27:639;07:40:27:638;0;4;-1.5;1;0;0;0;0;1;1;1;1;07:40:27:590;1447958425.42;(0.2971299648284912, 0.25689561631944446);27.0333175659;1.0;6;0;0;0;0;();(-2000.0, -2000.0);
07:40:27:672;07:40:27:672;0;15;-1.5;1;0;0;0;0;1;1;1;1;07:40:27:654;1447958425.48;(0.29732632637023926, 0.25727301703559025);26.8011398315;1.0;6;0;0;0;0;();(-2000.0, -2000.0);
07:40:27:690;07:40:27:690;0;10;-1.5;1;0;0;0;0;1;1;1;1;07:40:27:654;1447958425.48;(0.29732632637023926, 0.25727301703559025);26.8011398315;1.0;6;0;0;0;0;();(-2000.0, -2000.0);
07:40:27:707;07:40:27:707;0;4;-1.5;1;0;0;0;0;1;1;1;1;07:40:27:654;1447958425.48;(0.29732632637023926, 0.25727301703559025);26.8011398315;1.0;6;0;0;0;0;();(-2000.0, -2000.0);
07:40:27:724;07:40:27:724;0;9;-1.5;1;0;0;0;0;1;1;1;1;07:40:27:722;1447958425.55;(0.29737105369567873, 0.2569445292154948);26.6720027924;1.0;6;0;0;0;0;();(-2000.0, -2000.0);
07:40:27:740;07:40:27:740;0;0;-1.5;1;0;0;0;0;1;1;1;1;07:40:27:722;1447958425.55;(0.29737105369567873, 0.2569445292154948);26.6720027924;1.0;6;0;0;0;0;();(-2000.0, -2000.0);
07:40:27:757;07:40:27:757;0;4;-1.5;1;0;0;0;0;1;1;1;1;07:40:27:722;1447958425.55;(0.29737105369567873, 0.2569445292154948);26.6720027924;1.0;6;0;0;0;0;();(-2000.0, -2000.0);
07:40:27:790;07:40:27:790;0;4;-1.5;1;0;0;0;0;1;1;1;1;07:40:27:790;1447958425.62;(0.29721388816833494, 0.25686374240451393);26.8721561432;1.0;6;0;0;0;0;();(-2000.0, -2000.0);
07:40:27:807;07:40:27:806;0;15;-1.5;1;0;0;0;0;1;1;1;1;07:40:27:790;1447958425.62;(0.29721388816833494, 0.25686374240451393);26.8721561432;1.0;6;0;0;0;0;();(-2000.0, -2000.0);
07:40:27:823;07:40:27:823;0;10;-1.5;1;0;0;0;0;1;1;1;1;07:40:27:790;1447958425.62;(0.29721388816833494, 0.25686374240451393);26.8721561432;1.0;6;0;0;0;0;();(-2000.0, -2000.0);
07:40:27:842;07:40:27:842;0;15;-1.5;1;0;0;0;0;1;1;1;1;07:40:27:790;1447958425.62;(0.29721388816833494, 0.25686374240451393);26.8721561432;1.0;6;0;0;0;0;();(-2000.0, -2000.0);
07:40:27:859;07:40:27:859;0;4;-1.5;1;0;0;0;0;1;1;1;1;07:40:27:858;1447958425.68;(0.2975161552429199, 0.2573287963867188);27.192150116;1.0;6;0;0;0;0;();(-2000.0, -2000.0);
07:40:27:876;07:40:27:876;0;15;-1.5;1;0;0;0;0;1;1;1;1;07:40:27:858;1447958425.68;(0.2975161552429199, 0.2573287963867188);27.192150116;1.0;6;0;0;0;0;();(-2000.0, -2000.0);
07:40:27:909;07:40:27:909;0;0;-1.5;1;0;0;0;0;1;1;1;1;07:40:27:858;1447958425.68;(0.2975161552429199, 0.2573287963867188);27.192150116;1.0;6;0;0;0;0;();(-2000.0, -2000.0);
07:40:27:926;07:40:27:926;0;4;-1.5;1;0;0;0;0;1;1;1;1;07:40:27:922;1447958425.75;(0.29773731231689454, 0.25662782457139754);26.6492996216;1.0;6;0;0;0;0;();(-2000.0, -2000.0);
07:40:27:942;07:40:27:942;0;9;-1.5;1;0;0;0;0;1;1;1;1;07:40:27:922;1447958425.75;(0.29773731231689454, 0.25662782457139754);26.6492996216;1.0;6;0;0;0;0;();(-2000.0, -2000.0);
07:40:27:959;07:40:27:959;0;5;-1.5;1;0;0;0;0;1;1;1;1;07:40:27:922;1447958425.75;(0.29773731231689454, 0.25662782457139754);26.6492996216;1.0;6;0;0;0;0;();(-2000.0, -2000.0);
07:40:27:992;07:40:27:992;0;4;-1.5;1;0;0;0;0;1;1;1;1;07:40:27:990;1447958425.82;(0.2975397825241089, 0.2572350396050347);26.9629936218;1.0;6;0;0;0;0;();(-2000.0, -2000.0);
07:40:28:009;07:40:28:009;0;9;-1.5;1;0;0;0;0;1;1;1;1;07:40:27:990;1447958425.82;(0.2975397825241089, 0.2572350396050347);26.9629936218;1.0;6;0;0;0;0;();(-2000.0, -2000.0);
07:40:28:033;07:40:28:032;0;15;-1.5;1;0;0;0;0;1;1;1;1;07:40:27:990;1447958425.82;(0.2975397825241089, 0.2572350396050347);26.9629936218;1.0;6;0;0;0;0;();(-2000.0, -2000.0);
07:40:28:049;07:40:28:049;0;5;-1.5;1;0;0;0;0;1;1;1;1;07:40:27:990;1447958425.82;(0.2975397825241089, 0.2572350396050347);26.9629936218;1.0;6;0;0;0;0;();(-2000.0, -2000.0);
07:40:28:075;07:40:28:075;0;10;-1.5;1;0;0;0;0;1;1;1;1;07:40:28:058;1447958425.88;(0.2973818302154541, 0.25647040473090277);26.3605670929;1.0;6;0;0;0;0;();(-2000.0, -2000.0);
07:40:28:092;07:40:28:092;0;7;-1.5;1;0;0;0;0;1;1;1;1;07:40:28:058;1447958425.88;(0.2973818302154541, 0.25647040473090277);26.3605670929;1.0;6;0;0;0;0;();(-2000.0, -2000.0);
07:40:28:108;07:40:28:108;0;9;-1.5;1;0;0;0;0;1;1;1;1;07:40:28:058;1447958425.88;(0.2973818302154541, 0.25647040473090277);26.3605670929;1.0;6;0;0;0;0;();(-2000.0, -2000.0);
07:40:28:125;07:40:28:125;0;0;-1.5;1;0;0;0;0;1;1;1;1;07:40:28:122;1447958425.95;(0.29701087474822996, 0.2569148593478733);27.1330699921;1.0;6;0;0;0;0;();(-2000.0, -2000.0);
07:40:28:141;07:40:28:141;0;10;-1.5;1;0;0;0;0;1;1;1;1;07:40:28:122;1447958425.95;(0.29701087474822996, 0.2569148593478733);27.1330699921;1.0;6;0;0;0;0;();(-2000.0, -2000.0);
07:40:28:158;07:40:28:158;0;15;-1.5;1;0;0;0;0;1;1;1;1;07:40:28:122;1447958425.95;(0.29701087474822996, 0.2569148593478733);27.1330699921;1.0;6;0;0;0;0;();(-2000.0, -2000.0);
07:40:28:192;07:40:28:192;0;15;-1.5;1;0;0;0;0;1;1;1;1;07:40:28:190;1447958426.02;(0.2975501775741577, 0.2563082377115885);26.9567394257;1.0;6;0;0;0;0;();(-2000.0, -2000.0);
07:40:28:210;07:40:28:210;0;5;-1.5;1;0;0;0;0;1;1;1;1;07:40:28:190;1447958426.02;(0.2975501775741577, 0.2563082377115885);26.9567394257;1.0;6;0;0;0;0;();(-2000.0, -2000.0);
07:40:28:243;07:40:28:243;0;10;-1.5;1;0;0;0;0;1;1;1;1;07:40:28:190;1447958426.02;(0.2975501775741577, 0.2563082377115885);26.9567394257;1.0;6;0;0;0;0;();(-2000.0, -2000.0);
07:40:28:246;07:40:28:246;0;4;-1.5;1;0;0;0;0;1;1;1;1;07:40:28:190;1447958426.02;(0.2975501775741577, 0.2563082377115885);26.9567394257;1.0;6;0;0;0;0;();(-2000.0, -2000.0);
07:40:28:260;07:40:28:260;0;15;-1.5;1;0;0;0;0;1;1;1;1;07:40:28:259;1447958426.08;(0.2974561214447021, 0.25698996649848094);27.0235748291;1.0;6;0;0;0;0;();(-2000.0, -2000.0);
07:40:28:277;07:40:28:277;0;5;-1.5;1;0;0;0;0;1;1;1;1;07:40:28:259;1447958426.08;(0.2974561214447021, 0.25698996649848094);27.0235748291;1.0;6;0;0;0;0;();(-2000.0, -2000.0);
07:40:28:310;07:40:28:310;0;5;-1.5;1;0;0;0;0;1;1;1;1;07:40:28:259;1447958426.08;(0.2974561214447021, 0.25698996649848094);27.0235748291;1.0;6;0;0;0;0;();(-2000.0, -2000.0);
07:40:28:326;07:40:28:326;0;15;-1.5;1;0;0;0;0;1;1;1;1;07:40:28:259;1447958426.08;(0.2974561214447021, 0.25698996649848094);27.0235748291;1.0;6;0;0;0;0;();(-2000.0, -2000.0);
07:40:28:343;07:40:28:343;0;4;-1.5;1;0;0;0;0;1;1;1;1;07:40:28:327;1447958426.15;(0.2973733425140381, 0.2572213066948785);27.0432739258;1.0;6;0;0;0;0;();(-2000.0, -2000.0);
07:40:28:359;07:40:28:359;0;9;-1.5;1;0;0;0;0;1;1;1;1;07:40:28:327;1447958426.15;(0.2973733425140381, 0.2572213066948785);27.0432739258;1.0;6;0;0;0;0;();(-2000.0, -2000.0);
07:40:28:376;07:40:28:376;0;5;-1.5;1;0;0;0;0;1;1;1;1;07:40:28:327;1447958426.15;(0.2973733425140381, 0.2572213066948785);27.0432739258;1.0;6;0;0;0;0;();(-2000.0, -2000.0);
07:40:28:398;07:40:28:398;0;10;-1.5;1;0;0;0;0;1;1;1;1;07:40:28:390;1447958426.22;(0.297161602973938, 0.25676328870985243);26.4760780334;1.0;6;0;0;0;0;();(-2000.0, -2000.0);
07:40:28:426;07:40:28:426;0;9;-1.5;1;0;0;0;0;1;1;1;1;07:40:28:390;1447958426.22;(0.297161602973938, 0.25676328870985243);26.4760780334;1.0;6;0;0;0;0;();(-2000.0, -2000.0);
07:40:28:449;07:40:28:448;0;15;-1.5;1;0;0;0;0;1;1;1;1;07:40:28:390;1447958426.22;(0.297161602973938, 0.25676328870985243);26.4760780334;1.0;6;0;0;0;0;();(-2000.0, -2000.0);
07:40:28:466;07:40:28:466;0;4;-1.5;1;0;0;0;0;1;1;1;1;07:40:28:458;1447958426.28;(0.29734249114990235, 0.256898922390408);26.5173892975;1.0;6;0;0;0;0;();(-2000.0, -2000.0);
07:40:28:483;07:40:28:483;0;2;-1.5;1;0;0;0;0;1;1;1;1;07:40:28:458;1447958426.28;(0.29734249114990235, 0.256898922390408);26.5173892975;1.0;6;0;0;0;0;();(-2000.0, -2000.0);
07:40:28:500;07:40:28:500;0;4;-1.5;1;0;0;0;0;1;1;1;1;07:40:28:458;1447958426.28;(0.29734249114990235, 0.256898922390408);26.5173892975;1.0;6;0;0;0;0;();(-2000.0, -2000.0);
07:40:28:516;07:40:28:516;0;15;-1.5;1;0;0;0;0;1;1;1;1;07:40:28:458;1447958426.28;(0.29734249114990235, 0.256898922390408);26.5173892975;1.0;6;0;0;0;0;();(-2000.0, -2000.0);
07:40:28:549;07:40:28:549;0;0;-1.5;1;0;0;0;0;1;1;1;1;07:40:28:526;1447958426.35;(0.29757654666900635, 0.25657077365451386);26.0869407654;1.0;6;0;0;0;0;();(-2000.0, -2000.0);
07:40:28:566;07:40:28:566;0;4;-1.5;1;0;0;0;0;1;1;1;1;07:40:28:526;1447958426.35;(0.29757654666900635, 0.25657077365451386);26.0869407654;1.0;6;0;0;0;0;();(-2000.0, -2000.0);
07:40:28:582;07:40:28:582;0;9;-1.5;1;0;0;0;0;1;1;1;1;07:40:28:526;1447958426.35;(0.29757654666900635, 0.25657077365451386);26.0869407654;1.0;6;0;0;0;0;();(-2000.0, -2000.0);
07:40:28:599;07:40:28:599;0;4;-1.5;1;0;0;0;0;1;1;1;1;07:40:28:594;1447958426.42;(0.2972338914871216, 0.2565486484103733);26.6943721771;1.0;6;0;0;0;0;();(-2000.0, -2000.0);
07:40:28:632;07:40:28:632;0;5;-1.5;1;0;0;0;0;1;1;1;1;07:40:28:594;1447958426.42;(0.2972338914871216, 0.2565486484103733);26.6943721771;1.0;6;0;0;0;0;();(-2000.0, -2000.0);
07:40:28:654;07:40:28:654;0;4;-1.5;1;0;0;0;0;1;1;1;1;07:40:28:594;1447958426.42;(0.2972338914871216, 0.2565486484103733);26.6943721771;1.0;6;0;0;0;0;();(-2000.0, -2000.0);
07:40:28:671;07:40:28:671;0;15;-1.5;1;0;0;0;0;1;1;1;1;07:40:28:658;1447958426.48;(0.29735257625579836, 0.25653822157118056);26.9023227692;1.0;6;0;0;0;0;();(-2000.0, -2000.0);
07:40:28:688;07:40:28:688;0;5;-1.5;1;0;0;0;0;1;1;1;1;07:40:28:658;1447958426.48;(0.29735257625579836, 0.25653822157118056);26.9023227692;1.0;6;0;0;0;0;();(-2000.0, -2000.0);
07:40:28:705;07:40:28:705;0;0;-1.5;1;0;0;0;0;1;1;1;1;07:40:28:658;1447958426.48;(0.29735257625579836, 0.25653822157118056);26.9023227692;1.0;6;0;0;0;0;();(-2000.0, -2000.0);
07:40:28:721;07:40:28:721;0;10;-1.5;1;0;0;0;0;1;1;1;1;07:40:28:658;1447958426.48;(0.29735257625579836, 0.25653822157118056);26.9023227692;1.0;6;0;0;0;0;();(-2000.0, -2000.0);
07:40:28:738;07:40:28:738;0;15;-1.5;1;0;0;0;0;1;1;1;1;07:40:28:726;1447958426.55;(0.2971823215484619, 0.2564678615993924);26.8894519806;1.0;6;0;0;0;0;();(-2000.0, -2000.0);
07:40:28:771;07:40:28:771;0;0;-1.5;1;0;0;0;0;1;1;1;1;07:40:28:726;1447958426.55;(0.2971823215484619, 0.2564678615993924);26.8894519806;1.0;6;0;0;0;0;();(-2000.0, -2000.0);
07:40:28:787;07:40:28:787;0;5;-1.5;1;0;0;0;0;1;1;1;1;07:40:28:726;1447958426.55;(0.2971823215484619, 0.2564678615993924);26.8894519806;1.0;6;0;0;0;0;();(-2000.0, -2000.0);
07:40:28:804;07:40:28:804;0;15;-1.5;1;0;0;0;0;1;1;1;1;07:40:28:794;1447958426.62;(0.29755074977874757, 0.2563342624240451);27.2162685394;1.0;6;0;0;0;0;();(-2000.0, -2000.0);
07:40:28:820;07:40:28:820;0;4;-1.5;1;0;0;0;0;1;1;1;1;07:40:28:794;1447958426.62;(0.29755074977874757, 0.2563342624240451);27.2162685394;1.0;6;0;0;0;0;();(-2000.0, -2000.0);
07:40:28:837;07:40:28:837;0;4;-1.5;1;0;0;0;0;1;1;1;1;07:40:28:794;1447958426.62;(0.29755074977874757, 0.2563342624240451);27.2162685394;1.0;6;0;0;0;0;();(-2000.0, -2000.0);
07:40:28:859;07:40:28:859;0;5;-1.5;1;0;0;0;0;1;1;1;1;07:40:28:794;1447958426.62;(0.29755074977874757, 0.2563342624240451);27.2162685394;1.0;6;0;0;0;0;();(-2000.0, -2000.0);
07:40:28:878;07:40:28:878;0;10;-1.5;1;0;0;0;0;1;1;1;1;07:40:28:862;1447958426.68;(0.29689960479736327, 0.2562951829698351);27.282585144;1.0;6;0;0;0;0;();(-2000.0, -2000.0);
07:40:28:912;07:40:28:912;0;4;-1.5;1;0;0;0;0;1;1;1;1;07:40:28:862;1447958426.68;(0.29689960479736327, 0.2562951829698351);27.282585144;1.0;6;0;0;0;0;();(-2000.0, -2000.0);
07:40:28:928;07:40:28:928;0;15;-1.5;1;0;0;0;0;1;1;1;1;07:40:28:926;1447958426.75;(0.29737181663513185, 0.25659264458550346);26.5021152496;1.0;6;0;0;0;0;();(-2000.0, -2000.0);
07:40:28:945;07:40:28:945;0;10;-1.5;1;0;0;0;0;1;1;1;1;07:40:28:926;1447958426.75;(0.29737181663513185, 0.25659264458550346);26.5021152496;1.0;6;0;0;0;0;();(-2000.0, -2000.0);
07:40:28:962;07:40:28:961;0;15;-1.5;1;0;0;0;0;1;1;1;1;07:40:28:926;1447958426.75;(0.29737181663513185, 0.25659264458550346);26.5021152496;1.0;6;0;0;0;0;();(-2000.0, -2000.0);
07:40:28:978;07:40:28:978;0;14;-1.5;1;0;0;0;0;1;1;1;1;07:40:28:926;1447958426.75;(0.29737181663513185, 0.25659264458550346);26.5021152496;1.0;6;0;0;0;0;();(-2000.0, -2000.0);
07:40:29:011;07:40:29:011;0;5;-1.5;1;0;0;0;0;1;1;1;1;07:40:28:994;1447958426.82;(0.29713122844696044, 0.25634901258680554);27.1639862061;1.0;6;0;0;0;0;();(-2000.0, -2000.0);
07:40:29:028;07:40:29:028;0;15;-1.5;1;0;0;0;0;1;1;1;1;07:40:28:994;1447958426.82;(0.29713122844696044, 0.25634901258680554);27.1639862061;1.0;6;0;0;0;0;();(-2000.0, -2000.0);
07:40:29:044;07:40:29:044;0;4;-1.5;1;0;0;0;0;1;1;1;1;07:40:28:994;1447958426.82;(0.29713122844696044, 0.25634901258680554);27.1639862061;1.0;6;0;0;0;0;();(-2000.0, -2000.0);
07:40:29:061;07:40:29:061;0;15;-1.5;1;0;0;0;0;1;1;1;1;07:40:28:994;1447958426.82;(0.29713122844696044, 0.25634901258680554);27.1639862061;1.0;6;0;0;0;0;();(-2000.0, -2000.0);
07:40:29:080;07:40:29:080;0;4;-1.5;1;0;0;0;0;1;1;1;1;07:40:29:063;1447958426.88;(0.2973572015762329, 0.25720121595594614);27.0912475586;1.0;6;0;0;0;0;();(-2000.0, -2000.0);
07:40:29:108;07:40:29:108;0;5;-1.5;1;0;0;0;0;1;1;1;1;07:40:29:063;1447958426.88;(0.2973572015762329, 0.25720121595594614);27.0912475586;1.0;6;0;0;0;0;();(-2000.0, -2000.0);
07:40:29:124;07:40:29:124;0;15;-1.5;1;0;0;0;0;1;1;1;1;07:40:29:063;1447958426.88;(0.2973572015762329, 0.25720121595594614);27.0912475586;1.0;6;0;0;0;0;();(-2000.0, -2000.0);
07:40:29:141;07:40:29:141;0;4;-1.5;1;0;0;0;0;1;1;1;1;07:40:29:130;1447958426.95;(0.29752769470214846, 0.25677371554904516);26.7911396027;1.0;6;0;0;0;0;();(-2000.0, -2000.0);
07:40:29:157;07:40:29:157;0;9;-1.5;1;0;0;0;0;1;1;1;1;07:40:29:130;1447958426.95;(0.29752769470214846, 0.25677371554904516);26.7911396027;1.0;6;0;0;0;0;();(-2000.0, -2000.0);
07:40:29:190;07:40:29:190;0;10;-1.5;1;0;0;0;0;1;1;1;1;07:40:29:130;1447958426.95;(0.29752769470214846, 0.25677371554904516);26.7911396027;1.0;6;0;0;0;0;();(-2000.0, -2000.0);
07:40:29:207;07:40:29:207;0;15;-1.5;1;0;0;0;0;1;1;1;1;07:40:29:195;1447958427.02;(0.2971538543701172, 0.25734490288628475);27.0916671753;1.0;6;0;0;0;0;();(-2000.0, -2000.0);
07:40:29:224;07:40:29:224;0;9;-1.5;1;0;0;0;0;1;1;1;1;07:40:29:195;1447958427.02;(0.2971538543701172, 0.25734490288628475);27.0916671753;1.0;6;0;0;0;0;();(-2000.0, -2000.0);
07:40:29:240;07:40:29:240;0;5;-1.5;1;0;0;0;0;1;1;1;1;07:40:29:230;1447958427.08;(0.29722473621368406, 0.25664944118923616);27.1029586792;1.0;6;0;0;0;0;();(-2000.0, -2000.0);
07:40:29:257;07:40:29:257;0;10;-1.5;1;0;0;0;0;1;1;1;1;07:40:29:230;1447958427.08;(0.29722473621368406, 0.25664944118923616);27.1029586792;1.0;6;0;0;0;0;();(-2000.0, -2000.0);
07:40:29:282;07:40:29:282;0;0;-1.5;1;0;0;0;0;1;1;1;1;07:40:29:230;1447958427.08;(0.29722473621368406, 0.25664944118923616);27.1029586792;1.0;6;0;0;0;0;();(-2000.0, -2000.0);
07:40:29:299;07:40:29:299;0;14;-1.5;1;0;0;0;0;1;1;1;1;07:40:29:230;1447958427.08;(0.29722473621368406, 0.25664944118923616);27.1029586792;1.0;6;0;0;0;0;();(-2000.0, -2000.0);
07:40:29:317;07:40:29:317;0;15;-1.5;1;0;0;0;0;1;1;1;1;07:40:29:230;1447958427.08;(0.29722473621368406, 0.25664944118923616);27.1029586792;1.0;6;0;0;0;0;();(-2000.0, -2000.0);
07:40:29:350;07:40:29:350;0;15;-1.5;1;0;0;0;0;1;1;1;1;07:40:29:330;1447958427.15;(0.2973663806915283, 0.2566638522677951);26.8632316589;1.0;6;0;0;0;0;();(-2000.0, -2000.0);
07:40:29:367;07:40:29:366;0;4;-1.5;1;0;0;0;0;1;1;1;1;07:40:29:330;1447958427.15;(0.2973663806915283, 0.2566638522677951);26.8632316589;1.0;6;0;0;0;0;();(-2000.0, -2000.0);
07:40:29:383;07:40:29:383;0;9;-1.5;1;0;0;0;0;1;1;1;1;07:40:29:330;1447958427.15;(0.2973663806915283, 0.2566638522677951);26.8632316589;1.0;6;0;0;0;0;();(-2000.0, -2000.0);
07:40:29:400;07:40:29:399;0;5;-1.5;1;0;0;0;0;1;1;1;1;07:40:29:394;1447958427.22;(0.29712719917297364, 0.2569170633951823);26.9515419006;1.0;6;0;0;0;0;();(-2000.0, -2000.0);
07:40:29:416;07:40:29:416;0;10;-1.5;1;0;0;0;0;1;1;1;1;07:40:29:394;1447958427.22;(0.29712719917297364, 0.2569170633951823);26.9515419006;1.0;6;0;0;0;0;();(-2000.0, -2000.0);
07:40:29:449;07:40:29:449;0;9;-1.5;1;0;0;0;0;1;1;1;1;07:40:29:394;1447958427.22;(0.29712719917297364, 0.2569170633951823);26.9515419006;1.0;6;0;0;0;0;();(-2000.0, -2000.0);
07:40:29:466;07:40:29:466;0;15;-1.5;1;0;0;0;0;1;1;1;1;07:40:29:462;1447958427.28;(0.29754626750946045, 0.2576386345757379);26.9995346069;1.0;6;0;0;0;0;();(-2000.0, -2000.0);
07:40:29:485;07:40:29:485;0;3;-1.5;1;0;0;0;0;1;1;1;1;07:40:29:462;1447958427.28;(0.29754626750946045, 0.2576386345757379);26.9995346069;1.0;6;0;0;0;0;();(-2000.0, -2000.0);
07:40:29:503;07:40:29:503;0;15;-1.5;1;0;0;0;0;1;1;1;1;07:40:29:462;1447958427.28;(0.29754626750946045, 0.2576386345757379);26.9995346069;1.0;6;0;0;0;0;();(-2000.0, -2000.0);
07:40:29:520;07:40:29:520;0;4;-1.5;1;0;0;0;0;1;1;1;1;07:40:29:462;1447958427.28;(0.29754626750946045, 0.2576386345757379);26.9995346069;1.0;6;0;0;0;0;();(-2000.0, -2000.0);
07:40:29:536;07:40:29:536;0;15;-1.5;1;0;0;0;0;1;1;1;1;07:40:29:530;1447958427.35;(0.2974372148513794, 0.2567548116048177);26.5722484589;0.968554784989;6;0;0;0;0;();(-2000.0, -2000.0);
07:40:29:569;07:40:29:569;0;0;-1.5;1;0;0;0;0;1;1;1;1;07:40:29:530;1447958427.35;(0.2974372148513794, 0.2567548116048177);26.5722484589;0.968554784989;6;0;0;0;0;();(-2000.0, -2000.0);
07:40:29:586;07:40:29:586;0;4;-1.5;1;0;0;0;0;1;1;1;1;07:40:29:530;1447958427.35;(0.2974372148513794, 0.2567548116048177);26.5722484589;0.968554784989;6;0;0;0;0;();(-2000.0, -2000.0);
07:40:29:602;07:40:29:602;0;0;-1.5;1;0;0;0;0;1;1;1;1;07:40:29:599;1447958427.42;(0.2971855401992798, 0.2568450927734375);27.022359848;1.0;6;0;0;0;0;();(-2000.0, -2000.0);
07:40:29:619;07:40:29:619;0;4;-1.5;1;0;0;0;0;1;1;1;1;07:40:29:599;1447958427.42;(0.2971855401992798, 0.2568450927734375);27.022359848;1.0;6;0;0;0;0;();(-2000.0, -2000.0);
07:40:29:636;07:40:29:636;0;15;-1.5;1;0;0;0;0;1;1;1;1;07:40:29:630;1447958427.48;(0.2973848581314087, 0.25680677625868054);26.6110897064;1.0;6;0;0;0;0;();(-2000.0, -2000.0);
07:40:29:669;07:40:29:669;0;15;-1.5;1;0;0;0;0;1;1;1;1;07:40:29:630;1447958427.48;(0.2973848581314087, 0.25680677625868054);26.6110897064;1.0;6;0;0;0;0;();(-2000.0, -2000.0);
07:40:29:691;07:40:29:691;0;15;-1.5;1;0;0;0;0;1;1;1;1;07:40:29:630;1447958427.48;(0.2973848581314087, 0.25680677625868054);26.6110897064;1.0;6;0;0;0;0;();(-2000.0, -2000.0);
07:40:29:710;07:40:29:710;0;4;-1.5;1;0;0;0;0;1;1;1;1;07:40:29:698;1447958427.55;(0.2973184108734131, 0.2563451131184896);26.9467391968;1.0;6;0;0;0;0;();(-2000.0, -2000.0);
07:40:29:727;07:40:29:727;0;15;-1.5;1;0;0;0;0;1;1;1;1;07:40:29:698;1447958427.55;(0.2973184108734131, 0.2563451131184896);26.9467391968;1.0;6;0;0;0;0;();(-2000.0, -2000.0);
07:40:29:744;07:40:29:744;0;5;-1.5;1;0;0;0;0;1;1;1;1;07:40:29:698;1447958427.55;(0.2973184108734131, 0.2563451131184896);26.9467391968;1.0;6;0;0;0;0;();(-2000.0, -2000.0);
07:40:29:760;07:40:29:760;0;15;-1.5;1;0;0;0;0;1;1;1;1;07:40:29:698;1447958427.55;(0.2973184108734131, 0.2563451131184896);26.9467391968;1.0;6;0;0;0;0;();(-2000.0, -2000.0);
07:40:29:777;07:40:29:777;0;11;-1.5;1;0;0;0;0;1;1;1;1;07:40:29:766;1447958427.62;(0.29722931385040285, 0.2565760294596354);26.8160476685;1.0;6;0;0;0;0;();(-2000.0, -2000.0);
07:40:29:810;07:40:29:810;0;5;-1.5;1;0;0;0;0;1;1;1;1;07:40:29:766;1447958427.62;(0.29722931385040285, 0.2565760294596354);26.8160476685;1.0;6;0;0;0;0;();(-2000.0, -2000.0);
07:40:29:827;07:40:29:827;0;0;-1.5;1;0;0;0;0;1;1;1;1;07:40:29:766;1447958427.62;(0.29722931385040285, 0.2565760294596354);26.8160476685;1.0;6;0;0;0;0;();(-2000.0, -2000.0);
07:40:29:843;07:40:29:843;0;4;-1.5;1;0;0;0;0;1;1;1;1;07:40:29:830;1447958427.68;(0.2971076726913452, 0.2565938313802083);26.448764801;1.0;6;0;0;0;0;();(-2000.0, -2000.0);
07:40:29:860;07:40:29:860;0;9;-1.5;1;0;0;0;0;1;1;1;1;07:40:29:830;1447958427.68;(0.2971076726913452, 0.2565938313802083);26.448764801;1.0;6;0;0;0;0;();(-2000.0, -2000.0);
07:40:29:876;07:40:29:876;0;4;-1.5;1;0;0;0;0;1;1;1;1;07:40:29:830;1447958427.68;(0.2971076726913452, 0.2565938313802083);26.448764801;1.0;6;0;0;0;0;();(-2000.0, -2000.0);
07:40:29:899;07:40:29:899;0;9;-1.5;1;0;0;0;0;1;1;1;1;07:40:29:898;1447958427.75;(0.2970820188522339, 0.25670191446940105);26.7619132996;1.0;6;0;0;0;0;();(-2000.0, -2000.0);
07:40:29:918;07:40:29:918;0;15;-1.5;1;0;0;0;0;1;1;1;1;07:40:29:898;1447958427.75;(0.2970820188522339, 0.25670191446940105);26.7619132996;1.0;6;0;0;0;0;();(-2000.0, -2000.0);
07:40:29:952;07:40:29:952;0;15;-1.5;1;0;0;0;0;1;1;1;1;07:40:29:898;1447958427.75;(0.2970820188522339, 0.25670191446940105);26.7619132996;1.0;6;0;0;0;0;();(-2000.0, -2000.0);
07:40:29:969;07:40:29:968;0;5;-1.5;1;0;0;0;0;1;1;1;1;07:40:29:966;1447958427.82;(0.2973031997680664, 0.256343502468533);26.707868576;1.0;6;0;0;0;0;();(-2000.0, -2000.0);
07:40:29:985;07:40:29:985;0;15;-1.5;1;0;0;0;0;1;1;1;1;07:40:29:966;1447958427.82;(0.2973031997680664, 0.256343502468533);26.707868576;1.0;6;0;0;0;0;();(-2000.0, -2000.0);
07:40:30:002;07:40:30:002;0;10;-1.5;1;0;0;0;0;1;1;1;1;07:40:29:966;1447958427.82;(0.2973031997680664, 0.256343502468533);26.707868576;1.0;6;0;0;0;0;();(-2000.0, -2000.0);
07:40:30:018;07:40:30:018;0;15;-1.5;1;0;0;0;0;1;1;1;1;07:40:29:966;1447958427.82;(0.2973031997680664, 0.256343502468533);26.707868576;1.0;6;0;0;0;0;();(-2000.0, -2000.0);
07:40:30:051;07:40:30:051;0;0;-1.5;1;0;0;0;0;1;1;1;1;07:40:30:030;1447958427.88;(0.2974700927734375, 0.256752692328559);26.9586677551;1.0;6;0;0;0;0;();(-2000.0, -2000.0);
07:40:30:068;07:40:30:068;0;5;-1.5;1;0;0;0;0;1;1;1;1;07:40:30:030;1447958427.88;(0.2974700927734375, 0.256752692328559);26.9586677551;1.0;6;0;0;0;0;();(-2000.0, -2000.0);
07:40:30:084;07:40:30:084;0;15;-1.5;1;0;0;0;0;1;1;1;1;07:40:30:030;1447958427.88;(0.2974700927734375, 0.256752692328559);26.9586677551;1.0;6;0;0;0;0;();(-2000.0, -2000.0);
07:40:30:115;07:40:30:115;0;4;-1.5;1;0;0;0;0;1;1;1;1;07:40:30:098;1447958427.95;(0.29728596210479735, 0.2567025926378038);26.3089466095;1.0;6;0;0;0;0;();(-2000.0, -2000.0);
07:40:30:132;07:40:30:132;0;5;-1.5;1;0;0;0;0;1;1;1;1;07:40:30:098;1447958427.95;(0.29728596210479735, 0.2567025926378038);26.3089466095;1.0;6;0;0;0;0;();(-2000.0, -2000.0);
07:40:30:149;07:40:30:148;0;10;-1.5;1;0;0;0;0;1;1;1;1;07:40:30:098;1447958427.95;(0.29728596210479735, 0.2567025926378038);26.3089466095;1.0;6;0;0;0;0;();(-2000.0, -2000.0);
07:40:30:165;07:40:30:165;0;4;-1.5;1;0;0;0;0;1;1;1;1;07:40:30:098;1447958427.95;(0.29728596210479735, 0.2567025926378038);26.3089466095;1.0;6;0;0;0;0;();(-2000.0, -2000.0);
07:40:30:182;07:40:30:182;0;9;-1.5;1;0;0;0;0;1;1;1;1;07:40:30:166;1447958428.02;(0.2974675416946411, 0.25669979519314234);26.3959064484;1.0;6;0;0;0;0;();(-2000.0, -2000.0);
07:40:30:198;07:40:30:198;0;4;-1.5;1;0;0;0;0;1;1;1;1;07:40:30:166;1447958428.02;(0.2974675416946411, 0.25669979519314234);26.3959064484;1.0;6;0;0;0;0;();(-2000.0, -2000.0);
07:40:30:231;07:40:30:231;0;15;-1.5;1;0;0;0;0;1;1;1;1;07:40:30:166;1447958428.02;(0.2974675416946411, 0.25669979519314234);26.3959064484;1.0;6;0;0;0;0;();(-2000.0, -2000.0);
07:40:30:248;07:40:30:248;0;10;-1.5;1;0;0;0;0;1;1;1;1;07:40:30:234;1447958428.08;(0.2971801280975342, 0.2566813151041667);27.1707344055;1.0;6;0;0;0;0;();(-2000.0, -2000.0);
07:40:30:265;07:40:30:264;0;4;-1.5;1;0;0;0;0;1;1;1;1;07:40:30:234;1447958428.08;(0.2971801280975342, 0.2566813151041667);27.1707344055;1.0;6;0;0;0;0;();(-2000.0, -2000.0);
07:40:30:281;07:40:30:281;0;11;-1.5;1;0;0;0;0;1;1;1;1;07:40:30:234;1447958428.08;(0.2971801280975342, 0.2566813151041667);27.1707344055;1.0;6;0;0;0;0;();(-2000.0, -2000.0);
07:40:30:298;07:40:30:298;0;5;-1.5;1;0;0;0;0;1;1;1;1;07:40:30:297;1447958428.15;(0.2975970983505249, 0.25631637573242183);26.7003059387;1.0;6;0;0;0;0;();(-2000.0, -2000.0);
07:40:30:320;07:40:30:320;0;4;-1.5;1;0;0;0;0;1;1;1;1;07:40:30:297;1447958428.15;(0.2975970983505249, 0.25631637573242183);26.7003059387;1.0;6;0;0;0;0;();(-2000.0, -2000.0);
07:40:30:337;07:40:30:337;0;15;-1.5;1;0;0;0;0;1;1;1;1;07:40:30:297;1447958428.15;(0.2975970983505249, 0.25631637573242183);26.7003059387;1.0;6;0;0;0;0;();(-2000.0, -2000.0);
07:40:30:371;07:40:30:371;0;2;-1.5;1;0;0;0;0;1;1;1;1;07:40:30:366;1447958428.22;(0.2974053621292114, 0.25696156819661453);26.8747787476;1.0;6;0;0;0;0;();(-2000.0, -2000.0);
07:40:30:387;07:40:30:387;0;5;-1.5;1;0;0;0;0;1;1;1;1;07:40:30:366;1447958428.22;(0.2974053621292114, 0.25696156819661453);26.8747787476;1.0;6;0;0;0;0;();(-2000.0, -2000.0);
07:40:30:404;07:40:30:404;0;15;-1.5;1;0;0;0;0;1;1;1;1;07:40:30:366;1447958428.22;(0.2974053621292114, 0.25696156819661453);26.8747787476;1.0;6;0;0;0;0;();(-2000.0, -2000.0);
07:40:30:421;07:40:30:421;0;4;-1.5;1;0;0;0;0;1;1;1;1;07:40:30:366;1447958428.22;(0.2974053621292114, 0.25696156819661453);26.8747787476;1.0;6;0;0;0;0;();(-2000.0, -2000.0);
07:40:30:437;07:40:30:437;0;15;-1.5;1;0;0;0;0;1;1;1;1;07:40:30:434;1447958428.28;(0.2976544380187988, 0.2565871344672309);26.5789222717;1.0;6;0;0;0;0;();(-2000.0, -2000.0);
07:40:30:470;07:40:30:470;0;10;-1.5;1;0;0;0;0;1;1;1;1;07:40:30:434;1447958428.28;(0.2976544380187988, 0.2565871344672309);26.5789222717;1.0;6;0;0;0;0;();(-2000.0, -2000.0);
07:40:30:487;07:40:30:487;0;10;-1.5;1;0;0;0;0;1;1;1;1;07:40:30:434;1447958428.28;(0.2976544380187988, 0.2565871344672309);26.5789222717;1.0;6;0;0;0;0;();(-2000.0, -2000.0);
07:40:30:503;07:40:30:503;0;9;-1.5;1;0;0;0;0;1;1;1;1;07:40:30:502;1447958428.35;(0.29761054515838625, 0.2568092346191406);26.4971981049;1.0;6;0;0;0;0;();(-2000.0, -2000.0);
07:40:30:524;07:40:30:524;0;0;-1.5;1;0;0;0;0;1;1;1;1;07:40:30:502;1447958428.35;(0.29761054515838625, 0.2568092346191406);26.4971981049;1.0;6;0;0;0;0;();(-2000.0, -2000.0);
07:40:30:541;07:40:30:541;0;4;-1.5;1;0;0;0;0;1;1;1;1;07:40:30:502;1447958428.35;(0.29761054515838625, 0.2568092346191406);26.4971981049;1.0;6;0;0;0;0;();(-2000.0, -2000.0);
07:40:30:558;07:40:30:558;0;15;-1.5;1;0;0;0;0;1;1;1;1;07:40:30:502;1447958428.35;(0.29761054515838625, 0.2568092346191406);26.4971981049;1.0;6;0;0;0;0;();(-2000.0, -2000.0);
07:40:30:591;07:40:30:591;0;15;-1.5;1;0;0;0;0;1;1;1;1;07:40:30:565;1447958428.42;(0.2976734161376953, 0.25666927761501734);26.6641407013;1.0;6;0;0;0;0;();(-2000.0, -2000.0);
07:40:30:608;07:40:30:608;0;11;-1.5;1;0;0;0;0;1;1;1;1;07:40:30:565;1447958428.42;(0.2976734161376953, 0.25666927761501734);26.6641407013;1.0;6;0;0;0;0;();(-2000.0, -2000.0);
07:40:30:624;07:40:30:624;0;15;-1.5;1;0;0;0;0;1;1;1;1;07:40:30:565;1447958428.42;(0.2976734161376953, 0.25666927761501734);26.6641407013;1.0;6;0;0;0;0;();(-2000.0, -2000.0);
07:40:30:641;07:40:30:641;0;10;-1.5;1;0;0;0;0;1;1;1;1;07:40:30:634;1447958428.48;(0.29742491245269775, 0.2568645901150174);26.4755764008;1.0;6;0;0;0;0;();(-2000.0, -2000.0);
07:40:30:658;07:40:30:658;0;15;-1.5;1;0;0;0;0;1;1;1;1;07:40:30:634;1447958428.48;(0.29742491245269775, 0.2568645901150174);26.4755764008;1.0;6;0;0;0;0;();(-2000.0, -2000.0);
07:40:30:691;07:40:30:691;0;0;-1.5;1;0;0;0;0;1;1;1;1;07:40:30:634;1447958428.48;(0.29742491245269775, 0.2568645901150174);26.4755764008;1.0;6;0;0;0;0;();(-2000.0, -2000.0);
07:40:30:707;07:40:30:707;0;5;-1.5;1;0;0;0;0;1;1;1;1;07:40:30:702;1447958428.55;(0.29754319190979006, 0.2568102518717448);26.800699234;1.0;6;0;0;0;0;();(-2000.0, -2000.0);
07:40:30:731;07:40:30:731;0;9;-1.5;1;0;0;0;0;1;1;1;1;07:40:30:702;1447958428.55;(0.29754319190979006, 0.2568102518717448);26.800699234;1.0;6;0;0;0;0;();(-2000.0, -2000.0);
07:40:30:749;07:40:30:749;0;15;-1.5;1;0;0;0;0;1;1;1;1;07:40:30:702;1447958428.55;(0.29754319190979006, 0.2568102518717448);26.800699234;1.0;6;0;0;0;0;();(-2000.0, -2000.0);
07:40:30:766;07:40:30:766;0;9;-1.5;1;0;0;0;0;1;1;1;1;07:40:30:702;1447958428.55;(0.29754319190979006, 0.2568102518717448);26.800699234;1.0;6;0;0;0;0;();(-2000.0, -2000.0);
07:40:30:783;07:40:30:783;0;0;-1.5;1;0;0;0;0;1;1;1;1;07:40:30:770;1447958428.62;(0.29774210453033445, 0.25651194254557297);27.0982666016;1.0;6;0;0;0;0;();(-2000.0, -2000.0);
07:40:30:799;07:40:30:799;0;10;-1.5;1;0;0;0;0;1;1;1;1;07:40:30:770;1447958428.62;(0.29774210453033445, 0.25651194254557297);27.0982666016;1.0;6;0;0;0;0;();(-2000.0, -2000.0);
07:40:30:816;07:40:30:816;0;15;-1.5;1;0;0;0;0;1;1;1;1;07:40:30:770;1447958428.62;(0.29774210453033445, 0.25651194254557297);27.0982666016;1.0;6;0;0;0;0;();(-2000.0, -2000.0);
07:40:30:849;07:40:30:849;0;0;-1.5;1;0;0;0;0;1;1;1;1;07:40:30:834;1447958428.68;(0.29727902412414553, 0.2568701850043402);27.7728214264;1.0;6;0;0;0;0;();(-2000.0, -2000.0);
07:40:30:866;07:40:30:865;0;5;-1.5;1;0;0;0;0;1;1;1;1;07:40:30:834;1447958428.68;(0.29727902412414553, 0.2568701850043402);27.7728214264;1.0;6;0;0;0;0;();(-2000.0, -2000.0);
07:40:30:882;07:40:30:882;0;15;-1.5;1;0;0;0;0;1;1;1;1;07:40:30:834;1447958428.68;(0.29727902412414553, 0.2568701850043402);27.7728214264;1.0;6;0;0;0;0;();(-2000.0, -2000.0);
07:40:30:898;07:40:30:898;0;4;-1.5;1;0;0;0;0;1;1;1;1;07:40:30:834;1447958428.68;(0.29727902412414553, 0.2568701850043402);27.7728214264;1.0;6;0;0;0;0;();(-2000.0, -2000.0);
07:40:30:936;07:40:30:936;0;5;-1.5;1;0;0;0;0;1;1;1;1;07:40:30:902;1447958428.75;(0.2975924491882324, 0.25629018147786453);27.4315929413;1.0;6;0;0;0;0;();(-2000.0, -2000.0);
07:40:30:939;07:40:30:939;0;7;-1.5;1;0;0;0;0;1;1;1;1;07:40:30:902;1447958428.75;(0.2975924491882324, 0.25629018147786453);27.4315929413;1.0;6;0;0;0;0;();(-2000.0, -2000.0);
07:40:30:972;07:40:30:972;0;4;-1.5;1;0;0;0;0;1;1;1;1;07:40:30:970;1447958428.82;(0.2973397493362427, 0.25653627183702254);27.3217830658;1.0;6;0;0;0;0;();(-2000.0, -2000.0);
07:40:30:988;07:40:30:988;0;9;-1.5;1;0;0;0;0;1;1;1;1;07:40:30:970;1447958428.82;(0.2973397493362427, 0.25653627183702254);27.3217830658;1.0;6;0;0;0;0;();(-2000.0, -2000.0);
07:40:31:005;07:40:31:005;0;0;-1.5;1;0;0;0;0;1;1;1;1;07:40:30:970;1447958428.82;(0.2973397493362427, 0.25653627183702254);27.3217830658;1.0;6;0;0;0;0;();(-2000.0, -2000.0);
07:40:31:022;07:40:31:021;0;10;-1.5;1;0;0;0;0;1;1;1;1;07:40:30:970;1447958428.82;(0.2973397493362427, 0.25653627183702254);27.3217830658;1.0;6;0;0;0;0;();(-2000.0, -2000.0);
07:40:31:038;07:40:31:038;0;15;-1.5;1;0;0;0;0;1;1;1;1;07:40:31:038;1447958428.88;(0.2971728563308716, 0.2565388997395833);26.9123134613;1.0;6;0;0;0;0;();(-2000.0, -2000.0);
07:40:31:071;07:40:31:071;0;15;-1.5;1;0;0;0;0;1;1;1;1;07:40:31:038;1447958428.88;(0.2971728563308716, 0.2565388997395833);26.9123134613;1.0;6;0;0;0;0;();(-2000.0, -2000.0);
07:40:31:088;07:40:31:087;0;4;-1.5;1;0;0;0;0;1;1;1;1;07:40:31:038;1447958428.88;(0.2971728563308716, 0.2565388997395833);26.9123134613;1.0;6;0;0;0;0;();(-2000.0, -2000.0);
07:40:31:104;07:40:31:104;0;0;-1.5;1;0;0;0;0;1;1;1;1;07:40:31:101;1447958428.95;(0.29719085693359376, 0.25646904839409723);26.9340343475;1.0;6;0;0;0;0;();(-2000.0, -2000.0);
07:40:31:121;07:40:31:121;0;4;-1.5;1;0;0;0;0;1;1;1;1;07:40:31:101;1447958428.95;(0.29719085693359376, 0.25646904839409723);26.9340343475;1.0;6;0;0;0;0;();(-2000.0, -2000.0);
07:40:31:151;07:40:31:151;0;4;-1.5;1;0;0;0;0;1;1;1;1;07:40:31:101;1447958428.95;(0.29719085693359376, 0.25646904839409723);26.9340343475;1.0;6;0;0;0;0;();(-2000.0, -2000.0);
07:40:31:168;07:40:31:168;0;0;-1.5;1;0;0;0;0;1;1;1;1;07:40:31:101;1447958428.95;(0.29719085693359376, 0.25646904839409723);26.9340343475;1.0;6;0;0;0;0;();(-2000.0, -2000.0);
07:40:31:187;07:40:31:187;0;10;-1.5;1;0;0;0;0;1;1;1;1;07:40:31:170;1447958429.02;(0.29738330841064453, 0.25659484863281246);26.7938098907;1.0;6;0;0;0;0;();(-2000.0, -2000.0);
07:40:31:204;07:40:31:204;0;15;-1.5;1;0;0;0;0;1;1;1;1;07:40:31:170;1447958429.02;(0.29738330841064453, 0.25659484863281246);26.7938098907;1.0;6;0;0;0;0;();(-2000.0, -2000.0);
07:40:31:220;07:40:31:220;0;4;-1.5;1;0;0;0;0;1;1;1;1;07:40:31:170;1447958429.02;(0.29738330841064453, 0.25659484863281246);26.7938098907;1.0;6;0;0;0;0;();(-2000.0, -2000.0);
07:40:31:237;07:40:31:237;0;9;-1.5;1;0;0;0;0;1;1;1;1;07:40:31:170;1447958429.02;(0.29738330841064453, 0.25659484863281246);26.7938098907;1.0;6;0;0;0;0;();(-2000.0, -2000.0);
07:40:31:270;07:40:31:270;0;10;-1.5;1;0;0;0;0;1;1;1;1;07:40:31:238;1447958429.08;(0.2972891807556152, 0.2571233961317274);26.8757266998;1.0;6;0;0;0;0;();(-2000.0, -2000.0);
07:40:31:286;07:40:31:286;0;4;-1.5;1;0;0;0;0;1;1;1;1;07:40:31:238;1447958429.08;(0.2972891807556152, 0.2571233961317274);26.8757266998;1.0;6;0;0;0;0;();(-2000.0, -2000.0);
07:40:31:303;07:40:31:303;0;9;-1.5;1;0;0;0;0;1;1;1;1;07:40:31:301;1447958429.15;(0.2973304033279419, 0.2567271762424045);26.7426662445;1.0;6;0;0;0;0;();(-2000.0, -2000.0);
07:40:31:320;07:40:31:320;0;5;-1.5;1;0;0;0;0;1;1;1;1;07:40:31:301;1447958429.15;(0.2973304033279419, 0.2567271762424045);26.7426662445;1.0;6;0;0;0;0;();(-2000.0, -2000.0);
07:40:31:341;07:40:31:341;0;10;-1.5;1;0;0;0;0;1;1;1;1;07:40:31:301;1447958429.15;(0.2973304033279419, 0.2567271762424045);26.7426662445;1.0;6;0;0;0;0;();(-2000.0, -2000.0);
07:40:31:359;07:40:31:359;0;15;-1.5;1;0;0;0;0;1;1;1;1;07:40:31:301;1447958429.15;(0.2973304033279419, 0.2567271762424045);26.7426662445;1.0;6;0;0;0;0;();(-2000.0, -2000.0);
07:40:31:381;07:40:31:381;0;4;-1.5;1;0;0;0;0;1;1;1;1;07:40:31:370;1447958429.22;(0.2973456859588623, 0.2566050211588542);26.2548351288;1.0;8;0;0;0;0;();(-2000.0, -2000.0);
07:40:31:409;07:40:31:409;0;9;-1.5;1;0;0;0;0;1;1;1;1;07:40:31:370;1447958429.22;(0.2973456859588623, 0.2566050211588542);26.2548351288;1.0;8;0;0;0;0;();(-2000.0, -2000.0);
07:40:31:425;07:40:31:425;0;0;-1.5;1;0;0;0;0;1;1;1;1;07:40:31:370;1447958429.22;(0.2973456859588623, 0.2566050211588542);26.2548351288;1.0;8;0;0;0;0;();(-2000.0, -2000.0);
07:40:31:442;07:40:31:442;0;4;-1.5;1;0;0;0;0;1;1;1;1;07:40:31:438;1447958429.28;(0.2969451189041138, 0.2564214918348524);26.1525630951;1.0;8;0;0;0;0;();(-2000.0, -2000.0);
07:40:31:458;07:40:31:458;0;15;-1.5;1;0;0;0;0;1;1;1;1;07:40:31:438;1447958429.28;(0.2969451189041138, 0.2564214918348524);26.1525630951;1.0;8;0;0;0;0;();(-2000.0, -2000.0);
07:40:31:492;07:40:31:492;0;0;-1.5;1;0;0;0;0;1;1;1;1;07:40:31:438;1447958429.28;(0.2969451189041138, 0.2564214918348524);26.1525630951;1.0;8;0;0;0;0;();(-2000.0, -2000.0);
07:40:31:508;07:40:31:508;0;4;-1.5;1;0;0;0;0;1;1;1;1;07:40:31:506;1447958429.35;(0.29734513759613035, 0.25660383436414935);26.6742572784;1.0;8;0;0;0;0;();(-2000.0, -2000.0);
07:40:31:525;07:40:31:525;0;10;-1.5;1;0;0;0;0;1;1;1;1;07:40:31:506;1447958429.35;(0.29734513759613035, 0.25660383436414935);26.6742572784;1.0;8;0;0;0;0;();(-2000.0, -2000.0);
07:40:31:541;07:40:31:541;0;4;-1.5;1;0;0;0;0;1;1;1;1;07:40:31:506;1447958429.35;(0.29734513759613035, 0.25660383436414935);26.6742572784;1.0;8;0;0;0;0;();(-2000.0, -2000.0);
07:40:31:563;07:40:31:563;0;9;-1.5;1;0;0;0;0;1;1;1;1;07:40:31:506;1447958429.35;(0.29734513759613035, 0.25660383436414935);26.6742572784;1.0;8;0;0;0;0;();(-2000.0, -2000.0);
07:40:31:579;07:40:31:579;0;15;-1.5;1;0;0;0;0;1;1;1;1;07:40:31:570;1447958429.42;(0.2973355770111084, 0.25617226494683165);26.560749054;1.0;8;0;0;0;0;();(-2000.0, -2000.0);
07:40:31:597;07:40:31:596;0;4;-1.5;1;0;0;0;0;1;1;1;1;07:40:31:570;1447958429.42;(0.2973355770111084, 0.25617226494683165);26.560749054;1.0;8;0;0;0;0;();(-2000.0, -2000.0);
07:40:31:630;07:40:31:630;0;4;-1.5;1;0;0;0;0;1;1;1;1;07:40:31:570;1447958429.42;(0.2973355770111084, 0.25617226494683165);26.560749054;1.0;8;0;0;0;0;();(-2000.0, -2000.0);
07:40:31:646;07:40:31:646;0;0;-1.5;1;0;0;0;0;1;1;1;1;07:40:31:638;1447958429.48;(0.2972272872924805, 0.25663257175021703);26.6725406647;1.0;8;0;0;0;0;();(-2000.0, -2000.0);
07:40:31:663;07:40:31:663;0;10;-1.5;1;0;0;0;0;1;1;1;1;07:40:31:638;1447958429.48;(0.2972272872924805, 0.25663257175021703);26.6725406647;1.0;8;0;0;0;0;();(-2000.0, -2000.0);
07:40:31:679;07:40:31:679;0;15;-1.5;1;0;0;0;0;1;1;1;1;07:40:31:638;1447958429.48;(0.2972272872924805, 0.25663257175021703);26.6725406647;1.0;8;0;0;0;0;();(-2000.0, -2000.0);
07:40:31:696;07:40:31:696;0;10;-1.5;1;0;0;0;0;1;1;1;1;07:40:31:638;1447958429.48;(0.2972272872924805, 0.25663257175021703);26.6725406647;1.0;8;0;0;0;0;();(-2000.0, -2000.0);
07:40:31:729;07:40:31:729;0;5;-1.5;1;0;0;0;0;1;1;1;1;07:40:31:706;1447958429.55;(0.29723808765411375, 0.25679372151692703);26.6958999634;1.0;8;0;0;0;0;();(-2000.0, -2000.0);
07:40:31:746;07:40:31:746;0;0;-1.5;1;0;0;0;0;1;1;1;1;07:40:31:706;1447958429.55;(0.29723808765411375, 0.25679372151692703);26.6958999634;1.0;8;0;0;0;0;();(-2000.0, -2000.0);
07:40:31:768;07:40:31:768;0;4;-1.5;1;0;0;0;0;1;1;1;1;07:40:31:706;1447958429.55;(0.29723808765411375, 0.25679372151692703);26.6958999634;1.0;8;0;0;0;0;();(-2000.0, -2000.0);
07:40:31:786;07:40:31:786;0;10;-1.5;1;0;0;0;0;1;1;1;1;07:40:31:773;1447958429.62;(0.2974501609802246, 0.25703370836046);26.5493907928;1.0;8;0;0;0;0;();(-2000.0, -2000.0);
07:40:31:803;07:40:31:803;0;0;-1.5;1;0;0;0;0;1;1;1;1;07:40:31:773;1447958429.62;(0.2974501609802246, 0.25703370836046);26.5493907928;1.0;8;0;0;0;0;();(-2000.0, -2000.0);
07:40:31:819;07:40:31:819;0;10;-1.5;1;0;0;0;0;1;1;1;1;07:40:31:773;1447958429.62;(0.2974501609802246, 0.25703370836046);26.5493907928;1.0;8;0;0;0;0;();(-2000.0, -2000.0);
07:40:31:836;07:40:31:836;0;15;-1.5;1;0;0;0;0;1;1;1;1;07:40:31:773;1447958429.62;(0.2974501609802246, 0.25703370836046);26.5493907928;1.0;8;0;0;0;0;();(-2000.0, -2000.0);
07:40:31:869;07:40:31:869;0;8;-1.5;1;0;0;0;0;1;1;1;1;07:40:31:837;1447958429.68;(0.29738221168518064, 0.2564473470052083);27.0798110962;1.0;8;0;0;0;0;();(-2000.0, -2000.0);
07:40:31:886;07:40:31:886;0;9;-1.5;1;0;0;0;0;1;1;1;1;07:40:31:837;1447958429.68;(0.29738221168518064, 0.2564473470052083);27.0798110962;1.0;8;0;0;0;0;();(-2000.0, -2000.0);
07:40:31:902;07:40:31:902;0;15;-1.5;1;0;0;0;0;1;1;1;1;07:40:31:837;1447958429.68;(0.29738221168518064, 0.2564473470052083);27.0798110962;1.0;8;0;0;0;0;();(-2000.0, -2000.0);
07:40:31:919;07:40:31:919;0;4;-1.5;1;0;0;0;0;1;1;1;1;07:40:31:905;1447958429.75;(0.29737465381622313, 0.25662307739257817);26.8452415466;1.0;8;0;0;0;0;();(-2000.0, -2000.0);
07:40:31:952;07:40:31:952;0;4;-1.5;1;0;0;0;0;1;1;1;1;07:40:31:905;1447958429.75;(0.29737465381622313, 0.25662307739257817);26.8452415466;1.0;8;0;0;0;0;();(-2000.0, -2000.0);
07:40:31:974;07:40:31:974;0;10;-1.5;1;0;0;0;0;1;1;1;1;07:40:31:905;1447958429.75;(0.29737465381622313, 0.25662307739257817);26.8452415466;1.0;8;0;0;0;0;();(-2000.0, -2000.0);
07:40:31:991;07:40:31:991;0;15;-1.5;1;0;0;0;0;1;1;1;1;07:40:31:974;1447958429.82;(0.2972155809402466, 0.2564805772569444);26.7326869965;1.0;8;0;0;0;0;();(-2000.0, -2000.0);
07:40:32:016;07:40:32:016;0;10;-1.5;1;0;0;0;0;1;1;1;1;07:40:31:974;1447958429.82;(0.2972155809402466, 0.2564805772569444);26.7326869965;1.0;8;0;0;0;0;();(-2000.0, -2000.0);
07:40:32:018;07:40:32:018;0;4;-1.5;1;0;0;0;0;1;1;1;1;07:40:31:974;1447958429.82;(0.2972155809402466, 0.2564805772569444);26.7326869965;1.0;8;0;0;0;0;();(-2000.0, -2000.0);
07:40:32:049;07:40:32:049;0;5;-1.5;1;0;0;0;0;1;1;1;1;07:40:32:042;1447958429.88;(0.2969393491744995, 0.25687433878580734);26.6261405945;1.0;8;0;0;0;0;();(-2000.0, -2000.0);
07:40:32:066;07:40:32:065;0;0;-1.5;1;0;0;0;0;1;1;1;1;07:40:32:042;1447958429.88;(0.2969393491744995, 0.25687433878580734);26.6261405945;1.0;8;0;0;0;0;();(-2000.0, -2000.0);
07:40:32:082;07:40:32:082;0;13;-1.5;1;0;0;0;0;1;1;1;1;07:40:32:042;1447958429.88;(0.2969393491744995, 0.25687433878580734);26.6261405945;1.0;8;0;0;0;0;();(-2000.0, -2000.0);
07:40:32:099;07:40:32:099;0;15;-1.5;1;0;0;0;0;1;1;1;1;07:40:32:042;1447958429.88;(0.2969393491744995, 0.25687433878580734);26.6261405945;1.0;8;0;0;0;0;();(-2000.0, -2000.0);
07:40:32:132;07:40:32:132;0;0;-1.5;1;0;0;0;0;1;1;1;1;07:40:32:106;1447958429.95;(0.29717676639556884, 0.25662765502929685);26.740240097;1.0;8;0;0;0;0;();(-2000.0, -2000.0);
07:40:32:148;07:40:32:148;0;4;-1.5;1;0;0;0;0;1;1;1;1;07:40:32:106;1447958429.95;(0.29717676639556884, 0.25662765502929685);26.740240097;1.0;8;0;0;0;0;();(-2000.0, -2000.0);
07:40:32:165;07:40:32:165;0;9;-1.5;1;0;0;0;0;1;1;1;1;07:40:32:106;1447958429.95;(0.29717676639556884, 0.25662765502929685);26.740240097;1.0;8;0;0;0;0;();(-2000.0, -2000.0);
07:40:32:188;07:40:32:188;0;4;-1.5;1;0;0;0;0;1;1;1;1;07:40:32:174;1447958430.02;(0.29739577770233155, 0.2566466437445747);27.0600185394;1.0;8;0;0;0;0;();(-2000.0, -2000.0);
07:40:32:205;07:40:32:205;0;9;-1.5;1;0;0;0;0;1;1;1;1;07:40:32:174;1447958430.02;(0.29739577770233155, 0.2566466437445747);27.0600185394;1.0;8;0;0;0;0;();(-2000.0, -2000.0);
07:40:32:223;07:40:32:223;0;15;-1.5;1;0;0;0;0;1;1;1;1;07:40:32:174;1447958430.02;(0.29739577770233155, 0.2566466437445747);27.0600185394;1.0;8;0;0;0;0;();(-2000.0, -2000.0);
07:40:32:240;07:40:32:240;0;10;-1.5;1;0;0;0;0;1;1;1;1;07:40:32:174;1447958430.02;(0.29739577770233155, 0.2566466437445747);27.0600185394;1.0;8;0;0;0;0;();(-2000.0, -2000.0);
07:40:32:257;07:40:32:256;0;15;-1.5;1;0;0;0;0;1;1;1;1;07:40:32:241;1447958430.08;(0.29707798957824705, 0.2568353441026475);27.5552139282;1.0;8;0;0;0;0;();(-2000.0, -2000.0);
07:40:32:290;07:40:32:290;0;0;-1.5;1;0;0;0;0;1;1;1;1;07:40:32:241;1447958430.08;(0.29707798957824705, 0.2568353441026475);27.5552139282;1.0;8;0;0;0;0;();(-2000.0, -2000.0);
07:40:32:306;07:40:32:306;0;5;-1.5;1;0;0;0;0;1;1;1;1;07:40:32:241;1447958430.08;(0.29707798957824705, 0.2568353441026475);27.5552139282;1.0;8;0;0;0;0;();(-2000.0, -2000.0);
07:40:32:323;07:40:32:323;0;15;-1.5;1;0;0;0;0;1;1;1;1;07:40:32:310;1447958430.15;(0.29733145236968994, 0.2562934027777778);26.6147022247;1.0;8;0;0;0;0;();(-2000.0, -2000.0);
07:40:32:339;07:40:32:339;0;4;-1.5;1;0;0;0;0;1;1;1;1;07:40:32:310;1447958430.15;(0.29733145236968994, 0.2562934027777778);26.6147022247;1.0;8;0;0;0;0;();(-2000.0, -2000.0);
07:40:32:356;07:40:32:356;0;9;-1.5;1;0;0;0;0;1;1;1;1;07:40:32:310;1447958430.15;(0.29733145236968994, 0.2562934027777778);26.6147022247;1.0;8;0;0;0;0;();(-2000.0, -2000.0);
07:40:32:394;07:40:32:394;0;10;-1.5;1;0;0;0;0;1;1;1;1;07:40:32:310;1447958430.15;(0.29733145236968994, 0.2562934027777778);26.6147022247;1.0;8;0;0;0;0;();(-2000.0, -2000.0);
07:40:32:410;07:40:32:410;0;7;-1.5;1;0;0;0;0;1;1;1;1;07:40:32:410;1447958430.22;(0.29750971794128417, 0.25672141181098085);26.8804531097;1.0;8;0;0;0;0;();(-2000.0, -2000.0);
07:40:32:431;07:40:32:431;0;10;-1.5;1;0;0;0;0;1;1;1;1;07:40:32:410;1447958430.22;(0.29750971794128417, 0.25672141181098085);26.8804531097;1.0;8;0;0;0;0;();(-2000.0, -2000.0);
07:40:32:448;07:40:32:448;0;0;-1.5;1;0;0;0;0;1;1;1;1;07:40:32:442;1447958430.28;(0.29709453582763673, 0.2563697814941406);26.8011951447;1.0;8;0;0;0;0;();(-2000.0, -2000.0);
07:40:32:465;07:40:32:464;0;10;-1.5;1;0;0;0;0;1;1;1;1;07:40:32:442;1447958430.28;(0.29709453582763673, 0.2563697814941406);26.8011951447;1.0;8;0;0;0;0;();(-2000.0, -2000.0);
07:40:32:481;07:40:32:481;0;15;-1.5;1;0;0;0;0;1;1;1;1;07:40:32:442;1447958430.28;(0.29709453582763673, 0.2563697814941406);26.8011951447;1.0;8;0;0;0;0;();(-2000.0, -2000.0);
07:40:32:498;07:40:32:498;0;4;-1.5;1;0;0;0;0;1;1;1;1;07:40:32:442;1447958430.28;(0.29709453582763673, 0.2563697814941406);26.8011951447;1.0;8;0;0;0;0;();(-2000.0, -2000.0);
07:40:32:531;07:40:32:531;0;5;-1.5;1;0;0;0;0;1;1;1;1;07:40:32:510;1447958430.35;(0.29715991020202637, 0.25629408094618056);26.1613063812;1.0;8;0;0;0;0;();(-2000.0, -2000.0);
07:40:32:547;07:40:32:547;0;10;-1.5;1;0;0;0;0;1;1;1;1;07:40:32:510;1447958430.35;(0.29715991020202637, 0.25629408094618056);26.1613063812;1.0;8;0;0;0;0;();(-2000.0, -2000.0);
07:40:32:564;07:40:32:564;0;4;-1.5;1;0;0;0;0;1;1;1;1;07:40:32:510;1447958430.35;(0.29715991020202637, 0.25629408094618056);26.1613063812;1.0;8;0;0;0;0;();(-2000.0, -2000.0);
07:40:32:580;07:40:32:580;0;15;-1.5;1;0;0;0;0;1;1;1;1;07:40:32:574;1447958430.42;(0.29740109443664553, 0.2561997307671441);26.6494045258;1.0;8;0;0;0;0;();(-2000.0, -2000.0);
07:40:32:603;07:40:32:603;0;0;-1.5;1;0;0;0;0;1;1;1;1;07:40:32:574;1447958430.42;(0.29740109443664553, 0.2561997307671441);26.6494045258;1.0;8;0;0;0;0;();(-2000.0, -2000.0);
07:40:32:619;07:40:32:619;0;10;-1.5;1;0;0;0;0;1;1;1;1;07:40:32:574;1447958430.42;(0.29740109443664553, 0.2561997307671441);26.6494045258;1.0;8;0;0;0;0;();(-2000.0, -2000.0);
07:40:32:636;07:40:32:636;0;15;-1.5;1;0;0;0;0;1;1;1;1;07:40:32:574;1447958430.42;(0.29740109443664553, 0.2561997307671441);26.6494045258;1.0;8;0;0;0;0;();(-2000.0, -2000.0);
07:40:32:670;07:40:32:670;0;4;-1.5;1;0;0;0;0;1;1;1;1;07:40:32:642;1447958430.48;(0.29701862335205076, 0.25688069661458335);26.9129333496;1.0;8;0;0;0;0;();(-2000.0, -2000.0);
07:40:32:686;07:40:32:686;0;9;-1.5;1;0;0;0;0;1;1;1;1;07:40:32:642;1447958430.48;(0.29701862335205076, 0.25688069661458335);26.9129333496;1.0;8;0;0;0;0;();(-2000.0, -2000.0);
07:40:32:711;07:40:32:703;0;15;-1.5;1;0;0;0;0;1;1;1;1;07:40:32:642;1447958430.48;(0.29701862335205076, 0.25688069661458335);26.9129333496;1.0;8;0;0;0;0;();(-2000.0, -2000.0);
07:40:32:719;07:40:32:719;0;10;-1.5;1;0;0;0;0;1;1;1;1;07:40:32:711;1447958430.55;(0.2972663164138794, 0.2564414978027344);26.8284454346;1.0;8;0;0;0;0;();(-2000.0, -2000.0);
07:40:32:736;07:40:32:736;0;15;-1.5;1;0;0;0;0;1;1;1;1;07:40:32:711;1447958430.55;(0.2972663164138794, 0.2564414978027344);26.8284454346;1.0;8;0;0;0;0;();(-2000.0, -2000.0);
07:40:32:769;07:40:32:769;0;0;-1.5;1;0;0;0;0;1;1;1;1;07:40:32:711;1447958430.55;(0.2972663164138794, 0.2564414978027344);26.8284454346;1.0;8;0;0;0;0;();(-2000.0, -2000.0);
07:40:32:785;07:40:32:785;0;10;-1.5;1;0;0;0;0;1;1;1;1;07:40:32:778;1447958430.62;(0.29735383987426756, 0.25645734998914926);26.5399684906;1.0;8;0;0;0;0;();(-2000.0, -2000.0);
07:40:32:807;07:40:32:807;0;10;-1.5;1;0;0;0;0;1;1;1;1;07:40:32:778;1447958430.62;(0.29735383987426756, 0.25645734998914926);26.5399684906;1.0;8;0;0;0;0;();(-2000.0, -2000.0);
07:40:32:825;07:40:32:825;0;15;-1.5;1;0;0;0;0;1;1;1;1;07:40:32:778;1447958430.62;(0.29735383987426756, 0.25645734998914926);26.5399684906;1.0;8;0;0;0;0;();(-2000.0, -2000.0);
07:40:32:842;07:40:32:842;0;9;-1.5;1;0;0;0;0;1;1;1;1;07:40:32:842;1447958430.68;(0.29746065139770506, 0.25684110853407116);26.8395004272;1.0;8;0;0;0;0;();(-2000.0, -2000.0);
07:40:32:859;07:40:32:859;0;15;-1.5;1;0;0;0;0;1;1;1;1;07:40:32:842;1447958430.68;(0.29746065139770506, 0.25684110853407116);26.8395004272;1.0;8;0;0;0;0;();(-2000.0, -2000.0);
07:40:32:892;07:40:32:892;0;15;-1.5;1;0;0;0;0;1;1;1;1;07:40:32:842;1447958430.68;(0.29746065139770506, 0.25684110853407116);26.8395004272;1.0;8;0;0;0;0;();(-2000.0, -2000.0);
07:40:32:908;07:40:32:908;0;10;-1.5;1;0;0;0;0;1;1;1;1;07:40:32:842;1447958430.68;(0.29746065139770506, 0.25684110853407116);26.8395004272;1.0;8;0;0;0;0;();(-2000.0, -2000.0);
07:40:32:925;07:40:32:925;0;0;-1.5;1;0;0;0;0;1;1;1;1;07:40:32:910;1447958430.75;(0.29756062030792235, 0.2566205342610677);26.8450698853;1.0;8;0;0;0;0;();(-2000.0, -2000.0);
07:40:32:941;07:40:32:941;0;10;-1.5;1;0;0;0;0;1;1;1;1;07:40:32:910;1447958430.75;(0.29756062030792235, 0.2566205342610677);26.8450698853;1.0;8;0;0;0;0;();(-2000.0, -2000.0);
07:40:32:958;07:40:32:958;0;0;-1.5;1;0;0;0;0;1;1;1;1;07:40:32:910;1447958430.75;(0.29756062030792235, 0.2566205342610677);26.8450698853;1.0;8;0;0;0;0;();(-2000.0, -2000.0);
07:40:32:991;07:40:32:991;0;15;-1.5;1;0;0;0;0;1;1;1;1;07:40:32:977;1447958430.82;(0.2976227283477783, 0.2569193522135417);27.7992095947;1.0;8;0;0;0;0;();(-2000.0, -2000.0);
07:40:33:014;07:40:33:014;0;5;-1.5;1;0;0;0;0;1;1;1;1;07:40:32:977;1447958430.82;(0.2976227283477783, 0.2569193522135417);27.7992095947;1.0;8;0;0;0;0;();(-2000.0, -2000.0);
07:40:33:032;07:40:33:032;0;10;-1.5;1;0;0;0;0;1;1;1;1;07:40:32:977;1447958430.82;(0.2976227283477783, 0.2569193522135417);27.7992095947;1.0;8;0;0;0;0;();(-2000.0, -2000.0);
07:40:33:049;07:40:33:049;0;4;-1.5;1;0;0;0;0;1;1;1;1;07:40:33:046;1447958430.88;(0.2974397659301758, 0.2571873135036893);26.7877693176;1.0;8;0;0;0;0;();(-2000.0, -2000.0);
07:40:33:066;07:40:33:065;0;9;-1.5;1;0;0;0;0;1;1;1;1;07:40:33:046;1447958430.88;(0.2974397659301758, 0.2571873135036893);26.7877693176;1.0;8;0;0;0;0;();(-2000.0, -2000.0);
07:40:33:082;07:40:33:082;0;0;-1.5;1;0;0;0;0;1;1;1;1;07:40:33:046;1447958430.88;(0.2974397659301758, 0.2571873135036893);26.7877693176;1.0;8;0;0;0;0;();(-2000.0, -2000.0);
07:40:33:099;07:40:33:099;0;10;-1.5;1;0;0;0;0;1;1;1;1;07:40:33:046;1447958430.88;(0.2974397659301758, 0.2571873135036893);26.7877693176;1.0;8;0;0;0;0;();(-2000.0, -2000.0);
07:40:33:132;07:40:33:132;0;10;-1.5;1;0;0;0;0;1;1;1;1;07:40:33:109;1447958430.95;(0.29748289585113524, 0.2569533454047309);26.8434524536;1.0;8;0;0;0;0;();(-2000.0, -2000.0);
07:40:33:148;07:40:33:148;0;15;-1.5;1;0;0;0;0;1;1;1;1;07:40:33:109;1447958430.95;(0.29748289585113524, 0.2569533454047309);26.8434524536;1.0;8;0;0;0;0;();(-2000.0, -2000.0);
07:40:33:165;07:40:33:165;0;5;-1.5;1;0;0;0;0;1;1;1;1;07:40:33:109;1447958430.95;(0.29748289585113524, 0.2569533454047309);26.8434524536;1.0;8;0;0;0;0;();(-2000.0, -2000.0);
07:40:33:182;07:40:33:181;0;15;-1.5;1;0;0;0;0;1;1;1;1;07:40:33:178;1447958431.02;(0.29723849296569826, 0.25702913072374134);26.9125709534;1.0;8;0;0;0;0;();(-2000.0, -2000.0);
07:40:33:199;07:40:33:199;0;4;-1.5;1;0;0;0;0;1;1;1;1;07:40:33:178;1447958431.02;(0.29723849296569826, 0.25702913072374134);26.9125709534;1.0;8;0;0;0;0;();(-2000.0, -2000.0);
07:40:33:230;07:40:33:230;0;4;-1.5;1;0;0;0;0;1;1;1;1;07:40:33:178;1447958431.02;(0.29723849296569826, 0.25702913072374134);26.9125709534;1.0;8;0;0;0;0;();(-2000.0, -2000.0);
07:40:33:247;07:40:33:247;0;4;-1.5;1;0;0;0;0;1;1;1;1;07:40:33:245;1447958431.08;(0.2975125551223755, 0.2567423502604167);26.704536438;1.0;8;0;0;0;0;();(-2000.0, -2000.0);
07:40:33:264;07:40:33:264;0;4;-1.5;1;0;0;0;0;1;1;1;1;07:40:33:245;1447958431.08;(0.2975125551223755, 0.2567423502604167);26.704536438;1.0;8;0;0;0;0;();(-2000.0, -2000.0);
07:40:33:281;07:40:33:281;0;0;-1.5;1;0;0;0;0;1;1;1;1;07:40:33:245;1447958431.08;(0.2975125551223755, 0.2567423502604167);26.704536438;1.0;8;0;0;0;0;();(-2000.0, -2000.0);
07:40:33:298;07:40:33:298;0;4;-1.5;1;0;0;0;0;1;1;1;1;07:40:33:245;1447958431.08;(0.2975125551223755, 0.2567423502604167);26.704536438;1.0;8;0;0;0;0;();(-2000.0, -2000.0);
07:40:33:331;07:40:33:331;0;5;-1.5;1;0;0;0;0;1;1;1;1;07:40:33:313;1447958431.15;(0.2970813989639282, 0.25652084350585935);27.0443973541;1.0;8;0;0;0;0;();(-2000.0, -2000.0);
07:40:33:347;07:40:33:347;0;10;-1.5;1;0;0;0;0;1;1;1;1;07:40:33:313;1447958431.15;(0.2970813989639282, 0.25652084350585935);27.0443973541;1.0;8;0;0;0;0;();(-2000.0, -2000.0);
07:40:33:364;07:40:33:364;0;4;-1.5;1;0;0;0;0;1;1;1;1;07:40:33:313;1447958431.15;(0.2970813989639282, 0.25652084350585935);27.0443973541;1.0;8;0;0;0;0;();(-2000.0, -2000.0);
07:40:33:391;07:40:33:380;0;9;-1.5;1;0;0;0;0;1;1;1;1;07:40:33:377;1447958431.22;(0.2974684715270996, 0.25707863701714406);26.3542766571;1.0;8;0;0;0;0;();(-2000.0, -2000.0);
07:40:33:397;07:40:33:397;0;5;-1.5;1;0;0;0;0;1;1;1;1;07:40:33:377;1447958431.22;(0.2974684715270996, 0.25707863701714406);26.3542766571;1.0;8;0;0;0;0;();(-2000.0, -2000.0);
07:40:33:436;07:40:33:436;0;15;-1.5;1;0;0;0;0;1;1;1;1;07:40:33:377;1447958431.22;(0.2974684715270996, 0.25707863701714406);26.3542766571;1.0;8;0;0;0;0;();(-2000.0, -2000.0);
07:40:33:441;07:40:33:440;0;15;-1.5;1;0;0;0;0;1;1;1;1;07:40:33:377;1447958431.22;(0.2974684715270996, 0.25707863701714406);26.3542766571;1.0;8;0;0;0;0;();(-2000.0, -2000.0);
07:40:33:471;07:40:33:471;0;0;-1.5;1;0;0;0;0;1;1;1;1;07:40:33:445;1447958431.28;(0.2975661277770996, 0.2567616780598958);26.8362445831;1.0;8;0;0;0;0;();(-2000.0, -2000.0);
07:40:33:488;07:40:33:488;0;10;-1.5;1;0;0;0;0;1;1;1;1;07:40:33:445;1447958431.28;(0.2975661277770996, 0.2567616780598958);26.8362445831;1.0;8;0;0;0;0;();(-2000.0, -2000.0);
07:40:33:505;07:40:33:505;0;15;-1.5;1;0;0;0;0;1;1;1;1;07:40:33:445;1447958431.28;(0.2975661277770996, 0.2567616780598958);26.8362445831;1.0;8;0;0;0;0;();(-2000.0, -2000.0);
07:40:33:521;07:40:33:521;0;4;-1.5;1;0;0;0;0;1;1;1;1;07:40:33:513;1447958431.35;(0.29725911617279055, 0.256655036078559);26.7648487091;1.0;8;0;0;0;0;();(-2000.0, -2000.0);
07:40:33:538;07:40:33:538;0;15;-1.5;1;0;0;0;0;1;1;1;1;07:40:33:513;1447958431.35;(0.29725911617279055, 0.256655036078559);26.7648487091;1.0;8;0;0;0;0;();(-2000.0, -2000.0);
07:40:33:571;07:40:33:571;0;0;-1.5;1;0;0;0;0;1;1;1;1;07:40:33:513;1447958431.35;(0.29725911617279055, 0.256655036078559);26.7648487091;1.0;8;0;0;0;0;();(-2000.0, -2000.0);
07:40:33:587;07:40:33:587;0;4;-1.5;1;0;0;0;0;1;1;1;1;07:40:33:581;1447958431.42;(0.29777894020080564, 0.2561647203233507);26.264831543;1.0;8;0;0;0;0;();(-2000.0, -2000.0);
07:40:33:604;07:40:33:604;0;7;-1.5;1;0;0;0;0;1;1;1;1;07:40:33:581;1447958431.42;(0.29777894020080564, 0.2561647203233507);26.264831543;1.0;8;0;0;0;0;();(-2000.0, -2000.0);
07:40:33:621;07:40:33:621;0;4;-1.5;1;0;0;0;0;1;1;1;1;07:40:33:581;1447958431.42;(0.29777894020080564, 0.2561647203233507);26.264831543;1.0;8;0;0;0;0;();(-2000.0, -2000.0);
07:40:33:642;07:40:33:642;0;9;-1.5;1;0;0;0;0;1;1;1;1;07:40:33:581;1447958431.42;(0.29777894020080564, 0.2561647203233507);26.264831543;1.0;8;0;0;0;0;();(-2000.0, -2000.0);
07:40:33:659;07:40:33:659;0;15;-1.5;1;0;0;0;0;1;1;1;1;07:40:33:645;1447958431.48;(0.2974562644958496, 0.2562449985080295);26.8218097687;1.0;8;0;0;0;0;();(-2000.0, -2000.0);
07:40:33:677;07:40:33:677;0;10;-1.5;1;0;0;0;0;1;1;1;1;07:40:33:645;1447958431.48;(0.2974562644958496, 0.2562449985080295);26.8218097687;1.0;8;0;0;0;0;();(-2000.0, -2000.0);
07:40:33:710;07:40:33:710;0;4;-1.5;1;0;0;0;0;1;1;1;1;07:40:33:645;1447958431.48;(0.2974562644958496, 0.2562449985080295);26.8218097687;1.0;8;0;0;0;0;();(-2000.0, -2000.0);
07:40:33:726;07:40:33:726;0;0;-1.5;1;0;0;0;0;1;1;1;1;07:40:33:714;1447958431.55;(0.2973465919494629, 0.25669742160373266);26.6669464111;1.0;8;0;0;0;0;();(-2000.0, -2000.0);
07:40:33:743;07:40:33:743;0;10;-1.5;1;0;0;0;0;1;1;1;1;07:40:33:714;1447958431.55;(0.2973465919494629, 0.25669742160373266);26.6669464111;1.0;8;0;0;0;0;();(-2000.0, -2000.0);
07:40:33:760;07:40:33:760;0;15;-1.5;1;0;0;0;0;1;1;1;1;07:40:33:714;1447958431.55;(0.2973465919494629, 0.25669742160373266);26.6669464111;1.0;8;0;0;0;0;();(-2000.0, -2000.0);
07:40:33:776;07:40:33:776;0;4;-1.5;1;0;0;0;0;1;1;1;1;07:40:33:714;1447958431.55;(0.2973465919494629, 0.25669742160373266);26.6669464111;1.0;8;0;0;0;0;();(-2000.0, -2000.0);
07:40:33:809;07:40:33:809;0;5;-1.5;1;0;0;0;0;1;1;1;1;07:40:33:782;1447958431.62;(0.29704990386962893, 0.2570934719509549);27.026927948;1.0;8;0;0;0;0;();(-2000.0, -2000.0);
07:40:33:826;07:40:33:826;0;15;-1.5;1;0;0;0;0;1;1;1;1;07:40:33:782;1447958431.62;(0.29704990386962893, 0.2570934719509549);27.026927948;1.0;8;0;0;0;0;();(-2000.0, -2000.0);
07:40:33:851;07:40:33:851;0;4;-1.5;1;0;0;0;0;1;1;1;1;07:40:33:850;1447958431.68;(0.2974767923355103, 0.25679304334852426);26.7929286957;1.0;8;0;0;0;0;();(-2000.0, -2000.0);
07:40:33:867;07:40:33:867;0;9;-1.5;1;0;0;0;0;1;1;1;1;07:40:33:850;1447958431.68;(0.2974767923355103, 0.25679304334852426);26.7929286957;1.0;8;0;0;0;0;();(-2000.0, -2000.0);
07:40:33:884;07:40:33:884;0;0;-1.5;1;0;0;0;0;1;1;1;1;07:40:33:850;1447958431.68;(0.2974767923355103, 0.25679304334852426);26.7929286957;1.0;8;0;0;0;0;();(-2000.0, -2000.0);
07:40:33:901;07:40:33:901;0;10;-1.5;1;0;0;0;0;1;1;1;1;07:40:33:850;1447958431.68;(0.2974767923355103, 0.25679304334852426);26.7929286957;1.0;8;0;0;0;0;();(-2000.0, -2000.0);
07:40:33:917;07:40:33:917;0;15;-1.5;1;0;0;0;0;1;1;1;1;07:40:33:913;1447958431.75;(0.2971055269241333, 0.25682652791341143);26.2323188782;1.0;8;0;0;0;0;();(-2000.0, -2000.0);
07:40:33:950;07:40:33:950;0;4;-1.5;1;0;0;0;0;1;1;1;1;07:40:33:913;1447958431.75;(0.2971055269241333, 0.25682652791341143);26.2323188782;1.0;8;0;0;0;0;();(-2000.0, -2000.0);
07:40:33:967;07:40:33:967;0;9;-1.5;1;0;0;0;0;1;1;1;1;07:40:33:913;1447958431.75;(0.2971055269241333, 0.25682652791341143);26.2323188782;1.0;8;0;0;0;0;();(-2000.0, -2000.0);
07:40:33:983;07:40:33:983;0;15;-1.5;1;0;0;0;0;1;1;1;1;07:40:33:981;1447958431.82;(0.2973620414733887, 0.25643624199761283);26.4964962006;1.0;8;0;0;0;0;();(-2000.0, -2000.0);
07:40:34:000;07:40:34:000;0;4;-1.5;1;0;0;0;0;1;1;1;1;07:40:33:981;1447958431.82;(0.2973620414733887, 0.25643624199761283);26.4964962006;1.0;8;0;0;0;0;();(-2000.0, -2000.0);
07:40:34:016;07:40:34:016;0;15;-1.5;1;0;0;0;0;1;1;1;1;07:40:33:981;1447958431.82;(0.2973620414733887, 0.25643624199761283);26.4964962006;1.0;8;0;0;0;0;();(-2000.0, -2000.0);
07:40:34:054;07:40:34:054;0;1;-1.5;1;0;0;0;0;1;1;1;1;07:40:34:050;1447958431.88;(0.2973884344100952, 0.2561819288465712);26.6936798096;1.0;8;0;0;0;0;();(-2000.0, -2000.0);
07:40:34:073;07:40:34:073;0;4;-1.5;1;0;0;0;0;1;1;1;1;07:40:34:050;1447958431.88;(0.2973884344100952, 0.2561819288465712);26.6936798096;1.0;8;0;0;0;0;();(-2000.0, -2000.0);
07:40:34:090;07:40:34:090;0;9;-1.5;1;0;0;0;0;1;1;1;1;07:40:34:050;1447958431.88;(0.2973884344100952, 0.2561819288465712);26.6936798096;1.0;8;0;0;0;0;();(-2000.0, -2000.0);
07:40:34:108;07:40:34:108;0;4;-1.5;1;0;0;0;0;1;1;1;1;07:40:34:050;1447958431.88;(0.2973884344100952, 0.2561819288465712);26.6936798096;1.0;8;0;0;0;0;();(-2000.0, -2000.0);
07:40:34:124;07:40:34:124;0;9;-1.5;1;0;0;0;0;1;1;1;1;07:40:34:114;1447958431.95;(0.2974445581436157, 0.256506601969401);26.9368076324;1.0;8;0;0;0;0;();(-2000.0, -2000.0);
07:40:34:141;07:40:34:141;0;15;-1.5;1;0;0;0;0;1;1;1;1;07:40:34:114;1447958431.95;(0.2974445581436157, 0.256506601969401);26.9368076324;1.0;8;0;0;0;0;();(-2000.0, -2000.0);
07:40:34:157;07:40:34:157;0;10;-1.5;1;0;0;0;0;1;1;1;1;07:40:34:114;1447958431.95;(0.2974445581436157, 0.256506601969401);26.9368076324;1.0;8;0;0;0;0;();(-2000.0, -2000.0);
07:40:34:191;07:40:34:191;0;4;-1.5;1;0;0;0;0;1;1;1;1;07:40:34:182;1447958432.02;(0.2973064184188843, 0.256923336452908);26.9280376434;1.0;8;0;0;0;0;();(-2000.0, -2000.0);
07:40:34:207;07:40:34:207;0;0;-1.5;1;0;0;0;0;1;1;1;1;07:40:34:182;1447958432.02;(0.2973064184188843, 0.256923336452908);26.9280376434;1.0;8;0;0;0;0;();(-2000.0, -2000.0);
07:40:34:224;07:40:34:224;0;12;-1.5;1;0;0;0;0;1;1;1;1;07:40:34:182;1447958432.02;(0.2973064184188843, 0.256923336452908);26.9280376434;1.0;8;0;0;0;0;();(-2000.0, -2000.0);
07:40:34:240;07:40:34:240;0;15;-1.5;1;0;0;0;0;1;1;1;1;07:40:34:182;1447958432.02;(0.2973064184188843, 0.256923336452908);26.9280376434;1.0;8;0;0;0;0;();(-2000.0, -2000.0);
07:40:34:272;07:40:34:272;0;15;-1.5;1;0;0;0;0;1;1;1;1;07:40:34:249;1447958432.08;(0.29740951061248777, 0.2572957356770833);27.1251087189;1.0;8;0;0;0;0;();(-2000.0, -2000.0);
07:40:34:289;07:40:34:289;0;9;-1.5;1;0;0;0;0;1;1;1;1;07:40:34:249;1447958432.08;(0.29740951061248777, 0.2572957356770833);27.1251087189;1.0;8;0;0;0;0;();(-2000.0, -2000.0);
07:40:34:305;07:40:34:305;0;15;-1.5;1;0;0;0;0;1;1;1;1;07:40:34:249;1447958432.08;(0.29740951061248777, 0.2572957356770833);27.1251087189;1.0;8;0;0;0;0;();(-2000.0, -2000.0);
07:40:34:322;07:40:34:322;0;4;-1.5;1;0;0;0;0;1;1;1;1;07:40:34:317;1447958432.15;(0.2971218109130859, 0.2571803622775608);27.6261806488;1.0;8;0;0;0;0;();(-2000.0, -2000.0);
07:40:34:339;07:40:34:338;0;15;-1.5;1;0;0;0;0;1;1;1;1;07:40:34:317;1447958432.15;(0.2971218109130859, 0.2571803622775608);27.6261806488;1.0;8;0;0;0;0;();(-2000.0, -2000.0);
07:40:34:372;07:40:34:372;0;0;-1.5;1;0;0;0;0;1;1;1;1;07:40:34:317;1447958432.15;(0.2971218109130859, 0.2571803622775608);27.6261806488;1.0;8;0;0;0;0;();(-2000.0, -2000.0);
07:40:34:388;07:40:34:388;0;4;-1.5;1;0;0;0;0;1;1;1;1;07:40:34:382;1447958432.22;(0.29734010696411134, 0.2566947937011719);26.9036026001;1.0;8;0;0;0;0;();(-2000.0, -2000.0);
07:40:34:405;07:40:34:405;0;9;-1.5;1;0;0;0;0;1;1;1;1;07:40:34:382;1447958432.22;(0.29734010696411134, 0.2566947937011719);26.9036026001;1.0;8;0;0;0;0;();(-2000.0, -2000.0);
07:40:34:421;07:40:34:421;0;4;-1.5;1;0;0;0;0;1;1;1;1;07:40:34:382;1447958432.22;(0.29734010696411134, 0.2566947937011719);26.9036026001;1.0;8;0;0;0;0;();(-2000.0, -2000.0);
07:40:34:438;07:40:34:438;0;15;-1.5;1;0;0;0;0;1;1;1;1;07:40:34:382;1447958432.22;(0.29734010696411134, 0.2566947937011719);26.9036026001;1.0;8;0;0;0;0;();(-2000.0, -2000.0);
07:40:34:478;07:40:34:478;0;15;-1.5;1;0;0;0;0;1;1;1;1;07:40:34:449;1447958432.28;(0.2973093748092651, 0.2568726433648003);27.2471847534;1.0;8;0;0;0;0;();(-2000.0, -2000.0);
07:40:34:481;07:40:34:481;0;4;-1.5;1;0;0;0;0;1;1;1;1;07:40:34:449;1447958432.28;(0.2973093748092651, 0.2568726433648003);27.2471847534;1.0;8;0;0;0;0;();(-2000.0, -2000.0);
