%Timestamp,timestamp_write;timestamp_gotpupil;eyetrackertime;norm_pos;diameter;confidence;timestamp_gotbitdata;CRC;SEQ;AnalogOutp1;AnalogOutp2;AnalogOutp3;AnalogOutp4;AnalogOutp5;AnalogOutp6;DigitalOutp1;DigitalOutp2;igitalOutp3;DigitalOutp4;nplanes;lastaction;lastactiondetails;positivescore;negativescore;targetpositions;collision_point
06:40:26:373;;;;;;;;;;;;;;06:40:26:366;1447954824.16;(0.32050912380218505, 0.2432926601833767);25.9588451385;1.0;2;0;0;0;0;();(0.0, 0.0);
06:40:26:481;;;;;;;;;;;;;;06:40:26:452;1447954824.23;(0.32052533626556395, 0.2428679572211372);26.3234615326;1.0;2;0;0;0;0;();(-2000.0, -2000.0);
06:40:26:484;;;;;;;;;;;;;;06:40:26:452;1447954824.23;(0.32052533626556395, 0.2428679572211372);26.3234615326;1.0;2;0;0;0;0;();(-2000.0, -2000.0);
06:40:26:486;;;;;;;;;;;;;;06:40:26:452;1447954824.23;(0.32052533626556395, 0.2428679572211372);26.3234615326;1.0;2;0;0;0;0;();(-2000.0, -2000.0);
06:40:26:489;;;;;;;;;;;;;;06:40:26:452;1447954824.23;(0.32052533626556395, 0.2428679572211372);26.3234615326;1.0;2;0;0;0;0;();(-2000.0, -2000.0);
06:40:26:491;;;;;;;;;;;;;;06:40:26:490;1447954824.29;(0.3205157518386841, 0.24313913981119795);25.7261180878;1.0;2;0;0;0;0;();(-2000.0, -2000.0);
06:40:26:493;;;;;;;;;;;;;;06:40:26:490;1447954824.29;(0.3205157518386841, 0.24313913981119795);25.7261180878;1.0;2;0;0;0;0;();(-2000.0, -2000.0);
06:40:26:497;;;;;;;;;;;;;;06:40:26:490;1447954824.29;(0.3205157518386841, 0.24313913981119795);25.7261180878;1.0;2;0;0;0;0;();(-2000.0, -2000.0);
06:40:26:500;;;;;;;;;;;;;;06:40:26:490;1447954824.29;(0.3205157518386841, 0.24313913981119795);25.7261180878;1.0;2;0;0;0;0;();(-2000.0, -2000.0);
06:40:26:503;;;;;;;;;;;;;;06:40:26:490;1447954824.29;(0.3205157518386841, 0.24313913981119795);25.7261180878;1.0;2;0;0;0;0;();(-2000.0, -2000.0);
06:40:26:504;;;;;;;;;;;;;;06:40:26:490;1447954824.29;(0.3205157518386841, 0.24313913981119795);25.7261180878;1.0;2;0;0;0;0;();(-2000.0, -2000.0);
06:40:26:507;;;;;;;;;;;;;;06:40:26:490;1447954824.29;(0.3205157518386841, 0.24313913981119795);25.7261180878;1.0;2;0;0;0;0;();(-2000.0, -2000.0);
06:40:26:509;;;;;;;;;;;;;;06:40:26:490;1447954824.29;(0.3205157518386841, 0.24313913981119795);25.7261180878;1.0;2;0;0;0;0;();(-2000.0, -2000.0);
06:40:26:510;;;;;;;;;;;;;;06:40:26:490;1447954824.29;(0.3205157518386841, 0.24313913981119795);25.7261180878;1.0;2;0;0;0;0;();(-2000.0, -2000.0);
06:40:26:513;;;;;;;;;;;;;;06:40:26:490;1447954824.29;(0.3205157518386841, 0.24313913981119795);25.7261180878;1.0;2;0;0;0;0;();(-2000.0, -2000.0);
06:40:26:515;;;;;;;;;;;;;;06:40:26:490;1447954824.29;(0.3205157518386841, 0.24313913981119795);25.7261180878;1.0;2;0;0;0;0;();(-2000.0, -2000.0);
06:40:26:723;;;;;;;;;;;;;;06:40:26:698;1447954824.49;(0.32071173191070557, 0.24309048122829857);26.4904537201;1.0;2;0;0;0;0;();(-2000.0, -2000.0);
06:40:26:725;;;;;;;;;;;;;;06:40:26:698;1447954824.49;(0.32071173191070557, 0.24309048122829857);26.4904537201;1.0;2;0;0;0;0;();(-2000.0, -2000.0);
06:40:26:728;;;;;;;;;;;;;;06:40:26:698;1447954824.49;(0.32071173191070557, 0.24309048122829857);26.4904537201;1.0;2;0;0;0;0;();(-2000.0, -2000.0);
06:40:26:731;;;;;;;;;;;;;;06:40:26:698;1447954824.49;(0.32071173191070557, 0.24309048122829857);26.4904537201;1.0;2;0;0;0;0;();(-2000.0, -2000.0);
06:40:26:732;;;;;;;;;;;;;;06:40:26:698;1447954824.49;(0.32071173191070557, 0.24309048122829857);26.4904537201;1.0;2;0;0;0;0;();(-2000.0, -2000.0);
06:40:26:734;;;;;;;;;;;;;;06:40:26:698;1447954824.49;(0.32071173191070557, 0.24309048122829857);26.4904537201;1.0;2;0;0;0;0;();(-2000.0, -2000.0);
06:40:26:736;;;;;;;;;;;;;;06:40:26:698;1447954824.49;(0.32071173191070557, 0.24309048122829857);26.4904537201;1.0;2;0;0;0;0;();(-2000.0, -2000.0);
06:40:26:738;;;;;;;;;;;;;;06:40:26:698;1447954824.49;(0.32071173191070557, 0.24309048122829857);26.4904537201;1.0;2;0;0;0;0;();(-2000.0, -2000.0);
06:40:26:740;;;;;;;;;;;;;;06:40:26:698;1447954824.49;(0.32071173191070557, 0.24309048122829857);26.4904537201;1.0;2;0;0;0;0;();(-2000.0, -2000.0);
06:40:26:741;;;;;;;;;;;;;;06:40:26:698;1447954824.49;(0.32071173191070557, 0.24309048122829857);26.4904537201;1.0;2;0;0;0;0;();(-2000.0, -2000.0);
06:40:26:743;;;;;;;;;;;;;;06:40:26:698;1447954824.49;(0.32071173191070557, 0.24309048122829857);26.4904537201;1.0;2;0;0;0;0;();(-2000.0, -2000.0);
06:40:26:745;;;;;;;;;;;;;;06:40:26:698;1447954824.49;(0.32071173191070557, 0.24309048122829857);26.4904537201;1.0;2;0;0;0;0;();(-2000.0, -2000.0);
06:40:26:747;;;;;;;;;;;;;;06:40:26:698;1447954824.49;(0.32071173191070557, 0.24309048122829857);26.4904537201;1.0;2;0;0;0;0;();(-2000.0, -2000.0);
06:40:26:749;;;;;;;;;;;;;;06:40:26:698;1447954824.49;(0.32071173191070557, 0.24309048122829857);26.4904537201;1.0;2;0;0;0;0;();(-2000.0, -2000.0);
06:40:26:751;;;;;;;;;;;;;;06:40:26:698;1447954824.49;(0.32071173191070557, 0.24309048122829857);26.4904537201;1.0;2;0;0;0;0;();(-2000.0, -2000.0);
06:40:26:752;;;;;;;;;;;;;;06:40:26:698;1447954824.49;(0.32071173191070557, 0.24309048122829857);26.4904537201;1.0;2;0;0;0;0;();(-2000.0, -2000.0);
06:40:26:755;;;;;;;;;;;;;;06:40:26:698;1447954824.49;(0.32071173191070557, 0.24309048122829857);26.4904537201;1.0;2;0;0;0;0;();(-2000.0, -2000.0);
06:40:29:057;;;;;;;;;;;;;;06:40:28:978;1447954826.76;(0.3205688238143921, 0.24283591376410585);26.4952545166;1.0;2;0;0;0;0;();(-2000.0, -2000.0);
06:40:29:059;;;;;;;;;;;;;;06:40:28:978;1447954826.76;(0.3205688238143921, 0.24283591376410585);26.4952545166;1.0;2;0;0;0;0;();(-2000.0, -2000.0);
06:40:29:061;;;;;;;;;;;;;;06:40:28:978;1447954826.76;(0.3205688238143921, 0.24283591376410585);26.4952545166;1.0;2;0;0;0;0;();(-2000.0, -2000.0);
06:40:29:062;;;;;;;;;;;;;;06:40:29:062;1447954826.83;(0.3207613468170166, 0.24311684502495656);26.7207756042;1.0;2;0;0;0;0;();(-2000.0, -2000.0);
06:40:29:064;;;;;;;;;;;;;;06:40:29:062;1447954826.83;(0.3207613468170166, 0.24311684502495656);26.7207756042;1.0;2;0;0;0;0;();(-2000.0, -2000.0);
06:40:29:066;;;;;;;;;;;;;;06:40:29:062;1447954826.83;(0.3207613468170166, 0.24311684502495656);26.7207756042;1.0;2;0;0;0;0;();(-2000.0, -2000.0);
06:40:29:067;;;;;;;;;;;;;;06:40:29:062;1447954826.83;(0.3207613468170166, 0.24311684502495656);26.7207756042;1.0;2;0;0;0;0;();(-2000.0, -2000.0);
06:40:29:069;;;;;;;;;;;;;;06:40:29:062;1447954826.83;(0.3207613468170166, 0.24311684502495656);26.7207756042;1.0;2;0;0;0;0;();(-2000.0, -2000.0);
06:40:29:071;;;;;;;;;;;;;;06:40:29:062;1447954826.83;(0.3207613468170166, 0.24311684502495656);26.7207756042;1.0;2;0;0;0;0;();(-2000.0, -2000.0);
06:40:29:073;;;;;;;;;;;;;;06:40:29:062;1447954826.83;(0.3207613468170166, 0.24311684502495656);26.7207756042;1.0;2;0;0;0;0;();(-2000.0, -2000.0);
06:40:29:075;;;;;;;;;;;;;;06:40:29:062;1447954826.83;(0.3207613468170166, 0.24311684502495656);26.7207756042;1.0;2;0;0;0;0;();(-2000.0, -2000.0);
06:40:29:076;;;;;;;;;;;;;;06:40:29:062;1447954826.83;(0.3207613468170166, 0.24311684502495656);26.7207756042;1.0;2;0;0;0;0;();(-2000.0, -2000.0);
06:40:29:078;;;;;;;;;;;;;;06:40:29:062;1447954826.83;(0.3207613468170166, 0.24311684502495656);26.7207756042;1.0;2;0;0;0;0;();(-2000.0, -2000.0);
06:40:29:080;;;;;;;;;;;;;;06:40:29:062;1447954826.83;(0.3207613468170166, 0.24311684502495656);26.7207756042;1.0;2;0;0;0;0;();(-2000.0, -2000.0);
06:40:29:082;;;;;;;;;;;;;;06:40:29:062;1447954826.83;(0.3207613468170166, 0.24311684502495656);26.7207756042;1.0;2;0;0;0;0;();(-2000.0, -2000.0);
06:40:29:084;;;;;;;;;;;;;;06:40:29:062;1447954826.83;(0.3207613468170166, 0.24311684502495656);26.7207756042;1.0;2;0;0;0;0;();(-2000.0, -2000.0);
06:40:29:085;;;;;;;;;;;;;;06:40:29:062;1447954826.83;(0.3207613468170166, 0.24311684502495656);26.7207756042;1.0;2;0;0;0;0;();(-2000.0, -2000.0);
06:40:29:089;;;;;;;;;;;;;;06:40:29:062;1447954826.83;(0.3207613468170166, 0.24311684502495656);26.7207756042;1.0;2;0;0;0;0;();(-2000.0, -2000.0);
06:40:29:109;;;;;;;;;;;;;;06:40:29:103;1447954826.89;(0.3207958936691284, 0.24335742526584203);26.483379364;1.0;2;0;0;0;0;();(-2000.0, -2000.0);
06:40:29:122;;;;;;;;;;;;;;06:40:29:103;1447954826.89;(0.3207958936691284, 0.24335742526584203);26.483379364;1.0;2;0;0;0;0;();(-2000.0, -2000.0);
06:40:29:139;;;;;;;;;;;;;;06:40:29:103;1447954826.89;(0.3207958936691284, 0.24335742526584203);26.483379364;1.0;2;0;0;0;0;();(-2000.0, -2000.0);
06:40:29:184;;;;;;;;;;;;;;06:40:29:103;1447954826.89;(0.3207958936691284, 0.24335742526584203);26.483379364;1.0;2;0;0;0;0;();(-2000.0, -2000.0);
06:40:29:186;;;;;;;;;;;;;;06:40:29:186;1447954826.96;(0.32057459354400636, 0.24322255452473962);26.7855205536;1.0;2;0;0;0;0;();(-2000.0, -2000.0);
06:40:29:207;;;;;;;;;;;;;;06:40:29:186;1447954826.96;(0.32057459354400636, 0.24322255452473962);26.7855205536;1.0;2;0;0;0;0;();(-2000.0, -2000.0);
06:40:29:227;;;;;;;;;;;;;;06:40:29:186;1447954826.96;(0.32057459354400636, 0.24322255452473962);26.7855205536;1.0;2;0;0;0;0;();(-2000.0, -2000.0);
06:40:29:249;;;;;;;;;;;;;;06:40:29:230;1447954827.03;(0.3206592559814453, 0.24331080118815107);26.0967941284;0.967157454612;2;0;0;0;0;();(-2000.0, -2000.0);
06:40:29:269;;;;;;;;;;;;;;06:40:29:230;1447954827.03;(0.3206592559814453, 0.24331080118815107);26.0967941284;0.967157454612;2;0;0;0;0;();(-2000.0, -2000.0);
06:40:29:324;;;;;;;;;;;;;;06:40:29:311;1447954827.09;(0.32067084312438965, 0.24337081909179692);26.4761981964;1.0;2;0;0;0;0;();(-2000.0, -2000.0);
06:40:29:327;;;;;;;;;;;;;;06:40:29:311;1447954827.09;(0.32067084312438965, 0.24337081909179692);26.4761981964;1.0;2;0;0;0;0;();(-2000.0, -2000.0);
06:40:29:329;;;;;;;;;;;;;;06:40:29:311;1447954827.09;(0.32067084312438965, 0.24337081909179692);26.4761981964;1.0;2;0;0;0;0;();(-2000.0, -2000.0);
06:40:29:342;;;;;;;;;;;;;;06:40:29:311;1447954827.09;(0.32067084312438965, 0.24337081909179692);26.4761981964;1.0;2;0;0;0;0;();(-2000.0, -2000.0);
06:40:29:361;;;;;;;;;;;;;;06:40:29:311;1447954827.09;(0.32067084312438965, 0.24337081909179692);26.4761981964;1.0;2;0;0;0;0;();(-2000.0, -2000.0);
06:40:29:378;;;;;;;;;;;;;;06:40:29:311;1447954827.09;(0.32067084312438965, 0.24337081909179692);26.4761981964;1.0;2;0;0;0;0;();(-2000.0, -2000.0);
06:40:29:411;;;;;;;;;;;;;;06:40:29:395;1447954827.16;(0.32080397605895994, 0.2430285983615451);26.413225174;1.0;2;0;0;0;0;();(-2000.0, -2000.0);
06:40:29:429;;;;;;;;;;;;;;06:40:29:395;1447954827.16;(0.32080397605895994, 0.2430285983615451);26.413225174;1.0;2;0;0;0;0;();(-2000.0, -2000.0);
06:40:29:448;;;;;;;;;;;;;;06:40:29:434;1447954827.23;(0.3205667018890381, 0.2429701063368056);26.3408317566;1.0;2;0;0;0;0;();(-2000.0, -2000.0);
06:40:29:465;;;;;;;;;;;;;;06:40:29:434;1447954827.23;(0.3205667018890381, 0.2429701063368056);26.3408317566;1.0;2;0;0;0;0;();(-2000.0, -2000.0);
06:40:29:481;;;;;;;;;;;;;;06:40:29:434;1447954827.23;(0.3205667018890381, 0.2429701063368056);26.3408317566;1.0;2;0;0;0;0;();(-2000.0, -2000.0);
06:40:29:515;;;;;;;;;;;;;;06:40:29:434;1447954827.23;(0.3205667018890381, 0.2429701063368056);26.3408317566;1.0;2;0;0;0;0;();(-2000.0, -2000.0);
06:40:29:543;;;;;;;;;;;;;;06:40:29:518;1447954827.29;(0.3208762168884277, 0.243078867594401);26.4875469208;1.0;2;0;0;0;0;();(-2000.0, -2000.0);
06:40:29:545;;;;;;;;;;;;;;06:40:29:518;1447954827.29;(0.3208762168884277, 0.243078867594401);26.4875469208;1.0;2;0;0;0;0;();(-2000.0, -2000.0);
06:40:29:560;;;;;;;;;;;;;;06:40:29:518;1447954827.29;(0.3208762168884277, 0.243078867594401);26.4875469208;1.0;2;0;0;0;0;();(-2000.0, -2000.0);
06:40:29:593;;;;;;;;;;;;;;06:40:29:563;1447954827.36;(0.321007227897644, 0.24315872192382815);26.5970726013;1.0;2;0;0;0;0;();(-2000.0, -2000.0);
06:40:29:610;;;;;;;;;;;;;;06:40:29:563;1447954827.36;(0.321007227897644, 0.24315872192382815);26.5970726013;1.0;2;0;0;0;0;();(-2000.0, -2000.0);
06:40:29:626;;;;;;;;;;;;;;06:40:29:563;1447954827.36;(0.321007227897644, 0.24315872192382815);26.5970726013;1.0;2;0;0;0;0;();(-2000.0, -2000.0);
06:40:29:643;;;;;;;;;;;;;;06:40:29:642;1447954827.43;(0.320721435546875, 0.2430595397949219);26.4474544525;1.0;2;0;0;0;0;();(-2000.0, -2000.0);
06:40:29:659;;;;;;;;;;;;;;06:40:29:642;1447954827.43;(0.320721435546875, 0.2430595397949219);26.4474544525;1.0;2;0;0;0;0;();(-2000.0, -2000.0);
06:40:29:692;;;;;;;;;;;;;;06:40:29:642;1447954827.43;(0.320721435546875, 0.2430595397949219);26.4474544525;1.0;2;0;0;0;0;();(-2000.0, -2000.0);
06:40:29:721;;;;;;;;;;;;;;06:40:29:642;1447954827.43;(0.320721435546875, 0.2430595397949219);26.4474544525;1.0;2;0;0;0;0;();(-2000.0, -2000.0);
06:40:29:724;;;;;;;;;;;;;;06:40:29:642;1447954827.43;(0.320721435546875, 0.2430595397949219);26.4474544525;1.0;2;0;0;0;0;();(-2000.0, -2000.0);
06:40:29:748;;;;;;;;;;;;;;06:40:29:727;1447954827.49;(0.32063472270965576, 0.24300740559895828);26.6457252502;1.0;2;0;0;0;0;();(-2000.0, -2000.0);
06:40:30:265;06:40:30:262;0;10;-1.5;1;0;0;0;0;1;1;1;1;06:40:30:222;1447954828.03;(0.3208763599395752, 0.2428936428493924);26.0070610046;1.0;2;0;0;0;0;();(-2000.0, -2000.0);
06:40:30:268;06:40:30:268;0;10;-1.5;1;0;0;0;0;1;1;1;1;06:40:30:222;1447954828.03;(0.3208763599395752, 0.2428936428493924);26.0070610046;1.0;2;0;0;0;0;();(-2000.0, -2000.0);
06:40:30:270;06:40:30:270;0;10;-1.5;1;0;0;0;0;1;1;1;1;06:40:30:222;1447954828.03;(0.3208763599395752, 0.2428936428493924);26.0070610046;1.0;2;0;0;0;0;();(-2000.0, -2000.0);
06:40:30:273;06:40:30:273;0;10;-1.5;1;0;0;0;0;1;1;1;1;06:40:30:222;1447954828.03;(0.3208763599395752, 0.2428936428493924);26.0070610046;1.0;2;0;0;0;0;();(-2000.0, -2000.0);
06:40:30:275;06:40:30:275;0;10;-1.5;1;0;0;0;0;1;1;1;1;06:40:30:222;1447954828.03;(0.3208763599395752, 0.2428936428493924);26.0070610046;1.0;2;0;0;0;0;();(-2000.0, -2000.0);
06:40:30:278;06:40:30:277;0;4;-1.5;1;0;0;0;0;1;1;1;1;06:40:30:222;1447954828.03;(0.3208763599395752, 0.2428936428493924);26.0070610046;1.0;2;0;0;0;0;();(-2000.0, -2000.0);
06:40:30:279;06:40:30:279;0;4;-1.5;1;0;0;0;0;1;1;1;1;06:40:30:222;1447954828.03;(0.3208763599395752, 0.2428936428493924);26.0070610046;1.0;2;0;0;0;0;();(-2000.0, -2000.0);
06:40:30:281;06:40:30:281;0;4;-1.5;1;0;0;0;0;1;1;1;1;06:40:30:222;1447954828.03;(0.3208763599395752, 0.2428936428493924);26.0070610046;1.0;2;0;0;0;0;();(-2000.0, -2000.0);
06:40:30:282;06:40:30:282;0;4;-1.5;1;0;0;0;0;1;1;1;1;06:40:30:222;1447954828.03;(0.3208763599395752, 0.2428936428493924);26.0070610046;1.0;2;0;0;0;0;();(-2000.0, -2000.0);
06:40:30:284;06:40:30:284;0;4;-1.5;1;0;0;0;0;1;1;1;1;06:40:30:222;1447954828.03;(0.3208763599395752, 0.2428936428493924);26.0070610046;1.0;2;0;0;0;0;();(-2000.0, -2000.0);
06:40:30:286;06:40:30:286;0;4;-1.5;1;0;0;0;0;1;1;1;1;06:40:30:222;1447954828.03;(0.3208763599395752, 0.2428936428493924);26.0070610046;1.0;2;0;0;0;0;();(-2000.0, -2000.0);
06:40:30:287;06:40:30:287;0;4;-1.5;1;0;0;0;0;1;1;1;1;06:40:30:222;1447954828.03;(0.3208763599395752, 0.2428936428493924);26.0070610046;1.0;2;0;0;0;0;();(-2000.0, -2000.0);
06:40:30:289;06:40:30:289;0;4;-1.5;1;0;0;0;0;1;1;1;1;06:40:30:222;1447954828.03;(0.3208763599395752, 0.2428936428493924);26.0070610046;1.0;2;0;0;0;0;();(-2000.0, -2000.0);
06:40:30:290;06:40:30:290;0;4;-1.5;1;0;0;0;0;1;1;1;1;06:40:30:222;1447954828.03;(0.3208763599395752, 0.2428936428493924);26.0070610046;1.0;2;0;0;0;0;();(-2000.0, -2000.0);
06:40:30:292;06:40:30:292;0;4;-1.5;1;0;0;0;0;1;1;1;1;06:40:30:222;1447954828.03;(0.3208763599395752, 0.2428936428493924);26.0070610046;1.0;2;0;0;0;0;();(-2000.0, -2000.0);
06:40:30:293;06:40:30:293;0;4;-1.5;1;0;0;0;0;1;1;1;1;06:40:30:222;1447954828.03;(0.3208763599395752, 0.2428936428493924);26.0070610046;1.0;2;0;0;0;0;();(-2000.0, -2000.0);
06:40:30:295;06:40:30:295;0;4;-1.5;1;0;0;0;0;1;1;1;1;06:40:30:222;1447954828.03;(0.3208763599395752, 0.2428936428493924);26.0070610046;1.0;2;0;0;0;0;();(-2000.0, -2000.0);
06:40:30:298;06:40:30:298;0;4;-1.5;1;0;0;0;0;1;1;1;1;06:40:30:222;1447954828.03;(0.3208763599395752, 0.2428936428493924);26.0070610046;1.0;2;0;0;0;0;();(-2000.0, -2000.0);
06:40:30:302;06:40:30:302;0;4;-1.5;1;0;0;0;0;1;1;1;1;06:40:30:222;1447954828.03;(0.3208763599395752, 0.2428936428493924);26.0070610046;1.0;2;0;0;0;0;();(-2000.0, -2000.0);
06:40:30:332;06:40:30:332;0;9;-1.5;1;0;0;0;0;1;1;1;1;06:40:30:306;1447954828.09;(0.32054550647735597, 0.24345050387912326);26.0457210541;1.0;2;0;0;0;0;();(-2000.0, -2000.0);
06:40:30:348;06:40:30:348;0;15;-1.5;1;0;0;0;0;1;1;1;1;06:40:30:306;1447954828.09;(0.32054550647735597, 0.24345050387912326);26.0457210541;1.0;2;0;0;0;0;();(-2000.0, -2000.0);
06:40:30:365;06:40:30:365;0;10;-1.5;1;0;0;0;0;1;1;1;1;06:40:30:306;1447954828.09;(0.32054550647735597, 0.24345050387912326);26.0457210541;1.0;2;0;0;0;0;();(-2000.0, -2000.0);
06:40:30:382;06:40:30:381;0;12;-1.5;1;0;0;0;0;1;1;1;1;06:40:30:306;1447954828.09;(0.32054550647735597, 0.24345050387912326);26.0457210541;1.0;2;0;0;0;0;();(-2000.0, -2000.0);
06:40:30:398;06:40:30:398;0;9;-1.5;1;0;0;0;0;1;1;1;1;06:40:30:390;1447954828.16;(0.3205636262893677, 0.2432402716742621);26.3497085571;1.0;2;0;0;0;0;();(-2000.0, -2000.0);
06:40:30:431;06:40:30:431;0;4;-1.5;1;0;0;0;0;1;1;1;1;06:40:30:430;1447954828.23;(0.3209985256195068, 0.2428764343261719);26.0974979401;1.0;2;0;0;0;0;();(-2000.0, -2000.0);
06:40:30:448;06:40:30:448;0;0;-1.5;1;0;0;0;0;1;1;1;1;06:40:30:430;1447954828.23;(0.3209985256195068, 0.2428764343261719);26.0974979401;1.0;2;0;0;0;0;();(-2000.0, -2000.0);
06:40:30:464;06:40:30:464;0;10;-1.5;1;0;0;0;0;1;1;1;1;06:40:30:430;1447954828.23;(0.3209985256195068, 0.2428764343261719);26.0974979401;1.0;2;0;0;0;0;();(-2000.0, -2000.0);
06:40:30:482;06:40:30:482;0;15;-1.5;1;0;0;0;0;1;1;1;1;06:40:30:430;1447954828.23;(0.3209985256195068, 0.2428764343261719);26.0974979401;1.0;2;0;0;0;0;();(-2000.0, -2000.0);
06:40:30:497;06:40:30:497;0;9;-1.5;1;0;0;0;0;1;1;1;1;06:40:30:430;1447954828.23;(0.3209985256195068, 0.2428764343261719);26.0974979401;1.0;2;0;0;0;0;();(-2000.0, -2000.0);
06:40:30:530;06:40:30:530;0;5;-1.5;1;0;0;0;0;1;1;1;1;06:40:30:515;1447954828.29;(0.32064864635467527, 0.24299155341254342);26.0707416534;1.0;2;0;0;0;0;();(-2000.0, -2000.0);
06:40:30:547;06:40:30:547;0;15;-1.5;1;0;0;0;0;1;1;1;1;06:40:30:515;1447954828.29;(0.32064864635467527, 0.24299155341254342);26.0707416534;1.0;2;0;0;0;0;();(-2000.0, -2000.0);
06:40:30:564;06:40:30:564;0;4;-1.5;1;0;0;0;0;1;1;1;1;06:40:30:554;1447954828.36;(0.32066094875335693, 0.24281438191731775);26.3926334381;1.0;2;0;0;0;0;();(-2000.0, -2000.0);
06:40:30:580;06:40:30:580;0;15;-1.5;1;0;0;0;0;1;1;1;1;06:40:30:554;1447954828.36;(0.32066094875335693, 0.24281438191731775);26.3926334381;1.0;2;0;0;0;0;();(-2000.0, -2000.0);
06:40:30:614;06:40:30:614;0;1;-1.5;1;0;0;0;0;1;1;1;1;06:40:30:554;1447954828.36;(0.32066094875335693, 0.24281438191731775);26.3926334381;1.0;2;0;0;0;0;();(-2000.0, -2000.0);
06:40:30:630;06:40:30:630;0;5;-1.5;1;0;0;0;0;1;1;1;1;06:40:30:554;1447954828.36;(0.32066094875335693, 0.24281438191731775);26.3926334381;1.0;2;0;0;0;0;();(-2000.0, -2000.0);
06:40:30:647;06:40:30:646;0;15;-1.5;1;0;0;0;0;1;1;1;1;06:40:30:638;1447954828.43;(0.3203340768814087, 0.2433409796820747);26.6308956146;1.0;2;0;0;0;0;();(-2000.0, -2000.0);
06:40:30:663;06:40:30:663;0;4;-1.5;1;0;0;0;0;1;1;1;1;06:40:30:638;1447954828.43;(0.3203340768814087, 0.2433409796820747);26.6308956146;1.0;2;0;0;0;0;();(-2000.0, -2000.0);
06:40:30:679;06:40:30:679;0;10;-1.5;1;0;0;0;0;1;1;1;1;06:40:30:638;1447954828.43;(0.3203340768814087, 0.2433409796820747);26.6308956146;1.0;2;0;0;0;0;();(-2000.0, -2000.0);
06:40:30:722;06:40:30:722;0;10;-1.5;1;0;0;0;0;1;1;1;1;06:40:30:638;1447954828.43;(0.3203340768814087, 0.2433409796820747);26.6308956146;1.0;2;0;0;0;0;();(-2000.0, -2000.0);
06:40:30:724;06:40:30:724;0;5;-1.5;1;0;0;0;0;1;1;1;1;06:40:30:723;1447954828.49;(0.3202779293060303, 0.24262729220920143);26.1672420502;1.0;2;0;0;0;0;();(-2000.0, -2000.0);
06:40:30:750;06:40:30:749;0;10;-1.5;1;0;0;0;0;1;1;1;1;06:40:30:723;1447954828.49;(0.3202779293060303, 0.24262729220920143);26.1672420502;1.0;2;0;0;0;0;();(-2000.0, -2000.0);
06:40:30:766;06:40:30:766;0;0;-1.5;1;0;0;0;0;1;1;1;1;06:40:30:762;1447954828.56;(0.3201545238494873, 0.24338328043619795);26.0082969666;1.0;2;0;0;0;0;();(-2000.0, -2000.0);
06:40:30:783;06:40:30:783;0;10;-1.5;1;0;0;0;0;1;1;1;1;06:40:30:762;1447954828.56;(0.3201545238494873, 0.24338328043619795);26.0082969666;1.0;2;0;0;0;0;();(-2000.0, -2000.0);
06:40:30:799;06:40:30:799;0;15;-1.5;1;0;0;0;0;1;1;1;1;06:40:30:762;1447954828.56;(0.3201545238494873, 0.24338328043619795);26.0082969666;1.0;2;0;0;0;0;();(-2000.0, -2000.0);
06:40:30:833;06:40:30:833;0;0;-1.5;1;0;0;0;0;1;1;1;1;06:40:30:762;1447954828.56;(0.3201545238494873, 0.24338328043619795);26.0082969666;1.0;2;0;0;0;0;();(-2000.0, -2000.0);
06:40:30:849;06:40:30:849;0;10;-1.5;1;0;0;0;0;1;1;1;1;06:40:30:846;1447954828.63;(0.32059383392333984, 0.24310616387261286);26.0644702911;1.0;2;0;0;0;0;();(-2000.0, -2000.0);
06:40:30:866;06:40:30:866;0;15;-1.5;1;0;0;0;0;1;1;1;1;06:40:30:846;1447954828.63;(0.32059383392333984, 0.24310616387261286);26.0644702911;1.0;2;0;0;0;0;();(-2000.0, -2000.0);
06:40:30:883;06:40:30:883;0;10;-1.5;1;0;0;0;0;1;1;1;1;06:40:30:846;1447954828.63;(0.32059383392333984, 0.24310616387261286);26.0644702911;1.0;2;0;0;0;0;();(-2000.0, -2000.0);
06:40:30:900;06:40:30:900;0;15;-1.5;1;0;0;0;0;1;1;1;1;06:40:30:846;1447954828.63;(0.32059383392333984, 0.24310616387261286);26.0644702911;1.0;2;0;0;0;0;();(-2000.0, -2000.0);
06:40:30:933;06:40:30:933;0;0;-1.5;1;0;0;0;0;1;1;1;1;06:40:30:930;1447954828.69;(0.3208097219467163, 0.24354841444227426);26.3225631714;1.0;2;0;0;0;0;();(-2000.0, -2000.0);
06:40:30:960;06:40:30:960;0;15;-1.5;1;0;0;0;0;1;1;1;1;06:40:30:930;1447954828.69;(0.3208097219467163, 0.24354841444227426);26.3225631714;1.0;2;0;0;0;0;();(-2000.0, -2000.0);
06:40:30:962;06:40:30:962;0;15;-1.5;1;0;0;0;0;1;1;1;1;06:40:30:930;1447954828.69;(0.3208097219467163, 0.24354841444227426);26.3225631714;1.0;2;0;0;0;0;();(-2000.0, -2000.0);
06:40:30:993;06:40:30:993;0;15;-1.5;1;0;0;0;0;1;1;1;1;06:40:30:970;1447954828.76;(0.32074198722839353, 0.2432686699761285);26.1092586517;1.0;2;0;0;0;0;();(-2000.0, -2000.0);
06:40:31:010;06:40:31:010;0;10;-1.5;1;0;0;0;0;1;1;1;1;06:40:30:970;1447954828.76;(0.32074198722839353, 0.2432686699761285);26.1092586517;1.0;2;0;0;0;0;();(-2000.0, -2000.0);
06:40:31:026;06:40:31:026;0;15;-1.5;1;0;0;0;0;1;1;1;1;06:40:30:970;1447954828.76;(0.32074198722839353, 0.2432686699761285);26.1092586517;1.0;2;0;0;0;0;();(-2000.0, -2000.0);
06:40:31:043;06:40:31:043;0;10;-1.5;1;0;0;0;0;1;1;1;1;06:40:30:970;1447954828.76;(0.32074198722839353, 0.2432686699761285);26.1092586517;1.0;2;0;0;0;0;();(-2000.0, -2000.0);
06:40:31:059;06:40:31:059;0;15;-1.5;1;0;0;0;0;1;1;1;1;06:40:31:054;1447954828.83;(0.32081539630889894, 0.24306725396050344);26.9008178711;1.0;2;0;0;0;0;();(-2000.0, -2000.0);
06:40:31:093;06:40:31:092;0;0;-1.5;1;0;0;0;0;1;1;1;1;06:40:31:054;1447954828.83;(0.32081539630889894, 0.24306725396050344);26.9008178711;1.0;2;0;0;0;0;();(-2000.0, -2000.0);
06:40:31:109;06:40:31:109;0;10;-1.5;1;0;0;0;0;1;1;1;1;06:40:31:054;1447954828.83;(0.32081539630889894, 0.24306725396050344);26.9008178711;1.0;2;0;0;0;0;();(-2000.0, -2000.0);
06:40:31:127;06:40:31:127;0;9;-1.5;1;0;0;0;0;1;1;1;1;06:40:31:054;1447954828.83;(0.32081539630889894, 0.24306725396050344);26.9008178711;1.0;2;0;0;0;0;();(-2000.0, -2000.0);
06:40:31:186;06:40:31:186;0;15;-1.5;1;0;0;0;0;1;1;1;1;06:40:31:180;1447954828.96;(0.32080252170562745, 0.24326731363932297);26.6563987732;1.0;2;0;0;0;0;();(-2000.0, -2000.0);
06:40:31:202;06:40:31:202;0;10;-1.5;1;0;0;0;0;1;1;1;1;06:40:31:180;1447954828.96;(0.32080252170562745, 0.24326731363932297);26.6563987732;1.0;2;0;0;0;0;();(-2000.0, -2000.0);
06:40:31:204;06:40:31:204;0;4;-1.5;1;0;0;0;0;1;1;1;1;06:40:31:180;1447954828.96;(0.32080252170562745, 0.24326731363932297);26.6563987732;1.0;2;0;0;0;0;();(-2000.0, -2000.0);
06:40:31:208;06:40:31:208;0;4;-1.5;1;0;0;0;0;1;1;1;1;06:40:31:180;1447954828.96;(0.32080252170562745, 0.24326731363932297);26.6563987732;1.0;2;0;0;0;0;();(-2000.0, -2000.0);
06:40:31:225;06:40:31:225;0;10;-1.5;1;0;0;0;0;1;1;1;1;06:40:31:180;1447954828.96;(0.32080252170562745, 0.24326731363932297);26.6563987732;1.0;2;0;0;0;0;();(-2000.0, -2000.0);
06:40:31:241;06:40:31:241;0;11;-1.5;1;0;0;0;0;1;1;1;1;06:40:31:180;1447954828.96;(0.32080252170562745, 0.24326731363932297);26.6563987732;1.0;2;0;0;0;0;();(-2000.0, -2000.0);
06:40:31:258;06:40:31:258;0;10;-1.5;1;0;0;0;0;1;1;1;1;06:40:31:180;1447954828.96;(0.32080252170562745, 0.24326731363932297);26.6563987732;1.0;2;0;0;0;0;();(-2000.0, -2000.0);
06:40:31:291;06:40:31:291;0;10;-1.5;1;0;0;0;0;1;1;1;1;06:40:31:263;1447954829.03;(0.3204822063446045, 0.24282302856445315);26.4873809814;1.0;2;0;0;0;0;();(-2000.0, -2000.0);
06:40:31:308;06:40:31:308;0;4;-1.5;1;0;0;0;0;1;1;1;1;06:40:31:303;1447954829.09;(0.32052619457244874, 0.24259406195746525);26.1683368683;1.0;2;0;0;0;0;();(-2000.0, -2000.0);
06:40:31:324;06:40:31:324;0;10;-1.5;1;0;0;0;0;1;1;1;1;06:40:31:303;1447954829.09;(0.32052619457244874, 0.24259406195746525);26.1683368683;1.0;2;0;0;0;0;();(-2000.0, -2000.0);
06:40:31:341;06:40:31:341;0;15;-1.5;1;0;0;0;0;1;1;1;1;06:40:31:303;1447954829.09;(0.32052619457244874, 0.24259406195746525);26.1683368683;1.0;2;0;0;0;0;();(-2000.0, -2000.0);
06:40:31:359;06:40:31:358;0;10;-1.5;1;0;0;0;0;1;1;1;1;06:40:31:303;1447954829.09;(0.32052619457244874, 0.24259406195746525);26.1683368683;1.0;2;0;0;0;0;();(-2000.0, -2000.0);
06:40:31:392;06:40:31:392;0;4;-1.5;1;0;0;0;0;1;1;1;1;06:40:31:387;1447954829.16;(0.32036049365997316, 0.24307971530490446);26.1379299164;1.0;2;0;0;0;0;();(-2000.0, -2000.0);
06:40:31:409;06:40:31:409;0;0;-1.5;1;0;0;0;0;1;1;1;1;06:40:31:387;1447954829.16;(0.32036049365997316, 0.24307971530490446);26.1379299164;1.0;2;0;0;0;0;();(-2000.0, -2000.0);
06:40:31:425;06:40:31:425;0;10;-1.5;1;0;0;0;0;1;1;1;1;06:40:31:387;1447954829.16;(0.32036049365997316, 0.24307971530490446);26.1379299164;1.0;2;0;0;0;0;();(-2000.0, -2000.0);
06:40:31:442;06:40:31:442;0;15;-1.5;1;0;0;0;0;1;1;1;1;06:40:31:426;1447954829.23;(0.3205625057220459, 0.24284032185872395);26.2233772278;1.0;2;0;0;0;0;();(-2000.0, -2000.0);
06:40:31:465;06:40:31:465;0;5;-1.5;1;0;0;0;0;1;1;1;1;06:40:31:426;1447954829.23;(0.3205625057220459, 0.24284032185872395);26.2233772278;1.0;2;0;0;0;0;();(-2000.0, -2000.0);
06:40:31:482;06:40:31:482;0;9;-1.5;1;0;0;0;0;1;1;1;1;06:40:31:426;1447954829.23;(0.3205625057220459, 0.24284032185872395);26.2233772278;1.0;2;0;0;0;0;();(-2000.0, -2000.0);
06:40:31:499;06:40:31:499;0;5;-1.5;1;0;0;0;0;1;1;1;1;06:40:31:426;1447954829.23;(0.3205625057220459, 0.24284032185872395);26.2233772278;1.0;2;0;0;0;0;();(-2000.0, -2000.0);
06:40:31:533;06:40:31:533;0;4;-1.5;1;0;0;0;0;1;1;1;1;06:40:31:510;1447954829.29;(0.32059781551361083, 0.24292356703016493);26.2767333984;1.0;2;0;0;0;0;();(-2000.0, -2000.0);
06:40:31:575;06:40:31:575;0;5;-1.5;1;0;0;0;0;1;1;1;1;06:40:31:510;1447954829.29;(0.32059781551361083, 0.24292356703016493);26.2767333984;1.0;2;0;0;0;0;();(-2000.0, -2000.0);
06:40:31:577;06:40:31:577;0;5;-1.5;1;0;0;0;0;1;1;1;1;06:40:31:510;1447954829.29;(0.32059781551361083, 0.24292356703016493);26.2767333984;1.0;2;0;0;0;0;();(-2000.0, -2000.0);
06:40:31:592;06:40:31:592;0;13;-1.5;1;0;0;0;0;1;1;1;1;06:40:31:510;1447954829.29;(0.32059781551361083, 0.24292356703016493);26.2767333984;1.0;2;0;0;0;0;();(-2000.0, -2000.0);
06:40:31:609;06:40:31:609;0;15;-1.5;1;0;0;0;0;1;1;1;1;06:40:31:594;1447954829.36;(0.32054121494293214, 0.24333479139539926);26.3063831329;1.0;2;0;0;0;0;();(-2000.0, -2000.0);
06:40:31:625;06:40:31:625;0;4;-1.5;1;0;0;0;0;1;1;1;1;06:40:31:594;1447954829.36;(0.32054121494293214, 0.24333479139539926);26.3063831329;1.0;2;0;0;0;0;();(-2000.0, -2000.0);
06:40:31:648;06:40:31:648;0;10;-1.5;1;0;0;0;0;1;1;1;1;06:40:31:635;1447954829.43;(0.3205105781555176, 0.24285193549262152);26.7170963287;1.0;2;0;0;0;0;();(-2000.0, -2000.0);
06:40:31:658;06:40:31:658;0;5;-1.5;1;0;0;0;0;1;1;1;1;06:40:31:635;1447954829.43;(0.3205105781555176, 0.24285193549262152);26.7170963287;1.0;2;0;0;0;0;();(-2000.0, -2000.0);
06:40:31:692;06:40:31:692;0;15;-1.5;1;0;0;0;0;1;1;1;1;06:40:31:635;1447954829.43;(0.3205105781555176, 0.24285193549262152);26.7170963287;1.0;2;0;0;0;0;();(-2000.0, -2000.0);
06:40:31:708;06:40:31:708;0;10;-1.5;1;0;0;0;0;1;1;1;1;06:40:31:635;1447954829.43;(0.3205105781555176, 0.24285193549262152);26.7170963287;1.0;2;0;0;0;0;();(-2000.0, -2000.0);
06:40:31:725;06:40:31:725;0;5;-1.5;1;0;0;0;0;1;1;1;1;06:40:31:718;1447954829.49;(0.32104537487030027, 0.2428302341037326);26.1351413727;0.985250124386;2;0;0;0;0;();(-2000.0, -2000.0);
06:40:31:741;06:40:31:741;0;10;-1.5;1;0;0;0;0;1;1;1;1;06:40:31:718;1447954829.49;(0.32104537487030027, 0.2428302341037326);26.1351413727;0.985250124386;2;0;0;0;0;();(-2000.0, -2000.0);
06:40:31:783;06:40:31:782;0;4;-1.5;1;0;0;0;0;1;1;1;1;06:40:31:758;1447954829.56;(0.32055211067199707, 0.24289940728081594);26.0186786652;1.0;2;0;0;0;0;();(-2000.0, -2000.0);
06:40:31:785;06:40:31:785;0;4;-1.5;1;0;0;0;0;1;1;1;1;06:40:31:758;1447954829.56;(0.32055211067199707, 0.24289940728081594);26.0186786652;1.0;2;0;0;0;0;();(-2000.0, -2000.0);
06:40:31:799;06:40:31:799;0;0;-1.5;1;0;0;0;0;1;1;1;1;06:40:31:758;1447954829.56;(0.32055211067199707, 0.24289940728081594);26.0186786652;1.0;2;0;0;0;0;();(-2000.0, -2000.0);
06:40:31:833;06:40:31:833;0;9;-1.5;1;0;0;0;0;1;1;1;1;06:40:31:758;1447954829.56;(0.32055211067199707, 0.24289940728081594);26.0186786652;1.0;2;0;0;0;0;();(-2000.0, -2000.0);
06:40:31:849;06:40:31:849;0;4;-1.5;1;0;0;0;0;1;1;1;1;06:40:31:843;1447954829.63;(0.3205507040023804, 0.24307734171549478);25.8326320648;1.0;2;0;0;0;0;();(-2000.0, -2000.0);
06:40:31:866;06:40:31:866;0;10;-1.5;1;0;0;0;0;1;1;1;1;06:40:31:843;1447954829.63;(0.3205507040023804, 0.24307734171549478);25.8326320648;1.0;2;0;0;0;0;();(-2000.0, -2000.0);
06:40:31:883;06:40:31:882;0;15;-1.5;1;0;0;0;0;1;1;1;1;06:40:31:843;1447954829.63;(0.3205507040023804, 0.24307734171549478);25.8326320648;1.0;2;0;0;0;0;();(-2000.0, -2000.0);
06:40:31:899;06:40:31:899;0;10;-1.5;1;0;0;0;0;1;1;1;1;06:40:31:843;1447954829.63;(0.3205507040023804, 0.24307734171549478);25.8326320648;1.0;2;0;0;0;0;();(-2000.0, -2000.0);
06:40:31:932;06:40:31:932;0;10;-1.5;1;0;0;0;0;1;1;1;1;06:40:31:926;1447954829.69;(0.32053961753845217, 0.24328545464409723);26.1725788116;1.0;2;0;0;0;0;();(-2000.0, -2000.0);
06:40:31:949;06:40:31:948;0;8;-1.5;1;0;0;0;0;1;1;1;1;06:40:31:926;1447954829.69;(0.32053961753845217, 0.24328545464409723);26.1725788116;1.0;2;0;0;0;0;();(-2000.0, -2000.0);
06:40:31:965;06:40:31:965;0;10;-1.5;1;0;0;0;0;1;1;1;1;06:40:31:926;1447954829.69;(0.32053961753845217, 0.24328545464409723);26.1725788116;1.0;2;0;0;0;0;();(-2000.0, -2000.0);
06:40:31:998;06:40:31:998;0;4;-1.5;1;0;0;0;0;1;1;1;1;06:40:31:967;1447954829.76;(0.3206195831298828, 0.24334191216362844);26.5288448334;1.0;4;0;0;0;0;();(-2000.0, -2000.0);
06:40:32:010;06:40:32:010;0;4;-1.5;1;0;0;0;0;1;1;1;1;06:40:31:967;1447954829.76;(0.3206195831298828, 0.24334191216362844);26.5288448334;1.0;4;0;0;0;0;();(-2000.0, -2000.0);
06:40:32:028;06:40:32:028;0;9;-1.5;1;0;0;0;0;1;1;1;1;06:40:31:967;1447954829.76;(0.3206195831298828, 0.24334191216362844);26.5288448334;1.0;4;0;0;0;0;();(-2000.0, -2000.0);
06:40:32:045;06:40:32:045;0;5;-1.5;1;0;0;0;0;1;1;1;1;06:40:31:967;1447954829.76;(0.3206195831298828, 0.24334191216362844);26.5288448334;1.0;4;0;0;0;0;();(-2000.0, -2000.0);
06:40:32:061;06:40:32:061;0;10;-1.5;1;0;0;0;0;1;1;1;1;06:40:32:050;1447954829.83;(0.320879864692688, 0.24341371324327254);26.4760112762;1.0;4;0;0;0;0;();(-2000.0, -2000.0);
06:40:32:078;06:40:32:078;0;4;-1.5;1;0;0;0;0;1;1;1;1;06:40:32:050;1447954829.83;(0.320879864692688, 0.24341371324327254);26.4760112762;1.0;4;0;0;0;0;();(-2000.0, -2000.0);
06:40:32:111;06:40:32:111;0;5;-1.5;1;0;0;0;0;1;1;1;1;06:40:32:090;1447954829.89;(0.3203336954116821, 0.24278818766276045);26.8207817078;1.0;4;0;0;0;0;();(-2000.0, -2000.0);
06:40:32:128;06:40:32:127;0;9;-1.5;1;0;0;0;0;1;1;1;1;06:40:32:090;1447954829.89;(0.3203336954116821, 0.24278818766276045);26.8207817078;1.0;4;0;0;0;0;();(-2000.0, -2000.0);
06:40:32:145;06:40:32:145;0;15;-1.5;1;0;0;0;0;1;1;1;1;06:40:32:090;1447954829.89;(0.3203336954116821, 0.24278818766276045);26.8207817078;1.0;4;0;0;0;0;();(-2000.0, -2000.0);
06:40:32:160;06:40:32:160;0;10;-1.5;1;0;0;0;0;1;1;1;1;06:40:32:090;1447954829.89;(0.3203336954116821, 0.24278818766276045);26.8207817078;1.0;4;0;0;0;0;();(-2000.0, -2000.0);
06:40:32:177;06:40:32:177;0;15;-1.5;1;0;0;0;0;1;1;1;1;06:40:32:174;1447954829.96;(0.3203148365020752, 0.24318661159939237);26.0785236359;1.0;4;0;0;0;0;();(-2000.0, -2000.0);
06:40:32:218;06:40:32:218;0;0;-1.5;1;0;0;0;0;1;1;1;1;06:40:32:174;1447954829.96;(0.3203148365020752, 0.24318661159939237);26.0785236359;1.0;4;0;0;0;0;();(-2000.0, -2000.0);
06:40:32:220;06:40:32:220;0;10;-1.5;1;0;0;0;0;1;1;1;1;06:40:32:174;1447954829.96;(0.3203148365020752, 0.24318661159939237);26.0785236359;1.0;4;0;0;0;0;();(-2000.0, -2000.0);
06:40:32:251;06:40:32:251;0;9;-1.5;1;0;0;0;0;1;1;1;1;06:40:32:174;1447954829.96;(0.3203148365020752, 0.24318661159939237);26.0785236359;1.0;4;0;0;0;0;();(-2000.0, -2000.0);
06:40:32:268;06:40:32:267;0;7;-1.5;1;0;0;0;0;1;1;1;1;06:40:32:258;1447954830.03;(0.32062573432922364, 0.24283447265625002);26.0307884216;1.0;4;0;0;0;0;();(-2000.0, -2000.0);
06:40:32:284;06:40:32:284;0;10;-1.5;1;0;0;0;0;1;1;1;1;06:40:32:258;1447954830.03;(0.32062573432922364, 0.24283447265625002);26.0307884216;1.0;4;0;0;0;0;();(-2000.0, -2000.0);
06:40:32:301;06:40:32:301;0;5;-1.5;1;0;0;0;0;1;1;1;1;06:40:32:298;1447954830.09;(0.32065322399139407, 0.2425208197699653);26.0920352936;1.0;4;0;0;0;0;();(-2000.0, -2000.0);
06:40:32:317;06:40:32:317;0;9;-1.5;1;0;0;0;0;1;1;1;1;06:40:32:298;1447954830.09;(0.32065322399139407, 0.2425208197699653);26.0920352936;1.0;4;0;0;0;0;();(-2000.0, -2000.0);
06:40:32:350;06:40:32:350;0;4;-1.5;1;0;0;0;0;1;1;1;1;06:40:32:298;1447954830.09;(0.32065322399139407, 0.2425208197699653);26.0920352936;1.0;4;0;0;0;0;();(-2000.0, -2000.0);
06:40:32:367;06:40:32:367;0;0;-1.5;1;0;0;0;0;1;1;1;1;06:40:32:298;1447954830.09;(0.32065322399139407, 0.2425208197699653);26.0920352936;1.0;4;0;0;0;0;();(-2000.0, -2000.0);
06:40:32:384;06:40:32:384;0;10;-1.5;1;0;0;0;0;1;1;1;1;06:40:32:383;1447954830.16;(0.32086637020111086, 0.24291203816731766);26.8831348419;1.0;4;0;0;0;0;();(-2000.0, -2000.0);
06:40:32:421;06:40:32:421;0;4;-1.5;1;0;0;0;0;1;1;1;1;06:40:32:383;1447954830.16;(0.32086637020111086, 0.24291203816731766);26.8831348419;1.0;4;0;0;0;0;();(-2000.0, -2000.0);
06:40:32:434;06:40:32:434;0;4;-1.5;1;0;0;0;0;1;1;1;1;06:40:32:383;1447954830.16;(0.32086637020111086, 0.24291203816731766);26.8831348419;1.0;4;0;0;0;0;();(-2000.0, -2000.0);
06:40:32:439;06:40:32:439;0;4;-1.5;1;0;0;0;0;1;1;1;1;06:40:32:383;1447954830.16;(0.32086637020111086, 0.24291203816731766);26.8831348419;1.0;4;0;0;0;0;();(-2000.0, -2000.0);
06:40:32:465;06:40:32:465;0;15;-1.5;1;0;0;0;0;1;1;1;1;06:40:32:462;1447954830.23;(0.32093851566314696, 0.24287117852105033);26.4681491852;1.0;4;0;0;0;0;();(-2000.0, -2000.0);
06:40:32:482;06:40:32:481;0;9;-1.5;1;0;0;0;0;1;1;1;1;06:40:32:462;1447954830.23;(0.32093851566314696, 0.24287117852105033);26.4681491852;1.0;4;0;0;0;0;();(-2000.0, -2000.0);
06:40:32:498;06:40:32:498;0;15;-1.5;1;0;0;0;0;1;1;1;1;06:40:32:462;1447954830.23;(0.32093851566314696, 0.24287117852105033);26.4681491852;1.0;4;0;0;0;0;();(-2000.0, -2000.0);
06:40:32:531;06:40:32:531;0;0;-1.5;1;0;0;0;0;1;1;1;1;06:40:32:506;1447954830.29;(0.32074296474456787, 0.24326332939995665);26.4813632965;1.0;4;0;0;0;0;();(-2000.0, -2000.0);
06:40:32:547;06:40:32:547;0;10;-1.5;1;0;0;0;0;1;1;1;1;06:40:32:506;1447954830.29;(0.32074296474456787, 0.24326332939995665);26.4813632965;1.0;4;0;0;0;0;();(-2000.0, -2000.0);
06:40:32:564;06:40:32:564;0;15;-1.5;1;0;0;0;0;1;1;1;1;06:40:32:506;1447954830.29;(0.32074296474456787, 0.24326332939995665);26.4813632965;1.0;4;0;0;0;0;();(-2000.0, -2000.0);
06:40:32:581;06:40:32:581;0;9;-1.5;1;0;0;0;0;1;1;1;1;06:40:32:506;1447954830.29;(0.32074296474456787, 0.24326332939995665);26.4813632965;1.0;4;0;0;0;0;();(-2000.0, -2000.0);
06:40:32:597;06:40:32:597;0;0;-1.5;1;0;0;0;0;1;1;1;1;06:40:32:586;1447954830.36;(0.3205044984817505, 0.2427611456976997);26.5850944519;1.0;4;0;0;0;0;();(-2000.0, -2000.0);
06:40:32:627;06:40:32:627;0;15;-1.5;1;0;0;0;0;1;1;1;1;06:40:32:586;1447954830.36;(0.3205044984817505, 0.2427611456976997);26.5850944519;1.0;4;0;0;0;0;();(-2000.0, -2000.0);
06:40:32:644;06:40:32:644;0;4;-1.5;1;0;0;0;0;1;1;1;1;06:40:32:631;1447954830.43;(0.32073078155517576, 0.24330478244357634);26.8415412903;1.0;4;0;0;0;0;();(-2000.0, -2000.0);
06:40:32:661;06:40:32:661;0;15;-1.5;1;0;0;0;0;1;1;1;1;06:40:32:631;1447954830.43;(0.32073078155517576, 0.24330478244357634);26.8415412903;1.0;4;0;0;0;0;();(-2000.0, -2000.0);
06:40:32:678;06:40:32:678;0;4;-1.5;1;0;0;0;0;1;1;1;1;06:40:32:631;1447954830.43;(0.32073078155517576, 0.24330478244357634);26.8415412903;1.0;4;0;0;0;0;();(-2000.0, -2000.0);
06:40:32:711;06:40:32:711;0;4;-1.5;1;0;0;0;0;1;1;1;1;06:40:32:631;1447954830.43;(0.32073078155517576, 0.24330478244357634);26.8415412903;1.0;4;0;0;0;0;();(-2000.0, -2000.0);
06:40:32:727;06:40:32:727;0;15;-1.5;1;0;0;0;0;1;1;1;1;06:40:32:715;1447954830.49;(0.3207858085632324, 0.24283125135633676);26.8318004608;1.0;4;0;0;0;0;();(-2000.0, -2000.0);
06:40:32:744;06:40:32:744;0;4;-1.5;1;0;0;0;0;1;1;1;1;06:40:32:715;1447954830.49;(0.3207858085632324, 0.24283125135633676);26.8318004608;1.0;4;0;0;0;0;();(-2000.0, -2000.0);
06:40:32:767;06:40:32:767;0;9;-1.5;1;0;0;0;0;1;1;1;1;06:40:32:754;1447954830.56;(0.320693826675415, 0.24274919297960074);26.4172382355;1.0;4;0;0;0;0;();(-2000.0, -2000.0);
06:40:32:784;06:40:32:784;0;15;-1.5;1;0;0;0;0;1;1;1;1;06:40:32:754;1447954830.56;(0.320693826675415, 0.24274919297960074);26.4172382355;1.0;4;0;0;0;0;();(-2000.0, -2000.0);
06:40:32:801;06:40:32:801;0;13;-1.5;1;0;0;0;0;1;1;1;1;06:40:32:754;1447954830.56;(0.320693826675415, 0.24274919297960074);26.4172382355;1.0;4;0;0;0;0;();(-2000.0, -2000.0);
06:40:32:835;06:40:32:835;0;10;-1.5;1;0;0;0;0;1;1;1;1;06:40:32:754;1447954830.56;(0.320693826675415, 0.24274919297960074);26.4172382355;1.0;4;0;0;0;0;();(-2000.0, -2000.0);
06:40:32:852;06:40:32:852;0;4;-1.5;1;0;0;0;0;1;1;1;1;06:40:32:838;1447954830.63;(0.3206716299057007, 0.24300520155164929);26.6450996399;1.0;4;0;0;0;0;();(-2000.0, -2000.0);
06:40:32:868;06:40:32:868;0;4;-1.5;1;0;0;0;0;1;1;1;1;06:40:32:838;1447954830.63;(0.3206716299057007, 0.24300520155164929);26.6450996399;1.0;4;0;0;0;0;();(-2000.0, -2000.0);
06:40:32:885;06:40:32:885;0;15;-1.5;1;0;0;0;0;1;1;1;1;06:40:32:838;1447954830.63;(0.3206716299057007, 0.24300520155164929);26.6450996399;1.0;4;0;0;0;0;();(-2000.0, -2000.0);
06:40:32:901;06:40:32:901;0;4;-1.5;1;0;0;0;0;1;1;1;1;06:40:32:838;1447954830.63;(0.3206716299057007, 0.24300520155164929);26.6450996399;1.0;4;0;0;0;0;();(-2000.0, -2000.0);
06:40:32:918;06:40:32:918;0;15;-1.5;1;0;0;0;0;1;1;1;1;06:40:32:838;1447954830.63;(0.3206716299057007, 0.24300520155164929);26.6450996399;1.0;4;0;0;0;0;();(-2000.0, -2000.0);
06:40:32:951;06:40:32:951;0;9;-1.5;1;0;0;0;0;1;1;1;1;06:40:32:919;1447954830.69;(0.32067945003509524, 0.24310124715169268);26.4597530365;1.0;4;0;0;0;0;();(-2000.0, -2000.0);
06:40:32:967;06:40:32:967;0;4;-1.5;1;0;0;0;0;1;1;1;1;06:40:32:962;1447954830.76;(0.32061550617218015, 0.24257651435004335);26.5380477905;1.0;4;0;0;0;0;();(-2000.0, -2000.0);
06:40:32:984;06:40:32:984;0;6;-1.5;1;0;0;0;0;1;1;1;1;06:40:32:962;1447954830.76;(0.32061550617218015, 0.24257651435004335);26.5380477905;1.0;4;0;0;0;0;();(-2000.0, -2000.0);
06:40:33:001;06:40:33:001;0;5;-1.5;1;0;0;0;0;1;1;1;1;06:40:32:962;1447954830.76;(0.32061550617218015, 0.24257651435004335);26.5380477905;1.0;4;0;0;0;0;();(-2000.0, -2000.0);
06:40:33:017;06:40:33:017;0;15;-1.5;1;0;0;0;0;1;1;1;1;06:40:32:962;1447954830.76;(0.32061550617218015, 0.24257651435004335);26.5380477905;1.0;4;0;0;0;0;();(-2000.0, -2000.0);
06:40:33:043;06:40:33:043;0;15;-1.5;1;0;0;0;0;1;1;1;1;06:40:32:962;1447954830.76;(0.32061550617218015, 0.24257651435004335);26.5380477905;1.0;4;0;0;0;0;();(-2000.0, -2000.0);
06:40:33:062;06:40:33:062;0;5;-1.5;1;0;0;0;0;1;1;1;1;06:40:33:047;1447954830.83;(0.3203488826751709, 0.24306301540798614);26.5556182861;1.0;4;0;0;0;0;();(-2000.0, -2000.0);
06:40:33:080;06:40:33:080;0;0;-1.5;1;0;0;0;0;1;1;1;1;06:40:33:047;1447954830.83;(0.3203488826751709, 0.24306301540798614);26.5556182861;1.0;4;0;0;0;0;();(-2000.0, -2000.0);
06:40:33:112;06:40:33:112;0;10;-1.5;1;0;0;0;0;1;1;1;1;06:40:33:047;1447954830.83;(0.3203488826751709, 0.24306301540798614);26.5556182861;1.0;4;0;0;0;0;();(-2000.0, -2000.0);
06:40:33:128;06:40:33:128;0;10;-1.5;1;0;0;0;0;1;1;1;1;06:40:33:128;1447954830.89;(0.32068893909454343, 0.24343609280056422);26.3528156281;1.0;4;0;0;0;0;();(-2000.0, -2000.0);
06:40:33:145;06:40:33:145;0;9;-1.5;1;0;0;0;0;1;1;1;1;06:40:33:128;1447954830.89;(0.32068893909454343, 0.24343609280056422);26.3528156281;1.0;4;0;0;0;0;();(-2000.0, -2000.0);
06:40:33:161;06:40:33:161;0;5;-1.5;1;0;0;0;0;1;1;1;1;06:40:33:128;1447954830.89;(0.32068893909454343, 0.24343609280056422);26.3528156281;1.0;4;0;0;0;0;();(-2000.0, -2000.0);
06:40:33:184;06:40:33:184;0;10;-1.5;1;0;0;0;0;1;1;1;1;06:40:33:170;1447954830.96;(0.3205463171005249, 0.2431182861328125);26.0099391937;1.0;4;0;0;0;0;();(-2000.0, -2000.0);
06:40:33:203;06:40:33:203;0;0;-1.5;1;0;0;0;0;1;1;1;1;06:40:33:170;1447954830.96;(0.3205463171005249, 0.2431182861328125);26.0099391937;1.0;4;0;0;0;0;();(-2000.0, -2000.0);
06:40:33:220;06:40:33:220;0;9;-1.5;1;0;0;0;0;1;1;1;1;06:40:33:170;1447954830.96;(0.3205463171005249, 0.2431182861328125);26.0099391937;1.0;4;0;0;0;0;();(-2000.0, -2000.0);
06:40:33:252;06:40:33:252;0;5;-1.5;1;0;0;0;0;1;1;1;1;06:40:33:251;1447954831.03;(0.320641303062439, 0.242734612358941);25.8368377686;1.0;4;0;0;0;0;();(-2000.0, -2000.0);
06:40:33:270;06:40:33:270;0;15;-1.5;1;0;0;0;0;1;1;1;1;06:40:33:251;1447954831.03;(0.320641303062439, 0.242734612358941);25.8368377686;1.0;4;0;0;0;0;();(-2000.0, -2000.0);
06:40:33:287;06:40:33:287;0;4;-1.5;1;0;0;0;0;1;1;1;1;06:40:33:251;1447954831.03;(0.320641303062439, 0.242734612358941);25.8368377686;1.0;4;0;0;0;0;();(-2000.0, -2000.0);
06:40:33:304;06:40:33:304;0;15;-1.5;1;0;0;0;0;1;1;1;1;06:40:33:294;1447954831.09;(0.32077794075012206, 0.24281684027777772);26.0571727753;1.0;4;0;0;0;0;();(-2000.0, -2000.0);
06:40:33:321;06:40:33:321;0;5;-1.5;1;0;0;0;0;1;1;1;1;06:40:33:294;1447954831.09;(0.32077794075012206, 0.24281684027777772);26.0571727753;1.0;4;0;0;0;0;();(-2000.0, -2000.0);
06:40:33:337;06:40:33:337;0;10;-1.5;1;0;0;0;0;1;1;1;1;06:40:33:294;1447954831.09;(0.32077794075012206, 0.24281684027777772);26.0571727753;1.0;4;0;0;0;0;();(-2000.0, -2000.0);
06:40:33:370;06:40:33:370;0;10;-1.5;1;0;0;0;0;1;1;1;1;06:40:33:294;1447954831.09;(0.32077794075012206, 0.24281684027777772);26.0571727753;1.0;4;0;0;0;0;();(-2000.0, -2000.0);
06:40:33:387;06:40:33:387;0;4;-1.5;1;0;0;0;0;1;1;1;1;06:40:33:378;1447954831.16;(0.320772647857666, 0.24299935234917536);26.2818145752;1.0;4;0;0;0;0;();(-2000.0, -2000.0);
06:40:33:409;06:40:33:409;0;10;-1.5;1;0;0;0;0;1;1;1;1;06:40:33:378;1447954831.16;(0.320772647857666, 0.24299935234917536);26.2818145752;1.0;4;0;0;0;0;();(-2000.0, -2000.0);
06:40:33:427;06:40:33:427;0;15;-1.5;1;0;0;0;0;1;1;1;1;06:40:33:378;1447954831.16;(0.320772647857666, 0.24299935234917536);26.2818145752;1.0;4;0;0;0;0;();(-2000.0, -2000.0);
06:40:33:470;06:40:33:470;0;9;-1.5;1;0;0;0;0;1;1;1;1;06:40:33:458;1447954831.23;(0.3207249164581299, 0.24338743421766496);26.3774299622;1.0;4;0;0;0;0;();(-2000.0, -2000.0);
06:40:33:473;06:40:33:472;0;9;-1.5;1;0;0;0;0;1;1;1;1;06:40:33:458;1447954831.23;(0.3207249164581299, 0.24338743421766496);26.3774299622;1.0;4;0;0;0;0;();(-2000.0, -2000.0);
06:40:33:487;06:40:33:487;0;0;-1.5;1;0;0;0;0;1;1;1;1;06:40:33:458;1447954831.23;(0.3207249164581299, 0.24338743421766496);26.3774299622;1.0;4;0;0;0;0;();(-2000.0, -2000.0);
06:40:33:503;06:40:33:503;0;10;-1.5;1;0;0;0;0;1;1;1;1;06:40:33:503;1447954831.29;(0.32097673416137695, 0.24273189968532982);26.491765976;1.0;4;0;0;0;0;();(-2000.0, -2000.0);
06:40:33:520;06:40:33:520;0;0;-1.5;1;0;0;0;0;1;1;1;1;06:40:33:503;1447954831.29;(0.32097673416137695, 0.24273189968532982);26.491765976;1.0;4;0;0;0;0;();(-2000.0, -2000.0);
06:40:33:553;06:40:33:553;0;0;-1.5;1;0;0;0;0;1;1;1;1;06:40:33:503;1447954831.29;(0.32097673416137695, 0.24273189968532982);26.491765976;1.0;4;0;0;0;0;();(-2000.0, -2000.0);
06:40:33:569;06:40:33:569;0;10;-1.5;1;0;0;0;0;1;1;1;1;06:40:33:503;1447954831.29;(0.32097673416137695, 0.24273189968532982);26.491765976;1.0;4;0;0;0;0;();(-2000.0, -2000.0);
06:40:33:586;06:40:33:586;0;15;-1.5;1;0;0;0;0;1;1;1;1;06:40:33:582;1447954831.36;(0.32090067863464355, 0.242747328016493);26.7656040192;1.0;4;0;0;0;0;();(-2000.0, -2000.0);
06:40:33:603;06:40:33:602;0;10;-1.5;1;0;0;0;0;1;1;1;1;06:40:33:582;1447954831.36;(0.32090067863464355, 0.242747328016493);26.7656040192;1.0;4;0;0;0;0;();(-2000.0, -2000.0);
06:40:33:619;06:40:33:619;0;15;-1.5;1;0;0;0;0;1;1;1;1;06:40:33:582;1447954831.36;(0.32090067863464355, 0.242747328016493);26.7656040192;1.0;4;0;0;0;0;();(-2000.0, -2000.0);
06:40:33:662;06:40:33:662;0;10;-1.5;1;0;0;0;0;1;1;1;1;06:40:33:582;1447954831.36;(0.32090067863464355, 0.242747328016493);26.7656040192;1.0;4;0;0;0;0;();(-2000.0, -2000.0);
06:40:33:665;06:40:33:665;0;2;-1.5;1;0;0;0;0;1;1;1;1;06:40:33:582;1447954831.36;(0.32090067863464355, 0.242747328016493);26.7656040192;1.0;4;0;0;0;0;();(-2000.0, -2000.0);
06:40:33:679;06:40:33:679;0;0;-1.5;1;0;0;0;0;1;1;1;1;06:40:33:666;1447954831.43;(0.3205702543258667, 0.24291305541992192);26.1775627136;1.0;4;0;0;0;0;();(-2000.0, -2000.0);
06:40:33:706;06:40:33:706;0;4;-1.5;1;0;0;0;0;1;1;1;1;06:40:33:666;1447954831.43;(0.3205702543258667, 0.24291305541992192);26.1775627136;1.0;4;0;0;0;0;();(-2000.0, -2000.0);
06:40:33:723;06:40:33:723;0;10;-1.5;1;0;0;0;0;1;1;1;1;06:40:33:707;1447954831.49;(0.3207738161087036, 0.24306844075520828);26.6314334869;1.0;4;0;0;0;0;();(-2000.0, -2000.0);
06:40:33:739;06:40:33:739;0;15;-1.5;1;0;0;0;0;1;1;1;1;06:40:33:707;1447954831.49;(0.3207738161087036, 0.24306844075520828);26.6314334869;1.0;4;0;0;0;0;();(-2000.0, -2000.0);
06:40:33:773;06:40:33:772;0;15;-1.5;1;0;0;0;0;1;1;1;1;06:40:33:707;1447954831.49;(0.3207738161087036, 0.24306844075520828);26.6314334869;1.0;4;0;0;0;0;();(-2000.0, -2000.0);
06:40:33:789;06:40:33:789;0;10;-1.5;1;0;0;0;0;1;1;1;1;06:40:33:707;1447954831.49;(0.3207738161087036, 0.24306844075520828);26.6314334869;1.0;4;0;0;0;0;();(-2000.0, -2000.0);
06:40:33:806;06:40:33:806;0;5;-1.5;1;0;0;0;0;1;1;1;1;06:40:33:790;1447954831.56;(0.32069756984710696, 0.24290618896484373);25.9567909241;1.0;4;0;0;0;0;();(-2000.0, -2000.0);
06:40:33:822;06:40:33:822;0;10;-1.5;1;0;0;0;0;1;1;1;1;06:40:33:790;1447954831.56;(0.32069756984710696, 0.24290618896484373);25.9567909241;1.0;4;0;0;0;0;();(-2000.0, -2000.0);
06:40:33:839;06:40:33:839;0;15;-1.5;1;0;0;0;0;1;1;1;1;06:40:33:834;1447954831.63;(0.3206380844116211, 0.24283125135633676);26.4876365662;1.0;4;0;0;0;0;();(-2000.0, -2000.0);
06:40:33:869;06:40:33:869;0;0;-1.5;1;0;0;0;0;1;1;1;1;06:40:33:834;1447954831.63;(0.3206380844116211, 0.24283125135633676);26.4876365662;1.0;4;0;0;0;0;();(-2000.0, -2000.0);
06:40:33:887;06:40:33:887;0;5;-1.5;1;0;0;0;0;1;1;1;1;06:40:33:834;1447954831.63;(0.3206380844116211, 0.24283125135633676);26.4876365662;1.0;4;0;0;0;0;();(-2000.0, -2000.0);
06:40:33:904;06:40:33:904;0;15;-1.5;1;0;0;0;0;1;1;1;1;06:40:33:834;1447954831.63;(0.3206380844116211, 0.24283125135633676);26.4876365662;1.0;4;0;0;0;0;();(-2000.0, -2000.0);
06:40:33:920;06:40:33:920;0;4;-1.5;1;0;0;0;0;1;1;1;1;06:40:33:914;1447954831.69;(0.32066256999969484, 0.2425971984863281);26.543636322;1.0;4;0;0;0;0;();(-2000.0, -2000.0);
06:40:33:963;06:40:33:953;0;4;-1.5;1;0;0;0;0;1;1;1;1;06:40:33:914;1447954831.69;(0.32066256999969484, 0.2425971984863281);26.543636322;1.0;4;0;0;0;0;();(-2000.0, -2000.0);
06:40:33:976;06:40:33:976;0;10;-1.5;1;0;0;0;0;1;1;1;1;06:40:33:963;1447954831.76;(0.3208388566970825, 0.2429721408420139);26.2705383301;1.0;4;0;0;0;0;();(-2000.0, -2000.0);
06:40:33:994;06:40:33:994;0;5;-1.5;1;0;0;0;0;1;1;1;1;06:40:33:963;1447954831.76;(0.3208388566970825, 0.2429721408420139);26.2705383301;1.0;4;0;0;0;0;();(-2000.0, -2000.0);
06:40:34:011;06:40:34:010;0;9;-1.5;1;0;0;0;0;1;1;1;1;06:40:33:963;1447954831.76;(0.3208388566970825, 0.2429721408420139);26.2705383301;1.0;4;0;0;0;0;();(-2000.0, -2000.0);
06:40:34:027;06:40:34:027;0;0;-1.5;1;0;0;0;0;1;1;1;1;06:40:33:963;1447954831.76;(0.3208388566970825, 0.2429721408420139);26.2705383301;1.0;4;0;0;0;0;();(-2000.0, -2000.0);
06:40:34:044;06:40:34:044;0;10;-1.5;1;0;0;0;0;1;1;1;1;06:40:34:039;1447954831.83;(0.32027554512023926, 0.2426693386501736);26.3991279602;1.0;4;0;0;0;0;();(-2000.0, -2000.0);
06:40:34:076;06:40:34:076;0;10;-1.5;1;0;0;0;0;1;1;1;1;06:40:34:039;1447954831.83;(0.32027554512023926, 0.2426693386501736);26.3991279602;1.0;4;0;0;0;0;();(-2000.0, -2000.0);
06:40:34:092;06:40:34:092;0;15;-1.5;1;0;0;0;0;1;1;1;1;06:40:34:039;1447954831.83;(0.32027554512023926, 0.2426693386501736);26.3991279602;1.0;4;0;0;0;0;();(-2000.0, -2000.0);
06:40:34:109;06:40:34:109;0;9;-1.5;1;0;0;0;0;1;1;1;1;06:40:34:039;1447954831.83;(0.32027554512023926, 0.2426693386501736);26.3991279602;1.0;4;0;0;0;0;();(-2000.0, -2000.0);
06:40:34:126;06:40:34:126;0;5;-1.5;1;0;0;0;0;1;1;1;1;06:40:34:122;1447954831.89;(0.32089316844940186, 0.24301952785915804);26.820110321;1.0;4;0;0;0;0;();(-2000.0, -2000.0);
06:40:34:142;06:40:34:142;0;5;-1.5;1;0;0;0;0;1;1;1;1;06:40:34:122;1447954831.89;(0.32089316844940186, 0.24301952785915804);26.820110321;1.0;4;0;0;0;0;();(-2000.0, -2000.0);
06:40:34:158;06:40:34:158;0;15;-1.5;1;0;0;0;0;1;1;1;1;06:40:34:122;1447954831.89;(0.32089316844940186, 0.24301952785915804);26.820110321;1.0;4;0;0;0;0;();(-2000.0, -2000.0);
06:40:34:192;06:40:34:192;0;15;-1.5;1;0;0;0;0;1;1;1;1;06:40:34:167;1447954831.96;(0.3206232786178589, 0.24318050808376734);26.2628288269;1.0;4;0;0;0;0;();(-2000.0, -2000.0);
06:40:34:216;06:40:34:216;0;4;-1.5;1;0;0;0;0;1;1;1;1;06:40:34:167;1447954831.96;(0.3206232786178589, 0.24318050808376734);26.2628288269;1.0;4;0;0;0;0;();(-2000.0, -2000.0);
06:40:34:233;06:40:34:233;0;15;-1.5;1;0;0;0;0;1;1;1;1;06:40:34:167;1447954831.96;(0.3206232786178589, 0.24318050808376734);26.2628288269;1.0;4;0;0;0;0;();(-2000.0, -2000.0);
06:40:34:250;06:40:34:250;0;4;-1.5;1;0;0;0;0;1;1;1;1;06:40:34:247;1447954832.03;(0.3205979108810425, 0.24316914876302087);26.3412246704;1.0;4;0;0;0;0;();(-2000.0, -2000.0);
06:40:34:281;06:40:34:281;0;5;-1.5;1;0;0;0;0;1;1;1;1;06:40:34:247;1447954832.03;(0.3205979108810425, 0.24316914876302087);26.3412246704;1.0;4;0;0;0;0;();(-2000.0, -2000.0);
06:40:34:284;06:40:34:283;0;5;-1.5;1;0;0;0;0;1;1;1;1;06:40:34:247;1447954832.03;(0.3205979108810425, 0.24316914876302087);26.3412246704;1.0;4;0;0;0;0;();(-2000.0, -2000.0);
06:40:34:300;06:40:34:299;0;10;-1.5;1;0;0;0;0;1;1;1;1;06:40:34:290;1447954832.09;(0.32050466537475586, 0.24302605523003473);26.5984230042;1.0;4;0;0;0;0;();(-2000.0, -2000.0);
06:40:34:333;06:40:34:333;0;9;-1.5;1;0;0;0;0;1;1;1;1;06:40:34:290;1447954832.09;(0.32050466537475586, 0.24302605523003473);26.5984230042;1.0;4;0;0;0;0;();(-2000.0, -2000.0);
06:40:34:349;06:40:34:349;0;0;-1.5;1;0;0;0;0;1;1;1;1;06:40:34:290;1447954832.09;(0.32050466537475586, 0.24302605523003473);26.5984230042;1.0;4;0;0;0;0;();(-2000.0, -2000.0);
06:40:34:366;06:40:34:366;0;10;-1.5;1;0;0;0;0;1;1;1;1;06:40:34:290;1447954832.09;(0.32050466537475586, 0.24302605523003473);26.5984230042;1.0;4;0;0;0;0;();(-2000.0, -2000.0);
06:40:34:383;06:40:34:382;0;5;-1.5;1;0;0;0;0;1;1;1;1;06:40:34:370;1447954832.16;(0.3208251714706421, 0.2426341586642795);25.9450588226;1.0;4;0;0;0;0;();(-2000.0, -2000.0);
06:40:34:399;06:40:34:399;0;10;-1.5;1;0;0;0;0;1;1;1;1;06:40:34:370;1447954832.16;(0.3208251714706421, 0.2426341586642795);25.9450588226;1.0;4;0;0;0;0;();(-2000.0, -2000.0);
06:40:34:420;06:40:34:420;0;15;-1.5;1;0;0;0;0;1;1;1;1;06:40:34:370;1447954832.16;(0.3208251714706421, 0.2426341586642795);25.9450588226;1.0;4;0;0;0;0;();(-2000.0, -2000.0);
06:40:34:448;06:40:34:448;0;0;-1.5;1;0;0;0;0;1;1;1;1;06:40:34:370;1447954832.16;(0.3208251714706421, 0.2426341586642795);25.9450588226;1.0;4;0;0;0;0;();(-2000.0, -2000.0);
06:40:34:466;06:40:34:466;0;4;-1.5;1;0;0;0;0;1;1;1;1;06:40:34:454;1447954832.23;(0.32067389488220216, 0.2428656684027778);25.8447933197;1.0;4;0;0;0;0;();(-2000.0, -2000.0);
06:40:34:498;06:40:34:498;0;9;-1.5;1;0;0;0;0;1;1;1;1;06:40:34:494;1447954832.29;(0.32066476345062256, 0.2429918077256944);26.4585952759;1.0;4;0;0;0;0;();(-2000.0, -2000.0);
06:40:34:501;06:40:34:501;0;4;-1.5;1;0;0;0;0;1;1;1;1;06:40:34:494;1447954832.29;(0.32066476345062256, 0.2429918077256944);26.4585952759;1.0;4;0;0;0;0;();(-2000.0, -2000.0);
06:40:34:532;06:40:34:532;0;4;-1.5;1;0;0;0;0;1;1;1;1;06:40:34:494;1447954832.29;(0.32066476345062256, 0.2429918077256944);26.4585952759;1.0;4;0;0;0;0;();(-2000.0, -2000.0);
06:40:34:549;06:40:34:549;0;10;-1.5;1;0;0;0;0;1;1;1;1;06:40:34:494;1447954832.29;(0.32066476345062256, 0.2429918077256944);26.4585952759;1.0;4;0;0;0;0;();(-2000.0, -2000.0);
06:40:34:565;06:40:34:565;0;4;-1.5;1;0;0;0;0;1;1;1;1;06:40:34:494;1447954832.29;(0.32066476345062256, 0.2429918077256944);26.4585952759;1.0;4;0;0;0;0;();(-2000.0, -2000.0);
06:40:34:582;06:40:34:582;0;15;-1.5;1;0;0;0;0;1;1;1;1;06:40:34:578;1447954832.36;(0.3206011295318604, 0.243200937906901);26.7143878937;1.0;4;0;0;0;0;();(-2000.0, -2000.0);
06:40:34:599;06:40:34:599;0;5;-1.5;1;0;0;0;0;1;1;1;1;06:40:34:578;1447954832.36;(0.3206011295318604, 0.243200937906901);26.7143878937;1.0;4;0;0;0;0;();(-2000.0, -2000.0);
06:40:34:632;06:40:34:632;0;4;-1.5;1;0;0;0;0;1;1;1;1;06:40:34:578;1447954832.36;(0.3206011295318604, 0.243200937906901);26.7143878937;1.0;4;0;0;0;0;();(-2000.0, -2000.0);
06:40:34:648;06:40:34:648;0;9;-1.5;1;0;0;0;0;1;1;1;1;06:40:34:578;1447954832.36;(0.3206011295318604, 0.243200937906901);26.7143878937;1.0;4;0;0;0;0;();(-2000.0, -2000.0);
06:40:34:665;06:40:34:665;0;4;-1.5;1;0;0;0;0;1;1;1;1;06:40:34:662;1447954832.43;(0.32061033248901366, 0.24311125013563373);26.4555931091;0.991702750332;4;0;0;0;0;();(-2000.0, -2000.0);
06:40:34:681;06:40:34:681;0;15;-1.5;1;0;0;0;0;1;1;1;1;06:40:34:662;1447954832.43;(0.32061033248901366, 0.24311125013563373);26.4555931091;0.991702750332;4;0;0;0;0;();(-2000.0, -2000.0);
06:40:34:724;06:40:34:724;0;4;-1.5;1;0;0;0;0;1;1;1;1;06:40:34:702;1447954832.49;(0.3207204818725586, 0.2430574205186632);25.8992576599;1.0;4;0;0;0;0;();(-2000.0, -2000.0);
06:40:34:726;06:40:34:726;0;4;-1.5;1;0;0;0;0;1;1;1;1;06:40:34:702;1447954832.49;(0.3207204818725586, 0.2430574205186632);25.8992576599;1.0;4;0;0;0;0;();(-2000.0, -2000.0);
06:40:34:741;06:40:34:741;0;10;-1.5;1;0;0;0;0;1;1;1;1;06:40:34:702;1447954832.49;(0.3207204818725586, 0.2430574205186632);25.8992576599;1.0;4;0;0;0;0;();(-2000.0, -2000.0);
06:40:34:758;06:40:34:758;0;10;-1.5;1;0;0;0;0;1;1;1;1;06:40:34:702;1447954832.49;(0.3207204818725586, 0.2430574205186632);25.8992576599;1.0;4;0;0;0;0;();(-2000.0, -2000.0);
06:40:34:791;06:40:34:791;0;4;-1.5;1;0;0;0;0;1;1;1;1;06:40:34:786;1447954832.56;(0.32055187225341797, 0.2424929300944011);26.1694278717;1.0;4;0;0;0;0;();(-2000.0, -2000.0);
06:40:34:808;06:40:34:808;0;6;-1.5;1;0;0;0;0;1;1;1;1;06:40:34:786;1447954832.56;(0.32055187225341797, 0.2424929300944011);26.1694278717;1.0;4;0;0;0;0;();(-2000.0, -2000.0);
06:40:34:824;06:40:34:824;0;4;-1.5;1;0;0;0;0;1;1;1;1;06:40:34:786;1447954832.56;(0.32055187225341797, 0.2424929300944011);26.1694278717;1.0;4;0;0;0;0;();(-2000.0, -2000.0);
06:40:34:841;06:40:34:841;0;15;-1.5;1;0;0;0;0;1;1;1;1;06:40:34:827;1447954832.63;(0.3206939220428467, 0.24306352403428821);25.933588028;1.0;4;0;0;0;0;();(-2000.0, -2000.0);
06:40:34:857;06:40:34:857;0;5;-1.5;1;0;0;0;0;1;1;1;1;06:40:34:827;1447954832.63;(0.3206939220428467, 0.24306352403428821);25.933588028;1.0;4;0;0;0;0;();(-2000.0, -2000.0);
06:40:34:891;06:40:34:890;0;4;-1.5;1;0;0;0;0;1;1;1;1;06:40:34:827;1447954832.63;(0.3206939220428467, 0.24306352403428821);25.933588028;1.0;4;0;0;0;0;();(-2000.0, -2000.0);
06:40:34:919;06:40:34:918;0;5;-1.5;1;0;0;0;0;1;1;1;1;06:40:34:911;1447954832.69;(0.32056727409362795, 0.24282141791449652);26.1114692688;1.0;4;0;0;0;0;();(-2000.0, -2000.0);
06:40:34:921;06:40:34:921;0;5;-1.5;1;0;0;0;0;1;1;1;1;06:40:34:911;1447954832.69;(0.32056727409362795, 0.24282141791449652);26.1114692688;1.0;4;0;0;0;0;();(-2000.0, -2000.0);
06:40:34:947;06:40:34:947;0;10;-1.5;1;0;0;0;0;1;1;1;1;06:40:34:911;1447954832.69;(0.32056727409362795, 0.24282141791449652);26.1114692688;1.0;4;0;0;0;0;();(-2000.0, -2000.0);
06:40:34:964;06:40:34:964;0;15;-1.5;1;0;0;0;0;1;1;1;1;06:40:34:911;1447954832.69;(0.32056727409362795, 0.24282141791449652);26.1114692688;1.0;4;0;0;0;0;();(-2000.0, -2000.0);
06:40:34:980;06:40:34:980;0;4;-1.5;1;0;0;0;0;1;1;1;1;06:40:34:911;1447954832.69;(0.32056727409362795, 0.24282141791449652);26.1114692688;1.0;4;0;0;0;0;();(-2000.0, -2000.0);
06:40:34:997;06:40:34:997;0;15;-1.5;1;0;0;0;0;1;1;1;1;06:40:34:994;1447954832.76;(0.32047457695007325, 0.24335233900282116);25.9573287964;1.0;4;0;0;0;0;();(-2000.0, -2000.0);
06:40:35:030;06:40:35:030;0;15;-1.5;1;0;0;0;0;1;1;1;1;06:40:34:994;1447954832.76;(0.32047457695007325, 0.24335233900282116);25.9573287964;1.0;4;0;0;0;0;();(-2000.0, -2000.0);
06:40:35:047;06:40:35:047;0;4;-1.5;1;0;0;0;0;1;1;1;1;06:40:35:034;1447954832.83;(0.3206432104110718, 0.24340760972764752);26.0626945496;1.0;4;0;0;0;0;();(-2000.0, -2000.0);
06:40:35:063;06:40:35:063;0;10;-1.5;1;0;0;0;0;1;1;1;1;06:40:35:034;1447954832.83;(0.3206432104110718, 0.24340760972764752);26.0626945496;1.0;4;0;0;0;0;();(-2000.0, -2000.0);
06:40:35:080;06:40:35:080;0;5;-1.5;1;0;0;0;0;1;1;1;1;06:40:35:034;1447954832.83;(0.3206432104110718, 0.24340760972764752);26.0626945496;1.0;4;0;0;0;0;();(-2000.0, -2000.0);
06:40:35:124;06:40:35:124;0;15;-1.5;1;0;0;0;0;1;1;1;1;06:40:35:119;1447954832.89;(0.3204900503158569, 0.24286838107638886);26.0229492188;1.0;4;0;0;0;0;();(-2000.0, -2000.0);
06:40:35:127;06:40:35:127;0;9;-1.5;1;0;0;0;0;1;1;1;1;06:40:35:119;1447954832.89;(0.3204900503158569, 0.24286838107638886);26.0229492188;1.0;4;0;0;0;0;();(-2000.0, -2000.0);
06:40:35:144;06:40:35:143;0;5;-1.5;1;0;0;0;0;1;1;1;1;06:40:35:119;1447954832.89;(0.3204900503158569, 0.24286838107638886);26.0229492188;1.0;4;0;0;0;0;();(-2000.0, -2000.0);
06:40:35:160;06:40:35:160;0;10;-1.5;1;0;0;0;0;1;1;1;1;06:40:35:158;1447954832.96;(0.32037878036499023, 0.24337514241536462);26.2734470367;1.0;4;0;0;0;0;();(-2000.0, -2000.0);
06:40:35:193;06:40:35:193;0;9;-1.5;1;0;0;0;0;1;1;1;1;06:40:35:158;1447954832.96;(0.32037878036499023, 0.24337514241536462);26.2734470367;1.0;4;0;0;0;0;();(-2000.0, -2000.0);
06:40:35:217;06:40:35:217;0;15;-1.5;1;0;0;0;0;1;1;1;1;06:40:35:158;1447954832.96;(0.32037878036499023, 0.24337514241536462);26.2734470367;1.0;4;0;0;0;0;();(-2000.0, -2000.0);
06:40:35:220;06:40:35:220;0;15;-1.5;1;0;0;0;0;1;1;1;1;06:40:35:158;1447954832.96;(0.32037878036499023, 0.24337514241536462);26.2734470367;1.0;4;0;0;0;0;();(-2000.0, -2000.0);
06:40:35:251;06:40:35:251;0;0;-1.5;1;0;0;0;0;1;1;1;1;06:40:35:242;1447954833.03;(0.32037303447723386, 0.24317762586805558);26.2997226715;1.0;4;0;0;0;0;();(-2000.0, -2000.0);
06:40:35:268;06:40:35:268;0;5;-1.5;1;0;0;0;0;1;1;1;1;06:40:35:242;1447954833.03;(0.32037303447723386, 0.24317762586805558);26.2997226715;1.0;4;0;0;0;0;();(-2000.0, -2000.0);
06:40:35:285;06:40:35:284;0;15;-1.5;1;0;0;0;0;1;1;1;1;06:40:35:242;1447954833.03;(0.32037303447723386, 0.24317762586805558);26.2997226715;1.0;4;0;0;0;0;();(-2000.0, -2000.0);
06:40:35:301;06:40:35:301;0;4;-1.5;1;0;0;0;0;1;1;1;1;06:40:35:242;1447954833.03;(0.32037303447723386, 0.24317762586805558);26.2997226715;1.0;4;0;0;0;0;();(-2000.0, -2000.0);
06:40:35:334;06:40:35:334;0;5;-1.5;1;0;0;0;0;1;1;1;1;06:40:35:327;1447954833.09;(0.32068586349487305, 0.24265018039279518);26.3142871857;1.0;4;0;0;0;0;();(-2000.0, -2000.0);
06:40:35:351;06:40:35:351;0;15;-1.5;1;0;0;0;0;1;1;1;1;06:40:35:327;1447954833.09;(0.32068586349487305, 0.24265018039279518);26.3142871857;1.0;4;0;0;0;0;();(-2000.0, -2000.0);
06:40:35:368;06:40:35:368;0;4;-1.5;1;0;0;0;0;1;1;1;1;06:40:35:366;1447954833.16;(0.32065958976745607, 0.24294781155056422);26.2422599792;1.0;4;0;0;0;0;();(-2000.0, -2000.0);
06:40:35:384;06:40:35:384;0;15;-1.5;1;0;0;0;0;1;1;1;1;06:40:35:366;1447954833.16;(0.32065958976745607, 0.24294781155056422);26.2422599792;1.0;4;0;0;0;0;();(-2000.0, -2000.0);
06:40:35:401;06:40:35:401;0;5;-1.5;1;0;0;0;0;1;1;1;1;06:40:35:366;1447954833.16;(0.32065958976745607, 0.24294781155056422);26.2422599792;1.0;4;0;0;0;0;();(-2000.0, -2000.0);
06:40:35:417;06:40:35:417;0;5;-1.5;1;0;0;0;0;1;1;1;1;06:40:35:366;1447954833.16;(0.32065958976745607, 0.24294781155056422);26.2422599792;1.0;4;0;0;0;0;();(-2000.0, -2000.0);
06:40:35:459;06:40:35:459;0;9;-1.5;1;0;0;0;0;1;1;1;1;06:40:35:450;1447954833.23;(0.32065458297729493, 0.24322840372721355);26.2930316925;1.0;4;0;0;0;0;();(-2000.0, -2000.0);
06:40:35:462;06:40:35:462;0;9;-1.5;1;0;0;0;0;1;1;1;1;06:40:35:450;1447954833.23;(0.32065458297729493, 0.24322840372721355);26.2930316925;1.0;4;0;0;0;0;();(-2000.0, -2000.0);
06:40:35:478;06:40:35:478;0;15;-1.5;1;0;0;0;0;1;1;1;1;06:40:35:450;1447954833.23;(0.32065458297729493, 0.24322840372721355);26.2930316925;1.0;4;0;0;0;0;();(-2000.0, -2000.0);
06:40:35:511;06:40:35:511;0;0;-1.5;1;0;0;0;0;1;1;1;1;06:40:35:490;1447954833.29;(0.32038695812225343, 0.24276614718967016);26.0445327759;1.0;4;0;0;0;0;();(-2000.0, -2000.0);
06:40:35:545;06:40:35:545;0;9;-1.5;1;0;0;0;0;1;1;1;1;06:40:35:490;1447954833.29;(0.32038695812225343, 0.24276614718967016);26.0445327759;1.0;4;0;0;0;0;();(-2000.0, -2000.0);
06:40:35:547;06:40:35:547;0;9;-1.5;1;0;0;0;0;1;1;1;1;06:40:35:490;1447954833.29;(0.32038695812225343, 0.24276614718967016);26.0445327759;1.0;4;0;0;0;0;();(-2000.0, -2000.0);
06:40:35:561;06:40:35:561;0;5;-1.5;1;0;0;0;0;1;1;1;1;06:40:35:490;1447954833.29;(0.32038695812225343, 0.24276614718967016);26.0445327759;1.0;4;0;0;0;0;();(-2000.0, -2000.0);
06:40:35:588;06:40:35:588;0;5;-1.5;1;0;0;0;0;1;1;1;1;06:40:35:574;1447954833.36;(0.32068960666656493, 0.24295103285047748);26.4167251587;1.0;4;0;0;0;0;();(-2000.0, -2000.0);
06:40:35:605;06:40:35:605;0;0;-1.5;1;0;0;0;0;1;1;1;1;06:40:35:574;1447954833.36;(0.32068960666656493, 0.24295103285047748);26.4167251587;1.0;4;0;0;0;0;();(-2000.0, -2000.0);
06:40:35:621;06:40:35:621;0;4;-1.5;1;0;0;0;0;1;1;1;1;06:40:35:574;1447954833.36;(0.32068960666656493, 0.24295103285047748);26.4167251587;1.0;4;0;0;0;0;();(-2000.0, -2000.0);
06:40:35:638;06:40:35:638;0;15;-1.5;1;0;0;0;0;1;1;1;1;06:40:35:574;1447954833.36;(0.32068960666656493, 0.24295103285047748);26.4167251587;1.0;4;0;0;0;0;();(-2000.0, -2000.0);
06:40:35:671;06:40:35:671;0;10;-1.5;1;0;0;0;0;1;1;1;1;06:40:35:658;1447954833.43;(0.3206850290298462, 0.24276843600802955);26.3355808258;1.0;4;0;0;0;0;();(-2000.0, -2000.0);
06:40:35:687;06:40:35:687;0;4;-1.5;1;0;0;0;0;1;1;1;1;06:40:35:658;1447954833.43;(0.3206850290298462, 0.24276843600802955);26.3355808258;1.0;4;0;0;0;0;();(-2000.0, -2000.0);
06:40:35:704;06:40:35:704;0;9;-1.5;1;0;0;0;0;1;1;1;1;06:40:35:698;1447954833.49;(0.3209206581115723, 0.2426886664496528);26.2015724182;1.0;4;0;0;0;0;();(-2000.0, -2000.0);
06:40:35:721;06:40:35:721;0;5;-1.5;1;0;0;0;0;1;1;1;1;06:40:35:698;1447954833.49;(0.3209206581115723, 0.2426886664496528);26.2015724182;1.0;4;0;0;0;0;();(-2000.0, -2000.0);
06:40:35:761;06:40:35:761;0;15;-1.5;1;0;0;0;0;1;1;1;1;06:40:35:698;1447954833.49;(0.3209206581115723, 0.2426886664496528);26.2015724182;1.0;4;0;0;0;0;();(-2000.0, -2000.0);
06:40:35:763;06:40:35:763;0;15;-1.5;1;0;0;0;0;1;1;1;1;06:40:35:698;1447954833.49;(0.3209206581115723, 0.2426886664496528);26.2015724182;1.0;4;0;0;0;0;();(-2000.0, -2000.0);
06:40:35:777;06:40:35:777;0;4;-1.5;1;0;0;0;0;1;1;1;1;06:40:35:698;1447954833.49;(0.3209206581115723, 0.2426886664496528);26.2015724182;1.0;4;0;0;0;0;();(-2000.0, -2000.0);
06:40:35:811;06:40:35:810;0;5;-1.5;1;0;0;0;0;1;1;1;1;06:40:35:783;1447954833.56;(0.3208936214447021, 0.24307564629448786);26.3635425568;1.0;4;0;0;0;0;();(-2000.0, -2000.0);
06:40:35:827;06:40:35:827;0;15;-1.5;1;0;0;0;0;1;1;1;1;06:40:35:822;1447954833.63;(0.32109942436218264, 0.24347941080729163);27.0178146362;1.0;4;0;0;0;0;();(-2000.0, -2000.0);
06:40:35:844;06:40:35:844;0;11;-1.5;1;0;0;0;0;1;1;1;1;06:40:35:822;1447954833.63;(0.32109942436218264, 0.24347941080729163);27.0178146362;1.0;4;0;0;0;0;();(-2000.0, -2000.0);
06:40:35:860;06:40:35:860;0;15;-1.5;1;0;0;0;0;1;1;1;1;06:40:35:822;1447954833.63;(0.32109942436218264, 0.24347941080729163);27.0178146362;1.0;4;0;0;0;0;();(-2000.0, -2000.0);
06:40:35:893;06:40:35:893;0;0;-1.5;1;0;0;0;0;1;1;1;1;06:40:35:822;1447954833.63;(0.32109942436218264, 0.24347941080729163);27.0178146362;1.0;4;0;0;0;0;();(-2000.0, -2000.0);
06:40:35:910;06:40:35:910;0;5;-1.5;1;0;0;0;0;1;1;1;1;06:40:35:907;1447954833.69;(0.32071881294250487, 0.24267086452907982);26.0975093842;1.0;4;0;0;0;0;();(-2000.0, -2000.0);
06:40:35:926;06:40:35:926;0;9;-1.5;1;0;0;0;0;1;1;1;1;06:40:35:907;1447954833.69;(0.32071881294250487, 0.24267086452907982);26.0975093842;1.0;4;0;0;0;0;();(-2000.0, -2000.0);
06:40:35:943;06:40:35:943;0;4;-1.5;1;0;0;0;0;1;1;1;1;06:40:35:907;1447954833.69;(0.32071881294250487, 0.24267086452907982);26.0975093842;1.0;4;0;0;0;0;();(-2000.0, -2000.0);
06:40:35:982;06:40:35:982;0;15;-1.5;1;0;0;0;0;1;1;1;1;06:40:35:907;1447954833.69;(0.32071881294250487, 0.24267086452907982);26.0975093842;1.0;4;0;0;0;0;();(-2000.0, -2000.0);
06:40:35:985;06:40:35:985;0;15;-1.5;1;0;0;0;0;1;1;1;1;06:40:35:907;1447954833.69;(0.32071881294250487, 0.24267086452907982);26.0975093842;1.0;4;0;0;0;0;();(-2000.0, -2000.0);
06:40:35:998;06:40:35:998;0;15;-1.5;1;0;0;0;0;1;1;1;1;06:40:35:990;1447954833.76;(0.3207944393157959, 0.2431053161621094);26.409702301;1.0;4;0;0;0;0;();(-2000.0, -2000.0);
06:40:36:033;06:40:36:033;0;5;-1.5;1;0;0;0;0;1;1;1;1;06:40:36:030;1447954833.83;(0.3208831787109375, 0.24231363932291672);26.6041545868;1.0;4;0;0;0;0;();(-2000.0, -2000.0);
06:40:36:050;06:40:36:049;0;0;-1.5;1;0;0;0;0;1;1;1;1;06:40:36:030;1447954833.83;(0.3208831787109375, 0.24231363932291672);26.6041545868;1.0;4;0;0;0;0;();(-2000.0, -2000.0);
06:40:36:066;06:40:36:066;0;10;-1.5;1;0;0;0;0;1;1;1;1;06:40:36:030;1447954833.83;(0.3208831787109375, 0.24231363932291672);26.6041545868;1.0;4;0;0;0;0;();(-2000.0, -2000.0);
06:40:36:083;06:40:36:083;0;15;-1.5;1;0;0;0;0;1;1;1;1;06:40:36:030;1447954833.83;(0.3208831787109375, 0.24231363932291672);26.6041545868;1.0;4;0;0;0;0;();(-2000.0, -2000.0);
06:40:36:099;06:40:36:099;0;4;-1.5;1;0;0;0;0;1;1;1;1;06:40:36:030;1447954833.83;(0.3208831787109375, 0.24231363932291672);26.6041545868;1.0;4;0;0;0;0;();(-2000.0, -2000.0);
06:40:36:132;06:40:36:132;0;5;-1.5;1;0;0;0;0;1;1;1;1;06:40:36:114;1447954833.89;(0.32056198120117185, 0.24230033026801212);26.1610450745;0.987407562742;4;0;0;0;0;();(-2000.0, -2000.0);
06:40:36:149;06:40:36:149;0;9;-1.5;1;0;0;0;0;1;1;1;1;06:40:36:114;1447954833.89;(0.32056198120117185, 0.24230033026801212);26.1610450745;0.987407562742;4;0;0;0;0;();(-2000.0, -2000.0);
06:40:36:178;06:40:36:178;0;15;-1.5;1;0;0;0;0;1;1;1;1;06:40:36:154;1447954833.96;(0.320804500579834, 0.243123033311632);26.4707164764;1.0;4;0;0;0;0;();(-2000.0, -2000.0);
06:40:36:181;06:40:36:181;0;9;-1.5;1;0;0;0;0;1;1;1;1;06:40:36:154;1447954833.96;(0.320804500579834, 0.243123033311632);26.4707164764;1.0;4;0;0;0;0;();(-2000.0, -2000.0);
06:40:36:221;06:40:36:221;0;10;-1.5;1;0;0;0;0;1;1;1;1;06:40:36:154;1447954833.96;(0.320804500579834, 0.243123033311632);26.4707164764;1.0;4;0;0;0;0;();(-2000.0, -2000.0);
06:40:36:224;06:40:36:223;0;10;-1.5;1;0;0;0;0;1;1;1;1;06:40:36:154;1447954833.96;(0.320804500579834, 0.243123033311632);26.4707164764;1.0;4;0;0;0;0;();(-2000.0, -2000.0);
06:40:36:238;06:40:36:238;0;15;-1.5;1;0;0;0;0;1;1;1;1;06:40:36:154;1447954833.96;(0.320804500579834, 0.243123033311632);26.4707164764;1.0;4;0;0;0;0;();(-2000.0, -2000.0);
06:40:36:272;06:40:36:272;0;0;-1.5;1;0;0;0;0;1;1;1;1;06:40:36:239;1447954834.03;(0.32062222957611086, 0.24244571261935766);26.5130748749;1.0;4;0;0;0;0;();(-2000.0, -2000.0);
06:40:36:288;06:40:36:288;0;11;-1.5;1;0;0;0;0;1;1;1;1;06:40:36:239;1447954834.03;(0.32062222957611086, 0.24244571261935766);26.5130748749;1.0;4;0;0;0;0;();(-2000.0, -2000.0);
06:40:36:305;06:40:36:305;0;0;-1.5;1;0;0;0;0;1;1;1;1;06:40:36:239;1447954834.03;(0.32062222957611086, 0.24244571261935766);26.5130748749;1.0;4;0;0;0;0;();(-2000.0, -2000.0);
06:40:36:322;06:40:36:322;0;9;-1.5;1;0;0;0;0;1;1;1;1;06:40:36:239;1447954834.03;(0.32062222957611086, 0.24244571261935766);26.5130748749;1.0;4;0;0;0;0;();(-2000.0, -2000.0);
06:40:36:339;06:40:36:339;0;15;-1.5;1;0;0;0;0;1;1;1;1;06:40:36:324;1447954834.09;(0.3206732749938965, 0.24297968546549475);26.0827064514;1.0;4;0;0;0;0;();(-2000.0, -2000.0);
06:40:36:372;06:40:36:372;0;0;-1.5;1;0;0;0;0;1;1;1;1;06:40:36:363;1447954834.16;(0.3207674980163574, 0.24314075046115446);26.6144428253;1.0;4;0;0;0;0;();(-2000.0, -2000.0);
06:40:36:389;06:40:36:388;0;4;-1.5;1;0;0;0;0;1;1;1;1;06:40:36:363;1447954834.16;(0.3207674980163574, 0.24314075046115446);26.6144428253;1.0;4;0;0;0;0;();(-2000.0, -2000.0);
06:40:36:417;06:40:36:417;0;9;-1.5;1;0;0;0;0;1;1;1;1;06:40:36:363;1447954834.16;(0.3207674980163574, 0.24314075046115446);26.6144428253;1.0;4;0;0;0;0;();(-2000.0, -2000.0);
06:40:36:434;06:40:36:434;0;0;-1.5;1;0;0;0;0;1;1;1;1;06:40:36:363;1447954834.16;(0.3207674980163574, 0.24314075046115446);26.6144428253;1.0;4;0;0;0;0;();(-2000.0, -2000.0);
06:40:36:450;06:40:36:450;0;4;-1.5;1;0;0;0;0;1;1;1;1;06:40:36:447;1447954834.23;(0.320794415473938, 0.24255405002170138);26.246099472;1.0;4;0;0;0;0;();(-2000.0, -2000.0);
06:40:36:467;06:40:36:467;0;0;-1.5;1;0;0;0;0;1;1;1;1;06:40:36:447;1447954834.23;(0.320794415473938, 0.24255405002170138);26.246099472;1.0;4;0;0;0;0;();(-2000.0, -2000.0);
06:40:36:484;06:40:36:484;0;9;-1.5;1;0;0;0;0;1;1;1;1;06:40:36:447;1447954834.23;(0.320794415473938, 0.24255405002170138);26.246099472;1.0;4;0;0;0;0;();(-2000.0, -2000.0);
06:40:36:500;06:40:36:500;0;15;-1.5;1;0;0;0;0;1;1;1;1;06:40:36:447;1447954834.23;(0.320794415473938, 0.24255405002170138);26.246099472;1.0;4;0;0;0;0;();(-2000.0, -2000.0);
06:40:36:525;06:40:36:525;0;9;-1.5;1;0;0;0;0;1;1;1;1;06:40:36:447;1447954834.23;(0.320794415473938, 0.24255405002170138);26.246099472;1.0;4;0;0;0;0;();(-2000.0, -2000.0);
06:40:36:544;06:40:36:544;0;5;-1.5;1;0;0;0;0;1;1;1;1;06:40:36:531;1447954834.29;(0.3206433057785034, 0.24287109375000004);26.4609985352;1.0;4;0;0;0;0;();(-2000.0, -2000.0);
06:40:36:561;06:40:36:561;0;15;-1.5;1;0;0;0;0;1;1;1;1;06:40:36:531;1447954834.29;(0.3206433057785034, 0.24287109375000004);26.4609985352;1.0;4;0;0;0;0;();(-2000.0, -2000.0);
06:40:36:601;06:40:36:601;0;10;-1.5;1;0;0;0;0;1;1;1;1;06:40:36:571;1447954834.36;(0.32070298194885255, 0.24276682535807292);26.1673583984;1.0;4;0;0;0;0;();(-2000.0, -2000.0);
06:40:36:604;06:40:36:604;0;10;-1.5;1;0;0;0;0;1;1;1;1;06:40:36:571;1447954834.36;(0.32070298194885255, 0.24276682535807292);26.1673583984;1.0;4;0;0;0;0;();(-2000.0, -2000.0);
06:40:36:619;06:40:36:619;0;5;-1.5;1;0;0;0;0;1;1;1;1;06:40:36:571;1447954834.36;(0.32070298194885255, 0.24276682535807292);26.1673583984;1.0;4;0;0;0;0;();(-2000.0, -2000.0);
06:40:36:652;06:40:36:652;0;4;-1.5;1;0;0;0;0;1;1;1;1;06:40:36:571;1447954834.36;(0.32070298194885255, 0.24276682535807292);26.1673583984;1.0;4;0;0;0;0;();(-2000.0, -2000.0);
06:40:36:669;06:40:36:669;0;9;-1.5;1;0;0;0;0;1;1;1;1;06:40:36:656;1447954834.43;(0.32076454162597656, 0.24270087348090275);26.6640739441;1.0;4;0;0;0;0;();(-2000.0, -2000.0);
06:40:36:685;06:40:36:685;0;15;-1.5;1;0;0;0;0;1;1;1;1;06:40:36:656;1447954834.43;(0.32076454162597656, 0.24270087348090275);26.6640739441;1.0;4;0;0;0;0;();(-2000.0, -2000.0);
06:40:36:702;06:40:36:702;0;15;-1.5;1;0;0;0;0;1;1;1;1;06:40:36:695;1447954834.49;(0.3207903623580933, 0.24281014336480033);26.1171855927;1.0;4;0;0;0;0;();(-2000.0, -2000.0);
06:40:36:718;06:40:36:718;0;15;-1.5;1;0;0;0;0;1;1;1;1;06:40:36:695;1447954834.49;(0.3207903623580933, 0.24281014336480033);26.1171855927;1.0;4;0;0;0;0;();(-2000.0, -2000.0);
06:40:36:752;06:40:36:751;0;4;-1.5;1;0;0;0;0;1;1;1;1;06:40:36:695;1447954834.49;(0.3207903623580933, 0.24281014336480033);26.1171855927;1.0;4;0;0;0;0;();(-2000.0, -2000.0);
06:40:36:768;06:40:36:768;0;9;-1.5;1;0;0;0;0;1;1;1;1;06:40:36:695;1447954834.49;(0.3207903623580933, 0.24281014336480033);26.1171855927;1.0;4;0;0;0;0;();(-2000.0, -2000.0);
06:40:36:811;06:40:36:811;0;4;-1.5;1;0;0;0;0;1;1;1;1;06:40:36:779;1447954834.56;(0.3207353115081787, 0.24307657877604172);26.5846157074;1.0;4;0;0;0;0;();(-2000.0, -2000.0);
06:40:36:814;06:40:36:814;0;15;-1.5;1;0;0;0;0;1;1;1;1;06:40:36:779;1447954834.56;(0.3207353115081787, 0.24307657877604172);26.5846157074;1.0;4;0;0;0;0;();(-2000.0, -2000.0);
06:40:36:828;06:40:36:828;0;9;-1.5;1;0;0;0;0;1;1;1;1;06:40:36:779;1447954834.56;(0.3207353115081787, 0.24307657877604172);26.5846157074;1.0;4;0;0;0;0;();(-2000.0, -2000.0);
06:40:36:845;06:40:36:845;0;13;-1.5;1;0;0;0;0;1;1;1;1;06:40:36:779;1447954834.56;(0.3207353115081787, 0.24307657877604172);26.5846157074;1.0;4;0;0;0;0;();(-2000.0, -2000.0);
06:40:36:862;06:40:36:862;0;10;-1.5;1;0;0;0;0;1;1;1;1;06:40:36:779;1447954834.56;(0.3207353115081787, 0.24307657877604172);26.5846157074;1.0;4;0;0;0;0;();(-2000.0, -2000.0);
06:40:36:878;06:40:36:878;0;7;-1.5;1;0;0;0;0;1;1;1;1;06:40:36:863;1447954834.63;(0.3210185766220093, 0.24284083048502603);26.6164894104;1.0;4;0;0;0;0;();(-2000.0, -2000.0);
06:40:36:911;06:40:36:911;0;0;-1.5;1;0;0;0;0;1;1;1;1;06:40:36:903;1447954834.69;(0.32091608047485354, 0.24299155341254342);26.4991817474;1.0;4;0;0;0;0;();(-2000.0, -2000.0);
06:40:36:928;06:40:36:928;0;10;-1.5;1;0;0;0;0;1;1;1;1;06:40:36:903;1447954834.69;(0.32091608047485354, 0.24299155341254342);26.4991817474;1.0;4;0;0;0;0;();(-2000.0, -2000.0);
06:40:36:944;06:40:36:944;0;15;-1.5;1;0;0;0;0;1;1;1;1;06:40:36:903;1447954834.69;(0.32091608047485354, 0.24299155341254342);26.4991817474;1.0;4;0;0;0;0;();(-2000.0, -2000.0);
06:40:36:961;06:40:36:961;0;4;-1.5;1;0;0;0;0;1;1;1;1;06:40:36:903;1447954834.69;(0.32091608047485354, 0.24299155341254342);26.4991817474;1.0;4;0;0;0;0;();(-2000.0, -2000.0);
06:40:37:017;06:40:37:017;0;10;-1.5;1;0;0;0;0;1;1;1;1;06:40:36:987;1447954834.76;(0.3210035562515259, 0.24292577107747393);26.3831214905;1.0;4;0;0;0;0;();(-2000.0, -2000.0);
06:40:37:020;06:40:37:020;0;10;-1.5;1;0;0;0;0;1;1;1;1;06:40:36:987;1447954834.76;(0.3210035562515259, 0.24292577107747393);26.3831214905;1.0;4;0;0;0;0;();(-2000.0, -2000.0);
06:40:37:044;06:40:37:044;0;15;-1.5;1;0;0;0;0;1;1;1;1;06:40:37:027;1447954834.83;(0.32092933654785155, 0.2425383673773871);26.4227771759;1.0;4;0;0;0;0;();(-2000.0, -2000.0);
06:40:37:046;06:40:37:046;0;15;-1.5;1;0;0;0;0;1;1;1;1;06:40:37:027;1447954834.83;(0.32092933654785155, 0.2425383673773871);26.4227771759;1.0;4;0;0;0;0;();(-2000.0, -2000.0);
06:40:37:061;06:40:37:061;0;9;-1.5;1;0;0;0;0;1;1;1;1;06:40:37:027;1447954834.83;(0.32092933654785155, 0.2425383673773871);26.4227771759;1.0;4;0;0;0;0;();(-2000.0, -2000.0);
06:40:37:094;06:40:37:094;0;4;-1.5;1;0;0;0;0;1;1;1;1;06:40:37:027;1447954834.83;(0.32092933654785155, 0.2425383673773871);26.4227771759;1.0;4;0;0;0;0;();(-2000.0, -2000.0);
06:40:37:110;06:40:37:110;0;5;-1.5;1;0;0;0;0;1;1;1;1;06:40:37:027;1447954834.83;(0.32092933654785155, 0.2425383673773871);26.4227771759;1.0;4;0;0;0;0;();(-2000.0, -2000.0);
06:40:37:127;06:40:37:127;0;4;-1.5;1;0;0;0;0;1;1;1;1;06:40:37:111;1447954834.89;(0.3206674337387085, 0.24277301364474824);26.0622806549;1.0;4;0;0;0;0;();(-2000.0, -2000.0);
06:40:37:148;06:40:37:148;0;9;-1.5;1;0;0;0;0;1;1;1;1;06:40:37:111;1447954834.89;(0.3206674337387085, 0.24277301364474824);26.0622806549;1.0;6;0;0;0;0;();(-2000.0, -2000.0);
06:40:37:160;06:40:37:160;0;4;-1.5;1;0;0;0;0;1;1;1;1;06:40:37:111;1447954834.89;(0.3206674337387085, 0.24277301364474824);26.0622806549;1.0;6;0;0;0;0;();(-2000.0, -2000.0);
06:40:37:178;06:40:37:178;0;10;-1.5;1;0;0;0;0;1;1;1;1;06:40:37:111;1447954834.89;(0.3206674337387085, 0.24277301364474824);26.0622806549;1.0;6;0;0;0;0;();(-2000.0, -2000.0);
06:40:37:212;06:40:37:212;0;9;-1.5;1;0;0;0;0;1;1;1;1;06:40:37:191;1447954834.96;(0.3205006837844849, 0.24288838704427085);26.1483249664;1.0;6;0;0;0;0;();(-2000.0, -2000.0);
06:40:37:229;06:40:37:229;0;5;-1.5;1;0;0;0;0;1;1;1;1;06:40:37:191;1447954834.96;(0.3205006837844849, 0.24288838704427085);26.1483249664;1.0;6;0;0;0;0;();(-2000.0, -2000.0);
06:40:37:246;06:40:37:246;0;9;-1.5;1;0;0;0;0;1;1;1;1;06:40:37:236;1447954835.03;(0.32076733112335204, 0.24319347805447045);26.0409297943;1.0;6;0;0;0;0;();(-2000.0, -2000.0);
06:40:37:262;06:40:37:262;0;15;-1.5;1;0;0;0;0;1;1;1;1;06:40:37:236;1447954835.03;(0.32076733112335204, 0.24319347805447045);26.0409297943;1.0;6;0;0;0;0;();(-2000.0, -2000.0);
06:40:37:279;06:40:37:279;0;10;-1.5;1;0;0;0;0;1;1;1;1;06:40:37:236;1447954835.03;(0.32076733112335204, 0.24319347805447045);26.0409297943;1.0;6;0;0;0;0;();(-2000.0, -2000.0);
06:40:37:312;06:40:37:312;0;9;-1.5;1;0;0;0;0;1;1;1;1;06:40:37:236;1447954835.03;(0.32076733112335204, 0.24319347805447045);26.0409297943;1.0;6;0;0;0;0;();(-2000.0, -2000.0);
06:40:37:328;06:40:37:328;0;0;-1.5;1;0;0;0;0;1;1;1;1;06:40:37:320;1447954835.09;(0.32052395343780515, 0.24315041436089413);26.0253257751;1.0;6;0;0;0;0;();(-2000.0, -2000.0);
06:40:37:345;06:40:37:345;0;10;-1.5;1;0;0;0;0;1;1;1;1;06:40:37:320;1447954835.09;(0.32052395343780515, 0.24315041436089413);26.0253257751;1.0;6;0;0;0;0;();(-2000.0, -2000.0);
06:40:37:362;06:40:37:362;0;15;-1.5;1;0;0;0;0;1;1;1;1;06:40:37:320;1447954835.09;(0.32052395343780515, 0.24315041436089413);26.0253257751;1.0;6;0;0;0;0;();(-2000.0, -2000.0);
06:40:37:378;06:40:37:378;0;12;-1.5;1;0;0;0;0;1;1;1;1;06:40:37:320;1447954835.09;(0.32052395343780515, 0.24315041436089413);26.0253257751;1.0;6;0;0;0;0;();(-2000.0, -2000.0);
06:40:37:425;06:40:37:425;0;15;-1.5;1;0;0;0;0;1;1;1;1;06:40:37:398;1447954835.16;(0.3204949140548706, 0.24294882880316837);26.0205154419;1.0;6;0;0;0;0;();(-2000.0, -2000.0);
06:40:37:427;06:40:37:427;0;15;-1.5;1;0;0;0;0;1;1;1;1;06:40:37:398;1447954835.16;(0.3204949140548706, 0.24294882880316837);26.0205154419;1.0;6;0;0;0;0;();(-2000.0, -2000.0);
06:40:37:441;06:40:37:441;0;9;-1.5;1;0;0;0;0;1;1;1;1;06:40:37:398;1447954835.16;(0.3204949140548706, 0.24294882880316837);26.0205154419;1.0;6;0;0;0;0;();(-2000.0, -2000.0);
06:40:37:458;06:40:37:458;0;15;-1.5;1;0;0;0;0;1;1;1;1;06:40:37:444;1447954835.23;(0.32084920406341555, 0.24302630954318571);25.9288730621;1.0;6;0;0;0;0;();(-2000.0, -2000.0);
06:40:37:491;06:40:37:491;0;0;-1.5;1;0;0;0;0;1;1;1;1;06:40:37:444;1447954835.23;(0.32084920406341555, 0.24302630954318571);25.9288730621;1.0;6;0;0;0;0;();(-2000.0, -2000.0);
06:40:37:508;06:40:37:508;0;4;-1.5;1;0;0;0;0;1;1;1;1;06:40:37:444;1447954835.23;(0.32084920406341555, 0.24302630954318571);25.9288730621;1.0;6;0;0;0;0;();(-2000.0, -2000.0);
06:40:37:525;06:40:37:525;0;15;-1.5;1;0;0;0;0;1;1;1;1;06:40:37:523;1447954835.29;(0.32062253952026365, 0.2430247836642795);26.6303215027;1.0;6;0;0;0;0;();(-2000.0, -2000.0);
06:40:37:541;06:40:37:541;0;9;-1.5;1;0;0;0;0;1;1;1;1;06:40:37:523;1447954835.29;(0.32062253952026365, 0.2430247836642795);26.6303215027;1.0;6;0;0;0;0;();(-2000.0, -2000.0);
06:40:37:565;06:40:37:565;0;9;-1.5;1;0;0;0;0;1;1;1;1;06:40:37:523;1447954835.29;(0.32062253952026365, 0.2430247836642795);26.6303215027;1.0;6;0;0;0;0;();(-2000.0, -2000.0);
06:40:37:585;06:40:37:585;0;15;-1.5;1;0;0;0;0;1;1;1;1;06:40:37:567;1447954835.36;(0.3207030057907104, 0.2427435133192274);26.8742027283;1.0;6;0;0;0;0;();(-2000.0, -2000.0);
06:40:37:600;06:40:37:600;0;10;-1.5;1;0;0;0;0;1;1;1;1;06:40:37:567;1447954835.36;(0.3207030057907104, 0.2427435133192274);26.8742027283;1.0;6;0;0;0;0;();(-2000.0, -2000.0);
06:40:37:631;06:40:37:631;0;9;-1.5;1;0;0;0;0;1;1;1;1;06:40:37:567;1447954835.36;(0.3207030057907104, 0.2427435133192274);26.8742027283;1.0;6;0;0;0;0;();(-2000.0, -2000.0);
06:40:37:652;06:40:37:650;0;0;-1.5;1;0;0;0;0;1;1;1;1;06:40:37:567;1447954835.36;(0.3207030057907104, 0.2427435133192274);26.8742027283;1.0;6;0;0;0;0;();(-2000.0, -2000.0);
06:40:37:668;06:40:37:667;0;4;-1.5;1;0;0;0;0;1;1;1;1;06:40:37:651;1447954835.43;(0.320520281791687, 0.2425514221191406);26.2299613953;1.0;6;0;0;0;0;();(-2000.0, -2000.0);
06:40:37:684;06:40:37:684;0;15;-1.5;1;0;0;0;0;1;1;1;1;06:40:37:651;1447954835.43;(0.320520281791687, 0.2425514221191406);26.2299613953;1.0;6;0;0;0;0;();(-2000.0, -2000.0);
06:40:37:702;06:40:37:702;0;5;-1.5;1;0;0;0;0;1;1;1;1;06:40:37:651;1447954835.43;(0.320520281791687, 0.2425514221191406);26.2299613953;1.0;6;0;0;0;0;();(-2000.0, -2000.0);
06:40:37:734;06:40:37:734;0;4;-1.5;1;0;0;0;0;1;1;1;1;06:40:37:731;1447954835.49;(0.3207050085067749, 0.24258041381835938);26.5487918854;1.0;6;0;0;0;0;();(-2000.0, -2000.0);
06:40:37:750;06:40:37:750;0;7;-1.5;1;0;0;0;0;1;1;1;1;06:40:37:731;1447954835.49;(0.3207050085067749, 0.24258041381835938);26.5487918854;1.0;6;0;0;0;0;();(-2000.0, -2000.0);
06:40:37:770;06:40:37:770;0;4;-1.5;1;0;0;0;0;1;1;1;1;06:40:37:731;1447954835.49;(0.3207050085067749, 0.24258041381835938);26.5487918854;1.0;6;0;0;0;0;();(-2000.0, -2000.0);
06:40:37:787;06:40:37:787;0;2;-1.5;1;0;0;0;0;1;1;1;1;06:40:37:782;1447954835.56;(0.32076358795166016, 0.24307513766818578);26.5913677216;1.0;6;0;0;0;0;();(-2000.0, -2000.0);
06:40:37:804;06:40:37:804;0;4;-1.5;1;0;0;0;0;1;1;1;1;06:40:37:782;1447954835.56;(0.32076358795166016, 0.24307513766818578);26.5913677216;1.0;6;0;0;0;0;();(-2000.0, -2000.0);
06:40:37:837;06:40:37:837;0;15;-1.5;1;0;0;0;0;1;1;1;1;06:40:37:782;1447954835.56;(0.32076358795166016, 0.24307513766818578);26.5913677216;1.0;6;0;0;0;0;();(-2000.0, -2000.0);
06:40:37:855;06:40:37:855;0;9;-1.5;1;0;0;0;0;1;1;1;1;06:40:37:782;1447954835.56;(0.32076358795166016, 0.24307513766818578);26.5913677216;1.0;6;0;0;0;0;();(-2000.0, -2000.0);
06:40:37:871;06:40:37:871;0;0;-1.5;1;0;0;0;0;1;1;1;1;06:40:37:855;1447954835.63;(0.32068586349487305, 0.24245088365342882);26.0124435425;1.0;6;0;0;0;0;();(-2000.0, -2000.0);
06:40:37:888;06:40:37:888;0;10;-1.5;1;0;0;0;0;1;1;1;1;06:40:37:855;1447954835.63;(0.32068586349487305, 0.24245088365342882);26.0124435425;1.0;6;0;0;0;0;();(-2000.0, -2000.0);
06:40:37:904;06:40:37:904;0;0;-1.5;1;0;0;0;0;1;1;1;1;06:40:37:899;1447954835.69;(0.3207529544830322, 0.24319093492296007);26.1757030487;1.0;6;0;0;0;0;();(-2000.0, -2000.0);
06:40:37:921;06:40:37:921;0;4;-1.5;1;0;0;0;0;1;1;1;1;06:40:37:899;1447954835.69;(0.3207529544830322, 0.24319093492296007);26.1757030487;1.0;6;0;0;0;0;();(-2000.0, -2000.0);
06:40:37:954;06:40:37:954;0;5;-1.5;1;0;0;0;0;1;1;1;1;06:40:37:899;1447954835.69;(0.3207529544830322, 0.24319093492296007);26.1757030487;1.0;6;0;0;0;0;();(-2000.0, -2000.0);
06:40:37:971;06:40:37:971;0;5;-1.5;1;0;0;0;0;1;1;1;1;06:40:37:899;1447954835.69;(0.3207529544830322, 0.24319093492296007);26.1757030487;1.0;6;0;0;0;0;();(-2000.0, -2000.0);
06:40:37:987;06:40:37:987;0;0;-1.5;1;0;0;0;0;1;1;1;1;06:40:37:979;1447954835.76;(0.3209099531173706, 0.24294230143229167);26.0721473694;1.0;6;0;0;0;0;();(-2000.0, -2000.0);
06:40:38:009;06:40:38:009;0;9;-1.5;1;0;0;0;0;1;1;1;1;06:40:37:979;1447954835.76;(0.3209099531173706, 0.24294230143229167);26.0721473694;1.0;6;0;0;0;0;();(-2000.0, -2000.0);
06:40:38:042;06:40:38:042;0;5;-1.5;1;0;0;0;0;1;1;1;1;06:40:37:979;1447954835.76;(0.3209099531173706, 0.24294230143229167);26.0721473694;1.0;6;0;0;0;0;();(-2000.0, -2000.0);
06:40:38:045;06:40:38:045;0;11;-1.5;1;0;0;0;0;1;1;1;1;06:40:37:979;1447954835.76;(0.3209099531173706, 0.24294230143229167);26.0721473694;1.0;6;0;0;0;0;();(-2000.0, -2000.0);
06:40:38:060;06:40:38:060;0;5;-1.5;1;0;0;0;0;1;1;1;1;06:40:37:979;1447954835.76;(0.3209099531173706, 0.24294230143229167);26.0721473694;1.0;6;0;0;0;0;();(-2000.0, -2000.0);
06:40:38:093;06:40:38:093;0;4;-1.5;1;0;0;0;0;1;1;1;1;06:40:38:064;1447954835.83;(0.32062630653381347, 0.2429261101616753);26.8732261658;1.0;6;0;0;0;0;();(-2000.0, -2000.0);
06:40:38:110;06:40:38:110;0;9;-1.5;1;0;0;0;0;1;1;1;1;06:40:38:108;1447954835.89;(0.32088024616241456, 0.24308183458116317);26.1453590393;1.0;6;0;0;0;0;();(-2000.0, -2000.0);
06:40:38:127;06:40:38:126;0;0;-1.5;1;0;0;0;0;1;1;1;1;06:40:38:108;1447954835.89;(0.32088024616241456, 0.24308183458116317);26.1453590393;1.0;6;0;0;0;0;();(-2000.0, -2000.0);
06:40:38:143;06:40:38:143;0;10;-1.5;1;0;0;0;0;1;1;1;1;06:40:38:108;1447954835.89;(0.32088024616241456, 0.24308183458116317);26.1453590393;1.0;6;0;0;0;0;();(-2000.0, -2000.0);
06:40:38:159;06:40:38:159;0;15;-1.5;1;0;0;0;0;1;1;1;1;06:40:38:108;1447954835.89;(0.32088024616241456, 0.24308183458116317);26.1453590393;1.0;6;0;0;0;0;();(-2000.0, -2000.0);
06:40:38:193;06:40:38:193;0;0;-1.5;1;0;0;0;0;1;1;1;1;06:40:38:187;1447954835.96;(0.3204317092895508, 0.24298680623372393);26.0574569702;1.0;6;0;0;0;0;();(-2000.0, -2000.0);
06:40:38:209;06:40:38:209;0;13;-1.5;1;0;0;0;0;1;1;1;1;06:40:38:187;1447954835.96;(0.3204317092895508, 0.24298680623372393);26.0574569702;1.0;6;0;0;0;0;();(-2000.0, -2000.0);
06:40:38:233;06:40:38:233;0;10;-1.5;1;0;0;0;0;1;1;1;1;06:40:38:231;1447954836.03;(0.32018046379089354, 0.24343778822157114);26.3557758331;1.0;6;0;0;0;0;();(-2000.0, -2000.0);
06:40:38:267;06:40:38:267;0;9;-1.5;1;0;0;0;0;1;1;1;1;06:40:38:231;1447954836.03;(0.32018046379089354, 0.24343778822157114);26.3557758331;1.0;6;0;0;0;0;();(-2000.0, -2000.0);
06:40:38:269;06:40:38:269;0;9;-1.5;1;0;0;0;0;1;1;1;1;06:40:38:231;1447954836.03;(0.32018046379089354, 0.24343778822157114);26.3557758331;1.0;6;0;0;0;0;();(-2000.0, -2000.0);
06:40:38:283;06:40:38:283;0;14;-1.5;1;0;0;0;0;1;1;1;1;06:40:38:231;1447954836.03;(0.32018046379089354, 0.24343778822157114);26.3557758331;1.0;6;0;0;0;0;();(-2000.0, -2000.0);
06:40:38:300;06:40:38:300;0;10;-1.5;1;0;0;0;0;1;1;1;1;06:40:38:231;1447954836.03;(0.32018046379089354, 0.24343778822157114);26.3557758331;1.0;6;0;0;0;0;();(-2000.0, -2000.0);
06:40:38:333;06:40:38:333;0;9;-1.5;1;0;0;0;0;1;1;1;1;06:40:38:311;1447954836.09;(0.32041153907775877, 0.243259769015842);26.5438804626;1.0;6;0;0;0;0;();(-2000.0, -2000.0);
06:40:38:350;06:40:38:350;0;5;-1.5;1;0;0;0;0;1;1;1;1;06:40:38:311;1447954836.09;(0.32041153907775877, 0.243259769015842);26.5438804626;1.0;6;0;0;0;0;();(-2000.0, -2000.0);
06:40:38:366;06:40:38:366;0;10;-1.5;1;0;0;0;0;1;1;1;1;06:40:38:311;1447954836.09;(0.32041153907775877, 0.243259769015842);26.5438804626;1.0;6;0;0;0;0;();(-2000.0, -2000.0);
06:40:38:383;06:40:38:383;0;15;-1.5;1;0;0;0;0;1;1;1;1;06:40:38:311;1447954836.09;(0.32041153907775877, 0.243259769015842);26.5438804626;1.0;6;0;0;0;0;();(-2000.0, -2000.0);
06:40:38:399;06:40:38:399;0;9;-1.5;1;0;0;0;0;1;1;1;1;06:40:38:395;1447954836.16;(0.320756196975708, 0.24300664265950522);26.4308624268;1.0;6;0;0;0;0;();(-2000.0, -2000.0);
06:40:38:433;06:40:38:433;0;9;-1.5;1;0;0;0;0;1;1;1;1;06:40:38:395;1447954836.16;(0.320756196975708, 0.24300664265950522);26.4308624268;1.0;6;0;0;0;0;();(-2000.0, -2000.0);
06:40:38:449;06:40:38:449;0;0;-1.5;1;0;0;0;0;1;1;1;1;06:40:38:440;1447954836.23;(0.3207926034927368, 0.24335013495551217);27.0217666626;1.0;6;0;0;0;0;();(-2000.0, -2000.0);
06:40:38:489;06:40:38:489;0;9;-1.5;1;0;0;0;0;1;1;1;1;06:40:38:440;1447954836.23;(0.3207926034927368, 0.24335013495551217);27.0217666626;1.0;6;0;0;0;0;();(-2000.0, -2000.0);
06:40:38:492;06:40:38:491;0;9;-1.5;1;0;0;0;0;1;1;1;1;06:40:38:440;1447954836.23;(0.3207926034927368, 0.24335013495551217);27.0217666626;1.0;6;0;0;0;0;();(-2000.0, -2000.0);
06:40:38:518;06:40:38:518;0;15;-1.5;1;0;0;0;0;1;1;1;1;06:40:38:440;1447954836.23;(0.3207926034927368, 0.24335013495551217);27.0217666626;1.0;6;0;0;0;0;();(-2000.0, -2000.0);
06:40:38:537;06:40:38:537;0;4;-1.5;1;0;0;0;0;1;1;1;1;06:40:38:519;1447954836.29;(0.32056052684783937, 0.24315363566080728);26.0549449921;1.0;6;0;0;0;0;();(-2000.0, -2000.0);
06:40:38:554;06:40:38:554;0;10;-1.5;1;0;0;0;0;1;1;1;1;06:40:38:519;1447954836.29;(0.32056052684783937, 0.24315363566080728);26.0549449921;1.0;6;0;0;0;0;();(-2000.0, -2000.0);
06:40:38:570;06:40:38:570;0;4;-1.5;1;0;0;0;0;1;1;1;1;06:40:38:563;1447954836.36;(0.32054593563079836, 0.242817857530382);26.2336273193;1.0;6;0;0;0;0;();(-2000.0, -2000.0);
06:40:38:587;06:40:38:587;0;9;-1.5;1;0;0;0;0;1;1;1;1;06:40:38:563;1447954836.36;(0.32054593563079836, 0.242817857530382);26.2336273193;1.0;6;0;0;0;0;();(-2000.0, -2000.0);
06:40:38:603;06:40:38:603;0;5;-1.5;1;0;0;0;0;1;1;1;1;06:40:38:563;1447954836.36;(0.32054593563079836, 0.242817857530382);26.2336273193;1.0;6;0;0;0;0;();(-2000.0, -2000.0);
06:40:38:620;06:40:38:620;0;10;-1.5;1;0;0;0;0;1;1;1;1;06:40:38:563;1447954836.36;(0.32054593563079836, 0.242817857530382);26.2336273193;1.0;6;0;0;0;0;();(-2000.0, -2000.0);
06:40:38:653;06:40:38:653;0;9;-1.5;1;0;0;0;0;1;1;1;1;06:40:38:642;1447954836.43;(0.3208049774169922, 0.242891354031033);26.4178733826;1.0;6;0;0;0;0;();(-2000.0, -2000.0);
06:40:38:678;06:40:38:678;0;0;-1.5;1;0;0;0;0;1;1;1;1;06:40:38:642;1447954836.43;(0.3208049774169922, 0.242891354031033);26.4178733826;1.0;6;0;0;0;0;();(-2000.0, -2000.0);
06:40:38:681;06:40:38:681;0;10;-1.5;1;0;0;0;0;1;1;1;1;06:40:38:642;1447954836.43;(0.3208049774169922, 0.242891354031033);26.4178733826;1.0;6;0;0;0;0;();(-2000.0, -2000.0);
06:40:38:706;06:40:38:706;0;15;-1.5;1;0;0;0;0;1;1;1;1;06:40:38:642;1447954836.43;(0.3208049774169922, 0.242891354031033);26.4178733826;1.0;6;0;0;0;0;();(-2000.0, -2000.0);
06:40:38:722;06:40:38:722;0;4;-1.5;1;0;0;0;0;1;1;1;1;06:40:38:642;1447954836.43;(0.3208049774169922, 0.242891354031033);26.4178733826;1.0;6;0;0;0;0;();(-2000.0, -2000.0);
06:40:38:739;06:40:38:739;0;15;-1.5;1;0;0;0;0;1;1;1;1;06:40:38:726;1447954836.49;(0.3207923173904419, 0.2432229783799913);26.7575569153;1.0;6;0;0;0;0;();(-2000.0, -2000.0);
06:40:38:772;06:40:38:772;0;10;-1.5;1;0;0;0;0;1;1;1;1;06:40:38:770;1447954836.56;(0.32073986530303955, 0.243314700656467);26.8151607513;1.0;6;0;0;0;0;();(-2000.0, -2000.0);
06:40:38:788;06:40:38:788;0;10;-1.5;1;0;0;0;0;1;1;1;1;06:40:38:770;1447954836.56;(0.32073986530303955, 0.243314700656467);26.8151607513;1.0;6;0;0;0;0;();(-2000.0, -2000.0);
06:40:38:805;06:40:38:805;0;15;-1.5;1;0;0;0;0;1;1;1;1;06:40:38:770;1447954836.56;(0.32073986530303955, 0.243314700656467);26.8151607513;1.0;6;0;0;0;0;();(-2000.0, -2000.0);
06:40:38:822;06:40:38:822;0;4;-1.5;1;0;0;0;0;1;1;1;1;06:40:38:770;1447954836.56;(0.32073986530303955, 0.243314700656467);26.8151607513;1.0;6;0;0;0;0;();(-2000.0, -2000.0);
06:40:38:838;06:40:38:838;0;15;-1.5;1;0;0;0;0;1;1;1;1;06:40:38:770;1447954836.56;(0.32073986530303955, 0.243314700656467);26.8151607513;1.0;6;0;0;0;0;();(-2000.0, -2000.0);
06:40:38:882;06:40:38:882;0;3;-1.5;1;0;0;0;0;1;1;1;1;06:40:38:850;1447954836.63;(0.32091917991638186, 0.24286948310004342);26.2606182098;1.0;6;0;0;0;0;();(-2000.0, -2000.0);
06:40:38:885;06:40:38:885;0;4;-1.5;1;0;0;0;0;1;1;1;1;06:40:38:850;1447954836.63;(0.32091917991638186, 0.24286948310004342);26.2606182098;1.0;6;0;0;0;0;();(-2000.0, -2000.0);
06:40:38:900;06:40:38:900;0;15;-1.5;1;0;0;0;0;1;1;1;1;06:40:38:896;1447954836.69;(0.3206658840179443, 0.24274910820855033);25.9666137695;1.0;6;0;0;0;0;();(-2000.0, -2000.0);
06:40:38:934;06:40:38:933;0;15;-1.5;1;0;0;0;0;1;1;1;1;06:40:38:896;1447954836.69;(0.3206658840179443, 0.24274910820855033);25.9666137695;1.0;6;0;0;0;0;();(-2000.0, -2000.0);
06:40:38:950;06:40:38:950;0;4;-1.5;1;0;0;0;0;1;1;1;1;06:40:38:896;1447954836.69;(0.3206658840179443, 0.24274910820855033);25.9666137695;1.0;6;0;0;0;0;();(-2000.0, -2000.0);
06:40:38:967;06:40:38:967;0;15;-1.5;1;0;0;0;0;1;1;1;1;06:40:38:896;1447954836.69;(0.3206658840179443, 0.24274910820855033);25.9666137695;1.0;6;0;0;0;0;();(-2000.0, -2000.0);
06:40:38:984;06:40:38:984;0;4;-1.5;1;0;0;0;0;1;1;1;1;06:40:38:975;1447954836.76;(0.32068026065826416, 0.24327663845486114);26.2190036774;1.0;6;0;0;0;0;();(-2000.0, -2000.0);
06:40:39:007;06:40:39:007;0;9;-1.5;1;0;0;0;0;1;1;1;1;06:40:38:975;1447954836.76;(0.32068026065826416, 0.24327663845486114);26.2190036774;1.0;6;0;0;0;0;();(-2000.0, -2000.0);
06:40:39:023;06:40:39:023;0;15;-1.5;1;0;0;0;0;1;1;1;1;06:40:38:975;1447954836.76;(0.32068026065826416, 0.24327663845486114);26.2190036774;1.0;6;0;0;0;0;();(-2000.0, -2000.0);
06:40:39:040;06:40:39:040;0;4;-1.5;1;0;0;0;0;1;1;1;1;06:40:38:975;1447954836.76;(0.32068026065826416, 0.24327663845486114);26.2190036774;1.0;6;0;0;0;0;();(-2000.0, -2000.0);
06:40:39:089;06:40:39:089;0;9;-1.5;1;0;0;0;0;1;1;1;1;06:40:39:059;1447954836.83;(0.32041795253753663, 0.24254209730360243);26.7081928253;1.0;6;0;0;0;0;();(-2000.0, -2000.0);
06:40:39:092;06:40:39:091;0;15;-1.5;1;0;0;0;0;1;1;1;1;06:40:39:059;1447954836.83;(0.32041795253753663, 0.24254209730360243);26.7081928253;1.0;6;0;0;0;0;();(-2000.0, -2000.0);
06:40:39:106;06:40:39:106;0;12;-1.5;1;0;0;0;0;1;1;1;1;06:40:39:099;1447954836.89;(0.32030866146087644, 0.24292382134331603);26.7377128601;1.0;6;0;0;0;0;();(-2000.0, -2000.0);
06:40:39:123;06:40:39:123;0;15;-1.5;1;0;0;0;0;1;1;1;1;06:40:39:099;1447954836.89;(0.32030866146087644, 0.24292382134331603);26.7377128601;1.0;6;0;0;0;0;();(-2000.0, -2000.0);
06:40:39:139;06:40:39:139;0;4;-1.5;1;0;0;0;0;1;1;1;1;06:40:39:099;1447954836.89;(0.32030866146087644, 0.24292382134331603);26.7377128601;1.0;6;0;0;0;0;();(-2000.0, -2000.0);
06:40:39:173;06:40:39:173;0;10;-1.5;1;0;0;0;0;1;1;1;1;06:40:39:099;1447954836.89;(0.32030866146087644, 0.24292382134331603);26.7377128601;1.0;6;0;0;0;0;();(-2000.0, -2000.0);
06:40:39:189;06:40:39:189;0;15;-1.5;1;0;0;0;0;1;1;1;1;06:40:39:183;1447954836.96;(0.3204967021942139, 0.24319076538085938);26.4151477814;1.0;6;0;0;0;0;();(-2000.0, -2000.0);
06:40:39:213;06:40:39:213;0;4;-1.5;1;0;0;0;0;1;1;1;1;06:40:39:183;1447954836.96;(0.3204967021942139, 0.24319076538085938);26.4151477814;1.0;6;0;0;0;0;();(-2000.0, -2000.0);
06:40:39:230;06:40:39:230;0;9;-1.5;1;0;0;0;0;1;1;1;1;06:40:39:226;1447954837.03;(0.32077789306640625, 0.24281395806206596);26.3143100739;1.0;6;0;0;0;0;();(-2000.0, -2000.0);
06:40:39:247;06:40:39:247;0;5;-1.5;1;0;0;0;0;1;1;1;1;06:40:39:226;1447954837.03;(0.32077789306640625, 0.24281395806206596);26.3143100739;1.0;6;0;0;0;0;();(-2000.0, -2000.0);
06:40:39:271;06:40:39:271;0;10;-1.5;1;0;0;0;0;1;1;1;1;06:40:39:226;1447954837.03;(0.32077789306640625, 0.24281395806206596);26.3143100739;1.0;6;0;0;0;0;();(-2000.0, -2000.0);
06:40:39:298;06:40:39:298;0;9;-1.5;1;0;0;0;0;1;1;1;1;06:40:39:226;1447954837.03;(0.32077789306640625, 0.24281395806206596);26.3143100739;1.0;6;0;0;0;0;();(-2000.0, -2000.0);
06:40:39:314;06:40:39:314;0;6;-1.5;1;0;0;0;0;1;1;1;1;06:40:39:307;1447954837.09;(0.320636248588562, 0.24288414849175344);25.8526344299;1.0;6;0;0;0;0;();(-2000.0, -2000.0);
06:40:39:331;06:40:39:331;0;10;-1.5;1;0;0;0;0;1;1;1;1;06:40:39:307;1447954837.09;(0.320636248588562, 0.24288414849175344);25.8526344299;1.0;6;0;0;0;0;();(-2000.0, -2000.0);
06:40:39:347;06:40:39:347;0;15;-1.5;1;0;0;0;0;1;1;1;1;06:40:39:307;1447954837.09;(0.320636248588562, 0.24288414849175344);25.8526344299;1.0;6;0;0;0;0;();(-2000.0, -2000.0);
06:40:39:364;06:40:39:364;0;4;-1.5;1;0;0;0;0;1;1;1;1;06:40:39:307;1447954837.09;(0.320636248588562, 0.24288414849175344);25.8526344299;1.0;6;0;0;0;0;();(-2000.0, -2000.0);
06:40:39:381;06:40:39:381;0;15;-1.5;1;0;0;0;0;1;1;1;1;06:40:39:307;1447954837.09;(0.320636248588562, 0.24288414849175344);25.8526344299;1.0;6;0;0;0;0;();(-2000.0, -2000.0);
06:40:39:413;06:40:39:413;0;0;-1.5;1;0;0;0;0;1;1;1;1;06:40:39:391;1447954837.16;(0.3204984188079834, 0.24308709038628473);25.8697776794;1.0;6;0;0;0;0;();(-2000.0, -2000.0);
06:40:39:430;06:40:39:430;0;4;-1.5;1;0;0;0;0;1;1;1;1;06:40:39:391;1447954837.16;(0.3204984188079834, 0.24308709038628473);25.8697776794;1.0;6;0;0;0;0;();(-2000.0, -2000.0);
06:40:39:447;06:40:39:447;0;9;-1.5;1;0;0;0;0;1;1;1;1;06:40:39:431;1447954837.23;(0.32072813510894777, 0.2425710042317708);25.8259563446;1.0;6;0;0;0;0;();(-2000.0, -2000.0);
06:40:39:463;06:40:39:463;0;4;-1.5;1;0;0;0;0;1;1;1;1;06:40:39:431;1447954837.23;(0.32072813510894777, 0.2425710042317708);25.8259563446;1.0;6;0;0;0;0;();(-2000.0, -2000.0);
06:40:39:486;06:40:39:486;0;9;-1.5;1;0;0;0;0;1;1;1;1;06:40:39:431;1447954837.23;(0.32072813510894777, 0.2425710042317708);25.8259563446;1.0;6;0;0;0;0;();(-2000.0, -2000.0);
06:40:39:531;06:40:39:531;0;4;-1.5;1;0;0;0;0;1;1;1;1;06:40:39:515;1447954837.29;(0.32082018852233884, 0.2431182861328125);26.0348834991;1.0;6;0;0;0;0;();(-2000.0, -2000.0);
06:40:39:534;06:40:39:534;0;4;-1.5;1;0;0;0;0;1;1;1;1;06:40:39:515;1447954837.29;(0.32082018852233884, 0.2431182861328125);26.0348834991;1.0;6;0;0;0;0;();(-2000.0, -2000.0);
06:40:39:548;06:40:39:548;0;9;-1.5;1;0;0;0;0;1;1;1;1;06:40:39:515;1447954837.29;(0.32082018852233884, 0.2431182861328125);26.0348834991;1.0;6;0;0;0;0;();(-2000.0, -2000.0);
06:40:39:566;06:40:39:565;0;15;-1.5;1;0;0;0;0;1;1;1;1;06:40:39:559;1447954837.36;(0.32053422927856445, 0.24256286621093748);26.0649337769;1.0;6;0;0;0;0;();(-2000.0, -2000.0);
06:40:39:582;06:40:39:582;0;10;-1.5;1;0;0;0;0;1;1;1;1;06:40:39:559;1447954837.36;(0.32053422927856445, 0.24256286621093748);26.0649337769;1.0;6;0;0;0;0;();(-2000.0, -2000.0);
06:40:39:599;06:40:39:599;0;15;-1.5;1;0;0;0;0;1;1;1;1;06:40:39:559;1447954837.36;(0.32053422927856445, 0.24256286621093748);26.0649337769;1.0;6;0;0;0;0;();(-2000.0, -2000.0);
06:40:39:632;06:40:39:632;0;0;-1.5;1;0;0;0;0;1;1;1;1;06:40:39:559;1447954837.36;(0.32053422927856445, 0.24256286621093748);26.0649337769;1.0;6;0;0;0;0;();(-2000.0, -2000.0);
06:40:39:649;06:40:39:648;0;10;-1.5;1;0;0;0;0;1;1;1;1;06:40:39:639;1447954837.43;(0.3204773187637329, 0.24305123223198788);25.875421524;1.0;6;0;0;0;0;();(-2000.0, -2000.0);
06:40:39:665;06:40:39:665;0;15;-1.5;1;0;0;0;0;1;1;1;1;06:40:39:639;1447954837.43;(0.3204773187637329, 0.24305123223198788);25.875421524;1.0;6;0;0;0;0;();(-2000.0, -2000.0);
06:40:39:682;06:40:39:682;0;4;-1.5;1;0;0;0;0;1;1;1;1;06:40:39:639;1447954837.43;(0.3204773187637329, 0.24305123223198788);25.875421524;1.0;6;0;0;0;0;();(-2000.0, -2000.0);
06:40:39:698;06:40:39:698;0;15;-1.5;1;0;0;0;0;1;1;1;1;06:40:39:639;1447954837.43;(0.3204773187637329, 0.24305123223198788);25.875421524;1.0;6;0;0;0;0;();(-2000.0, -2000.0);
06:40:39:737;06:40:39:737;0;10;-1.5;1;0;0;0;0;1;1;1;1;06:40:39:723;1447954837.49;(0.3201559782028198, 0.24309734768337676);26.4209594727;1.0;6;0;0;0;0;();(-2000.0, -2000.0);
06:40:39:754;06:40:39:754;0;15;-1.5;1;0;0;0;0;1;1;1;1;06:40:39:723;1447954837.49;(0.3201559782028198, 0.24309734768337676);26.4209594727;1.0;6;0;0;0;0;();(-2000.0, -2000.0);
06:40:39:782;06:40:39:781;0;5;-1.5;1;0;0;0;0;1;1;1;1;06:40:39:763;1447954837.56;(0.32068781852722167, 0.2429676479763455);26.3307914734;1.0;6;0;0;0;0;();(-2000.0, -2000.0);
06:40:39:784;06:40:39:784;0;5;-1.5;1;0;0;0;0;1;1;1;1;06:40:39:763;1447954837.56;(0.32068781852722167, 0.2429676479763455);26.3307914734;1.0;6;0;0;0;0;();(-2000.0, -2000.0);
06:40:39:798;06:40:39:798;0;0;-1.5;1;0;0;0;0;1;1;1;1;06:40:39:763;1447954837.56;(0.32068781852722167, 0.2429676479763455);26.3307914734;1.0;6;0;0;0;0;();(-2000.0, -2000.0);
06:40:39:831;06:40:39:831;0;15;-1.5;1;0;0;0;0;1;1;1;1;06:40:39:763;1447954837.56;(0.32068781852722167, 0.2429676479763455);26.3307914734;1.0;6;0;0;0;0;();(-2000.0, -2000.0);
06:40:39:848;06:40:39:848;0;4;-1.5;1;0;0;0;0;1;1;1;1;06:40:39:846;1447954837.63;(0.32070877552032473, 0.243144056532118);25.8581485748;1.0;6;0;0;0;0;();(-2000.0, -2000.0);
06:40:39:865;06:40:39:865;0;9;-1.5;1;0;0;0;0;1;1;1;1;06:40:39:846;1447954837.63;(0.32070877552032473, 0.243144056532118);25.8581485748;1.0;6;0;0;0;0;();(-2000.0, -2000.0);
06:40:39:881;06:40:39:881;0;5;-1.5;1;0;0;0;0;1;1;1;1;06:40:39:846;1447954837.63;(0.32070877552032473, 0.243144056532118);25.8581485748;1.0;6;0;0;0;0;();(-2000.0, -2000.0);
06:40:39:914;06:40:39:914;0;15;-1.5;1;0;0;0;0;1;1;1;1;06:40:39:846;1447954837.63;(0.32070877552032473, 0.243144056532118);25.8581485748;1.0;6;0;0;0;0;();(-2000.0, -2000.0);
06:40:39:944;06:40:39:943;0;5;-1.5;1;0;0;0;0;1;1;1;1;06:40:39:931;1447954837.69;(0.3207390308380127, 0.24273096720377607);26.5981788635;1.0;6;0;0;0;0;();(-2000.0, -2000.0);
06:40:39:947;06:40:39:947;0;6;-1.5;1;0;0;0;0;1;1;1;1;06:40:39:931;1447954837.69;(0.3207390308380127, 0.24273096720377607);26.5981788635;1.0;6;0;0;0;0;();(-2000.0, -2000.0);
06:40:39:960;06:40:39:960;0;0;-1.5;1;0;0;0;0;1;1;1;1;06:40:39:931;1447954837.69;(0.3207390308380127, 0.24273096720377607);26.5981788635;1.0;6;0;0;0;0;();(-2000.0, -2000.0);
06:40:39:987;06:40:39:987;0;15;-1.5;1;0;0;0;0;1;1;1;1;06:40:39:971;1447954837.76;(0.3204803466796875, 0.24336403740776913);26.217010498;1.0;6;0;0;0;0;();(-2000.0, -2000.0);
06:40:40:004;06:40:40:004;0;4;-1.5;1;0;0;0;0;1;1;1;1;06:40:39:971;1447954837.76;(0.3204803466796875, 0.24336403740776913);26.217010498;1.0;6;0;0;0;0;();(-2000.0, -2000.0);
06:40:40:021;06:40:40:021;0;9;-1.5;1;0;0;0;0;1;1;1;1;06:40:39:971;1447954837.76;(0.3204803466796875, 0.24336403740776913);26.217010498;1.0;6;0;0;0;0;();(-2000.0, -2000.0);
06:40:40:054;06:40:40:054;0;10;-1.5;1;0;0;0;0;1;1;1;1;06:40:39:971;1447954837.76;(0.3204803466796875, 0.24336403740776913);26.217010498;1.0;6;0;0;0;0;();(-2000.0, -2000.0);
06:40:40:076;06:40:40:076;0;4;-1.5;1;0;0;0;0;1;1;1;1;06:40:40:055;1447954837.83;(0.32096817493438723, 0.2428982204861111);26.3722839355;1.0;8;0;0;0;0;();(-2000.0, -2000.0);
06:40:40:087;06:40:40:087;0;15;-1.5;1;0;0;0;0;1;1;1;1;06:40:40:055;1447954837.83;(0.32096817493438723, 0.2428982204861111);26.3722839355;1.0;8;0;0;0;0;();(-2000.0, -2000.0);
06:40:40:103;06:40:40:103;0;4;-1.5;1;0;0;0;0;1;1;1;1;06:40:40:095;1447954837.89;(0.320743465423584, 0.24303470187717013);25.6900177002;1.0;8;0;0;0;0;();(-2000.0, -2000.0);
06:40:40:120;06:40:40:120;0;10;-1.5;1;0;0;0;0;1;1;1;1;06:40:40:095;1447954837.89;(0.320743465423584, 0.24303470187717013);25.6900177002;1.0;8;0;0;0;0;();(-2000.0, -2000.0);
06:40:40:140;06:40:40:140;0;4;-1.5;1;0;0;0;0;1;1;1;1;06:40:40:095;1447954837.89;(0.320743465423584, 0.24303470187717013);25.6900177002;1.0;8;0;0;0;0;();(-2000.0, -2000.0);
06:40:40:185;06:40:40:185;0;9;-1.5;1;0;0;0;0;1;1;1;1;06:40:40:179;1447954837.96;(0.3211113691329956, 0.24274495442708333);26.0663890839;1.0;8;0;0;0;0;();(-2000.0, -2000.0);
06:40:40:188;06:40:40:188;0;9;-1.5;1;0;0;0;0;1;1;1;1;06:40:40:179;1447954837.96;(0.3211113691329956, 0.24274495442708333);26.0663890839;1.0;8;0;0;0;0;();(-2000.0, -2000.0);
06:40:40:201;06:40:40:201;0;5;-1.5;1;0;0;0;0;1;1;1;1;06:40:40:179;1447954837.96;(0.3211113691329956, 0.24274495442708333);26.0663890839;1.0;8;0;0;0;0;();(-2000.0, -2000.0);
06:40:40:218;06:40:40:218;0;10;-1.5;1;0;0;0;0;1;1;1;1;06:40:40:179;1447954837.96;(0.3211113691329956, 0.24274495442708333);26.0663890839;1.0;8;0;0;0;0;();(-2000.0, -2000.0);
06:40:40:252;06:40:40:251;0;9;-1.5;1;0;0;0;0;1;1;1;1;06:40:40:179;1447954837.96;(0.3211113691329956, 0.24274495442708333);26.0663890839;1.0;8;0;0;0;0;();(-2000.0, -2000.0);
06:40:40:268;06:40:40:268;0;6;-1.5;1;0;0;0;0;1;1;1;1;06:40:40:263;1447954838.03;(0.32114150524139407, 0.24302071465386288);26.3063468933;1.0;8;0;0;0;0;();(-2000.0, -2000.0);
06:40:40:285;06:40:40:284;0;9;-1.5;1;0;0;0;0;1;1;1;1;06:40:40:263;1447954838.03;(0.32114150524139407, 0.24302071465386288);26.3063468933;1.0;8;0;0;0;0;();(-2000.0, -2000.0);
06:40:40:301;06:40:40:301;0;15;-1.5;1;0;0;0;0;1;1;1;1;06:40:40:263;1447954838.03;(0.32114150524139407, 0.24302071465386288);26.3063468933;1.0;8;0;0;0;0;();(-2000.0, -2000.0);
06:40:40:346;06:40:40:346;0;15;-1.5;1;0;0;0;0;1;1;1;1;06:40:40:303;1447954838.09;(0.32102582454681394, 0.24314609103732643);26.6991004944;1.0;8;0;0;0;0;();(-2000.0, -2000.0);
06:40:40:349;06:40:40:349;0;9;-1.5;1;0;0;0;0;1;1;1;1;06:40:40:303;1447954838.09;(0.32102582454681394, 0.24314609103732643);26.6991004944;1.0;8;0;0;0;0;();(-2000.0, -2000.0);
06:40:40:363;06:40:40:363;0;5;-1.5;1;0;0;0;0;1;1;1;1;06:40:40:303;1447954838.09;(0.32102582454681394, 0.24314609103732643);26.6991004944;1.0;8;0;0;0;0;();(-2000.0, -2000.0);
06:40:40:390;06:40:40:390;0;15;-1.5;1;0;0;0;0;1;1;1;1;06:40:40:387;1447954838.16;(0.32071599960327146, 0.2427976820203993);26.2870388031;1.0;8;0;0;0;0;();(-2000.0, -2000.0);
06:40:40:407;06:40:40:407;0;15;-1.5;1;0;0;0;0;1;1;1;1;06:40:40:387;1447954838.16;(0.32071599960327146, 0.2427976820203993);26.2870388031;1.0;8;0;0;0;0;();(-2000.0, -2000.0);
06:40:40:424;06:40:40:424;0;4;-1.5;1;0;0;0;0;1;1;1;1;06:40:40:387;1447954838.16;(0.32071599960327146, 0.2427976820203993);26.2870388031;1.0;8;0;0;0;0;();(-2000.0, -2000.0);
06:40:40:440;06:40:40:440;0;10;-1.5;1;0;0;0;0;1;1;1;1;06:40:40:426;1447954838.23;(0.32049875259399413, 0.24262466430664065);26.2182579041;1.0;8;0;0;0;0;();(-2000.0, -2000.0);
06:40:40:473;06:40:40:473;0;10;-1.5;1;0;0;0;0;1;1;1;1;06:40:40:426;1447954838.23;(0.32049875259399413, 0.24262466430664065);26.2182579041;1.0;8;0;0;0;0;();(-2000.0, -2000.0);
06:40:40:490;06:40:40:490;0;4;-1.5;1;0;0;0;0;1;1;1;1;06:40:40:426;1447954838.23;(0.32049875259399413, 0.24262466430664065);26.2182579041;1.0;8;0;0;0;0;();(-2000.0, -2000.0);
06:40:40:516;06:40:40:516;0;5;-1.5;1;0;0;0;0;1;1;1;1;06:40:40:511;1447954838.29;(0.32058761119842527, 0.2432731628417969);26.3406734467;1.0;8;0;0;0;0;();(-2000.0, -2000.0);
06:40:40:550;06:40:40:550;0;10;-1.5;1;0;0;0;0;1;1;1;1;06:40:40:511;1447954838.29;(0.32058761119842527, 0.2432731628417969);26.3406734467;1.0;8;0;0;0;0;();(-2000.0, -2000.0);
06:40:40:553;06:40:40:553;0;4;-1.5;1;0;0;0;0;1;1;1;1;06:40:40:511;1447954838.29;(0.32058761119842527, 0.2432731628417969);26.3406734467;1.0;8;0;0;0;0;();(-2000.0, -2000.0);
06:40:40:567;06:40:40:567;0;15;-1.5;1;0;0;0;0;1;1;1;1;06:40:40:511;1447954838.29;(0.32058761119842527, 0.2432731628417969);26.3406734467;1.0;8;0;0;0;0;();(-2000.0, -2000.0);
06:40:40:584;06:40:40:584;0;4;-1.5;1;0;0;0;0;1;1;1;1;06:40:40:511;1447954838.29;(0.32058761119842527, 0.2432731628417969);26.3406734467;1.0;8;0;0;0;0;();(-2000.0, -2000.0);
06:40:40:600;06:40:40:600;0;10;-1.5;1;0;0;0;0;1;1;1;1;06:40:40:594;1447954838.36;(0.3204141139984131, 0.24261144002278645);26.3270816803;1.0;8;0;0;0;0;();(-2000.0, -2000.0);
06:40:40:634;06:40:40:633;0;10;-1.5;1;0;0;0;0;1;1;1;1;06:40:40:594;1447954838.36;(0.3204141139984131, 0.24261144002278645);26.3270816803;1.0;8;0;0;0;0;();(-2000.0, -2000.0);
06:40:40:650;06:40:40:650;0;4;-1.5;1;0;0;0;0;1;1;1;1;06:40:40:635;1447954838.43;(0.32037503719329835, 0.24310302734375);25.9131374359;1.0;8;0;0;0;0;();(-2000.0, -2000.0);
06:40:40:667;06:40:40:666;0;9;-1.5;1;0;0;0;0;1;1;1;1;06:40:40:635;1447954838.43;(0.32037503719329835, 0.24310302734375);25.9131374359;1.0;8;0;0;0;0;();(-2000.0, -2000.0);
06:40:40:683;06:40:40:683;0;5;-1.5;1;0;0;0;0;1;1;1;1;06:40:40:635;1447954838.43;(0.32037503719329835, 0.24310302734375);25.9131374359;1.0;8;0;0;0;0;();(-2000.0, -2000.0);
06:40:40:707;06:40:40:700;0;10;-1.5;1;0;0;0;0;1;1;1;1;06:40:40:635;1447954838.43;(0.32037503719329835, 0.24310302734375);25.9131374359;1.0;8;0;0;0;0;();(-2000.0, -2000.0);
06:40:40:720;06:40:40:720;0;15;-1.5;1;0;0;0;0;1;1;1;1;06:40:40:720;1447954838.49;(0.3203864574432373, 0.2435126410590278);26.5802993774;1.0;8;0;0;0;0;();(-2000.0, -2000.0);
06:40:40:755;06:40:40:755;0;0;-1.5;1;0;0;0;0;1;1;1;1;06:40:40:720;1447954838.49;(0.3203864574432373, 0.2435126410590278);26.5802993774;1.0;8;0;0;0;0;();(-2000.0, -2000.0);
06:40:40:772;06:40:40:772;0;11;-1.5;1;0;0;0;0;1;1;1;1;06:40:40:759;1447954838.56;(0.3208150863647461, 0.2433709038628472);26.0743083954;1.0;8;0;0;0;0;();(-2000.0, -2000.0);
06:40:40:788;06:40:40:788;0;3;-1.5;1;0;0;0;0;1;1;1;1;06:40:40:759;1447954838.56;(0.3208150863647461, 0.2433709038628472);26.0743083954;1.0;8;0;0;0;0;();(-2000.0, -2000.0);
06:40:40:805;06:40:40:805;0;5;-1.5;1;0;0;0;0;1;1;1;1;06:40:40:759;1447954838.56;(0.3208150863647461, 0.2433709038628472);26.0743083954;1.0;8;0;0;0;0;();(-2000.0, -2000.0);
06:40:40:821;06:40:40:821;0;0;-1.5;1;0;0;0;0;1;1;1;1;06:40:40:759;1447954838.56;(0.3208150863647461, 0.2433709038628472);26.0743083954;1.0;8;0;0;0;0;();(-2000.0, -2000.0);
06:40:40:838;06:40:40:838;0;5;-1.5;1;0;0;0;0;1;1;1;1;06:40:40:759;1447954838.56;(0.3208150863647461, 0.2433709038628472);26.0743083954;1.0;8;0;0;0;0;();(-2000.0, -2000.0);
06:40:40:871;06:40:40:871;0;4;-1.5;1;0;0;0;0;1;1;1;1;06:40:40:843;1447954838.63;(0.32077410221099856, 0.24286804199218748);26.18176651;1.0;8;0;0;0;0;();(-2000.0, -2000.0);
06:40:40:888;06:40:40:888;0;0;-1.5;1;0;0;0;0;1;1;1;1;06:40:40:843;1447954838.63;(0.32077410221099856, 0.24286804199218748);26.18176651;1.0;8;0;0;0;0;();(-2000.0, -2000.0);
06:40:40:904;06:40:40:904;0;4;-1.5;1;0;0;0;0;1;1;1;1;06:40:40:843;1447954838.63;(0.32077410221099856, 0.24286804199218748);26.18176651;1.0;8;0;0;0;0;();(-2000.0, -2000.0);
06:40:40:921;06:40:40:921;0;9;-1.5;1;0;0;0;0;1;1;1;1;06:40:40:843;1447954838.63;(0.32077410221099856, 0.24286804199218748);26.18176651;1.0;8;0;0;0;0;();(-2000.0, -2000.0);
06:40:40:977;06:40:40:976;0;15;-1.5;1;0;0;0;0;1;1;1;1;06:40:40:968;1447954838.76;(0.3207377910614014, 0.24337692260742183);25.7311286926;1.0;8;0;0;0;0;();(-2000.0, -2000.0);
06:40:40:979;06:40:40:979;0;15;-1.5;1;0;0;0;0;1;1;1;1;06:40:40:968;1447954838.76;(0.3207377910614014, 0.24337692260742183);25.7311286926;1.0;8;0;0;0;0;();(-2000.0, -2000.0);
06:40:40:993;06:40:40:993;0;4;-1.5;1;0;0;0;0;1;1;1;1;06:40:40:968;1447954838.76;(0.3207377910614014, 0.24337692260742183);25.7311286926;1.0;8;0;0;0;0;();(-2000.0, -2000.0);
06:40:41:019;06:40:41:019;0;10;-1.5;1;0;0;0;0;1;1;1;1;06:40:40:968;1447954838.76;(0.3207377910614014, 0.24337692260742183);25.7311286926;1.0;8;0;0;0;0;();(-2000.0, -2000.0);
06:40:41:022;06:40:41:022;0;10;-1.5;1;0;0;0;0;1;1;1;1;06:40:40:968;1447954838.76;(0.3207377910614014, 0.24337692260742183);25.7311286926;1.0;8;0;0;0;0;();(-2000.0, -2000.0);
06:40:41:053;06:40:41:053;0;9;-1.5;1;0;0;0;0;1;1;1;1;06:40:41:050;1447954838.83;(0.32047903537750244, 0.2429354349772136);26.3178157806;1.0;8;0;0;0;0;();(-2000.0, -2000.0);
06:40:41:069;06:40:41:069;0;0;-1.5;1;0;0;0;0;1;1;1;1;06:40:41:050;1447954838.83;(0.32047903537750244, 0.2429354349772136);26.3178157806;1.0;8;0;0;0;0;();(-2000.0, -2000.0);
06:40:41:086;06:40:41:086;0;10;-1.5;1;0;0;0;0;1;1;1;1;06:40:41:050;1447954838.83;(0.32047903537750244, 0.2429354349772136);26.3178157806;1.0;8;0;0;0;0;();(-2000.0, -2000.0);
06:40:41:102;06:40:41:102;0;4;-1.5;1;0;0;0;0;1;1;1;1;06:40:41:050;1447954838.83;(0.32047903537750244, 0.2429354349772136);26.3178157806;1.0;8;0;0;0;0;();(-2000.0, -2000.0);
06:40:41:119;06:40:41:119;0;10;-1.5;1;0;0;0;0;1;1;1;1;06:40:41:050;1447954838.83;(0.32047903537750244, 0.2429354349772136);26.3178157806;1.0;8;0;0;0;0;();(-2000.0, -2000.0);
06:40:41:152;06:40:41:152;0;9;-1.5;1;0;0;0;0;1;1;1;1;06:40:41:135;1447954838.89;(0.3204468011856079, 0.24284218682183156);26.0590667725;1.0;8;0;0;0;0;();(-2000.0, -2000.0);
06:40:41:172;06:40:41:172;0;10;-1.5;1;0;0;0;0;1;1;1;1;06:40:41:135;1447954838.89;(0.3204468011856079, 0.24284218682183156);26.0590667725;1.0;8;0;0;0;0;();(-2000.0, -2000.0);
06:40:41:189;06:40:41:189;0;4;-1.5;1;0;0;0;0;1;1;1;1;06:40:41:175;1447954838.96;(0.3203422069549561, 0.24287490844726567);26.4072322845;1.0;8;0;0;0;0;();(-2000.0, -2000.0);
06:40:41:216;06:40:41:216;0;9;-1.5;1;0;0;0;0;1;1;1;1;06:40:41:175;1447954838.96;(0.3203422069549561, 0.24287490844726567);26.4072322845;1.0;8;0;0;0;0;();(-2000.0, -2000.0);
06:40:41:233;06:40:41:233;0;0;-1.5;1;0;0;0;0;1;1;1;1;06:40:41:175;1447954838.96;(0.3203422069549561, 0.24287490844726567);26.4072322845;1.0;8;0;0;0;0;();(-2000.0, -2000.0);
06:40:41:250;06:40:41:249;0;10;-1.5;1;0;0;0;0;1;1;1;1;06:40:41:175;1447954838.96;(0.3203422069549561, 0.24287490844726567);26.4072322845;1.0;8;0;0;0;0;();(-2000.0, -2000.0);
06:40:41:266;06:40:41:266;0;15;-1.5;1;0;0;0;0;1;1;1;1;06:40:41:258;1447954839.03;(0.32067198753356935, 0.24299697875976567);26.1673755646;1.0;8;0;0;0;0;();(-2000.0, -2000.0);
06:40:41:283;06:40:41:283;0;10;-1.5;1;0;0;0;0;1;1;1;1;06:40:41:258;1447954839.03;(0.32067198753356935, 0.24299697875976567);26.1673755646;1.0;8;0;0;0;0;();(-2000.0, -2000.0);
06:40:41:299;06:40:41:299;0;15;-1.5;1;0;0;0;0;1;1;1;1;06:40:41:299;1447954839.09;(0.32075111865997313, 0.24305394490559895);26.0413417816;1.0;8;0;0;0;0;();(-2000.0, -2000.0);
06:40:41:332;06:40:41:332;0;0;-1.5;1;0;0;0;0;1;1;1;1;06:40:41:299;1447954839.09;(0.32075111865997313, 0.24305394490559895);26.0413417816;1.0;8;0;0;0;0;();(-2000.0, -2000.0);
06:40:41:349;06:40:41:349;0;4;-1.5;1;0;0;0;0;1;1;1;1;06:40:41:299;1447954839.09;(0.32075111865997313, 0.24305394490559895);26.0413417816;1.0;8;0;0;0;0;();(-2000.0, -2000.0);
06:40:41:367;06:40:41:367;0;15;-1.5;1;0;0;0;0;1;1;1;1;06:40:41:299;1447954839.09;(0.32075111865997313, 0.24305394490559895);26.0413417816;1.0;8;0;0;0;0;();(-2000.0, -2000.0);
06:40:41:395;06:40:41:395;0;15;-1.5;1;0;0;0;0;1;1;1;1;06:40:41:383;1447954839.16;(0.3206022262573242, 0.24285074869791667);26.1752357483;1.0;8;0;0;0;0;();(-2000.0, -2000.0);
06:40:41:425;06:40:41:424;0;15;-1.5;1;0;0;0;0;1;1;1;1;06:40:41:423;1447954839.23;(0.32045855522155764, 0.24290559556749136);26.0257759094;1.0;8;0;0;0;0;();(-2000.0, -2000.0);
06:40:41:427;06:40:41:427;0;15;-1.5;1;0;0;0;0;1;1;1;1;06:40:41:423;1447954839.23;(0.32045855522155764, 0.24290559556749136);26.0257759094;1.0;8;0;0;0;0;();(-2000.0, -2000.0);
06:40:41:441;06:40:41:441;0;4;-1.5;1;0;0;0;0;1;1;1;1;06:40:41:423;1447954839.23;(0.32045855522155764, 0.24290559556749136);26.0257759094;1.0;8;0;0;0;0;();(-2000.0, -2000.0);
06:40:41:458;06:40:41:458;0;15;-1.5;1;0;0;0;0;1;1;1;1;06:40:41:423;1447954839.23;(0.32045855522155764, 0.24290559556749136);26.0257759094;1.0;8;0;0;0;0;();(-2000.0, -2000.0);
06:40:41:491;06:40:41:491;0;0;-1.5;1;0;0;0;0;1;1;1;1;06:40:41:423;1447954839.23;(0.32045855522155764, 0.24290559556749136);26.0257759094;1.0;8;0;0;0;0;();(-2000.0, -2000.0);
06:40:41:507;06:40:41:507;0;4;-1.5;1;0;0;0;0;1;1;1;1;06:40:41:506;1447954839.29;(0.3206651210784912, 0.24295103285047748);26.5092372894;1.0;8;0;0;0;0;();(-2000.0, -2000.0);
06:40:41:524;06:40:41:524;0;15;-1.5;1;0;0;0;0;1;1;1;1;06:40:41:506;1447954839.29;(0.3206651210784912, 0.24295103285047748);26.5092372894;1.0;8;0;0;0;0;();(-2000.0, -2000.0);
06:40:41:541;06:40:41:541;0;4;-1.5;1;0;0;0;0;1;1;1;1;06:40:41:506;1447954839.29;(0.3206651210784912, 0.24295103285047748);26.5092372894;1.0;8;0;0;0;0;();(-2000.0, -2000.0);
06:40:41:588;06:40:41:587;0;15;-1.5;1;0;0;0;0;1;1;1;1;06:40:41:506;1447954839.29;(0.3206651210784912, 0.24295103285047748);26.5092372894;1.0;8;0;0;0;0;();(-2000.0, -2000.0);
06:40:41:590;06:40:41:590;0;15;-1.5;1;0;0;0;0;1;1;1;1;06:40:41:506;1447954839.29;(0.3206651210784912, 0.24295103285047748);26.5092372894;1.0;8;0;0;0;0;();(-2000.0, -2000.0);
06:40:41:605;06:40:41:605;0;4;-1.5;1;0;0;0;0;1;1;1;1;06:40:41:592;1447954839.36;(0.3208893060684204, 0.2428460015190972);26.4790267944;1.0;8;0;0;0;0;();(-2000.0, -2000.0);
06:40:41:622;06:40:41:622;0;15;-1.5;1;0;0;0;0;1;1;1;1;06:40:41:592;1447954839.36;(0.3208893060684204, 0.2428460015190972);26.4790267944;1.0;8;0;0;0;0;();(-2000.0, -2000.0);
06:40:41:639;06:40:41:639;0;5;-1.5;1;0;0;0;0;1;1;1;1;06:40:41:630;1447954839.43;(0.32061846256256105, 0.24333453708224828);26.6395797729;1.0;8;0;0;0;0;();(-2000.0, -2000.0);
06:40:41:672;06:40:41:672;0;4;-1.5;1;0;0;0;0;1;1;1;1;06:40:41:630;1447954839.43;(0.32061846256256105, 0.24333453708224828);26.6395797729;1.0;8;0;0;0;0;();(-2000.0, -2000.0);
06:40:41:688;06:40:41:688;0;9;-1.5;1;0;0;0;0;1;1;1;1;06:40:41:630;1447954839.43;(0.32061846256256105, 0.24333453708224828);26.6395797729;1.0;8;0;0;0;0;();(-2000.0, -2000.0);
06:40:41:705;06:40:41:705;0;4;-1.5;1;0;0;0;0;1;1;1;1;06:40:41:630;1447954839.43;(0.32061846256256105, 0.24333453708224828);26.6395797729;1.0;8;0;0;0;0;();(-2000.0, -2000.0);
06:40:41:728;06:40:41:728;0;9;-1.5;1;0;0;0;0;1;1;1;1;06:40:41:714;1447954839.49;(0.32050628662109376, 0.24287083943684895);26.5969009399;1.0;8;0;0;0;0;();(-2000.0, -2000.0);
06:40:41:745;06:40:41:745;0;15;-1.5;1;0;0;0;0;1;1;1;1;06:40:41:714;1447954839.49;(0.32050628662109376, 0.24287083943684895);26.5969009399;1.0;8;0;0;0;0;();(-2000.0, -2000.0);
06:40:41:762;06:40:41:762;0;12;-1.5;1;0;0;0;0;1;1;1;1;06:40:41:754;1447954839.56;(0.3210063219070435, 0.24329571194118926);26.3670520782;1.0;8;0;0;0;0;();(-2000.0, -2000.0);
06:40:41:805;06:40:41:805;0;5;-1.5;1;0;0;0;0;1;1;1;1;06:40:41:754;1447954839.56;(0.3210063219070435, 0.24329571194118926);26.3670520782;1.0;8;0;0;0;0;();(-2000.0, -2000.0);
06:40:41:808;06:40:41:808;0;5;-1.5;1;0;0;0;0;1;1;1;1;06:40:41:754;1447954839.56;(0.3210063219070435, 0.24329571194118926);26.3670520782;1.0;8;0;0;0;0;();(-2000.0, -2000.0);
06:40:41:822;06:40:41:822;0;5;-1.5;1;0;0;0;0;1;1;1;1;06:40:41:754;1447954839.56;(0.3210063219070435, 0.24329571194118926);26.3670520782;1.0;8;0;0;0;0;();(-2000.0, -2000.0);
06:40:41:838;06:40:41:838;0;15;-1.5;1;0;0;0;0;1;1;1;1;06:40:41:754;1447954839.56;(0.3210063219070435, 0.24329571194118926);26.3670520782;1.0;8;0;0;0;0;();(-2000.0, -2000.0);
06:40:41:872;06:40:41:871;0;0;-1.5;1;0;0;0;0;1;1;1;1;06:40:41:839;1447954839.63;(0.32072579860687256, 0.24281438191731775);26.6950035095;1.0;8;0;0;0;0;();(-2000.0, -2000.0);
06:40:41:888;06:40:41:888;0;5;-1.5;1;0;0;0;0;1;1;1;1;06:40:41:839;1447954839.63;(0.32072579860687256, 0.24281438191731775);26.6950035095;1.0;8;0;0;0;0;();(-2000.0, -2000.0);
06:40:41:905;06:40:41:905;0;10;-1.5;1;0;0;0;0;1;1;1;1;06:40:41:839;1447954839.63;(0.32072579860687256, 0.24281438191731775);26.6950035095;1.0;8;0;0;0;0;();(-2000.0, -2000.0);
06:40:41:921;06:40:41:921;0;10;-1.5;1;0;0;0;0;1;1;1;1;06:40:41:839;1447954839.63;(0.32072579860687256, 0.24281438191731775);26.6950035095;1.0;8;0;0;0;0;();(-2000.0, -2000.0);
06:40:41:954;06:40:41:954;0;5;-1.5;1;0;0;0;0;1;1;1;1;06:40:41:922;1447954839.69;(0.32065515518188475, 0.2425279405381945);26.2407894135;1.0;8;0;0;0;0;();(-2000.0, -2000.0);
06:40:41:971;06:40:41:971;0;0;-1.5;1;0;0;0;0;1;1;1;1;06:40:41:962;1447954839.76;(0.320648717880249, 0.2428111606174045);25.9159145355;1.0;8;0;0;0;0;();(-2000.0, -2000.0);
06:40:42:000;06:40:42:000;0;15;-1.5;1;0;0;0;0;1;1;1;1;06:40:41:962;1447954839.76;(0.320648717880249, 0.2428111606174045);25.9159145355;1.0;8;0;0;0;0;();(-2000.0, -2000.0);
06:40:42:002;06:40:42:002;0;15;-1.5;1;0;0;0;0;1;1;1;1;06:40:41:962;1447954839.76;(0.320648717880249, 0.2428111606174045);25.9159145355;1.0;8;0;0;0;0;();(-2000.0, -2000.0);
06:40:42:028;06:40:42:028;0;5;-1.5;1;0;0;0;0;1;1;1;1;06:40:41:962;1447954839.76;(0.320648717880249, 0.2428111606174045);25.9159145355;1.0;8;0;0;0;0;();(-2000.0, -2000.0);
06:40:42:045;06:40:42:045;0;10;-1.5;1;0;0;0;0;1;1;1;1;06:40:41:962;1447954839.76;(0.320648717880249, 0.2428111606174045);25.9159145355;1.0;8;0;0;0;0;();(-2000.0, -2000.0);
06:40:42:062;06:40:42:062;0;15;-1.5;1;0;0;0;0;1;1;1;1;06:40:42:046;1447954839.83;(0.3208069086074829, 0.24280548095703125);26.3679771423;1.0;8;0;0;0;0;();(-2000.0, -2000.0);
06:40:42:079;06:40:42:079;0;10;-1.5;1;0;0;0;0;1;1;1;1;06:40:42:046;1447954839.83;(0.3208069086074829, 0.24280548095703125);26.3679771423;1.0;8;0;0;0;0;();(-2000.0, -2000.0);
06:40:42:112;06:40:42:112;0;9;-1.5;1;0;0;0;0;1;1;1;1;06:40:42:046;1447954839.83;(0.3208069086074829, 0.24280548095703125);26.3679771423;1.0;8;0;0;0;0;();(-2000.0, -2000.0);
06:40:42:128;06:40:42:128;0;0;-1.5;1;0;0;0;0;1;1;1;1;06:40:42:126;1447954839.89;(0.3208777904510498, 0.24323442247178817);26.0714683533;1.0;8;0;0;0;0;();(-2000.0, -2000.0);
06:40:42:145;06:40:42:145;0;4;-1.5;1;0;0;0;0;1;1;1;1;06:40:42:126;1447954839.89;(0.3208777904510498, 0.24323442247178817);26.0714683533;1.0;8;0;0;0;0;();(-2000.0, -2000.0);
06:40:42:162;06:40:42:162;0;15;-1.5;1;0;0;0;0;1;1;1;1;06:40:42:126;1447954839.89;(0.3208777904510498, 0.24323442247178817);26.0714683533;1.0;8;0;0;0;0;();(-2000.0, -2000.0);
06:40:42:178;06:40:42:178;0;4;-1.5;1;0;0;0;0;1;1;1;1;06:40:42:170;1447954839.96;(0.32079062461853025, 0.2431749131944444);26.1510448456;1.0;8;0;0;0;0;();(-2000.0, -2000.0);
06:40:42:225;06:40:42:225;0;15;-1.5;1;0;0;0;0;1;1;1;1;06:40:42:170;1447954839.96;(0.32079062461853025, 0.2431749131944444);26.1510448456;1.0;8;0;0;0;0;();(-2000.0, -2000.0);
06:40:42:228;06:40:42:228;0;15;-1.5;1;0;0;0;0;1;1;1;1;06:40:42:170;1447954839.96;(0.32079062461853025, 0.2431749131944444);26.1510448456;1.0;8;0;0;0;0;();(-2000.0, -2000.0);
06:40:42:242;06:40:42:242;0;10;-1.5;1;0;0;0;0;1;1;1;1;06:40:42:170;1447954839.96;(0.32079062461853025, 0.2431749131944444);26.1510448456;1.0;8;0;0;0;0;();(-2000.0, -2000.0);
06:40:42:258;06:40:42:258;0;15;-1.5;1;0;0;0;0;1;1;1;1;06:40:42:255;1447954840.03;(0.3207491397857666, 0.24298197428385415);26.7184734344;1.0;8;0;0;0;0;();(-2000.0, -2000.0);
06:40:42:292;06:40:42:291;0;5;-1.5;1;0;0;0;0;1;1;1;1;06:40:42:255;1447954840.03;(0.3207491397857666, 0.24298197428385415);26.7184734344;1.0;8;0;0;0;0;();(-2000.0, -2000.0);
