%Timestamp,timestamp_write;timestamp_gotpupil;eyetrackertime;norm_pos;diameter;confidence;timestamp_gotbitdata;CRC;SEQ;AnalogOutp1;AnalogOutp2;AnalogOutp3;AnalogOutp4;AnalogOutp5;AnalogOutp6;DigitalOutp1;DigitalOutp2;igitalOutp3;DigitalOutp4;nplanes;lastaction;lastactiondetails;positivescore;negativescore;targetpositions;collision_point
04:23:01:686;;;;;;;;;;;;;;1447946579.32;(0.3218050479888916, 0.8092632505628798);36.2050132751;1.0;2;0;0;0;0;();(0.0, 0.0);
04:23:01:694;;;;;;;;;;;;;;1447946579.32;(0.3218050479888916, 0.8092632505628798);36.2050132751;1.0;2;0;0;0;0;();(-2000.0, -2000.0);
04:23:01:699;;;;;;;;;;;;;;1447946579.32;(0.3218050479888916, 0.8092632505628798);36.2050132751;1.0;2;0;0;0;0;();(-2000.0, -2000.0);
04:23:01:704;;;;;;;;;;;;;;04:23:01:701;1447946579.39;(0.3219229936599731, 0.8096391677856445);35.3301200867;1.0;2;0;0;0;0;();(-2000.0, -2000.0);
04:23:01:709;;;;;;;;;;;;;;04:23:01:701;1447946579.39;(0.3219229936599731, 0.8096391677856445);35.3301200867;1.0;2;0;0;0;0;();(-2000.0, -2000.0);
04:23:01:713;;;;;;;;;;;;;;04:23:01:701;1447946579.39;(0.3219229936599731, 0.8096391677856445);35.3301200867;1.0;2;0;0;0;0;();(-2000.0, -2000.0);
04:23:01:717;;;;;;;;;;;;;;04:23:01:701;1447946579.39;(0.3219229936599731, 0.8096391677856445);35.3301200867;1.0;2;0;0;0;0;();(-2000.0, -2000.0);
04:23:01:721;;;;;;;;;;;;;;04:23:01:701;1447946579.39;(0.3219229936599731, 0.8096391677856445);35.3301200867;1.0;2;0;0;0;0;();(-2000.0, -2000.0);
04:23:01:725;;;;;;;;;;;;;;04:23:01:701;1447946579.39;(0.3219229936599731, 0.8096391677856445);35.3301200867;1.0;2;0;0;0;0;();(-2000.0, -2000.0);
04:23:01:729;;;;;;;;;;;;;;04:23:01:701;1447946579.39;(0.3219229936599731, 0.8096391677856445);35.3301200867;1.0;2;0;0;0;0;();(-2000.0, -2000.0);
04:23:01:733;;;;;;;;;;;;;;04:23:01:701;1447946579.39;(0.3219229936599731, 0.8096391677856445);35.3301200867;1.0;2;0;0;0;0;();(-2000.0, -2000.0);
04:23:01:737;;;;;;;;;;;;;;04:23:01:701;1447946579.39;(0.3219229936599731, 0.8096391677856445);35.3301200867;1.0;2;0;0;0;0;();(-2000.0, -2000.0);
04:23:01:741;;;;;;;;;;;;;;04:23:01:701;1447946579.39;(0.3219229936599731, 0.8096391677856445);35.3301200867;1.0;2;0;0;0;0;();(-2000.0, -2000.0);
04:23:01:745;;;;;;;;;;;;;;04:23:01:701;1447946579.39;(0.3219229936599731, 0.8096391677856445);35.3301200867;1.0;2;0;0;0;0;();(-2000.0, -2000.0);
04:23:01:749;;;;;;;;;;;;;;04:23:01:701;1447946579.39;(0.3219229936599731, 0.8096391677856445);35.3301200867;1.0;2;0;0;0;0;();(-2000.0, -2000.0);
04:23:01:752;;;;;;;;;;;;;;04:23:01:701;1447946579.39;(0.3219229936599731, 0.8096391677856445);35.3301200867;1.0;2;0;0;0;0;();(-2000.0, -2000.0);
04:23:02:056;;;;;;;;;;;;;;04:23:02:037;1447946579.72;(0.32164275646209717, 0.8098357094658746);35.8463554382;1.0;2;0;0;0;0;();(-2000.0, -2000.0);
04:23:02:059;;;;;;;;;;;;;;04:23:02:037;1447946579.72;(0.32164275646209717, 0.8098357094658746);35.8463554382;1.0;2;0;0;0;0;();(-2000.0, -2000.0);
04:23:02:061;;;;;;;;;;;;;;04:23:02:037;1447946579.72;(0.32164275646209717, 0.8098357094658746);35.8463554382;1.0;2;0;0;0;0;();(-2000.0, -2000.0);
04:23:02:063;;;;;;;;;;;;;;04:23:02:037;1447946579.72;(0.32164275646209717, 0.8098357094658746);35.8463554382;1.0;2;0;0;0;0;();(-2000.0, -2000.0);
04:23:02:066;;;;;;;;;;;;;;04:23:02:037;1447946579.72;(0.32164275646209717, 0.8098357094658746);35.8463554382;1.0;2;0;0;0;0;();(-2000.0, -2000.0);
04:23:02:067;;;;;;;;;;;;;;04:23:02:037;1447946579.72;(0.32164275646209717, 0.8098357094658746);35.8463554382;1.0;2;0;0;0;0;();(-2000.0, -2000.0);
04:23:02:070;;;;;;;;;;;;;;04:23:02:037;1447946579.72;(0.32164275646209717, 0.8098357094658746);35.8463554382;1.0;2;0;0;0;0;();(-2000.0, -2000.0);
04:23:02:072;;;;;;;;;;;;;;04:23:02:037;1447946579.72;(0.32164275646209717, 0.8098357094658746);35.8463554382;1.0;2;0;0;0;0;();(-2000.0, -2000.0);
04:23:02:074;;;;;;;;;;;;;;04:23:02:037;1447946579.72;(0.32164275646209717, 0.8098357094658746);35.8463554382;1.0;2;0;0;0;0;();(-2000.0, -2000.0);
04:23:02:076;;;;;;;;;;;;;;04:23:02:037;1447946579.72;(0.32164275646209717, 0.8098357094658746);35.8463554382;1.0;2;0;0;0;0;();(-2000.0, -2000.0);
04:23:02:077;;;;;;;;;;;;;;04:23:02:037;1447946579.72;(0.32164275646209717, 0.8098357094658746);35.8463554382;1.0;2;0;0;0;0;();(-2000.0, -2000.0);
04:23:02:079;;;;;;;;;;;;;;04:23:02:037;1447946579.72;(0.32164275646209717, 0.8098357094658746);35.8463554382;1.0;2;0;0;0;0;();(-2000.0, -2000.0);
04:23:02:080;;;;;;;;;;;;;;04:23:02:037;1447946579.72;(0.32164275646209717, 0.8098357094658746);35.8463554382;1.0;2;0;0;0;0;();(-2000.0, -2000.0);
04:23:02:082;;;;;;;;;;;;;;04:23:02:037;1447946579.72;(0.32164275646209717, 0.8098357094658746);35.8463554382;1.0;2;0;0;0;0;();(-2000.0, -2000.0);
04:23:02:083;;;;;;;;;;;;;;04:23:02:037;1447946579.72;(0.32164275646209717, 0.8098357094658746);35.8463554382;1.0;2;0;0;0;0;();(-2000.0, -2000.0);
04:23:02:085;;;;;;;;;;;;;;04:23:02:037;1447946579.72;(0.32164275646209717, 0.8098357094658746);35.8463554382;1.0;2;0;0;0;0;();(-2000.0, -2000.0);
04:23:02:086;;;;;;;;;;;;;;04:23:02:037;1447946579.72;(0.32164275646209717, 0.8098357094658746);35.8463554382;1.0;2;0;0;0;0;();(-2000.0, -2000.0);
04:23:04:076;;;;;;;;;;;;;;04:23:04:045;1447946581.72;(0.32173311710357666, 0.8095051447550455);36.3794250488;1.0;2;0;0;0;0;();(-2000.0, -2000.0);
04:23:04:079;;;;;;;;;;;;;;04:23:04:045;1447946581.72;(0.32173311710357666, 0.8095051447550455);36.3794250488;1.0;2;0;0;0;0;();(-2000.0, -2000.0);
04:23:04:082;;;;;;;;;;;;;;04:23:04:045;1447946581.72;(0.32173311710357666, 0.8095051447550455);36.3794250488;1.0;2;0;0;0;0;();(-2000.0, -2000.0);
04:23:04:084;;;;;;;;;;;;;;04:23:04:045;1447946581.72;(0.32173311710357666, 0.8095051447550455);36.3794250488;1.0;2;0;0;0;0;();(-2000.0, -2000.0);
04:23:04:088;;;;;;;;;;;;;;04:23:04:045;1447946581.72;(0.32173311710357666, 0.8095051447550455);36.3794250488;1.0;2;0;0;0;0;();(-2000.0, -2000.0);
04:23:04:090;;;;;;;;;;;;;;04:23:04:045;1447946581.72;(0.32173311710357666, 0.8095051447550455);36.3794250488;1.0;2;0;0;0;0;();(-2000.0, -2000.0);
04:23:04:092;;;;;;;;;;;;;;04:23:04:045;1447946581.72;(0.32173311710357666, 0.8095051447550455);36.3794250488;1.0;2;0;0;0;0;();(-2000.0, -2000.0);
04:23:04:095;;;;;;;;;;;;;;04:23:04:045;1447946581.72;(0.32173311710357666, 0.8095051447550455);36.3794250488;1.0;2;0;0;0;0;();(-2000.0, -2000.0);
04:23:04:097;;;;;;;;;;;;;;04:23:04:045;1447946581.72;(0.32173311710357666, 0.8095051447550455);36.3794250488;1.0;2;0;0;0;0;();(-2000.0, -2000.0);
04:23:04:099;;;;;;;;;;;;;;04:23:04:045;1447946581.72;(0.32173311710357666, 0.8095051447550455);36.3794250488;1.0;2;0;0;0;0;();(-2000.0, -2000.0);
04:23:04:101;;;;;;;;;;;;;;04:23:04:045;1447946581.72;(0.32173311710357666, 0.8095051447550455);36.3794250488;1.0;2;0;0;0;0;();(-2000.0, -2000.0);
04:23:04:103;;;;;;;;;;;;;;04:23:04:045;1447946581.72;(0.32173311710357666, 0.8095051447550455);36.3794250488;1.0;2;0;0;0;0;();(-2000.0, -2000.0);
04:23:04:105;;;;;;;;;;;;;;04:23:04:045;1447946581.72;(0.32173311710357666, 0.8095051447550455);36.3794250488;1.0;2;0;0;0;0;();(-2000.0, -2000.0);
04:23:04:107;;;;;;;;;;;;;;04:23:04:045;1447946581.72;(0.32173311710357666, 0.8095051447550455);36.3794250488;1.0;2;0;0;0;0;();(-2000.0, -2000.0);
04:23:04:109;;;;;;;;;;;;;;04:23:04:045;1447946581.72;(0.32173311710357666, 0.8095051447550455);36.3794250488;1.0;2;0;0;0;0;();(-2000.0, -2000.0);
04:23:04:110;;;;;;;;;;;;;;04:23:04:045;1447946581.72;(0.32173311710357666, 0.8095051447550455);36.3794250488;1.0;2;0;0;0;0;();(-2000.0, -2000.0);
04:23:04:112;;;;;;;;;;;;;;04:23:04:045;1447946581.72;(0.32173311710357666, 0.8095051447550455);36.3794250488;1.0;2;0;0;0;0;();(-2000.0, -2000.0);
04:23:04:115;;;;;;;;;;;;;;04:23:04:115;1447946581.79;(0.32154738903045654, 0.8100369347466363);35.7997016907;1.0;2;0;0;0;0;();(-2000.0, -2000.0);
04:23:04:132;;;;;;;;;;;;;;04:23:04:115;1447946581.79;(0.32154738903045654, 0.8100369347466363);35.7997016907;1.0;2;0;0;0;0;();(-2000.0, -2000.0);
04:23:04:148;;;;;;;;;;;;;;04:23:04:115;1447946581.79;(0.32154738903045654, 0.8100369347466363);35.7997016907;1.0;2;0;0;0;0;();(-2000.0, -2000.0);
04:23:04:165;;;;;;;;;;;;;;04:23:04:115;1447946581.79;(0.32154738903045654, 0.8100369347466363);35.7997016907;1.0;2;0;0;0;0;();(-2000.0, -2000.0);
04:23:04:183;;;;;;;;;;;;;;04:23:04:115;1447946581.79;(0.32154738903045654, 0.8100369347466363);35.7997016907;1.0;2;0;0;0;0;();(-2000.0, -2000.0);
04:23:04:198;;;;;;;;;;;;;;04:23:04:183;1447946581.85;(0.3215953350067139, 0.8098322762383355);36.3923721313;1.0;2;0;0;0;0;();(-2000.0, -2000.0);
04:23:04:231;;;;;;;;;;;;;;04:23:04:183;1447946581.85;(0.3215953350067139, 0.8098322762383355);36.3923721313;1.0;2;0;0;0;0;();(-2000.0, -2000.0);
04:23:04:248;;;;;;;;;;;;;;04:23:04:246;1447946581.92;(0.32174232006073, 0.8093875037299262);36.2524490356;1.0;2;0;0;0;0;();(-2000.0, -2000.0);
04:23:04:264;;;;;;;;;;;;;;04:23:04:246;1447946581.92;(0.32174232006073, 0.8093875037299262);36.2524490356;1.0;2;0;0;0;0;();(-2000.0, -2000.0);
04:23:04:281;;;;;;;;;;;;;;04:23:04:246;1447946581.92;(0.32174232006073, 0.8093875037299262);36.2524490356;1.0;2;0;0;0;0;();(-2000.0, -2000.0);
04:23:04:298;;;;;;;;;;;;;;04:23:04:246;1447946581.92;(0.32174232006073, 0.8093875037299262);36.2524490356;1.0;2;0;0;0;0;();(-2000.0, -2000.0);
04:23:04:319;;;;;;;;;;;;;;04:23:04:314;1447946581.99;(0.32149734497070315, 0.8099203533596463);36.1969680786;1.0;2;0;0;0;0;();(-2000.0, -2000.0);
04:23:04:338;;;;;;;;;;;;;;04:23:04:314;1447946581.99;(0.32149734497070315, 0.8099203533596463);36.1969680786;1.0;2;0;0;0;0;();(-2000.0, -2000.0);
04:23:04:373;;;;;;;;;;;;;;04:23:04:314;1447946581.99;(0.32149734497070315, 0.8099203533596463);36.1969680786;1.0;2;0;0;0;0;();(-2000.0, -2000.0);
04:23:04:390;;;;;;;;;;;;;;04:23:04:382;1447946582.05;(0.32132754325866697, 0.8101506127251519);36.3087654114;1.0;2;0;0;0;0;();(-2000.0, -2000.0);
04:23:04:406;;;;;;;;;;;;;;04:23:04:382;1447946582.05;(0.32132754325866697, 0.8101506127251519);36.3087654114;1.0;2;0;0;0;0;();(-2000.0, -2000.0);
04:23:04:423;;;;;;;;;;;;;;04:23:04:382;1447946582.05;(0.32132754325866697, 0.8101506127251519);36.3087654114;1.0;2;0;0;0;0;();(-2000.0, -2000.0);
04:23:04:440;;;;;;;;;;;;;;04:23:04:382;1447946582.05;(0.32132754325866697, 0.8101506127251519);36.3087654114;1.0;2;0;0;0;0;();(-2000.0, -2000.0);
04:23:04:475;;;;;;;;;;;;;;04:23:04:446;1447946582.12;(0.32112367153167726, 0.8100525538126627);36.2313652039;1.0;2;0;0;0;0;();(-2000.0, -2000.0);
04:23:04:490;;;;;;;;;;;;;;04:23:04:446;1447946582.12;(0.32112367153167726, 0.8100525538126627);36.2313652039;1.0;2;0;0;0;0;();(-2000.0, -2000.0);
04:23:04:522;;;;;;;;;;;;;;04:23:04:514;1447946582.19;(0.3216047763824463, 0.8091431935628255);36.4000892639;1.0;2;0;0;0;0;();(-2000.0, -2000.0);
04:23:04:526;;;;;;;;;;;;;;04:23:04:514;1447946582.19;(0.3216047763824463, 0.8091431935628255);36.4000892639;1.0;2;0;0;0;0;();(-2000.0, -2000.0);
04:23:04:542;;;;;;;;;;;;;;04:23:04:514;1447946582.19;(0.3216047763824463, 0.8091431935628255);36.4000892639;1.0;2;0;0;0;0;();(-2000.0, -2000.0);
04:23:04:558;;;;;;;;;;;;;;04:23:04:514;1447946582.19;(0.3216047763824463, 0.8091431935628255);36.4000892639;1.0;2;0;0;0;0;();(-2000.0, -2000.0);
04:23:04:591;;;;;;;;;;;;;;04:23:04:582;1447946582.25;(0.3219355344772339, 0.8095221201578776);36.254119873;1.0;2;0;0;0;0;();(-2000.0, -2000.0);
04:23:04:608;;;;;;;;;;;;;;04:23:04:582;1447946582.25;(0.3219355344772339, 0.8095221201578776);36.254119873;1.0;2;0;0;0;0;();(-2000.0, -2000.0);
04:23:04:625;;;;;;;;;;;;;;04:23:04:582;1447946582.25;(0.3219355344772339, 0.8095221201578776);36.254119873;1.0;2;0;0;0;0;();(-2000.0, -2000.0);
04:23:04:642;;;;;;;;;;;;;;04:23:04:582;1447946582.25;(0.3219355344772339, 0.8095221201578776);36.254119873;1.0;2;0;0;0;0;();(-2000.0, -2000.0);
04:23:04:658;;;;;;;;;;;;;;04:23:04:650;1447946582.32;(0.32205326557159425, 0.8098713556925455);35.5302581787;1.0;2;0;0;0;0;();(-2000.0, -2000.0);
04:23:04:691;;;;;;;;;;;;;;04:23:04:650;1447946582.32;(0.32205326557159425, 0.8098713556925455);35.5302581787;1.0;2;0;0;0;0;();(-2000.0, -2000.0);
04:23:04:708;;;;;;;;;;;;;;04:23:04:650;1447946582.32;(0.32205326557159425, 0.8098713556925455);35.5302581787;1.0;2;0;0;0;0;();(-2000.0, -2000.0);
04:23:04:733;;;;;;;;;;;;;;04:23:04:714;1447946582.39;(0.3213474750518799, 0.8096192253960504);35.9617500305;1.0;2;0;0;0;0;();(-2000.0, -2000.0);
04:23:04:750;;;;;;;;;;;;;;04:23:04:714;1447946582.39;(0.3213474750518799, 0.8096192253960504);35.9617500305;1.0;2;0;0;0;0;();(-2000.0, -2000.0);
04:23:05:296;04:23:05:293;0;10;-1.5;1;0;0;0;0;1;1;1;1;04:23:05:250;1447946582.92;(0.3214555025100708, 0.8099777645534939);35.6967277527;1.0;2;0;0;0;0;();(-2000.0, -2000.0);
04:23:05:299;04:23:05:299;0;10;-1.5;1;0;0;0;0;1;1;1;1;04:23:05:250;1447946582.92;(0.3214555025100708, 0.8099777645534939);35.6967277527;1.0;2;0;0;0;0;();(-2000.0, -2000.0);
04:23:05:302;04:23:05:302;0;10;-1.5;1;0;0;0;0;1;1;1;1;04:23:05:250;1447946582.92;(0.3214555025100708, 0.8099777645534939);35.6967277527;1.0;2;0;0;0;0;();(-2000.0, -2000.0);
04:23:05:305;04:23:05:305;0;5;-1.5;1;0;0;0;0;1;1;1;1;04:23:05:250;1447946582.92;(0.3214555025100708, 0.8099777645534939);35.6967277527;1.0;2;0;0;0;0;();(-2000.0, -2000.0);
04:23:05:308;04:23:05:308;0;5;-1.5;1;0;0;0;0;1;1;1;1;04:23:05:250;1447946582.92;(0.3214555025100708, 0.8099777645534939);35.6967277527;1.0;2;0;0;0;0;();(-2000.0, -2000.0);
04:23:05:310;04:23:05:310;0;5;-1.5;1;0;0;0;0;1;1;1;1;04:23:05:250;1447946582.92;(0.3214555025100708, 0.8099777645534939);35.6967277527;1.0;2;0;0;0;0;();(-2000.0, -2000.0);
04:23:05:312;04:23:05:312;0;5;-1.5;1;0;0;0;0;1;1;1;1;04:23:05:250;1447946582.92;(0.3214555025100708, 0.8099777645534939);35.6967277527;1.0;2;0;0;0;0;();(-2000.0, -2000.0);
04:23:05:314;04:23:05:314;0;6;-1.5;1;0;0;0;0;1;1;1;1;04:23:05:250;1447946582.92;(0.3214555025100708, 0.8099777645534939);35.6967277527;1.0;2;0;0;0;0;();(-2000.0, -2000.0);
04:23:05:318;04:23:05:317;0;15;-1.5;1;0;0;0;0;1;1;1;1;04:23:05:250;1447946582.92;(0.3214555025100708, 0.8099777645534939);35.6967277527;1.0;2;0;0;0;0;();(-2000.0, -2000.0);
04:23:05:321;04:23:05:321;0;15;-1.5;1;0;0;0;0;1;1;1;1;04:23:05:318;1447946582.99;(0.32181081771850584, 0.8097692701551649);35.7979011536;1.0;2;0;0;0;0;();(-2000.0, -2000.0);
04:23:05:323;04:23:05:323;0;15;-1.5;1;0;0;0;0;1;1;1;1;04:23:05:318;1447946582.99;(0.32181081771850584, 0.8097692701551649);35.7979011536;1.0;2;0;0;0;0;();(-2000.0, -2000.0);
04:23:05:326;04:23:05:326;0;15;-1.5;1;0;0;0;0;1;1;1;1;04:23:05:318;1447946582.99;(0.32181081771850584, 0.8097692701551649);35.7979011536;1.0;2;0;0;0;0;();(-2000.0, -2000.0);
04:23:05:328;04:23:05:328;0;0;-1.5;1;0;0;0;0;1;1;1;1;04:23:05:318;1447946582.99;(0.32181081771850584, 0.8097692701551649);35.7979011536;1.0;2;0;0;0;0;();(-2000.0, -2000.0);
04:23:05:330;04:23:05:330;0;9;-1.5;1;0;0;0;0;1;1;1;1;04:23:05:318;1447946582.99;(0.32181081771850584, 0.8097692701551649);35.7979011536;1.0;2;0;0;0;0;();(-2000.0, -2000.0);
04:23:05:332;04:23:05:332;0;4;-1.5;1;0;0;0;0;1;1;1;1;04:23:05:318;1447946582.99;(0.32181081771850584, 0.8097692701551649);35.7979011536;1.0;2;0;0;0;0;();(-2000.0, -2000.0);
04:23:05:334;04:23:05:334;0;4;-1.5;1;0;0;0;0;1;1;1;1;04:23:05:318;1447946582.99;(0.32181081771850584, 0.8097692701551649);35.7979011536;1.0;2;0;0;0;0;();(-2000.0, -2000.0);
04:23:05:336;04:23:05:336;0;4;-1.5;1;0;0;0;0;1;1;1;1;04:23:05:318;1447946582.99;(0.32181081771850584, 0.8097692701551649);35.7979011536;1.0;2;0;0;0;0;();(-2000.0, -2000.0);
04:23:05:341;04:23:05:341;0;4;-1.5;1;0;0;0;0;1;1;1;1;04:23:05:318;1447946582.99;(0.32181081771850584, 0.8097692701551649);35.7979011536;1.0;2;0;0;0;0;();(-2000.0, -2000.0);
04:23:05:344;04:23:05:344;0;4;-1.5;1;0;0;0;0;1;1;1;1;04:23:05:318;1447946582.99;(0.32181081771850584, 0.8097692701551649);35.7979011536;1.0;2;0;0;0;0;();(-2000.0, -2000.0);
04:23:05:358;04:23:05:358;0;4;-1.5;1;0;0;0;0;1;1;1;1;04:23:05:318;1447946582.99;(0.32181081771850584, 0.8097692701551649);35.7979011536;1.0;2;0;0;0;0;();(-2000.0, -2000.0);
04:23:05:376;04:23:05:376;0;5;-1.5;1;0;0;0;0;1;1;1;1;04:23:05:318;1447946582.99;(0.32181081771850584, 0.8097692701551649);35.7979011536;1.0;2;0;0;0;0;();(-2000.0, -2000.0);
04:23:05:391;04:23:05:391;0;10;-1.5;1;0;0;0;0;1;1;1;1;04:23:05:386;1447946583.05;(0.32132740020751954, 0.8097877078586154);35.6219367981;1.0;2;0;0;0;0;();(-2000.0, -2000.0);
04:23:05:408;04:23:05:408;0;15;-1.5;1;0;0;0;0;1;1;1;1;04:23:05:386;1447946583.05;(0.32132740020751954, 0.8097877078586154);35.6219367981;1.0;2;0;0;0;0;();(-2000.0, -2000.0);
04:23:05:441;04:23:05:441;0;5;-1.5;1;0;0;0;0;1;1;1;1;04:23:05:386;1447946583.05;(0.32132740020751954, 0.8097877078586154);35.6219367981;1.0;2;0;0;0;0;();(-2000.0, -2000.0);
04:23:05:458;04:23:05:458;0;10;-1.5;1;0;0;0;0;1;1;1;1;04:23:05:454;1447946583.12;(0.3213840961456299, 0.8097358279758029);35.8550376892;1.0;2;0;0;0;0;();(-2000.0, -2000.0);
04:23:05:474;04:23:05:474;0;15;-1.5;1;0;0;0;0;1;1;1;1;04:23:05:454;1447946583.12;(0.3213840961456299, 0.8097358279758029);35.8550376892;1.0;2;0;0;0;0;();(-2000.0, -2000.0);
04:23:05:491;04:23:05:491;0;9;-1.5;1;0;0;0;0;1;1;1;1;04:23:05:454;1447946583.12;(0.3213840961456299, 0.8097358279758029);35.8550376892;1.0;2;0;0;0;0;();(-2000.0, -2000.0);
04:23:05:507;04:23:05:507;0;15;-1.5;1;0;0;0;0;1;1;1;1;04:23:05:454;1447946583.12;(0.3213840961456299, 0.8097358279758029);35.8550376892;1.0;2;0;0;0;0;();(-2000.0, -2000.0);
04:23:05:541;04:23:05:541;0;0;-1.5;1;0;0;0;0;1;1;1;1;04:23:05:518;1447946583.19;(0.3215388059616089, 0.8094369676378038);35.8347816467;1.0;2;0;0;0;0;();(-2000.0, -2000.0);
04:23:05:557;04:23:05:557;0;9;-1.5;1;0;0;0;0;1;1;1;1;04:23:05:518;1447946583.19;(0.3215388059616089, 0.8094369676378038);35.8347816467;1.0;2;0;0;0;0;();(-2000.0, -2000.0);
04:23:05:573;04:23:05:573;0;15;-1.5;1;0;0;0;0;1;1;1;1;04:23:05:518;1447946583.19;(0.3215388059616089, 0.8094369676378038);35.8347816467;1.0;2;0;0;0;0;();(-2000.0, -2000.0);
04:23:05:591;04:23:05:591;0;4;-1.5;1;0;0;0;0;1;1;1;1;04:23:05:586;1447946583.25;(0.3214291572570801, 0.8093528535630967);36.6742591858;1.0;2;0;0;0;0;();(-2000.0, -2000.0);
04:23:05:607;04:23:05:607;0;0;-1.5;1;0;0;0;0;1;1;1;1;04:23:05:586;1447946583.25;(0.3214291572570801, 0.8093528535630967);36.6742591858;1.0;2;0;0;0;0;();(-2000.0, -2000.0);
04:23:05:641;04:23:05:641;0;15;-1.5;1;0;0;0;0;1;1;1;1;04:23:05:586;1447946583.25;(0.3214291572570801, 0.8093528535630967);36.6742591858;1.0;2;0;0;0;0;();(-2000.0, -2000.0);
04:23:05:657;04:23:05:657;0;4;-1.5;1;0;0;0;0;1;1;1;1;04:23:05:654;1447946583.32;(0.32194597721099855, 0.8098235024346245);35.6046867371;1.0;2;0;0;0;0;();(-2000.0, -2000.0);
04:23:05:673;04:23:05:673;0;15;-1.5;1;0;0;0;0;1;1;1;1;04:23:05:654;1447946583.32;(0.32194597721099855, 0.8098235024346245);35.6046867371;1.0;2;0;0;0;0;();(-2000.0, -2000.0);
04:23:05:691;04:23:05:691;0;5;-1.5;1;0;0;0;0;1;1;1;1;04:23:05:654;1447946583.32;(0.32194597721099855, 0.8098235024346245);35.6046867371;1.0;2;0;0;0;0;();(-2000.0, -2000.0);
04:23:05:706;04:23:05:706;0;10;-1.5;1;0;0;0;0;1;1;1;1;04:23:05:654;1447946583.32;(0.32194597721099855, 0.8098235024346245);35.6046867371;1.0;2;0;0;0;0;();(-2000.0, -2000.0);
04:23:05:739;04:23:05:739;0;10;-1.5;1;0;0;0;0;1;1;1;1;04:23:05:719;1447946583.39;(0.32155427932739256, 0.8102600521511502);36.2393913269;1.0;2;0;0;0;0;();(-2000.0, -2000.0);
04:23:05:757;04:23:05:757;0;4;-1.5;1;0;0;0;0;1;1;1;1;04:23:05:719;1447946583.39;(0.32155427932739256, 0.8102600521511502);36.2393913269;1.0;2;0;0;0;0;();(-2000.0, -2000.0);
04:23:05:772;04:23:05:772;0;10;-1.5;1;0;0;0;0;1;1;1;1;04:23:05:719;1447946583.39;(0.32155427932739256, 0.8102600521511502);36.2393913269;1.0;2;0;0;0;0;();(-2000.0, -2000.0);
04:23:05:789;04:23:05:789;0;15;-1.5;1;0;0;0;0;1;1;1;1;04:23:05:786;1447946583.45;(0.32179574966430663, 0.8095639334784613);35.439994812;1.0;2;0;0;0;0;();(-2000.0, -2000.0);
04:23:05:822;04:23:05:822;0;4;-1.5;1;0;0;0;0;1;1;1;1;04:23:05:786;1447946583.45;(0.32179574966430663, 0.8095639334784613);35.439994812;1.0;2;0;0;0;0;();(-2000.0, -2000.0);
04:23:05:839;04:23:05:839;0;9;-1.5;1;0;0;0;0;1;1;1;1;04:23:05:786;1447946583.45;(0.32179574966430663, 0.8095639334784613);35.439994812;1.0;2;0;0;0;0;();(-2000.0, -2000.0);
04:23:05:855;04:23:05:855;0;5;-1.5;1;0;0;0;0;1;1;1;1;04:23:05:854;1447946583.52;(0.3218357086181641, 0.8095492257012261);35.7010536194;1.0;2;0;0;0;0;();(-2000.0, -2000.0);
04:23:05:873;04:23:05:873;0;9;-1.5;1;0;0;0;0;1;1;1;1;04:23:05:854;1447946583.52;(0.3218357086181641, 0.8095492257012261);35.7010536194;1.0;2;0;0;0;0;();(-2000.0, -2000.0);
04:23:05:888;04:23:05:888;0;15;-1.5;1;0;0;0;0;1;1;1;1;04:23:05:854;1447946583.52;(0.3218357086181641, 0.8095492257012261);35.7010536194;1.0;2;0;0;0;0;();(-2000.0, -2000.0);
04:23:05:921;04:23:05:921;0;4;-1.5;1;0;0;0;0;1;1;1;1;04:23:05:854;1447946583.52;(0.3218357086181641, 0.8095492257012261);35.7010536194;1.0;2;0;0;0;0;();(-2000.0, -2000.0);
04:23:05:938;04:23:05:938;0;10;-1.5;1;0;0;0;0;1;1;1;1;04:23:05:922;1447946583.59;(0.3213369846343994, 0.8096022288004557);35.7608108521;1.0;2;0;0;0;0;();(-2000.0, -2000.0);
04:23:05:959;04:23:05:959;0;15;-1.5;1;0;0;0;0;1;1;1;1;04:23:05:922;1447946583.59;(0.3213369846343994, 0.8096022288004557);35.7608108521;1.0;4;0;0;0;0;();(-2000.0, -2000.0);
04:23:05:971;04:23:05:971;0;4;-1.5;1;0;0;0;0;1;1;1;1;04:23:05:922;1447946583.59;(0.3213369846343994, 0.8096022288004557);35.7608108521;1.0;4;0;0;0;0;();(-2000.0, -2000.0);
04:23:05:989;04:23:05:989;0;4;-1.5;1;0;0;0;0;1;1;1;1;04:23:05:986;1447946583.65;(0.3215672254562378, 0.8097404056125217);36.0082092285;1.0;4;0;0;0;0;();(-2000.0, -2000.0);
04:23:06:021;04:23:06:021;0;15;-1.5;1;0;0;0;0;1;1;1;1;04:23:05:986;1447946583.65;(0.3215672254562378, 0.8097404056125217);36.0082092285;1.0;4;0;0;0;0;();(-2000.0, -2000.0);
04:23:06:038;04:23:06:037;0;4;-1.5;1;0;0;0;0;1;1;1;1;04:23:05:986;1447946583.65;(0.3215672254562378, 0.8097404056125217);36.0082092285;1.0;4;0;0;0;0;();(-2000.0, -2000.0);
04:23:06:055;04:23:06:055;0;15;-1.5;1;0;0;0;0;1;1;1;1;04:23:06:054;1447946583.72;(0.3216543436050415, 0.8100844277275934);36.4215354919;1.0;4;0;0;0;0;();(-2000.0, -2000.0);
04:23:06:072;04:23:06:072;0;5;-1.5;1;0;0;0;0;1;1;1;1;04:23:06:054;1447946583.72;(0.3216543436050415, 0.8100844277275934);36.4215354919;1.0;4;0;0;0;0;();(-2000.0, -2000.0);
04:23:06:087;04:23:06:087;0;0;-1.5;1;0;0;0;0;1;1;1;1;04:23:06:054;1447946583.72;(0.3216543436050415, 0.8100844277275934);36.4215354919;1.0;4;0;0;0;0;();(-2000.0, -2000.0);
04:23:06:120;04:23:06:120;0;15;-1.5;1;0;0;0;0;1;1;1;1;04:23:06:054;1447946583.72;(0.3216543436050415, 0.8100844277275934);36.4215354919;1.0;4;0;0;0;0;();(-2000.0, -2000.0);
04:23:06:137;04:23:06:137;0;4;-1.5;1;0;0;0;0;1;1;1;1;04:23:06:123;1447946583.79;(0.3217853784561157, 0.8101138008965386);35.6090393066;0.998994361446;4;0;0;0;0;();(-2000.0, -2000.0);
04:23:06:154;04:23:06:154;0;15;-1.5;1;0;0;0;0;1;1;1;1;04:23:06:123;1447946583.79;(0.3217853784561157, 0.8101138008965386);35.6090393066;0.998994361446;4;0;0;0;0;();(-2000.0, -2000.0);
04:23:06:170;04:23:06:170;0;5;-1.5;1;0;0;0;0;1;1;1;1;04:23:06:123;1447946583.79;(0.3217853784561157, 0.8101138008965386);35.6090393066;0.998994361446;4;0;0;0;0;();(-2000.0, -2000.0);
04:23:06:187;04:23:06:186;0;10;-1.5;1;0;0;0;0;1;1;1;1;04:23:06:123;1447946583.79;(0.3217853784561157, 0.8101138008965386);35.6090393066;0.998994361446;4;0;0;0;0;();(-2000.0, -2000.0);
04:23:06:220;04:23:06:220;0;10;-1.5;1;0;0;0;0;1;1;1;1;04:23:06:190;1447946583.85;(0.3218922853469849, 0.8093324025472005);35.3404006958;1.0;4;0;0;0;0;();(-2000.0, -2000.0);
04:23:06:236;04:23:06:236;0;4;-1.5;1;0;0;0;0;1;1;1;1;04:23:06:190;1447946583.85;(0.3218922853469849, 0.8093324025472005);35.3404006958;1.0;4;0;0;0;0;();(-2000.0, -2000.0);
04:23:06:253;04:23:06:253;0;4;-1.5;1;0;0;0;0;1;1;1;1;04:23:06:190;1447946583.85;(0.3218922853469849, 0.8093324025472005);35.3404006958;1.0;4;0;0;0;0;();(-2000.0, -2000.0);
04:23:06:270;04:23:06:270;0;5;-1.5;1;0;0;0;0;1;1;1;1;04:23:06:254;1447946583.92;(0.32187561988830565, 0.8095345391167534);35.5510978699;1.0;4;0;0;0;0;();(-2000.0, -2000.0);
04:23:06:302;04:23:06:302;0;4;-1.5;1;0;0;0;0;1;1;1;1;04:23:06:254;1447946583.92;(0.32187561988830565, 0.8095345391167534);35.5510978699;1.0;4;0;0;0;0;();(-2000.0, -2000.0);
04:23:06:320;04:23:06:320;0;9;-1.5;1;0;0;0;0;1;1;1;1;04:23:06:254;1447946583.92;(0.32187561988830565, 0.8095345391167534);35.5510978699;1.0;4;0;0;0;0;();(-2000.0, -2000.0);
04:23:06:336;04:23:06:336;0;5;-1.5;1;0;0;0;0;1;1;1;1;04:23:06:322;1447946583.99;(0.321651554107666, 0.8098507351345486);36.0170288086;1.0;4;0;0;0;0;();(-2000.0, -2000.0);
04:23:06:352;04:23:06:352;0;9;-1.5;1;0;0;0;0;1;1;1;1;04:23:06:322;1447946583.99;(0.321651554107666, 0.8098507351345486);36.0170288086;1.0;4;0;0;0;0;();(-2000.0, -2000.0);
04:23:06:379;04:23:06:379;0;10;-1.5;1;0;0;0;0;1;1;1;1;04:23:06:322;1447946583.99;(0.321651554107666, 0.8098507351345486);36.0170288086;1.0;4;0;0;0;0;();(-2000.0, -2000.0);
04:23:06:397;04:23:06:397;0;5;-1.5;1;0;0;0;0;1;1;1;1;04:23:06:390;1447946584.05;(0.3214293956756592, 0.8096720589531793);36.0868988037;1.0;4;0;0;0;0;();(-2000.0, -2000.0);
04:23:06:414;04:23:06:414;0;10;-1.5;1;0;0;0;0;1;1;1;1;04:23:06:390;1447946584.05;(0.3214293956756592, 0.8096720589531793);36.0868988037;1.0;4;0;0;0;0;();(-2000.0, -2000.0);
04:23:06:431;04:23:06:431;0;4;-1.5;1;0;0;0;0;1;1;1;1;04:23:06:390;1447946584.05;(0.3214293956756592, 0.8096720589531793);36.0868988037;1.0;4;0;0;0;0;();(-2000.0, -2000.0);
04:23:06:447;04:23:06:447;0;9;-1.5;1;0;0;0;0;1;1;1;1;04:23:06:390;1447946584.05;(0.3214293956756592, 0.8096720589531793);36.0868988037;1.0;4;0;0;0;0;();(-2000.0, -2000.0);
04:23:06:481;04:23:06:481;0;9;-1.5;1;0;0;0;0;1;1;1;1;04:23:06:458;1447946584.12;(0.3214315176010132, 0.8097472720675998);35.3043251038;1.0;4;0;0;0;0;();(-2000.0, -2000.0);
04:23:06:497;04:23:06:497;0;15;-1.5;1;0;0;0;0;1;1;1;1;04:23:06:458;1447946584.12;(0.3214315176010132, 0.8097472720675998);35.3043251038;1.0;4;0;0;0;0;();(-2000.0, -2000.0);
04:23:06:514;04:23:06:514;0;10;-1.5;1;0;0;0;0;1;1;1;1;04:23:06:458;1447946584.12;(0.3214315176010132, 0.8097472720675998);35.3043251038;1.0;4;0;0;0;0;();(-2000.0, -2000.0);
04:23:06:530;04:23:06:530;0;4;-1.5;1;0;0;0;0;1;1;1;1;04:23:06:523;1447946584.19;(0.32172062397003176, 0.8098234388563368);35.9582901001;1.0;4;0;0;0;0;();(-2000.0, -2000.0);
04:23:06:547;04:23:06:547;0;10;-1.5;1;0;0;0;0;1;1;1;1;04:23:06:523;1447946584.19;(0.32172062397003176, 0.8098234388563368);35.9582901001;1.0;4;0;0;0;0;();(-2000.0, -2000.0);
04:23:06:591;04:23:06:591;0;5;-1.5;1;0;0;0;0;1;1;1;1;04:23:06:590;1447946584.25;(0.3218101739883423, 0.8099197175767687);35.2152175903;1.0;4;0;0;0;0;();(-2000.0, -2000.0);
04:23:06:593;04:23:06:593;0;12;-1.5;1;0;0;0;0;1;1;1;1;04:23:06:590;1447946584.25;(0.3218101739883423, 0.8099197175767687);35.2152175903;1.0;4;0;0;0;0;();(-2000.0, -2000.0);
04:23:06:609;04:23:06:609;0;9;-1.5;1;0;0;0;0;1;1;1;1;04:23:06:590;1447946584.25;(0.3218101739883423, 0.8099197175767687);35.2152175903;1.0;4;0;0;0;0;();(-2000.0, -2000.0);
04:23:06:626;04:23:06:626;0;4;-1.5;1;0;0;0;0;1;1;1;1;04:23:06:590;1447946584.25;(0.3218101739883423, 0.8099197175767687);35.2152175903;1.0;4;0;0;0;0;();(-2000.0, -2000.0);
04:23:06:659;04:23:06:659;0;7;-1.5;1;0;0;0;0;1;1;1;1;04:23:06:658;1447946584.32;(0.3218331813812256, 0.8093248791164822);35.7413139343;1.0;4;0;0;0;0;();(-2000.0, -2000.0);
04:23:06:676;04:23:06:676;0;10;-1.5;1;0;0;0;0;1;1;1;1;04:23:06:658;1447946584.32;(0.3218331813812256, 0.8093248791164822);35.7413139343;1.0;4;0;0;0;0;();(-2000.0, -2000.0);
04:23:06:692;04:23:06:692;0;15;-1.5;1;0;0;0;0;1;1;1;1;04:23:06:658;1447946584.32;(0.3218331813812256, 0.8093248791164822);35.7413139343;1.0;4;0;0;0;0;();(-2000.0, -2000.0);
04:23:06:709;04:23:06:709;0;10;-1.5;1;0;0;0;0;1;1;1;1;04:23:06:658;1447946584.32;(0.3218331813812256, 0.8093248791164822);35.7413139343;1.0;4;0;0;0;0;();(-2000.0, -2000.0);
04:23:06:726;04:23:06:726;0;15;-1.5;1;0;0;0;0;1;1;1;1;04:23:06:658;1447946584.32;(0.3218331813812256, 0.8093248791164822);35.7413139343;1.0;4;0;0;0;0;();(-2000.0, -2000.0);
04:23:06:759;04:23:06:758;0;10;-1.5;1;0;0;0;0;1;1;1;1;04:23:06:726;1447946584.39;(0.3215369939804077, 0.8098265329996744);36.1468582153;1.0;4;0;0;0;0;();(-2000.0, -2000.0);
04:23:06:776;04:23:06:776;0;4;-1.5;1;0;0;0;0;1;1;1;1;04:23:06:726;1447946584.39;(0.3215369939804077, 0.8098265329996744);36.1468582153;1.0;4;0;0;0;0;();(-2000.0, -2000.0);
04:23:06:794;04:23:06:794;0;10;-1.5;1;0;0;0;0;1;1;1;1;04:23:06:790;1447946584.45;(0.3214456558227539, 0.8098437627156576);36.3239021301;1.0;4;0;0;0;0;();(-2000.0, -2000.0);
04:23:06:811;04:23:06:811;0;5;-1.5;1;0;0;0;0;1;1;1;1;04:23:06:790;1447946584.45;(0.3214456558227539, 0.8098437627156576);36.3239021301;1.0;4;0;0;0;0;();(-2000.0, -2000.0);
04:23:06:828;04:23:06:828;0;10;-1.5;1;0;0;0;0;1;1;1;1;04:23:06:790;1447946584.45;(0.3214456558227539, 0.8098437627156576);36.3239021301;1.0;4;0;0;0;0;();(-2000.0, -2000.0);
04:23:06:861;04:23:06:861;0;10;-1.5;1;0;0;0;0;1;1;1;1;04:23:06:858;1447946584.52;(0.3213630676269531, 0.8095006942749023);36.9539299011;1.0;4;0;0;0;0;();(-2000.0, -2000.0);
04:23:06:878;04:23:06:878;0;4;-1.5;1;0;0;0;0;1;1;1;1;04:23:06:858;1447946584.52;(0.3213630676269531, 0.8095006942749023);36.9539299011;1.0;4;0;0;0;0;();(-2000.0, -2000.0);
04:23:06:895;04:23:06:895;0;9;-1.5;1;0;0;0;0;1;1;1;1;04:23:06:858;1447946584.52;(0.3213630676269531, 0.8095006942749023);36.9539299011;1.0;4;0;0;0;0;();(-2000.0, -2000.0);
04:23:06:913;04:23:06:913;0;15;-1.5;1;0;0;0;0;1;1;1;1;04:23:06:858;1447946584.52;(0.3213630676269531, 0.8095006942749023);36.9539299011;1.0;4;0;0;0;0;();(-2000.0, -2000.0);
04:23:06:928;04:23:06:928;0;9;-1.5;1;0;0;0;0;1;1;1;1;04:23:06:926;1447946584.59;(0.32145373821258544, 0.8095709906684028);37.0522689819;1.0;4;0;0;0;0;();(-2000.0, -2000.0);
04:23:06:963;04:23:06:961;0;9;-1.5;1;0;0;0;0;1;1;1;1;04:23:06:926;1447946584.59;(0.32145373821258544, 0.8095709906684028);37.0522689819;1.0;4;0;0;0;0;();(-2000.0, -2000.0);
04:23:06:978;04:23:06:978;0;5;-1.5;1;0;0;0;0;1;1;1;1;04:23:06:926;1447946584.59;(0.32145373821258544, 0.8095709906684028);37.0522689819;1.0;4;0;0;0;0;();(-2000.0, -2000.0);
04:23:06:995;04:23:06:995;0;10;-1.5;1;0;0;0;0;1;1;1;1;04:23:06:994;1447946584.65;(0.3215982675552368, 0.8100234137641059);36.0415534973;1.0;4;0;0;0;0;();(-2000.0, -2000.0);
04:23:07:011;04:23:07:011;0;15;-1.5;1;0;0;0;0;1;1;1;1;04:23:06:994;1447946584.65;(0.3215982675552368, 0.8100234137641059);36.0415534973;1.0;4;0;0;0;0;();(-2000.0, -2000.0);
04:23:07:028;04:23:07:028;0;10;-1.5;1;0;0;0;0;1;1;1;1;04:23:06:994;1447946584.65;(0.3215982675552368, 0.8100234137641059);36.0415534973;1.0;4;0;0;0;0;();(-2000.0, -2000.0);
04:23:07:061;04:23:07:061;0;5;-1.5;1;0;0;0;0;1;1;1;1;04:23:07:059;1447946584.72;(0.3217387437820435, 0.8092571258544922);36.2083511353;1.0;4;0;0;0;0;();(-2000.0, -2000.0);
04:23:07:077;04:23:07:077;0;15;-1.5;1;0;0;0;0;1;1;1;1;04:23:07:059;1447946584.72;(0.3217387437820435, 0.8092571258544922);36.2083511353;1.0;4;0;0;0;0;();(-2000.0, -2000.0);
04:23:07:094;04:23:07:094;0;4;-1.5;1;0;0;0;0;1;1;1;1;04:23:07:059;1447946584.72;(0.3217387437820435, 0.8092571258544922);36.2083511353;1.0;4;0;0;0;0;();(-2000.0, -2000.0);
04:23:07:111;04:23:07:111;0;4;-1.5;1;0;0;0;0;1;1;1;1;04:23:07:094;1447946584.79;(0.3213282585144043, 0.8098971472846137);36.4517669678;1.0;4;0;0;0;0;();(-2000.0, -2000.0);
04:23:07:127;04:23:07:127;0;5;-1.5;1;0;0;0;0;1;1;1;1;04:23:07:094;1447946584.79;(0.3213282585144043, 0.8098971472846137);36.4517669678;1.0;4;0;0;0;0;();(-2000.0, -2000.0);
04:23:07:160;04:23:07:160;0;4;-1.5;1;0;0;0;0;1;1;1;1;04:23:07:094;1447946584.79;(0.3213282585144043, 0.8098971472846137);36.4517669678;1.0;4;0;0;0;0;();(-2000.0, -2000.0);
04:23:07:177;04:23:07:177;0;15;-1.5;1;0;0;0;0;1;1;1;1;04:23:07:094;1447946584.79;(0.3213282585144043, 0.8098971472846137);36.4517669678;1.0;4;0;0;0;0;();(-2000.0, -2000.0);
04:23:07:193;04:23:07:193;0;5;-1.5;1;0;0;0;0;1;1;1;1;04:23:07:094;1447946584.79;(0.3213282585144043, 0.8098971472846137);36.4517669678;1.0;4;0;0;0;0;();(-2000.0, -2000.0);
04:23:07:210;04:23:07:210;0;0;-1.5;1;0;0;0;0;1;1;1;1;04:23:07:194;1447946584.85;(0.3217837572097778, 0.8093531926472982);35.7487373352;1.0;4;0;0;0;0;();(-2000.0, -2000.0);
04:23:07:227;04:23:07:227;0;4;-1.5;1;0;0;0;0;1;1;1;1;04:23:07:194;1447946584.85;(0.3217837572097778, 0.8093531926472982);35.7487373352;1.0;4;0;0;0;0;();(-2000.0, -2000.0);
04:23:07:260;04:23:07:260;0;4;-1.5;1;0;0;0;0;1;1;1;1;04:23:07:258;1447946584.92;(0.32114717960357664, 0.8094897800021701);35.7604980469;1.0;4;0;0;0;0;();(-2000.0, -2000.0);
04:23:07:277;04:23:07:277;0;9;-1.5;1;0;0;0;0;1;1;1;1;04:23:07:258;1447946584.92;(0.32114717960357664, 0.8094897800021701);35.7604980469;1.0;4;0;0;0;0;();(-2000.0, -2000.0);
04:23:07:293;04:23:07:293;0;5;-1.5;1;0;0;0;0;1;1;1;1;04:23:07:258;1447946584.92;(0.32114717960357664, 0.8094897800021701);35.7604980469;1.0;4;0;0;0;0;();(-2000.0, -2000.0);
04:23:07:310;04:23:07:310;0;15;-1.5;1;0;0;0;0;1;1;1;1;04:23:07:294;1447946584.99;(0.321471118927002, 0.8100613700018988);36.1763381958;1.0;4;0;0;0;0;();(-2000.0, -2000.0);
04:23:07:327;04:23:07:327;0;4;-1.5;1;0;0;0;0;1;1;1;1;04:23:07:294;1447946584.99;(0.321471118927002, 0.8100613700018988);36.1763381958;1.0;4;0;0;0;0;();(-2000.0, -2000.0);
04:23:07:360;04:23:07:360;0;5;-1.5;1;0;0;0;0;1;1;1;1;04:23:07:294;1447946584.99;(0.321471118927002, 0.8100613700018988);36.1763381958;1.0;4;0;0;0;0;();(-2000.0, -2000.0);
04:23:07:377;04:23:07:377;0;10;-1.5;1;0;0;0;0;1;1;1;1;04:23:07:294;1447946584.99;(0.321471118927002, 0.8100613700018988);36.1763381958;1.0;4;0;0;0;0;();(-2000.0, -2000.0);
04:23:07:393;04:23:07:393;0;15;-1.5;1;0;0;0;0;1;1;1;1;04:23:07:294;1447946584.99;(0.321471118927002, 0.8100613700018988);36.1763381958;1.0;4;0;0;0;0;();(-2000.0, -2000.0);
04:23:07:413;04:23:07:413;0;4;-1.5;1;0;0;0;0;1;1;1;1;04:23:07:395;1447946585.05;(0.32195870876312255, 0.8100703769259983);36.0893630981;1.0;4;0;0;0;0;();(-2000.0, -2000.0);
04:23:07:430;04:23:07:430;0;15;-1.5;1;0;0;0;0;1;1;1;1;04:23:07:395;1447946585.05;(0.32195870876312255, 0.8100703769259983);36.0893630981;1.0;4;0;0;0;0;();(-2000.0, -2000.0);
04:23:07:447;04:23:07:447;0;5;-1.5;1;0;0;0;0;1;1;1;1;04:23:07:395;1447946585.05;(0.32195870876312255, 0.8100703769259983);36.0893630981;1.0;4;0;0;0;0;();(-2000.0, -2000.0);
04:23:07:480;04:23:07:479;0;15;-1.5;1;0;0;0;0;1;1;1;1;04:23:07:462;1447946585.12;(0.32177736759185793, 0.8099748399522569);36.0612792969;1.0;4;0;0;0;0;();(-2000.0, -2000.0);
04:23:07:496;04:23:07:496;0;10;-1.5;1;0;0;0;0;1;1;1;1;04:23:07:494;1447946585.19;(0.3215994596481323, 0.8098589579264323);35.7087135315;1.0;4;0;0;0;0;();(-2000.0, -2000.0);
04:23:07:513;04:23:07:513;0;5;-1.5;1;0;0;0;0;1;1;1;1;04:23:07:494;1447946585.19;(0.3215994596481323, 0.8098589579264323);35.7087135315;1.0;4;0;0;0;0;();(-2000.0, -2000.0);
04:23:07:529;04:23:07:529;0;10;-1.5;1;0;0;0;0;1;1;1;1;04:23:07:494;1447946585.19;(0.3215994596481323, 0.8098589579264323);35.7087135315;1.0;4;0;0;0;0;();(-2000.0, -2000.0);
04:23:07:563;04:23:07:563;0;9;-1.5;1;0;0;0;0;1;1;1;1;04:23:07:562;1447946585.25;(0.32152111530303956, 0.8096754921807183);35.6335105896;1.0;4;0;0;0;0;();(-2000.0, -2000.0);
04:23:07:579;04:23:07:579;0;4;-1.5;1;0;0;0;0;1;1;1;1;04:23:07:562;1447946585.25;(0.32152111530303956, 0.8096754921807183);35.6335105896;1.0;4;0;0;0;0;();(-2000.0, -2000.0);
04:23:07:596;04:23:07:595;0;9;-1.5;1;0;0;0;0;1;1;1;1;04:23:07:562;1447946585.25;(0.32152111530303956, 0.8096754921807183);35.6335105896;1.0;4;0;0;0;0;();(-2000.0, -2000.0);
04:23:07:613;04:23:07:613;0;5;-1.5;1;0;0;0;0;1;1;1;1;04:23:07:562;1447946585.25;(0.32152111530303956, 0.8096754921807183);35.6335105896;1.0;4;0;0;0;0;();(-2000.0, -2000.0);
04:23:07:630;04:23:07:630;0;9;-1.5;1;0;0;0;0;1;1;1;1;04:23:07:562;1447946585.25;(0.32152111530303956, 0.8096754921807183);35.6335105896;1.0;4;0;0;0;0;();(-2000.0, -2000.0);
04:23:07:662;04:23:07:662;0;10;-1.5;1;0;0;0;0;1;1;1;1;04:23:07:630;1447946585.32;(0.3215333938598633, 0.8100391176011827);35.458568573;1.0;4;0;0;0;0;();(-2000.0, -2000.0);
04:23:07:678;04:23:07:678;0;4;-1.5;1;0;0;0;0;1;1;1;1;04:23:07:630;1447946585.32;(0.3215333938598633, 0.8100391176011827);35.458568573;1.0;4;0;0;0;0;();(-2000.0, -2000.0);
04:23:07:695;04:23:07:695;0;10;-1.5;1;0;0;0;0;1;1;1;1;04:23:07:695;1447946585.39;(0.3212969541549683, 0.8100141949123807);36.0318222046;1.0;4;0;0;0;0;();(-2000.0, -2000.0);
04:23:07:711;04:23:07:711;0;5;-1.5;1;0;0;0;0;1;1;1;1;04:23:07:695;1447946585.39;(0.3212969541549683, 0.8100141949123807);36.0318222046;1.0;4;0;0;0;0;();(-2000.0, -2000.0);
04:23:07:728;04:23:07:728;0;9;-1.5;1;0;0;0;0;1;1;1;1;04:23:07:695;1447946585.39;(0.3212969541549683, 0.8100141949123807);36.0318222046;1.0;4;0;0;0;0;();(-2000.0, -2000.0);
04:23:07:761;04:23:07:761;0;10;-1.5;1;0;0;0;0;1;1;1;1;04:23:07:695;1447946585.39;(0.3212969541549683, 0.8100141949123807);36.0318222046;1.0;4;0;0;0;0;();(-2000.0, -2000.0);
04:23:07:778;04:23:07:778;0;5;-1.5;1;0;0;0;0;1;1;1;1;04:23:07:762;1447946585.45;(0.3219958543777466, 0.8097551133897569);35.5673065186;1.0;4;0;0;0;0;();(-2000.0, -2000.0);
04:23:07:794;04:23:07:794;0;10;-1.5;1;0;0;0;0;1;1;1;1;04:23:07:762;1447946585.45;(0.3219958543777466, 0.8097551133897569);35.5673065186;1.0;4;0;0;0;0;();(-2000.0, -2000.0);
04:23:07:811;04:23:07:811;0;7;-1.5;1;0;0;0;0;1;1;1;1;04:23:07:762;1447946585.45;(0.3219958543777466, 0.8097551133897569);35.5673065186;1.0;4;0;0;0;0;();(-2000.0, -2000.0);
04:23:07:827;04:23:07:827;0;10;-1.5;1;0;0;0;0;1;1;1;1;04:23:07:762;1447946585.45;(0.3219958543777466, 0.8097551133897569);35.5673065186;1.0;4;0;0;0;0;();(-2000.0, -2000.0);
04:23:07:861;04:23:07:861;0;10;-1.5;1;0;0;0;0;1;1;1;1;04:23:07:831;1447946585.52;(0.321579647064209, 0.8098068237304688);35.6901779175;1.0;4;0;0;0;0;();(-2000.0, -2000.0);
04:23:07:877;04:23:07:877;0;15;-1.5;1;0;0;0;0;1;1;1;1;04:23:07:831;1447946585.52;(0.321579647064209, 0.8098068237304688);35.6901779175;1.0;4;0;0;0;0;();(-2000.0, -2000.0);
04:23:07:894;04:23:07:894;0;9;-1.5;1;0;0;0;0;1;1;1;1;04:23:07:831;1447946585.52;(0.321579647064209, 0.8098068237304688);35.6901779175;1.0;4;0;0;0;0;();(-2000.0, -2000.0);
04:23:07:911;04:23:07:911;0;4;-1.5;1;0;0;0;0;1;1;1;1;04:23:07:894;1447946585.59;(0.32184371948242185, 0.8097124735514323);35.5003814697;1.0;4;0;0;0;0;();(-2000.0, -2000.0);
04:23:07:927;04:23:07:927;0;9;-1.5;1;0;0;0;0;1;1;1;1;04:23:07:894;1447946585.59;(0.32184371948242185, 0.8097124735514323);35.5003814697;1.0;4;0;0;0;0;();(-2000.0, -2000.0);
04:23:07:960;04:23:07:960;0;4;-1.5;1;0;0;0;0;1;1;1;1;04:23:07:894;1447946585.59;(0.32184371948242185, 0.8097124735514323);35.5003814697;1.0;4;0;0;0;0;();(-2000.0, -2000.0);
04:23:07:976;04:23:07:976;0;15;-1.5;1;0;0;0;0;1;1;1;1;04:23:07:962;1447946585.65;(0.32194478511810304, 0.8095119052463108);35.9012870789;1.0;4;0;0;0;0;();(-2000.0, -2000.0);
04:23:07:993;04:23:07:993;0;4;-1.5;1;0;0;0;0;1;1;1;1;04:23:07:962;1447946585.65;(0.32194478511810304, 0.8095119052463108);35.9012870789;1.0;4;0;0;0;0;();(-2000.0, -2000.0);
04:23:08:011;04:23:08:011;0;4;-1.5;1;0;0;0;0;1;1;1;1;04:23:07:962;1447946585.65;(0.32194478511810304, 0.8095119052463108);35.9012870789;1.0;4;0;0;0;0;();(-2000.0, -2000.0);
04:23:08:043;04:23:08:043;0;9;-1.5;1;0;0;0;0;1;1;1;1;04:23:08:030;1447946585.72;(0.32127971649169923, 0.8097381167941623);35.9208335876;1.0;4;0;0;0;0;();(-2000.0, -2000.0);
04:23:08:060;04:23:08:059;0;4;-1.5;1;0;0;0;0;1;1;1;1;04:23:08:030;1447946585.72;(0.32127971649169923, 0.8097381167941623);35.9208335876;1.0;4;0;0;0;0;();(-2000.0, -2000.0);
04:23:08:077;04:23:08:077;0;15;-1.5;1;0;0;0;0;1;1;1;1;04:23:08:030;1447946585.72;(0.32127971649169923, 0.8097381167941623);35.9208335876;1.0;4;0;0;0;0;();(-2000.0, -2000.0);
04:23:08:093;04:23:08:093;0;5;-1.5;1;0;0;0;0;1;1;1;1;04:23:08:030;1447946585.72;(0.32127971649169923, 0.8097381167941623);35.9208335876;1.0;4;0;0;0;0;();(-2000.0, -2000.0);
04:23:08:109;04:23:08:109;0;10;-1.5;1;0;0;0;0;1;1;1;1;04:23:08:098;1447946585.79;(0.3216273784637451, 0.8094740337795682);34.7824707031;0.995641263614;4;0;0;0;0;();(-2000.0, -2000.0);
04:23:08:142;04:23:08:142;0;10;-1.5;1;0;0;0;0;1;1;1;1;04:23:08:098;1447946585.79;(0.3216273784637451, 0.8094740337795682);34.7824707031;0.995641263614;4;0;0;0;0;();(-2000.0, -2000.0);
04:23:08:159;04:23:08:159;0;4;-1.5;1;0;0;0;0;1;1;1;1;04:23:08:098;1447946585.79;(0.3216273784637451, 0.8094740337795682);34.7824707031;0.995641263614;4;0;0;0;0;();(-2000.0, -2000.0);
04:23:08:177;04:23:08:175;0;10;-1.5;1;0;0;0;0;1;1;1;1;04:23:08:162;1447946585.85;(0.32171924114227296, 0.8092151217990451);35.9105949402;1.0;4;0;0;0;0;();(-2000.0, -2000.0);
04:23:08:192;04:23:08:192;0;5;-1.5;1;0;0;0;0;1;1;1;1;04:23:08:162;1447946585.85;(0.32171924114227296, 0.8092151217990451);35.9105949402;1.0;4;0;0;0;0;();(-2000.0, -2000.0);
04:23:08:209;04:23:08:209;0;9;-1.5;1;0;0;0;0;1;1;1;1;04:23:08:162;1447946585.85;(0.32171924114227296, 0.8092151217990451);35.9105949402;1.0;4;0;0;0;0;();(-2000.0, -2000.0);
04:23:08:242;04:23:08:242;0;9;-1.5;1;0;0;0;0;1;1;1;1;04:23:08:231;1447946585.92;(0.32158288955688474, 0.8096064461602105);35.5797309875;1.0;4;0;0;0;0;();(-2000.0, -2000.0);
04:23:08:258;04:23:08:258;0;5;-1.5;1;0;0;0;0;1;1;1;1;04:23:08:231;1447946585.92;(0.32158288955688474, 0.8096064461602105);35.5797309875;1.0;4;0;0;0;0;();(-2000.0, -2000.0);
04:23:08:275;04:23:08:275;0;10;-1.5;1;0;0;0;0;1;1;1;1;04:23:08:231;1447946585.92;(0.32158288955688474, 0.8096064461602105);35.5797309875;1.0;4;0;0;0;0;();(-2000.0, -2000.0);
04:23:08:292;04:23:08:292;0;4;-1.5;1;0;0;0;0;1;1;1;1;04:23:08:231;1447946585.92;(0.32158288955688474, 0.8096064461602105);35.5797309875;1.0;4;0;0;0;0;();(-2000.0, -2000.0);
04:23:08:308;04:23:08:308;0;10;-1.5;1;0;0;0;0;1;1;1;1;04:23:08:298;1447946585.99;(0.3215750455856323, 0.8095660739474826);35.8000450134;1.0;4;0;0;0;0;();(-2000.0, -2000.0);
04:23:08:341;04:23:08:341;0;10;-1.5;1;0;0;0;0;1;1;1;1;04:23:08:298;1447946585.99;(0.3215750455856323, 0.8095660739474826);35.8000450134;1.0;4;0;0;0;0;();(-2000.0, -2000.0);
04:23:08:358;04:23:08:358;0;15;-1.5;1;0;0;0;0;1;1;1;1;04:23:08:298;1447946585.99;(0.3215750455856323, 0.8095660739474826);35.8000450134;1.0;4;0;0;0;0;();(-2000.0, -2000.0);
04:23:08:374;04:23:08:374;0;4;-1.5;1;0;0;0;0;1;1;1;1;04:23:08:366;1447946586.05;(0.32167344093322753, 0.8096765730116102);35.7945709229;1.0;4;0;0;0;0;();(-2000.0, -2000.0);
04:23:08:391;04:23:08:391;0;9;-1.5;1;0;0;0;0;1;1;1;1;04:23:08:366;1447946586.05;(0.32167344093322753, 0.8096765730116102);35.7945709229;1.0;4;0;0;0;0;();(-2000.0, -2000.0);
04:23:08:407;04:23:08:407;0;5;-1.5;1;0;0;0;0;1;1;1;1;04:23:08:366;1447946586.05;(0.32167344093322753, 0.8096765730116102);35.7945709229;1.0;4;0;0;0;0;();(-2000.0, -2000.0);
04:23:08:441;04:23:08:441;0;4;-1.5;1;0;0;0;0;1;1;1;1;04:23:08:430;1447946586.12;(0.3225074768066406, 0.8095432069566515);34.6402816772;0.848263344935;4;0;0;0;0;();(-2000.0, -2000.0);
04:23:08:463;04:23:08:463;0;10;-1.5;1;0;0;0;0;1;1;1;1;04:23:08:430;1447946586.12;(0.3225074768066406, 0.8095432069566515);34.6402816772;0.848263344935;6;0;0;0;0;();(-2000.0, -2000.0);
04:23:08:474;04:23:08:473;0;5;-1.5;1;0;0;0;0;1;1;1;1;04:23:08:430;1447946586.12;(0.3225074768066406, 0.8095432069566515);34.6402816772;0.848263344935;6;0;0;0;0;();(-2000.0, -2000.0);
04:23:08:491;04:23:08:491;0;10;-1.5;1;0;0;0;0;1;1;1;1;04:23:08:430;1447946586.12;(0.3225074768066406, 0.8095432069566515);34.6402816772;0.848263344935;6;0;0;0;0;();(-2000.0, -2000.0);
04:23:08:507;04:23:08:507;0;4;-1.5;1;0;0;0;0;1;1;1;1;04:23:08:498;1447946586.19;(0.3221566915512085, 0.8098142411973741);35.2801818848;1.0;6;0;0;0;0;();(-2000.0, -2000.0);
04:23:08:541;04:23:08:541;0;4;-1.5;1;0;0;0;0;1;1;1;1;04:23:08:498;1447946586.19;(0.3221566915512085, 0.8098142411973741);35.2801818848;1.0;6;0;0;0;0;();(-2000.0, -2000.0);
04:23:08:556;04:23:08:556;0;9;-1.5;1;0;0;0;0;1;1;1;1;04:23:08:498;1447946586.19;(0.3221566915512085, 0.8098142411973741);35.2801818848;1.0;6;0;0;0;0;();(-2000.0, -2000.0);
04:23:08:573;04:23:08:573;0;5;-1.5;1;0;0;0;0;1;1;1;1;04:23:08:566;1447946586.25;(0.32154738903045654, 0.8094651116265191);35.1178817749;1.0;6;0;0;0;0;();(-2000.0, -2000.0);
04:23:08:590;04:23:08:590;0;10;-1.5;1;0;0;0;0;1;1;1;1;04:23:08:566;1447946586.25;(0.32154738903045654, 0.8094651116265191);35.1178817749;1.0;6;0;0;0;0;();(-2000.0, -2000.0);
04:23:08:606;04:23:08:606;0;4;-1.5;1;0;0;0;0;1;1;1;1;04:23:08:566;1447946586.25;(0.32154738903045654, 0.8094651116265191);35.1178817749;1.0;6;0;0;0;0;();(-2000.0, -2000.0);
04:23:08:639;04:23:08:639;0;0;-1.5;1;0;0;0;0;1;1;1;1;04:23:08:634;1447946586.32;(0.3214008569717407, 0.8100987752278646);35.5456848145;1.0;6;0;0;0;0;();(-2000.0, -2000.0);
04:23:08:656;04:23:08:656;0;10;-1.5;1;0;0;0;0;1;1;1;1;04:23:08:634;1447946586.32;(0.3214008569717407, 0.8100987752278646);35.5456848145;1.0;6;0;0;0;0;();(-2000.0, -2000.0);
04:23:08:672;04:23:08:672;0;15;-1.5;1;0;0;0;0;1;1;1;1;04:23:08:634;1447946586.32;(0.3214008569717407, 0.8100987752278646);35.5456848145;1.0;6;0;0;0;0;();(-2000.0, -2000.0);
04:23:08:689;04:23:08:689;0;10;-1.5;1;0;0;0;0;1;1;1;1;04:23:08:634;1447946586.32;(0.3214008569717407, 0.8100987752278646);35.5456848145;1.0;6;0;0;0;0;();(-2000.0, -2000.0);
04:23:08:722;04:23:08:722;0;9;-1.5;1;0;0;0;0;1;1;1;1;04:23:08:634;1447946586.32;(0.3214008569717407, 0.8100987752278646);35.5456848145;1.0;6;0;0;0;0;();(-2000.0, -2000.0);
04:23:08:739;04:23:08:739;0;15;-1.5;1;0;0;0;0;1;1;1;1;04:23:08:734;1447946586.39;(0.3216588020324707, 0.8099392996893988);35.8694648743;1.0;6;0;0;0;0;();(-2000.0, -2000.0);
04:23:08:756;04:23:08:756;0;10;-1.5;1;0;0;0;0;1;1;1;1;04:23:08:734;1447946586.39;(0.3216588020324707, 0.8099392996893988);35.8694648743;1.0;6;0;0;0;0;();(-2000.0, -2000.0);
04:23:08:772;04:23:08:772;0;11;-1.5;1;0;0;0;0;1;1;1;1;04:23:08:766;1447946586.45;(0.3215898036956787, 0.8101811303032769);35.9576187134;1.0;6;0;0;0;0;();(-2000.0, -2000.0);
04:23:08:789;04:23:08:788;0;10;-1.5;1;0;0;0;0;1;1;1;1;04:23:08:766;1447946586.45;(0.3215898036956787, 0.8101811303032769);35.9576187134;1.0;6;0;0;0;0;();(-2000.0, -2000.0);
04:23:08:806;04:23:08:806;0;2;-1.5;1;0;0;0;0;1;1;1;1;04:23:08:766;1447946586.45;(0.3215898036956787, 0.8101811303032769);35.9576187134;1.0;6;0;0;0;0;();(-2000.0, -2000.0);
04:23:08:838;04:23:08:838;0;15;-1.5;1;0;0;0;0;1;1;1;1;04:23:08:834;1447946586.52;(0.32174882888793943, 0.8100420422024197);35.4256820679;0.994166345932;6;0;0;0;0;();(-2000.0, -2000.0);
04:23:08:855;04:23:08:855;0;4;-1.5;1;0;0;0;0;1;1;1;1;04:23:08:834;1447946586.52;(0.32174882888793943, 0.8100420422024197);35.4256820679;0.994166345932;6;0;0;0;0;();(-2000.0, -2000.0);
04:23:08:872;04:23:08:872;0;15;-1.5;1;0;0;0;0;1;1;1;1;04:23:08:834;1447946586.52;(0.32174882888793943, 0.8100420422024197);35.4256820679;0.994166345932;6;0;0;0;0;();(-2000.0, -2000.0);
04:23:08:888;04:23:08:888;0;5;-1.5;1;0;0;0;0;1;1;1;1;04:23:08:834;1447946586.52;(0.32174882888793943, 0.8100420422024197);35.4256820679;0.994166345932;6;0;0;0;0;();(-2000.0, -2000.0);
04:23:08:921;04:23:08:921;0;4;-1.5;1;0;0;0;0;1;1;1;1;04:23:08:903;1447946586.59;(0.3217836618423462, 0.8101771036783854);35.1090049744;1.0;6;0;0;0;0;();(-2000.0, -2000.0);
04:23:08:938;04:23:08:938;0;15;-1.5;1;0;0;0;0;1;1;1;1;04:23:08:903;1447946586.59;(0.3217836618423462, 0.8101771036783854);35.1090049744;1.0;6;0;0;0;0;();(-2000.0, -2000.0);
04:23:08:954;04:23:08:954;0;4;-1.5;1;0;0;0;0;1;1;1;1;04:23:08:903;1447946586.59;(0.3217836618423462, 0.8101771036783854);35.1090049744;1.0;6;0;0;0;0;();(-2000.0, -2000.0);
04:23:08:972;04:23:08:972;0;10;-1.5;1;0;0;0;0;1;1;1;1;04:23:08:966;1447946586.65;(0.32184505462646484, 0.8100380155775282);35.4733467102;1.0;6;0;0;0;0;();(-2000.0, -2000.0);
04:23:08:987;04:23:08:987;0;5;-1.5;1;0;0;0;0;1;1;1;1;04:23:08:966;1447946586.65;(0.32184505462646484, 0.8100380155775282);35.4733467102;1.0;6;0;0;0;0;();(-2000.0, -2000.0);
04:23:09:020;04:23:09:020;0;4;-1.5;1;0;0;0;0;1;1;1;1;04:23:08:966;1447946586.65;(0.32184505462646484, 0.8100380155775282);35.4733467102;1.0;6;0;0;0;0;();(-2000.0, -2000.0);
04:23:09:037;04:23:09:037;0;15;-1.5;1;0;0;0;0;1;1;1;1;04:23:09:034;1447946586.72;(0.32149462699890136, 0.8099292543199328);35.6367225647;1.0;6;0;0;0;0;();(-2000.0, -2000.0);
04:23:09:054;04:23:09:053;0;4;-1.5;1;0;0;0;0;1;1;1;1;04:23:09:034;1447946586.72;(0.32149462699890136, 0.8099292543199328);35.6367225647;1.0;6;0;0;0;0;();(-2000.0, -2000.0);
04:23:09:070;04:23:09:070;0;10;-1.5;1;0;0;0;0;1;1;1;1;04:23:09:034;1447946586.72;(0.32149462699890136, 0.8099292543199328);35.6367225647;1.0;6;0;0;0;0;();(-2000.0, -2000.0);
04:23:09:087;04:23:09:087;0;4;-1.5;1;0;0;0;0;1;1;1;1;04:23:09:034;1447946586.72;(0.32149462699890136, 0.8099292543199328);35.6367225647;1.0;6;0;0;0;0;();(-2000.0, -2000.0);
04:23:09:122;04:23:09:122;0;13;-1.5;1;0;0;0;0;1;1;1;1;04:23:09:102;1447946586.79;(0.32134673595428465, 0.8094521628485786);36.1204071045;1.0;6;0;0;0;0;();(-2000.0, -2000.0);
04:23:09:139;04:23:09:139;0;10;-1.5;1;0;0;0;0;1;1;1;1;04:23:09:102;1447946586.79;(0.32134673595428465, 0.8094521628485786);36.1204071045;1.0;6;0;0;0;0;();(-2000.0, -2000.0);
04:23:09:155;04:23:09:155;0;15;-1.5;1;0;0;0;0;1;1;1;1;04:23:09:102;1447946586.79;(0.32134673595428465, 0.8094521628485786);36.1204071045;1.0;6;0;0;0;0;();(-2000.0, -2000.0);
04:23:09:172;04:23:09:172;0;9;-1.5;1;0;0;0;0;1;1;1;1;04:23:09:166;1447946586.85;(0.3216599941253662, 0.8098520067003039);35.3474349976;1.0;6;0;0;0;0;();(-2000.0, -2000.0);
04:23:09:189;04:23:09:189;0;5;-1.5;1;0;0;0;0;1;1;1;1;04:23:09:166;1447946586.85;(0.3216599941253662, 0.8098520067003039);35.3474349976;1.0;6;0;0;0;0;();(-2000.0, -2000.0);
04:23:09:222;04:23:09:222;0;15;-1.5;1;0;0;0;0;1;1;1;1;04:23:09:166;1447946586.85;(0.3216599941253662, 0.8098520067003039);35.3474349976;1.0;6;0;0;0;0;();(-2000.0, -2000.0);
04:23:09:239;04:23:09:238;0;4;-1.5;1;0;0;0;0;1;1;1;1;04:23:09:234;1447946586.92;(0.32168054580688477, 0.8100361718071831);35.4174804688;1.0;6;0;0;0;0;();(-2000.0, -2000.0);
04:23:09:255;04:23:09:255;0;15;-1.5;1;0;0;0;0;1;1;1;1;04:23:09:234;1447946586.92;(0.32168054580688477, 0.8100361718071831);35.4174804688;1.0;6;0;0;0;0;();(-2000.0, -2000.0);
04:23:09:272;04:23:09:272;0;5;-1.5;1;0;0;0;0;1;1;1;1;04:23:09:234;1447946586.92;(0.32168054580688477, 0.8100361718071831);35.4174804688;1.0;6;0;0;0;0;();(-2000.0, -2000.0);
04:23:09:288;04:23:09:288;0;15;-1.5;1;0;0;0;0;1;1;1;1;04:23:09:234;1447946586.92;(0.32168054580688477, 0.8100361718071831);35.4174804688;1.0;6;0;0;0;0;();(-2000.0, -2000.0);
04:23:09:321;04:23:09:321;0;9;-1.5;1;0;0;0;0;1;1;1;1;04:23:09:302;1447946586.99;(0.32205007076263426, 0.809574466281467);36.2194976807;1.0;6;0;0;0;0;();(-2000.0, -2000.0);
04:23:09:338;04:23:09:338;0;4;-1.5;1;0;0;0;0;1;1;1;1;04:23:09:302;1447946586.99;(0.32205007076263426, 0.809574466281467);36.2194976807;1.0;6;0;0;0;0;();(-2000.0, -2000.0);
04:23:09:356;04:23:09:354;0;0;-1.5;1;0;0;0;0;1;1;1;1;04:23:09:302;1447946586.99;(0.32205007076263426, 0.809574466281467);36.2194976807;1.0;6;0;0;0;0;();(-2000.0, -2000.0);
04:23:09:371;04:23:09:371;0;5;-1.5;1;0;0;0;0;1;1;1;1;04:23:09:370;1447946587.05;(0.32177326679229734, 0.8096899880303277);35.6494255066;1.0;6;0;0;0;0;();(-2000.0, -2000.0);
04:23:09:388;04:23:09:387;0;9;-1.5;1;0;0;0;0;1;1;1;1;04:23:09:370;1447946587.05;(0.32177326679229734, 0.8096899880303277);35.6494255066;1.0;6;0;0;0;0;();(-2000.0, -2000.0);
04:23:09:421;04:23:09:421;0;15;-1.5;1;0;0;0;0;1;1;1;1;04:23:09:370;1447946587.05;(0.32177326679229734, 0.8096899880303277);35.6494255066;1.0;6;0;0;0;0;();(-2000.0, -2000.0);
04:23:09:437;04:23:09:437;0;4;-1.5;1;0;0;0;0;1;1;1;1;04:23:09:435;1447946587.12;(0.3217535257339478, 0.8095447964138455);36.1681556702;1.0;6;0;0;0;0;();(-2000.0, -2000.0);
04:23:09:454;04:23:09:454;0;10;-1.5;1;0;0;0;0;1;1;1;1;04:23:09:435;1447946587.12;(0.3217535257339478, 0.8095447964138455);36.1681556702;1.0;6;0;0;0;0;();(-2000.0, -2000.0);
04:23:09:470;04:23:09:470;0;5;-1.5;1;0;0;0;0;1;1;1;1;04:23:09:435;1447946587.12;(0.3217535257339478, 0.8095447964138455);36.1681556702;1.0;6;0;0;0;0;();(-2000.0, -2000.0);
04:23:09:488;04:23:09:488;0;9;-1.5;1;0;0;0;0;1;1;1;1;04:23:09:435;1447946587.12;(0.3217535257339478, 0.8095447964138455);36.1681556702;1.0;6;0;0;0;0;();(-2000.0, -2000.0);
04:23:09:520;04:23:09:520;0;9;-1.5;1;0;0;0;0;1;1;1;1;04:23:09:503;1447946587.19;(0.321419358253479, 0.809389771355523);35.854057312;1.0;6;0;0;0;0;();(-2000.0, -2000.0);
04:23:09:538;04:23:09:536;0;5;-1.5;1;0;0;0;0;1;1;1;1;04:23:09:503;1447946587.19;(0.321419358253479, 0.809389771355523);35.854057312;1.0;6;0;0;0;0;();(-2000.0, -2000.0);
04:23:09:553;04:23:09:553;0;10;-1.5;1;0;0;0;0;1;1;1;1;04:23:09:503;1447946587.19;(0.321419358253479, 0.809389771355523);35.854057312;1.0;6;0;0;0;0;();(-2000.0, -2000.0);
04:23:09:570;04:23:09:570;0;15;-1.5;1;0;0;0;0;1;1;1;1;04:23:09:503;1447946587.19;(0.321419358253479, 0.809389771355523);35.854057312;1.0;6;0;0;0;0;();(-2000.0, -2000.0);
04:23:09:586;04:23:09:586;0;10;-1.5;1;0;0;0;0;1;1;1;1;04:23:09:570;1447946587.25;(0.3214864730834961, 0.80986631181505);35.9266624451;1.0;6;0;0;0;0;();(-2000.0, -2000.0);
04:23:09:619;04:23:09:619;0;12;-1.5;1;0;0;0;0;1;1;1;1;04:23:09:570;1447946587.25;(0.3214864730834961, 0.80986631181505);35.9266624451;1.0;6;0;0;0;0;();(-2000.0, -2000.0);
04:23:09:636;04:23:09:636;0;14;-1.5;1;0;0;0;0;1;1;1;1;04:23:09:570;1447946587.25;(0.3214864730834961, 0.80986631181505);35.9266624451;1.0;6;0;0;0;0;();(-2000.0, -2000.0);
04:23:09:653;04:23:09:652;0;9;-1.5;1;0;0;0;0;1;1;1;1;04:23:09:638;1447946587.32;(0.321295952796936, 0.8090914620293511);36.3814201355;1.0;6;0;0;0;0;();(-2000.0, -2000.0);
04:23:09:670;04:23:09:670;0;0;-1.5;1;0;0;0;0;1;1;1;1;04:23:09:638;1447946587.32;(0.321295952796936, 0.8090914620293511);36.3814201355;1.0;6;0;0;0;0;();(-2000.0, -2000.0);
04:23:09:702;04:23:09:702;0;15;-1.5;1;0;0;0;0;1;1;1;1;04:23:09:702;1447946587.39;(0.3214097261428833, 0.8100651635064019);37.1169319153;1.0;6;0;0;0;0;();(-2000.0, -2000.0);
04:23:09:721;04:23:09:721;0;4;-1.5;1;0;0;0;0;1;1;1;1;04:23:09:702;1447946587.39;(0.3214097261428833, 0.8100651635064019);37.1169319153;1.0;6;0;0;0;0;();(-2000.0, -2000.0);
04:23:09:738;04:23:09:738;0;15;-1.5;1;0;0;0;0;1;1;1;1;04:23:09:702;1447946587.39;(0.3214097261428833, 0.8100651635064019);37.1169319153;1.0;6;0;0;0;0;();(-2000.0, -2000.0);
04:23:09:755;04:23:09:755;0;5;-1.5;1;0;0;0;0;1;1;1;1;04:23:09:702;1447946587.39;(0.3214097261428833, 0.8100651635064019);37.1169319153;1.0;6;0;0;0;0;();(-2000.0, -2000.0);
04:23:09:771;04:23:09:771;0;14;-1.5;1;0;0;0;0;1;1;1;1;04:23:09:771;1447946587.45;(0.32161190509796145, 0.8095921622382269);35.8223304749;0.995308303742;6;0;0;0;0;();(-2000.0, -2000.0);
04:23:09:788;04:23:09:788;0;5;-1.5;1;0;0;0;0;1;1;1;1;04:23:09:771;1447946587.45;(0.32161190509796145, 0.8095921622382269);35.8223304749;0.995308303742;6;0;0;0;0;();(-2000.0, -2000.0);
04:23:09:821;04:23:09:821;0;5;-1.5;1;0;0;0;0;1;1;1;1;04:23:09:771;1447946587.45;(0.32161190509796145, 0.8095921622382269);35.8223304749;0.995308303742;6;0;0;0;0;();(-2000.0, -2000.0);
04:23:09:837;04:23:09:837;0;9;-1.5;1;0;0;0;0;1;1;1;1;04:23:09:771;1447946587.45;(0.32161190509796145, 0.8095921622382269);35.8223304749;0.995308303742;6;0;0;0;0;();(-2000.0, -2000.0);
04:23:09:854;04:23:09:854;0;5;-1.5;1;0;0;0;0;1;1;1;1;04:23:09:838;1447946587.52;(0.32147507667541503, 0.809446292453342);36.6320343018;1.0;6;0;0;0;0;();(-2000.0, -2000.0);
04:23:09:872;04:23:09:872;0;10;-1.5;1;0;0;0;0;1;1;1;1;04:23:09:838;1447946587.52;(0.32147507667541503, 0.809446292453342);36.6320343018;1.0;6;0;0;0;0;();(-2000.0, -2000.0);
04:23:09:887;04:23:09:887;0;6;-1.5;1;0;0;0;0;1;1;1;1;04:23:09:838;1447946587.52;(0.32147507667541503, 0.809446292453342);36.6320343018;1.0;6;0;0;0;0;();(-2000.0, -2000.0);
04:23:09:920;04:23:09:920;0;5;-1.5;1;0;0;0;0;1;1;1;1;04:23:09:906;1447946587.59;(0.3214370012283325, 0.8097141053941515);36.0381393433;1.0;6;0;0;0;0;();(-2000.0, -2000.0);
04:23:09:937;04:23:09:937;0;10;-1.5;1;0;0;0;0;1;1;1;1;04:23:09:906;1447946587.59;(0.3214370012283325, 0.8097141053941515);36.0381393433;1.0;6;0;0;0;0;();(-2000.0, -2000.0);
04:23:09:953;04:23:09:953;0;4;-1.5;1;0;0;0;0;1;1;1;1;04:23:09:906;1447946587.59;(0.3214370012283325, 0.8097141053941515);36.0381393433;1.0;6;0;0;0;0;();(-2000.0, -2000.0);
04:23:09:970;04:23:09:970;0;9;-1.5;1;0;0;0;0;1;1;1;1;04:23:09:906;1447946587.59;(0.3214370012283325, 0.8097141053941515);36.0381393433;1.0;6;0;0;0;0;();(-2000.0, -2000.0);
04:23:09:987;04:23:09:987;0;0;-1.5;1;0;0;0;0;1;1;1;1;04:23:09:971;1447946587.65;(0.32164440155029295, 0.8094060897827149);35.5701713562;1.0;6;0;0;0;0;();(-2000.0, -2000.0);
04:23:10:019;04:23:10:019;0;15;-1.5;1;0;0;0;0;1;1;1;1;04:23:09:971;1447946587.65;(0.32164440155029295, 0.8094060897827149);35.5701713562;1.0;6;0;0;0;0;();(-2000.0, -2000.0);
04:23:10:037;04:23:10:037;0;9;-1.5;1;0;0;0;0;1;1;1;1;04:23:09:971;1447946587.65;(0.32164440155029295, 0.8094060897827149);35.5701713562;1.0;6;0;0;0;0;();(-2000.0, -2000.0);
04:23:10:053;04:23:10:053;0;14;-1.5;1;0;0;0;0;1;1;1;1;04:23:10:038;1447946587.72;(0.3219742298126221, 0.8099141014946831);35.6344337463;1.0;6;0;0;0;0;();(-2000.0, -2000.0);
04:23:10:069;04:23:10:069;0;9;-1.5;1;0;0;0;0;1;1;1;1;04:23:10:038;1447946587.72;(0.3219742298126221, 0.8099141014946831);35.6344337463;1.0;6;0;0;0;0;();(-2000.0, -2000.0);
04:23:10:102;04:23:10:102;0;5;-1.5;1;0;0;0;0;1;1;1;1;04:23:10:038;1447946587.72;(0.3219742298126221, 0.8099141014946831);35.6344337463;1.0;6;0;0;0;0;();(-2000.0, -2000.0);
04:23:10:119;04:23:10:119;0;15;-1.5;1;0;0;0;0;1;1;1;1;04:23:10:106;1447946587.79;(0.3213361263275146, 0.8092486911349827);35.8179855347;1.0;6;0;0;0;0;();(-2000.0, -2000.0);
04:23:10:137;04:23:10:137;0;5;-1.5;1;0;0;0;0;1;1;1;1;04:23:10:106;1447946587.79;(0.3213361263275146, 0.8092486911349827);35.8179855347;1.0;6;0;0;0;0;();(-2000.0, -2000.0);
04:23:10:153;04:23:10:152;0;0;-1.5;1;0;0;0;0;1;1;1;1;04:23:10:106;1447946587.79;(0.3213361263275146, 0.8092486911349827);35.8179855347;1.0;6;0;0;0;0;();(-2000.0, -2000.0);
04:23:10:169;04:23:10:169;0;5;-1.5;1;0;0;0;0;1;1;1;1;04:23:10:106;1447946587.79;(0.3213361263275146, 0.8092486911349827);35.8179855347;1.0;6;0;0;0;0;();(-2000.0, -2000.0);
04:23:10:202;04:23:10:202;0;4;-1.5;1;0;0;0;0;1;1;1;1;04:23:10:175;1447946587.85;(0.32176568508148196, 0.8093257904052734);35.3232002258;1.0;6;0;0;0;0;();(-2000.0, -2000.0);
04:23:10:222;04:23:10:222;0;7;-1.5;1;0;0;0;0;1;1;1;1;04:23:10:175;1447946587.85;(0.32176568508148196, 0.8093257904052734);35.3232002258;1.0;6;0;0;0;0;();(-2000.0, -2000.0);
04:23:10:237;04:23:10:237;0;5;-1.5;1;0;0;0;0;1;1;1;1;04:23:10:175;1447946587.85;(0.32176568508148196, 0.8093257904052734);35.3232002258;1.0;6;0;0;0;0;();(-2000.0, -2000.0);
04:23:10:253;04:23:10:253;0;10;-1.5;1;0;0;0;0;1;1;1;1;04:23:10:239;1447946587.92;(0.3215558767318726, 0.809624375237359);35.6062812805;1.0;6;0;0;0;0;();(-2000.0, -2000.0);
04:23:10:270;04:23:10:270;0;5;-1.5;1;0;0;0;0;1;1;1;1;04:23:10:239;1447946587.92;(0.3215558767318726, 0.809624375237359);35.6062812805;1.0;6;0;0;0;0;();(-2000.0, -2000.0);
04:23:10:287;04:23:10:287;0;9;-1.5;1;0;0;0;0;1;1;1;1;04:23:10:239;1447946587.92;(0.3215558767318726, 0.809624375237359);35.6062812805;1.0;6;0;0;0;0;();(-2000.0, -2000.0);
04:23:10:319;04:23:10:319;0;9;-1.5;1;0;0;0;0;1;1;1;1;04:23:10:306;1447946587.99;(0.3217740535736084, 0.8097989188300239);36.1143951416;1.0;6;0;0;0;0;();(-2000.0, -2000.0);
04:23:10:336;04:23:10:336;0;5;-1.5;1;0;0;0;0;1;1;1;1;04:23:10:306;1447946587.99;(0.3217740535736084, 0.8097989188300239);36.1143951416;1.0;6;0;0;0;0;();(-2000.0, -2000.0);
04:23:10:353;04:23:10:353;0;10;-1.5;1;0;0;0;0;1;1;1;1;04:23:10:306;1447946587.99;(0.3217740535736084, 0.8097989188300239);36.1143951416;1.0;6;0;0;0;0;();(-2000.0, -2000.0);
04:23:10:369;04:23:10:369;0;15;-1.5;1;0;0;0;0;1;1;1;1;04:23:10:306;1447946587.99;(0.3217740535736084, 0.8097989188300239);36.1143951416;1.0;6;0;0;0;0;();(-2000.0, -2000.0);
04:23:10:402;04:23:10:402;0;0;-1.5;1;0;0;0;0;1;1;1;1;04:23:10:374;1447946588.05;(0.32168591022491455, 0.809457164340549);35.1775398254;1.0;6;0;0;0;0;();(-2000.0, -2000.0);
04:23:10:419;04:23:10:419;0;10;-1.5;1;0;0;0;0;1;1;1;1;04:23:10:374;1447946588.05;(0.32168591022491455, 0.809457164340549);35.1775398254;1.0;6;0;0;0;0;();(-2000.0, -2000.0);
04:23:10:435;04:23:10:435;0;15;-1.5;1;0;0;0;0;1;1;1;1;04:23:10:374;1447946588.05;(0.32168591022491455, 0.809457164340549);35.1775398254;1.0;6;0;0;0;0;();(-2000.0, -2000.0);
04:23:10:452;04:23:10:452;0;4;-1.5;1;0;0;0;0;1;1;1;1;04:23:10:438;1447946588.12;(0.32157130241394044, 0.8101916842990451);35.7219924927;1.0;6;0;0;0;0;();(-2000.0, -2000.0);
04:23:10:469;04:23:10:469;0;4;-1.5;1;0;0;0;0;1;1;1;1;04:23:10:438;1447946588.12;(0.32157130241394044, 0.8101916842990451);35.7219924927;1.0;6;0;0;0;0;();(-2000.0, -2000.0);
04:23:10:501;04:23:10:501;0;15;-1.5;1;0;0;0;0;1;1;1;1;04:23:10:438;1447946588.12;(0.32157130241394044, 0.8101916842990451);35.7219924927;1.0;6;0;0;0;0;();(-2000.0, -2000.0);
04:23:10:519;04:23:10:519;0;10;-1.5;1;0;0;0;0;1;1;1;1;04:23:10:507;1447946588.19;(0.32184064388275146, 0.8095962524414062);35.6544151306;0.928964821938;6;0;0;0;0;();(-2000.0, -2000.0);
04:23:10:537;04:23:10:537;0;15;-1.5;1;0;0;0;0;1;1;1;1;04:23:10:507;1447946588.19;(0.32184064388275146, 0.8095962524414062);35.6544151306;0.928964821938;6;0;0;0;0;();(-2000.0, -2000.0);
04:23:10:555;04:23:10:555;0;5;-1.5;1;0;0;0;0;1;1;1;1;04:23:10:507;1447946588.19;(0.32184064388275146, 0.8095962524414062);35.6544151306;0.928964821938;6;0;0;0;0;();(-2000.0, -2000.0);
04:23:10:572;04:23:10:571;0;10;-1.5;1;0;0;0;0;1;1;1;1;04:23:10:507;1447946588.19;(0.32184064388275146, 0.8095962524414062);35.6544151306;0.928964821938;6;0;0;0;0;();(-2000.0, -2000.0);
04:23:10:589;04:23:10:589;0;5;-1.5;1;0;0;0;0;1;1;1;1;04:23:10:574;1447946588.25;(0.32167768478393555, 0.8099197811550565);36.3387298584;1.0;6;0;0;0;0;();(-2000.0, -2000.0);
04:23:10:621;04:23:10:621;0;4;-1.5;1;0;0;0;0;1;1;1;1;04:23:10:574;1447946588.25;(0.32167768478393555, 0.8099197811550565);36.3387298584;1.0;6;0;0;0;0;();(-2000.0, -2000.0);
04:23:10:639;04:23:10:639;0;10;-1.5;1;0;0;0;0;1;1;1;1;04:23:10:574;1447946588.25;(0.32167768478393555, 0.8099197811550565);36.3387298584;1.0;6;0;0;0;0;();(-2000.0, -2000.0);
04:23:10:655;04:23:10:654;0;15;-1.5;1;0;0;0;0;1;1;1;1;04:23:10:643;1447946588.32;(0.321415376663208, 0.8093176523844401);36.4331321716;0.96677788279;6;0;0;0;0;();(-2000.0, -2000.0);
04:23:10:671;04:23:10:671;0;10;-1.5;1;0;0;0;0;1;1;1;1;04:23:10:643;1447946588.32;(0.321415376663208, 0.8093176523844401);36.4331321716;0.96677788279;6;0;0;0;0;();(-2000.0, -2000.0);
04:23:10:687;04:23:10:687;0;4;-1.5;1;0;0;0;0;1;1;1;1;04:23:10:643;1447946588.32;(0.321415376663208, 0.8093176523844401);36.4331321716;0.96677788279;6;0;0;0;0;();(-2000.0, -2000.0);
04:23:10:721;04:23:10:721;0;0;-1.5;1;0;0;0;0;1;1;1;1;04:23:10:706;1447946588.39;(0.32157487869262696, 0.8094546635945639);36.0067405701;1.0;6;0;0;0;0;();(-2000.0, -2000.0);
04:23:10:737;04:23:10:737;0;10;-1.5;1;0;0;0;0;1;1;1;1;04:23:10:706;1447946588.39;(0.32157487869262696, 0.8094546635945639);36.0067405701;1.0;6;0;0;0;0;();(-2000.0, -2000.0);
04:23:10:759;04:23:10:759;0;15;-1.5;1;0;0;0;0;1;1;1;1;04:23:10:706;1447946588.39;(0.32157487869262696, 0.8094546635945639);36.0067405701;1.0;6;0;0;0;0;();(-2000.0, -2000.0);
04:23:10:776;04:23:10:776;0;4;-1.5;1;0;0;0;0;1;1;1;1;04:23:10:774;1447946588.45;(0.3218220233917236, 0.8098736233181424);35.4511909485;1.0;6;0;0;0;0;();(-2000.0, -2000.0);
04:23:10:793;04:23:10:793;0;1;-1.5;1;0;0;0;0;1;1;1;1;04:23:10:774;1447946588.45;(0.3218220233917236, 0.8098736233181424);35.4511909485;1.0;6;0;0;0;0;();(-2000.0, -2000.0);
04:23:10:809;04:23:10:809;0;5;-1.5;1;0;0;0;0;1;1;1;1;04:23:10:774;1447946588.45;(0.3218220233917236, 0.8098736233181424);35.4511909485;1.0;6;0;0;0;0;();(-2000.0, -2000.0);
04:23:10:842;04:23:10:842;0;4;-1.5;1;0;0;0;0;1;1;1;1;04:23:10:774;1447946588.45;(0.3218220233917236, 0.8098736233181424);35.4511909485;1.0;6;0;0;0;0;();(-2000.0, -2000.0);
04:23:10:859;04:23:10:859;0;10;-1.5;1;0;0;0;0;1;1;1;1;04:23:10:843;1447946588.52;(0.3216684103012085, 0.8099558936225043);36.2381477356;1.0;6;0;0;0;0;();(-2000.0, -2000.0);
04:23:10:875;04:23:10:875;0;4;-1.5;1;0;0;0;0;1;1;1;1;04:23:10:843;1447946588.52;(0.3216684103012085, 0.8099558936225043);36.2381477356;1.0;6;0;0;0;0;();(-2000.0, -2000.0);
04:23:10:892;04:23:10:892;0;10;-1.5;1;0;0;0;0;1;1;1;1;04:23:10:843;1447946588.52;(0.3216684103012085, 0.8099558936225043);36.2381477356;1.0;6;0;0;0;0;();(-2000.0, -2000.0);
04:23:10:908;04:23:10:908;0;5;-1.5;1;0;0;0;0;1;1;1;1;04:23:10:843;1447946588.52;(0.3216684103012085, 0.8099558936225043);36.2381477356;1.0;6;0;0;0;0;();(-2000.0, -2000.0);
04:23:10:942;04:23:10:942;0;4;-1.5;1;0;0;0;0;1;1;1;1;04:23:10:910;1447946588.59;(0.32128405570983887, 0.809502919514974);35.6134910583;1.0;6;0;0;0;0;();(-2000.0, -2000.0);
04:23:10:960;04:23:10:960;0;10;-1.5;1;0;0;0;0;1;1;1;1;04:23:10:910;1447946588.59;(0.32128405570983887, 0.809502919514974);35.6134910583;1.0;6;0;0;0;0;();(-2000.0, -2000.0);
04:23:10:976;04:23:10:976;0;5;-1.5;1;0;0;0;0;1;1;1;1;04:23:10:974;1447946588.65;(0.32142090797424316, 0.8094171735975477);35.927646637;1.0;6;0;0;0;0;();(-2000.0, -2000.0);
04:23:10:993;04:23:10:993;0;10;-1.5;1;0;0;0;0;1;1;1;1;04:23:10:974;1447946588.65;(0.32142090797424316, 0.8094171735975477);35.927646637;1.0;6;0;0;0;0;();(-2000.0, -2000.0);
04:23:11:010;04:23:11:009;0;10;-1.5;1;0;0;0;0;1;1;1;1;04:23:10:974;1447946588.65;(0.32142090797424316, 0.8094171735975477);35.927646637;1.0;6;0;0;0;0;();(-2000.0, -2000.0);
04:23:11:027;04:23:11:027;0;10;-1.5;1;0;0;0;0;1;1;1;1;04:23:10:974;1447946588.65;(0.32142090797424316, 0.8094171735975477);35.927646637;1.0;6;0;0;0;0;();(-2000.0, -2000.0);
04:23:11:059;04:23:11:059;0;10;-1.5;1;0;0;0;0;1;1;1;1;04:23:11:042;1447946588.72;(0.32132816314697266, 0.8097018983629014);36.18699646;1.0;6;0;0;0;0;();(-2000.0, -2000.0);
04:23:11:077;04:23:11:077;0;15;-1.5;1;0;0;0;0;1;1;1;1;04:23:11:042;1447946588.72;(0.32132816314697266, 0.8097018983629014);36.18699646;1.0;6;0;0;0;0;();(-2000.0, -2000.0);
04:23:11:092;04:23:11:092;0;4;-1.5;1;0;0;0;0;1;1;1;1;04:23:11:042;1447946588.72;(0.32132816314697266, 0.8097018983629014);36.18699646;1.0;6;0;0;0;0;();(-2000.0, -2000.0);
04:23:11:109;04:23:11:109;0;0;-1.5;1;0;0;0;0;1;1;1;1;04:23:11:042;1447946588.72;(0.32132816314697266, 0.8097018983629014);36.18699646;1.0;6;0;0;0;0;();(-2000.0, -2000.0);
04:23:11:142;04:23:11:142;0;15;-1.5;1;0;0;0;0;1;1;1;1;04:23:11:111;1447946588.79;(0.3216137409210205, 0.8097938749525282);35.4035987854;1.0;6;0;0;0;0;();(-2000.0, -2000.0);
04:23:11:160;04:23:11:160;0;10;-1.5;1;0;0;0;0;1;1;1;1;04:23:11:111;1447946588.79;(0.3216137409210205, 0.8097938749525282);35.4035987854;1.0;6;0;0;0;0;();(-2000.0, -2000.0);
04:23:11:177;04:23:11:177;0;3;-1.5;1;0;0;0;0;1;1;1;1;04:23:11:111;1447946588.79;(0.3216137409210205, 0.8097938749525282);35.4035987854;1.0;6;0;0;0;0;();(-2000.0, -2000.0);
04:23:11:222;04:23:11:222;0;4;-1.5;1;0;0;0;0;1;1;1;1;04:23:11:178;1447946588.85;(0.32125301361083985, 0.8098297754923502);35.7910842896;1.0;6;0;0;0;0;();(-2000.0, -2000.0);
04:23:11:225;04:23:11:225;0;4;-1.5;1;0;0;0;0;1;1;1;1;04:23:11:178;1447946588.85;(0.32125301361083985, 0.8098297754923502);35.7910842896;1.0;6;0;0;0;0;();(-2000.0, -2000.0);
04:23:11:239;04:23:11:239;0;0;-1.5;1;0;0;0;0;1;1;1;1;04:23:11:178;1447946588.85;(0.32125301361083985, 0.8098297754923502);35.7910842896;1.0;6;0;0;0;0;();(-2000.0, -2000.0);
04:23:11:257;04:23:11:257;0;4;-1.5;1;0;0;0;0;1;1;1;1;04:23:11:242;1447946588.92;(0.32132296562194823, 0.8096715503268772);35.713180542;1.0;6;0;0;0;0;();(-2000.0, -2000.0);
04:23:11:272;04:23:11:272;0;0;-1.5;1;0;0;0;0;1;1;1;1;04:23:11:242;1447946588.92;(0.32132296562194823, 0.8096715503268772);35.713180542;1.0;6;0;0;0;0;();(-2000.0, -2000.0);
04:23:11:289;04:23:11:289;0;5;-1.5;1;0;0;0;0;1;1;1;1;04:23:11:242;1447946588.92;(0.32132296562194823, 0.8096715503268772);35.713180542;1.0;6;0;0;0;0;();(-2000.0, -2000.0);
04:23:11:328;04:23:11:328;0;11;-1.5;1;0;0;0;0;1;1;1;1;04:23:11:310;1447946588.99;(0.32140586376190183, 0.8095343907674154);36.1653709412;1.0;6;0;0;0;0;();(-2000.0, -2000.0);
04:23:11:330;04:23:11:330;0;15;-1.5;1;0;0;0;0;1;1;1;1;04:23:11:310;1447946588.99;(0.32140586376190183, 0.8095343907674154);36.1653709412;1.0;6;0;0;0;0;();(-2000.0, -2000.0);
04:23:11:355;04:23:11:355;0;4;-1.5;1;0;0;0;0;1;1;1;1;04:23:11:310;1447946588.99;(0.32140586376190183, 0.8095343907674154);36.1653709412;1.0;6;0;0;0;0;();(-2000.0, -2000.0);
04:23:11:372;04:23:11:372;0;10;-1.5;1;0;0;0;0;1;1;1;1;04:23:11:310;1447946588.99;(0.32140586376190183, 0.8095343907674154);36.1653709412;1.0;6;0;0;0;0;();(-2000.0, -2000.0);
04:23:11:388;04:23:11:388;0;10;-1.5;1;0;0;0;0;1;1;1;1;04:23:11:378;1447946589.05;(0.32148919105529783, 0.8094562106662326);35.97397995;1.0;6;0;0;0;0;();(-2000.0, -2000.0);
04:23:11:422;04:23:11:422;0;4;-1.5;1;0;0;0;0;1;1;1;1;04:23:11:378;1447946589.05;(0.32148919105529783, 0.8094562106662326);35.97397995;1.0;6;0;0;0;0;();(-2000.0, -2000.0);
04:23:11:438;04:23:11:438;0;10;-1.5;1;0;0;0;0;1;1;1;1;04:23:11:378;1447946589.05;(0.32148919105529783, 0.8094562106662326);35.97397995;1.0;6;0;0;0;0;();(-2000.0, -2000.0);
04:23:11:454;04:23:11:454;0;5;-1.5;1;0;0;0;0;1;1;1;1;04:23:11:446;1447946589.12;(0.32173404693603513, 0.8100054211086697);36.0542144775;1.0;6;0;0;0;0;();(-2000.0, -2000.0);
04:23:11:472;04:23:11:472;0;10;-1.5;1;0;0;0;0;1;1;1;1;04:23:11:446;1447946589.12;(0.32173404693603513, 0.8100054211086697);36.0542144775;1.0;6;0;0;0;0;();(-2000.0, -2000.0);
04:23:11:488;04:23:11:487;0;4;-1.5;1;0;0;0;0;1;1;1;1;04:23:11:446;1447946589.12;(0.32173404693603513, 0.8100054211086697);36.0542144775;1.0;6;0;0;0;0;();(-2000.0, -2000.0);
04:23:11:521;04:23:11:521;0;5;-1.5;1;0;0;0;0;1;1;1;1;04:23:11:510;1447946589.19;(0.32159624099731443, 0.8099521425035265);35.9567070007;1.0;6;0;0;0;0;();(-2000.0, -2000.0);
04:23:11:537;04:23:11:537;0;10;-1.5;1;0;0;0;0;1;1;1;1;04:23:11:510;1447946589.19;(0.32159624099731443, 0.8099521425035265);35.9567070007;1.0;6;0;0;0;0;();(-2000.0, -2000.0);
04:23:11:554;04:23:11:554;0;15;-1.5;1;0;0;0;0;1;1;1;1;04:23:11:510;1447946589.19;(0.32159624099731443, 0.8099521425035265);35.9567070007;1.0;6;0;0;0;0;();(-2000.0, -2000.0);
04:23:11:570;04:23:11:570;0;15;-1.5;1;0;0;0;0;1;1;1;1;04:23:11:510;1447946589.19;(0.32159624099731443, 0.8099521425035265);35.9567070007;1.0;6;0;0;0;0;();(-2000.0, -2000.0);
04:23:11:587;04:23:11:587;0;0;-1.5;1;0;0;0;0;1;1;1;1;04:23:11:578;1447946589.25;(0.3217406511306763, 0.809708997938368);35.9279632568;1.0;6;0;0;0;0;();(-2000.0, -2000.0);
04:23:11:620;04:23:11:620;0;15;-1.5;1;0;0;0;0;1;1;1;1;04:23:11:578;1447946589.25;(0.3217406511306763, 0.809708997938368);35.9279632568;1.0;6;0;0;0;0;();(-2000.0, -2000.0);
04:23:11:637;04:23:11:637;0;10;-1.5;1;0;0;0;0;1;1;1;1;04:23:11:578;1447946589.25;(0.3217406511306763, 0.809708997938368);35.9279632568;1.0;6;0;0;0;0;();(-2000.0, -2000.0);
04:23:11:653;04:23:11:653;0;15;-1.5;1;0;0;0;0;1;1;1;1;04:23:11:646;1447946589.32;(0.32147784233093263, 0.8095894919501411);36.3088493347;1.0;6;0;0;0;0;();(-2000.0, -2000.0);
04:23:11:670;04:23:11:670;0;5;-1.5;1;0;0;0;0;1;1;1;1;04:23:11:646;1447946589.32;(0.32147784233093263, 0.8095894919501411);36.3088493347;1.0;6;0;0;0;0;();(-2000.0, -2000.0);
04:23:11:687;04:23:11:686;0;0;-1.5;1;0;0;0;0;1;1;1;1;04:23:11:646;1447946589.32;(0.32147784233093263, 0.8095894919501411);36.3088493347;1.0;6;0;0;0;0;();(-2000.0, -2000.0);
04:23:11:719;04:23:11:719;0;15;-1.5;1;0;0;0;0;1;1;1;1;04:23:11:710;1447946589.39;(0.32168776988983155, 0.8097154829237196);35.3385124207;1.0;6;0;0;0;0;();(-2000.0, -2000.0);
04:23:11:736;04:23:11:736;0;9;-1.5;1;0;0;0;0;1;1;1;1;04:23:11:710;1447946589.39;(0.32168776988983155, 0.8097154829237196);35.3385124207;1.0;6;0;0;0;0;();(-2000.0, -2000.0);
04:23:11:753;04:23:11:753;0;4;-1.5;1;0;0;0;0;1;1;1;1;04:23:11:710;1447946589.39;(0.32168776988983155, 0.8097154829237196);35.3385124207;1.0;6;0;0;0;0;();(-2000.0, -2000.0);
04:23:11:769;04:23:11:769;0;5;-1.5;1;0;0;0;0;1;1;1;1;04:23:11:710;1447946589.39;(0.32168776988983155, 0.8097154829237196);35.3385124207;1.0;6;0;0;0;0;();(-2000.0, -2000.0);
04:23:11:786;04:23:11:786;0;15;-1.5;1;0;0;0;0;1;1;1;1;04:23:11:778;1447946589.45;(0.3213104486465454, 0.809769418504503);35.8098068237;1.0;6;0;0;0;0;();(-2000.0, -2000.0);
04:23:11:819;04:23:11:819;0;15;-1.5;1;0;0;0;0;1;1;1;1;04:23:11:778;1447946589.45;(0.3213104486465454, 0.809769418504503);35.8098068237;1.0;6;0;0;0;0;();(-2000.0, -2000.0);
04:23:11:835;04:23:11:835;0;5;-1.5;1;0;0;0;0;1;1;1;1;04:23:11:778;1447946589.45;(0.3213104486465454, 0.809769418504503);35.8098068237;1.0;6;0;0;0;0;();(-2000.0, -2000.0);
04:23:11:852;04:23:11:852;0;10;-1.5;1;0;0;0;0;1;1;1;1;04:23:11:846;1447946589.52;(0.32122623920440674, 0.8100357267591689);35.9237823486;1.0;6;0;0;0;0;();(-2000.0, -2000.0);
04:23:11:869;04:23:11:869;0;4;-1.5;1;0;0;0;0;1;1;1;1;04:23:11:846;1447946589.52;(0.32122623920440674, 0.8100357267591689);35.9237823486;1.0;6;0;0;0;0;();(-2000.0, -2000.0);
04:23:11:902;04:23:11:902;0;4;-1.5;1;0;0;0;0;1;1;1;1;04:23:11:846;1447946589.52;(0.32122623920440674, 0.8100357267591689);35.9237823486;1.0;6;0;0;0;0;();(-2000.0, -2000.0);
04:23:11:919;04:23:11:919;0;10;-1.5;1;0;0;0;0;1;1;1;1;04:23:11:915;1447946589.59;(0.3216166257858276, 0.8101376639472113);36.3245429993;1.0;6;0;0;0;0;();(-2000.0, -2000.0);
04:23:11:935;04:23:11:935;0;5;-1.5;1;0;0;0;0;1;1;1;1;04:23:11:915;1447946589.59;(0.3216166257858276, 0.8101376639472113);36.3245429993;1.0;6;0;0;0;0;();(-2000.0, -2000.0);
04:23:11:951;04:23:11:951;0;10;-1.5;1;0;0;0;0;1;1;1;1;04:23:11:915;1447946589.59;(0.3216166257858276, 0.8101376639472113);36.3245429993;1.0;6;0;0;0;0;();(-2000.0, -2000.0);
04:23:11:968;04:23:11:968;0;4;-1.5;1;0;0;0;0;1;1;1;1;04:23:11:915;1447946589.59;(0.3216166257858276, 0.8101376639472113);36.3245429993;1.0;6;0;0;0;0;();(-2000.0, -2000.0);
04:23:12:001;04:23:12:001;0;0;-1.5;1;0;0;0;0;1;1;1;1;04:23:11:979;1447946589.65;(0.3218184232711792, 0.8096414777967664);35.0521125793;1.0;6;0;0;0;0;();(-2000.0, -2000.0);
04:23:12:018;04:23:12:018;0;10;-1.5;1;0;0;0;0;1;1;1;1;04:23:11:979;1447946589.65;(0.3218184232711792, 0.8096414777967664);35.0521125793;1.0;6;0;0;0;0;();(-2000.0, -2000.0);
04:23:12:035;04:23:12:034;0;15;-1.5;1;0;0;0;0;1;1;1;1;04:23:11:979;1447946589.65;(0.3218184232711792, 0.8096414777967664);35.0521125793;1.0;6;0;0;0;0;();(-2000.0, -2000.0);
04:23:12:051;04:23:12:051;0;9;-1.5;1;0;0;0;0;1;1;1;1;04:23:12:046;1447946589.72;(0.321787428855896, 0.8099381552802192);35.6303939819;1.0;6;0;0;0;0;();(-2000.0, -2000.0);
04:23:12:068;04:23:12:068;0;0;-1.5;1;0;0;0;0;1;1;1;1;04:23:12:046;1447946589.72;(0.321787428855896, 0.8099381552802192);35.6303939819;1.0;6;0;0;0;0;();(-2000.0, -2000.0);
04:23:12:101;04:23:12:101;0;15;-1.5;1;0;0;0;0;1;1;1;1;04:23:12:046;1447946589.72;(0.321787428855896, 0.8099381552802192);35.6303939819;1.0;6;0;0;0;0;();(-2000.0, -2000.0);
04:23:12:117;04:23:12:117;0;4;-1.5;1;0;0;0;0;1;1;1;1;04:23:12:114;1447946589.79;(0.32168762683868407, 0.8093092176649306);35.5315093994;1.0;6;0;0;0;0;();(-2000.0, -2000.0);
04:23:12:134;04:23:12:134;0;15;-1.5;1;0;0;0;0;1;1;1;1;04:23:12:114;1447946589.79;(0.32168762683868407, 0.8093092176649306);35.5315093994;1.0;6;0;0;0;0;();(-2000.0, -2000.0);
04:23:12:150;04:23:12:150;0;14;-1.5;1;0;0;0;0;1;1;1;1;04:23:12:114;1447946589.79;(0.32168762683868407, 0.8093092176649306);35.5315093994;1.0;6;0;0;0;0;();(-2000.0, -2000.0);
04:23:12:167;04:23:12:167;0;15;-1.5;1;0;0;0;0;1;1;1;1;04:23:12:114;1447946589.79;(0.32168762683868407, 0.8093092176649306);35.5315093994;1.0;6;0;0;0;0;();(-2000.0, -2000.0);
04:23:12:200;04:23:12:200;0;15;-1.5;1;0;0;0;0;1;1;1;1;04:23:12:183;1447946589.85;(0.32209148406982424, 0.8092166264851888);35.7588005066;1.0;6;0;0;0;0;();(-2000.0, -2000.0);
04:23:12:220;04:23:12:220;0;5;-1.5;1;0;0;0;0;1;1;1;1;04:23:12:183;1447946589.85;(0.32209148406982424, 0.8092166264851888);35.7588005066;1.0;6;0;0;0;0;();(-2000.0, -2000.0);
04:23:12:242;04:23:12:242;0;10;-1.5;1;0;0;0;0;1;1;1;1;04:23:12:183;1447946589.85;(0.32209148406982424, 0.8092166264851888);35.7588005066;1.0;6;0;0;0;0;();(-2000.0, -2000.0);
04:23:12:261;04:23:12:261;0;0;-1.5;1;0;0;0;0;1;1;1;1;04:23:12:246;1447946589.92;(0.3217890739440918, 0.8092524422539605);35.6441116333;1.0;6;0;0;0;0;();(-2000.0, -2000.0);
04:23:12:279;04:23:12:279;0;4;-1.5;1;0;0;0;0;1;1;1;1;04:23:12:246;1447946589.92;(0.3217890739440918, 0.8092524422539605);35.6441116333;1.0;6;0;0;0;0;();(-2000.0, -2000.0);
04:23:12:295;04:23:12:295;0;15;-1.5;1;0;0;0;0;1;1;1;1;04:23:12:246;1447946589.92;(0.3217890739440918, 0.8092524422539605);35.6441116333;1.0;6;0;0;0;0;();(-2000.0, -2000.0);
04:23:12:311;04:23:12:311;0;10;-1.5;1;0;0;0;0;1;1;1;1;04:23:12:246;1447946589.92;(0.3217890739440918, 0.8092524422539605);35.6441116333;1.0;6;0;0;0;0;();(-2000.0, -2000.0);
04:23:12:329;04:23:12:329;0;0;-1.5;1;0;0;0;0;1;1;1;1;04:23:12:314;1447946589.99;(0.3216897487640381, 0.8097208234998915);35.9037475586;1.0;6;0;0;0;0;();(-2000.0, -2000.0);
04:23:12:361;04:23:12:361;0;15;-1.5;1;0;0;0;0;1;1;1;1;04:23:12:314;1447946589.99;(0.3216897487640381, 0.8097208234998915);35.9037475586;1.0;6;0;0;0;0;();(-2000.0, -2000.0);
04:23:12:377;04:23:12:377;0;4;-1.5;1;0;0;0;0;1;1;1;1;04:23:12:314;1447946589.99;(0.3216897487640381, 0.8097208234998915);35.9037475586;1.0;6;0;0;0;0;();(-2000.0, -2000.0);
04:23:12:394;04:23:12:394;0;0;-1.5;1;0;0;0;0;1;1;1;1;04:23:12:382;1447946590.05;(0.3215559244155884, 0.8095661163330078);35.6265029907;1.0;6;0;0;0;0;();(-2000.0, -2000.0);
04:23:12:412;04:23:12:410;0;5;-1.5;1;0;0;0;0;1;1;1;1;04:23:12:382;1447946590.05;(0.3215559244155884, 0.8095661163330078);35.6265029907;1.0;6;0;0;0;0;();(-2000.0, -2000.0);
04:23:12:434;04:23:12:434;0;9;-1.5;1;0;0;0;0;1;1;1;1;04:23:12:382;1447946590.05;(0.3215559244155884, 0.8095661163330078);35.6265029907;1.0;6;0;0;0;0;();(-2000.0, -2000.0);
04:23:12:452;04:23:12:452;0;15;-1.5;1;0;0;0;0;1;1;1;1;04:23:12:450;1447946590.12;(0.3215840578079224, 0.809753523932563);36.19373703;1.0;6;0;0;0;0;();(-2000.0, -2000.0);
04:23:12:468;04:23:12:468;0;4;-1.5;1;0;0;0;0;1;1;1;1;04:23:12:450;1447946590.12;(0.3215840578079224, 0.809753523932563);36.19373703;1.0;6;0;0;0;0;();(-2000.0, -2000.0);
04:23:12:502;04:23:12:502;0;10;-1.5;1;0;0;0;0;1;1;1;1;04:23:12:450;1447946590.12;(0.3215840578079224, 0.809753523932563);36.19373703;1.0;6;0;0;0;0;();(-2000.0, -2000.0);
04:23:12:518;04:23:12:518;0;15;-1.5;1;0;0;0;0;1;1;1;1;04:23:12:514;1447946590.19;(0.32150514125823976, 0.8096432156032987);35.569065094;1.0;6;0;0;0;0;();(-2000.0, -2000.0);
04:23:12:535;04:23:12:535;0;9;-1.5;1;0;0;0;0;1;1;1;1;04:23:12:514;1447946590.19;(0.32150514125823976, 0.8096432156032987);35.569065094;1.0;6;0;0;0;0;();(-2000.0, -2000.0);
04:23:12:552;04:23:12:552;0;0;-1.5;1;0;0;0;0;1;1;1;1;04:23:12:514;1447946590.19;(0.32150514125823976, 0.8096432156032987);35.569065094;1.0;6;0;0;0;0;();(-2000.0, -2000.0);
04:23:12:568;04:23:12:568;0;5;-1.5;1;0;0;0;0;1;1;1;1;04:23:12:514;1447946590.19;(0.32150514125823976, 0.8096432156032987);35.569065094;1.0;6;0;0;0;0;();(-2000.0, -2000.0);
04:23:12:602;04:23:12:602;0;4;-1.5;1;0;0;0;0;1;1;1;1;04:23:12:582;1447946590.25;(0.3216840744018555, 0.8094840367635091);36.5555915833;0.977647323512;6;0;0;0;0;();(-2000.0, -2000.0);
04:23:12:617;04:23:12:617;0;10;-1.5;1;0;0;0;0;1;1;1;1;04:23:12:582;1447946590.25;(0.3216840744018555, 0.8094840367635091);36.5555915833;0.977647323512;6;0;0;0;0;();(-2000.0, -2000.0);
04:23:12:642;04:23:12:641;0;15;-1.5;1;0;0;0;0;1;1;1;1;04:23:12:582;1447946590.25;(0.3216840744018555, 0.8094840367635091);36.5555915833;0.977647323512;6;0;0;0;0;();(-2000.0, -2000.0);
04:23:12:660;04:23:12:660;0;10;-1.5;1;0;0;0;0;1;1;1;1;04:23:12:650;1447946590.32;(0.32175133228302, 0.8097388161553277);36.1704406738;1.0;6;0;0;0;0;();(-2000.0, -2000.0);
04:23:12:676;04:23:12:676;0;0;-1.5;1;0;0;0;0;1;1;1;1;04:23:12:650;1447946590.32;(0.32175133228302, 0.8097388161553277);36.1704406738;1.0;6;0;0;0;0;();(-2000.0, -2000.0);
04:23:12:693;04:23:12:693;0;4;-1.5;1;0;0;0;0;1;1;1;1;04:23:12:650;1447946590.32;(0.32175133228302, 0.8097388161553277);36.1704406738;1.0;6;0;0;0;0;();(-2000.0, -2000.0);
04:23:12:709;04:23:12:709;0;0;-1.5;1;0;0;0;0;1;1;1;1;04:23:12:650;1447946590.32;(0.32175133228302, 0.8097388161553277);36.1704406738;1.0;6;0;0;0;0;();(-2000.0, -2000.0);
04:23:12:726;04:23:12:726;0;9;-1.5;1;0;0;0;0;1;1;1;1;04:23:12:718;1447946590.39;(0.321162748336792, 0.8094990412394205);35.649143219;1.0;6;0;0;0;0;();(-2000.0, -2000.0);
04:23:12:759;04:23:12:759;0;15;-1.5;1;0;0;0;0;1;1;1;1;04:23:12:718;1447946590.39;(0.321162748336792, 0.8094990412394205);35.649143219;1.0;6;0;0;0;0;();(-2000.0, -2000.0);
04:23:12:776;04:23:12:775;0;15;-1.5;1;0;0;0;0;1;1;1;1;04:23:12:718;1447946590.39;(0.321162748336792, 0.8094990412394205);35.649143219;1.0;6;0;0;0;0;();(-2000.0, -2000.0);
04:23:12:792;04:23:12:792;0;5;-1.5;1;0;0;0;0;1;1;1;1;04:23:12:782;1447946590.45;(0.32160818576812744, 0.8098146438598632);35.8256988525;1.0;6;0;0;0;0;();(-2000.0, -2000.0);
04:23:12:809;04:23:12:809;0;0;-1.5;1;0;0;0;0;1;1;1;1;04:23:12:782;1447946590.45;(0.32160818576812744, 0.8098146438598632);35.8256988525;1.0;6;0;0;0;0;();(-2000.0, -2000.0);
04:23:12:848;04:23:12:848;0;9;-1.5;1;0;0;0;0;1;1;1;1;04:23:12:782;1447946590.45;(0.32160818576812744, 0.8098146438598632);35.8256988525;1.0;6;0;0;0;0;();(-2000.0, -2000.0);
04:23:12:852;04:23:12:852;0;9;-1.5;1;0;0;0;0;1;1;1;1;04:23:12:850;1447946590.52;(0.32148582935333253, 0.809957292344835);36.4477729797;1.0;6;0;0;0;0;();(-2000.0, -2000.0);
04:23:12:883;04:23:12:883;0;5;-1.5;1;0;0;0;0;1;1;1;1;04:23:12:850;1447946590.52;(0.32148582935333253, 0.809957292344835);36.4477729797;1.0;6;0;0;0;0;();(-2000.0, -2000.0);
04:23:12:899;04:23:12:899;0;15;-1.5;1;0;0;0;0;1;1;1;1;04:23:12:850;1447946590.52;(0.32148582935333253, 0.809957292344835);36.4477729797;1.0;6;0;0;0;0;();(-2000.0, -2000.0);
04:23:12:917;04:23:12:917;0;11;-1.5;1;0;0;0;0;1;1;1;1;04:23:12:850;1447946590.52;(0.32148582935333253, 0.809957292344835);36.4477729797;1.0;6;0;0;0;0;();(-2000.0, -2000.0);
04:23:12:933;04:23:12:932;0;15;-1.5;1;0;0;0;0;1;1;1;1;04:23:12:918;1447946590.59;(0.3214380741119385, 0.8101243548923068);35.8670349121;1.0;6;0;0;0;0;();(-2000.0, -2000.0);
04:23:12:949;04:23:12:949;0;10;-1.5;1;0;0;0;0;1;1;1;1;04:23:12:918;1447946590.59;(0.3214380741119385, 0.8101243548923068);35.8670349121;1.0;6;0;0;0;0;();(-2000.0, -2000.0);
04:23:12:982;04:23:12:982;0;10;-1.5;1;0;0;0;0;1;1;1;1;04:23:12:981;1447946590.65;(0.32187185287475584, 0.809843381245931);35.5765762329;1.0;6;0;0;0;0;();(-2000.0, -2000.0);
04:23:12:999;04:23:12:999;0;15;-1.5;1;0;0;0;0;1;1;1;1;04:23:12:981;1447946590.65;(0.32187185287475584, 0.809843381245931);35.5765762329;1.0;6;0;0;0;0;();(-2000.0, -2000.0);
04:23:13:015;04:23:13:015;0;14;-1.5;1;0;0;0;0;1;1;1;1;04:23:12:981;1447946590.65;(0.32187185287475584, 0.809843381245931);35.5765762329;1.0;6;0;0;0;0;();(-2000.0, -2000.0);
04:23:13:032;04:23:13:032;0;5;-1.5;1;0;0;0;0;1;1;1;1;04:23:12:981;1447946590.65;(0.32187185287475584, 0.809843381245931);35.5765762329;1.0;6;0;0;0;0;();(-2000.0, -2000.0);
04:23:13:060;04:23:13:060;0;15;-1.5;1;0;0;0;0;1;1;1;1;04:23:13:050;1447946590.72;(0.32168006896972656, 0.8097854402330187);36.1149787903;1.0;6;0;0;0;0;();(-2000.0, -2000.0);
04:23:13:078;04:23:13:078;0;4;-1.5;1;0;0;0;0;1;1;1;1;04:23:13:050;1447946590.72;(0.32168006896972656, 0.8097854402330187);36.1149787903;1.0;6;0;0;0;0;();(-2000.0, -2000.0);
04:23:13:095;04:23:13:094;0;15;-1.5;1;0;0;0;0;1;1;1;1;04:23:13:050;1447946590.72;(0.32168006896972656, 0.8097854402330187);36.1149787903;1.0;6;0;0;0;0;();(-2000.0, -2000.0);
04:23:13:112;04:23:13:112;0;5;-1.5;1;0;0;0;0;1;1;1;1;04:23:13:050;1447946590.72;(0.32168006896972656, 0.8097854402330187);36.1149787903;1.0;6;0;0;0;0;();(-2000.0, -2000.0);
04:23:13:128;04:23:13:128;0;15;-1.5;1;0;0;0;0;1;1;1;1;04:23:13:118;1447946590.79;(0.32156667709350584, 0.809443473815918);36.4319877625;1.0;6;0;0;0;0;();(-2000.0, -2000.0);
04:23:13:162;04:23:13:162;0;15;-1.5;1;0;0;0;0;1;1;1;1;04:23:13:118;1447946590.79;(0.32156667709350584, 0.809443473815918);36.4319877625;1.0;6;0;0;0;0;();(-2000.0, -2000.0);
04:23:13:177;04:23:13:177;0;0;-1.5;1;0;0;0;0;1;1;1;1;04:23:13:118;1447946590.79;(0.32156667709350584, 0.809443473815918);36.4319877625;1.0;6;0;0;0;0;();(-2000.0, -2000.0);
04:23:13:194;04:23:13:194;0;2;-1.5;1;0;0;0;0;1;1;1;1;04:23:13:186;1447946590.85;(0.3216717004776001, 0.8095597373114691);36.0853919983;1.0;6;0;0;0;0;();(-2000.0, -2000.0);
04:23:13:210;04:23:13:210;0;5;-1.5;1;0;0;0;0;1;1;1;1;04:23:13:186;1447946590.85;(0.3216717004776001, 0.8095597373114691);36.0853919983;1.0;6;0;0;0;0;();(-2000.0, -2000.0);
04:23:13:227;04:23:13:227;0;15;-1.5;1;0;0;0;0;1;1;1;1;04:23:13:186;1447946590.85;(0.3216717004776001, 0.8095597373114691);36.0853919983;1.0;6;0;0;0;0;();(-2000.0, -2000.0);
04:23:13:262;04:23:13:262;0;10;-1.5;1;0;0;0;0;1;1;1;1;04:23:13:250;1447946590.92;(0.32152705192565917, 0.8099924299452039);36.3173713684;1.0;6;0;0;0;0;();(-2000.0, -2000.0);
04:23:13:280;04:23:13:280;0;5;-1.5;1;0;0;0;0;1;1;1;1;04:23:13:250;1447946590.92;(0.32152705192565917, 0.8099924299452039);36.3173713684;1.0;6;0;0;0;0;();(-2000.0, -2000.0);
04:23:13:298;04:23:13:298;0;10;-1.5;1;0;0;0;0;1;1;1;1;04:23:13:250;1447946590.92;(0.32152705192565917, 0.8099924299452039);36.3173713684;1.0;6;0;0;0;0;();(-2000.0, -2000.0);
04:23:13:314;04:23:13:314;0;13;-1.5;1;0;0;0;0;1;1;1;1;04:23:13:250;1447946590.92;(0.32152705192565917, 0.8099924299452039);36.3173713684;1.0;6;0;0;0;0;();(-2000.0, -2000.0);
04:23:13:331;04:23:13:331;0;9;-1.5;1;0;0;0;0;1;1;1;1;04:23:13:318;1447946590.99;(0.32132811546325685, 0.8099590937296549);36.0697364807;1.0;6;0;0;0;0;();(-2000.0, -2000.0);
04:23:13:348;04:23:13:347;0;15;-1.5;1;0;0;0;0;1;1;1;1;04:23:13:318;1447946590.99;(0.32132811546325685, 0.8099590937296549);36.0697364807;1.0;6;0;0;0;0;();(-2000.0, -2000.0);
04:23:13:381;04:23:13:381;0;0;-1.5;1;0;0;0;0;1;1;1;1;04:23:13:318;1447946590.99;(0.32132811546325685, 0.8099590937296549);36.0697364807;1.0;6;0;0;0;0;();(-2000.0, -2000.0);
04:23:13:397;04:23:13:397;0;4;-1.5;1;0;0;0;0;1;1;1;1;04:23:13:386;1447946591.05;(0.3212620258331299, 0.8100872251722548);35.5493354797;1.0;6;0;0;0;0;();(-2000.0, -2000.0);
04:23:13:414;04:23:13:414;0;4;-1.5;1;0;0;0;0;1;1;1;1;04:23:13:386;1447946591.05;(0.3212620258331299, 0.8100872251722548);35.5493354797;1.0;6;0;0;0;0;();(-2000.0, -2000.0);
04:23:13:430;04:23:13:430;0;0;-1.5;1;0;0;0;0;1;1;1;1;04:23:13:386;1447946591.05;(0.3212620258331299, 0.8100872251722548);35.5493354797;1.0;6;0;0;0;0;();(-2000.0, -2000.0);
04:23:13:447;04:23:13:447;0;15;-1.5;1;0;0;0;0;1;1;1;1;04:23:13:386;1447946591.05;(0.3212620258331299, 0.8100872251722548);35.5493354797;1.0;6;0;0;0;0;();(-2000.0, -2000.0);
04:23:13:470;04:23:13:470;0;4;-1.5;1;0;0;0;0;1;1;1;1;04:23:13:454;1447946591.12;(0.3215200185775757, 0.8100106133355035);35.4584655762;1.0;6;0;0;0;0;();(-2000.0, -2000.0);
04:23:13:487;04:23:13:487;0;9;-1.5;1;0;0;0;0;1;1;1;1;04:23:13:454;1447946591.12;(0.3215200185775757, 0.8100106133355035);35.4584655762;1.0;6;0;0;0;0;();(-2000.0, -2000.0);
04:23:13:535;04:23:13:534;0;10;-1.5;1;0;0;0;0;1;1;1;1;04:23:13:517;1447946591.19;(0.32174978256225584, 0.8098652521769205);35.4996299744;1.0;6;0;0;0;0;();(-2000.0, -2000.0);
04:23:13:541;04:23:13:541;0;15;-1.5;1;0;0;0;0;1;1;1;1;04:23:13:517;1447946591.19;(0.32174978256225584, 0.8098652521769205);35.4996299744;1.0;6;0;0;0;0;();(-2000.0, -2000.0);
04:23:13:559;04:23:13:559;0;4;-1.5;1;0;0;0;0;1;1;1;1;04:23:13:517;1447946591.19;(0.32174978256225584, 0.8098652521769205);35.4996299744;1.0;6;0;0;0;0;();(-2000.0, -2000.0);
04:23:13:575;04:23:13:575;0;15;-1.5;1;0;0;0;0;1;1;1;1;04:23:13:517;1447946591.19;(0.32174978256225584, 0.8098652521769205);35.4996299744;1.0;6;0;0;0;0;();(-2000.0, -2000.0);
04:23:13:591;04:23:13:591;0;9;-1.5;1;0;0;0;0;1;1;1;1;04:23:13:586;1447946591.25;(0.32161760330200195, 0.810000122918023);35.9892959595;1.0;6;0;0;0;0;();(-2000.0, -2000.0);
04:23:13:608;04:23:13:608;0;0;-1.5;1;0;0;0;0;1;1;1;1;04:23:13:586;1447946591.25;(0.32161760330200195, 0.810000122918023);35.9892959595;1.0;6;0;0;0;0;();(-2000.0, -2000.0);
04:23:13:641;04:23:13:641;0;15;-1.5;1;0;0;0;0;1;1;1;1;04:23:13:586;1447946591.25;(0.32161760330200195, 0.810000122918023);35.9892959595;1.0;6;0;0;0;0;();(-2000.0, -2000.0);
04:23:13:657;04:23:13:657;0;4;-1.5;1;0;0;0;0;1;1;1;1;04:23:13:654;1447946591.32;(0.32132017612457275, 0.8098072263929579);36.1277999878;1.0;6;0;0;0;0;();(-2000.0, -2000.0);
04:23:13:679;04:23:13:679;0;10;-1.5;1;0;0;0;0;1;1;1;1;04:23:13:654;1447946591.32;(0.32132017612457275, 0.8098072263929579);36.1277999878;1.0;6;0;0;0;0;();(-2000.0, -2000.0);
04:23:13:698;04:23:13:698;0;15;-1.5;1;0;0;0;0;1;1;1;1;04:23:13:654;1447946591.32;(0.32132017612457275, 0.8098072263929579);36.1277999878;1.0;6;0;0;0;0;();(-2000.0, -2000.0);
04:23:13:716;04:23:13:716;0;10;-1.5;1;0;0;0;0;1;1;1;1;04:23:13:654;1447946591.32;(0.32132017612457275, 0.8098072263929579);36.1277999878;1.0;6;0;0;0;0;();(-2000.0, -2000.0);
04:23:13:731;04:23:13:731;0;15;-1.5;1;0;0;0;0;1;1;1;1;04:23:13:721;1447946591.39;(0.3213616132736206, 0.810033459133572);35.7914848328;1.0;6;0;0;0;0;();(-2000.0, -2000.0);
04:23:13:748;04:23:13:748;0;9;-1.5;1;0;0;0;0;1;1;1;1;04:23:13:721;1447946591.39;(0.3213616132736206, 0.810033459133572);35.7914848328;1.0;6;0;0;0;0;();(-2000.0, -2000.0);
04:23:13:782;04:23:13:782;0;5;-1.5;1;0;0;0;0;1;1;1;1;04:23:13:721;1447946591.39;(0.3213616132736206, 0.810033459133572);35.7914848328;1.0;6;0;0;0;0;();(-2000.0, -2000.0);
04:23:13:798;04:23:13:798;0;15;-1.5;1;0;0;0;0;1;1;1;1;04:23:13:785;1447946591.45;(0.32132701873779296, 0.8097610897488065);36.0573692322;1.0;6;0;0;0;0;();(-2000.0, -2000.0);
04:23:13:814;04:23:13:814;0;4;-1.5;1;0;0;0;0;1;1;1;1;04:23:13:785;1447946591.45;(0.32132701873779296, 0.8097610897488065);36.0573692322;1.0;6;0;0;0;0;();(-2000.0, -2000.0);
04:23:13:832;04:23:13:832;0;2;-1.5;1;0;0;0;0;1;1;1;1;04:23:13:785;1447946591.45;(0.32132701873779296, 0.8097610897488065);36.0573692322;1.0;6;0;0;0;0;();(-2000.0, -2000.0);
04:23:13:847;04:23:13:847;0;5;-1.5;1;0;0;0;0;1;1;1;1;04:23:13:785;1447946591.45;(0.32132701873779296, 0.8097610897488065);36.0573692322;1.0;6;0;0;0;0;();(-2000.0, -2000.0);
04:23:13:888;04:23:13:888;0;15;-1.5;1;0;0;0;0;1;1;1;1;04:23:13:853;1447946591.52;(0.32163660526275634, 0.8094420962863498);36.0234069824;0.938504254583;6;0;0;0;0;();(-2000.0, -2000.0);
04:23:13:892;04:23:13:892;0;15;-1.5;1;0;0;0;0;1;1;1;1;04:23:13:853;1447946591.52;(0.32163660526275634, 0.8094420962863498);36.0234069824;0.938504254583;6;0;0;0;0;();(-2000.0, -2000.0);
04:23:13:907;04:23:13:907;0;4;-1.5;1;0;0;0;0;1;1;1;1;04:23:13:853;1447946591.52;(0.32163660526275634, 0.8094420962863498);36.0234069824;0.938504254583;6;0;0;0;0;();(-2000.0, -2000.0);
04:23:13:940;04:23:13:940;0;10;-1.5;1;0;0;0;0;1;1;1;1;04:23:13:922;1447946591.59;(0.3218095302581787, 0.8093679851955837);35.4791984558;1.0;6;0;0;0;0;();(-2000.0, -2000.0);
04:23:13:957;04:23:13:957;0;15;-1.5;1;0;0;0;0;1;1;1;1;04:23:13:922;1447946591.59;(0.3218095302581787, 0.8093679851955837);35.4791984558;1.0;6;0;0;0;0;();(-2000.0, -2000.0);
04:23:13:973;04:23:13:973;0;9;-1.5;1;0;0;0;0;1;1;1;1;04:23:13:922;1447946591.59;(0.3218095302581787, 0.8093679851955837);35.4791984558;1.0;6;0;0;0;0;();(-2000.0, -2000.0);
04:23:13:990;04:23:13:989;0;15;-1.5;1;0;0;0;0;1;1;1;1;04:23:13:989;1447946591.65;(0.3220914363861084, 0.809607548183865);35.551864624;1.0;6;0;0;0;0;();(-2000.0, -2000.0);
04:23:14:006;04:23:14:006;0;5;-1.5;1;0;0;0;0;1;1;1;1;04:23:13:989;1447946591.65;(0.3220914363861084, 0.809607548183865);35.551864624;1.0;6;0;0;0;0;();(-2000.0, -2000.0);
04:23:14:039;04:23:14:039;0;4;-1.5;1;0;0;0;0;1;1;1;1;04:23:13:989;1447946591.65;(0.3220914363861084, 0.809607548183865);35.551864624;1.0;6;0;0;0;0;();(-2000.0, -2000.0);
04:23:14:056;04:23:14:056;0;15;-1.5;1;0;0;0;0;1;1;1;1;04:23:14:053;1447946591.72;(0.3216876745223999, 0.80959595574273);35.9819488525;1.0;6;0;0;0;0;();(-2000.0, -2000.0);
04:23:14:072;04:23:14:072;0;5;-1.5;1;0;0;0;0;1;1;1;1;04:23:14:053;1447946591.72;(0.3216876745223999, 0.80959595574273);35.9819488525;1.0;6;0;0;0;0;();(-2000.0, -2000.0);
04:23:14:096;04:23:14:095;0;10;-1.5;1;0;0;0;0;1;1;1;1;04:23:14:053;1447946591.72;(0.3216876745223999, 0.80959595574273);35.9819488525;1.0;6;0;0;0;0;();(-2000.0, -2000.0);
04:23:14:119;04:23:14:119;0;15;-1.5;1;0;0;0;0;1;1;1;1;04:23:14:053;1447946591.72;(0.3216876745223999, 0.80959595574273);35.9819488525;1.0;8;0;0;0;0;();(-2000.0, -2000.0);
04:23:14:134;04:23:14:134;0;4;-1.5;1;0;0;0;0;1;1;1;1;04:23:14:122;1447946591.79;(0.3215374708175659, 0.8092509163750543);35.4407043457;1.0;8;0;0;0;0;();(-2000.0, -2000.0);
04:23:14:151;04:23:14:151;0;0;-1.5;1;0;0;0;0;1;1;1;1;04:23:14:122;1447946591.79;(0.3215374708175659, 0.8092509163750543);35.4407043457;1.0;8;0;0;0;0;();(-2000.0, -2000.0);
04:23:14:169;04:23:14:169;0;10;-1.5;1;0;0;0;0;1;1;1;1;04:23:14:122;1447946591.79;(0.3215374708175659, 0.8092509163750543);35.4407043457;1.0;8;0;0;0;0;();(-2000.0, -2000.0);
04:23:14:201;04:23:14:201;0;4;-1.5;1;0;0;0;0;1;1;1;1;04:23:14:189;1447946591.85;(0.3215581655502319, 0.8091225518120659);35.8165245056;1.0;8;0;0;0;0;();(-2000.0, -2000.0);
04:23:14:217;04:23:14:217;0;15;-1.5;1;0;0;0;0;1;1;1;1;04:23:14:189;1447946591.85;(0.3215581655502319, 0.8091225518120659);35.8165245056;1.0;8;0;0;0;0;();(-2000.0, -2000.0);
04:23:14:234;04:23:14:234;0;5;-1.5;1;0;0;0;0;1;1;1;1;04:23:14:189;1447946591.85;(0.3215581655502319, 0.8091225518120659);35.8165245056;1.0;8;0;0;0;0;();(-2000.0, -2000.0);
04:23:14:251;04:23:14:251;0;10;-1.5;1;0;0;0;0;1;1;1;1;04:23:14:189;1447946591.85;(0.3215581655502319, 0.8091225518120659);35.8165245056;1.0;8;0;0;0;0;();(-2000.0, -2000.0);
04:23:14:267;04:23:14:267;0;4;-1.5;1;0;0;0;0;1;1;1;1;04:23:14:254;1447946591.92;(0.32099964618682864, 0.8096067640516493);36.1887016296;1.0;8;0;0;0;0;();(-2000.0, -2000.0);
04:23:14:300;04:23:14:300;0;4;-1.5;1;0;0;0;0;1;1;1;1;04:23:14:254;1447946591.92;(0.32099964618682864, 0.8096067640516493);36.1887016296;1.0;8;0;0;0;0;();(-2000.0, -2000.0);
04:23:14:317;04:23:14:317;0;4;-1.5;1;0;0;0;0;1;1;1;1;04:23:14:254;1447946591.92;(0.32099964618682864, 0.8096067640516493);36.1887016296;1.0;8;0;0;0;0;();(-2000.0, -2000.0);
04:23:14:334;04:23:14:334;0;5;-1.5;1;0;0;0;0;1;1;1;1;04:23:14:321;1447946591.99;(0.32123284339904784, 0.8098964479234483);36.8022003174;1.0;8;0;0;0;0;();(-2000.0, -2000.0);
04:23:14:352;04:23:14:352;0;10;-1.5;1;0;0;0;0;1;1;1;1;04:23:14:321;1447946591.99;(0.32123284339904784, 0.8098964479234483);36.8022003174;1.0;8;0;0;0;0;();(-2000.0, -2000.0);
04:23:14:367;04:23:14:367;0;15;-1.5;1;0;0;0;0;1;1;1;1;04:23:14:321;1447946591.99;(0.32123284339904784, 0.8098964479234483);36.8022003174;1.0;8;0;0;0;0;();(-2000.0, -2000.0);
04:23:14:400;04:23:14:400;0;5;-1.5;1;0;0;0;0;1;1;1;1;04:23:14:390;1447946592.05;(0.3213645935058594, 0.8097728941175673);36.088886261;1.0;8;0;0;0;0;();(-2000.0, -2000.0);
04:23:14:417;04:23:14:417;0;10;-1.5;1;0;0;0;0;1;1;1;1;04:23:14:390;1447946592.05;(0.3213645935058594, 0.8097728941175673);36.088886261;1.0;8;0;0;0;0;();(-2000.0, -2000.0);
04:23:14:433;04:23:14:433;0;15;-1.5;1;0;0;0;0;1;1;1;1;04:23:14:390;1447946592.05;(0.3213645935058594, 0.8097728941175673);36.088886261;1.0;8;0;0;0;0;();(-2000.0, -2000.0);
04:23:14:450;04:23:14:450;0;4;-1.5;1;0;0;0;0;1;1;1;1;04:23:14:390;1447946592.05;(0.3213645935058594, 0.8097728941175673);36.088886261;1.0;8;0;0;0;0;();(-2000.0, -2000.0);
04:23:14:468;04:23:14:466;0;0;-1.5;1;0;0;0;0;1;1;1;1;04:23:14:457;1447946592.12;(0.32130515575408936, 0.8099617216322157);36.3439941406;0.988825768537;8;0;0;0;0;();(-2000.0, -2000.0);
04:23:14:505;04:23:14:505;0;15;-1.5;1;0;0;0;0;1;1;1;1;04:23:14:457;1447946592.12;(0.32130515575408936, 0.8099617216322157);36.3439941406;0.988825768537;8;0;0;0;0;();(-2000.0, -2000.0);
04:23:14:523;04:23:14:523;0;4;-1.5;1;0;0;0;0;1;1;1;1;04:23:14:522;1447946592.19;(0.3218075275421143, 0.809926880730523);36.2260475159;1.0;8;0;0;0;0;();(-2000.0, -2000.0);
04:23:14:540;04:23:14:540;0;7;-1.5;1;0;0;0;0;1;1;1;1;04:23:14:522;1447946592.19;(0.3218075275421143, 0.809926880730523);36.2260475159;1.0;8;0;0;0;0;();(-2000.0, -2000.0);
04:23:14:557;04:23:14:557;0;5;-1.5;1;0;0;0;0;1;1;1;1;04:23:14:522;1447946592.19;(0.3218075275421143, 0.809926880730523);36.2260475159;1.0;8;0;0;0;0;();(-2000.0, -2000.0);
04:23:14:575;04:23:14:575;0;10;-1.5;1;0;0;0;0;1;1;1;1;04:23:14:522;1447946592.19;(0.3218075275421143, 0.809926880730523);36.2260475159;1.0;8;0;0;0;0;();(-2000.0, -2000.0);
04:23:14:602;04:23:14:590;0;9;-1.5;1;0;0;0;0;1;1;1;1;04:23:14:590;1447946592.25;(0.3215959072113037, 0.8100134955512153);35.810382843;1.0;8;0;0;0;0;();(-2000.0, -2000.0);
04:23:14:610;04:23:14:610;0;4;-1.5;1;0;0;0;0;1;1;1;1;04:23:14:590;1447946592.25;(0.3215959072113037, 0.8100134955512153);35.810382843;1.0;8;0;0;0;0;();(-2000.0, -2000.0);
04:23:14:626;04:23:14:626;0;0;-1.5;1;0;0;0;0;1;1;1;1;04:23:14:626;1447946592.32;(0.32197344303131104, 0.8088290956285265);35.8138885498;1.0;8;0;0;0;0;();(-2000.0, -2000.0);
04:23:14:660;04:23:14:660;0;10;-1.5;1;0;0;0;0;1;1;1;1;04:23:14:626;1447946592.32;(0.32197344303131104, 0.8088290956285265);35.8138885498;1.0;8;0;0;0;0;();(-2000.0, -2000.0);
04:23:14:676;04:23:14:676;0;4;-1.5;1;0;0;0;0;1;1;1;1;04:23:14:626;1447946592.32;(0.32197344303131104, 0.8088290956285265);35.8138885498;1.0;8;0;0;0;0;();(-2000.0, -2000.0);
04:23:14:693;04:23:14:693;0;4;-1.5;1;0;0;0;0;1;1;1;1;04:23:14:626;1447946592.32;(0.32197344303131104, 0.8088290956285265);35.8138885498;1.0;8;0;0;0;0;();(-2000.0, -2000.0);
04:23:14:718;04:23:14:718;0;4;-1.5;1;0;0;0;0;1;1;1;1;04:23:14:626;1447946592.32;(0.32197344303131104, 0.8088290956285265);35.8138885498;1.0;8;0;0;0;0;();(-2000.0, -2000.0);
04:23:14:736;04:23:14:736;0;10;-1.5;1;0;0;0;0;1;1;1;1;04:23:14:726;1447946592.39;(0.3214266300201416, 0.8094615300496419);36.1316986084;1.0;8;0;0;0;0;();(-2000.0, -2000.0);
04:23:14:752;04:23:14:752;0;15;-1.5;1;0;0;0;0;1;1;1;1;04:23:14:726;1447946592.39;(0.3214266300201416, 0.8094615300496419);36.1316986084;1.0;8;0;0;0;0;();(-2000.0, -2000.0);
04:23:14:770;04:23:14:770;0;12;-1.5;1;0;0;0;0;1;1;1;1;04:23:14:726;1447946592.39;(0.3214266300201416, 0.8094615300496419);36.1316986084;1.0;8;0;0;0;0;();(-2000.0, -2000.0);
04:23:14:786;04:23:14:786;0;15;-1.5;1;0;0;0;0;1;1;1;1;04:23:14:726;1447946592.39;(0.3214266300201416, 0.8094615300496419);36.1316986084;1.0;8;0;0;0;0;();(-2000.0, -2000.0);
04:23:14:819;04:23:14:819;0;15;-1.5;1;0;0;0;0;1;1;1;1;04:23:14:789;1447946592.45;(0.32149059772491456, 0.8097376505533854);36.3447761536;1.0;8;0;0;0;0;();(-2000.0, -2000.0);
04:23:14:835;04:23:14:835;0;10;-1.5;1;0;0;0;0;1;1;1;1;04:23:14:789;1447946592.45;(0.32149059772491456, 0.8097376505533854);36.3447761536;1.0;8;0;0;0;0;();(-2000.0, -2000.0);
04:23:14:852;04:23:14:852;0;15;-1.5;1;0;0;0;0;1;1;1;1;04:23:14:789;1447946592.45;(0.32149059772491456, 0.8097376505533854);36.3447761536;1.0;8;0;0;0;0;();(-2000.0, -2000.0);
04:23:14:869;04:23:14:869;0;5;-1.5;1;0;0;0;0;1;1;1;1;04:23:14:857;1447946592.52;(0.321280312538147, 0.8101479848225912);36.5489120483;1.0;8;0;0;0;0;();(-2000.0, -2000.0);
04:23:14:903;04:23:14:902;0;5;-1.5;1;0;0;0;0;1;1;1;1;04:23:14:857;1447946592.52;(0.321280312538147, 0.8101479848225912);36.5489120483;1.0;8;0;0;0;0;();(-2000.0, -2000.0);
04:23:14:931;04:23:14:931;0;4;-1.5;1;0;0;0;0;1;1;1;1;04:23:14:926;1447946592.59;(0.32154991626739504, 0.8093406677246093);35.3901443481;0.994901760954;8;0;0;0;0;();(-2000.0, -2000.0);
04:23:14:935;04:23:14:935;0;4;-1.5;1;0;0;0;0;1;1;1;1;04:23:14:926;1447946592.59;(0.32154991626739504, 0.8093406677246093);35.3901443481;0.994901760954;8;0;0;0;0;();(-2000.0, -2000.0);
04:23:14:949;04:23:14:949;0;0;-1.5;1;0;0;0;0;1;1;1;1;04:23:14:926;1447946592.59;(0.32154991626739504, 0.8093406677246093);35.3901443481;0.994901760954;8;0;0;0;0;();(-2000.0, -2000.0);
04:23:14:982;04:23:14:982;0;15;-1.5;1;0;0;0;0;1;1;1;1;04:23:14:926;1447946592.59;(0.32154991626739504, 0.8093406677246093);35.3901443481;0.994901760954;8;0;0;0;0;();(-2000.0, -2000.0);
04:23:15:000;04:23:15:000;0;4;-1.5;1;0;0;0;0;1;1;1;1;04:23:14:993;1447946592.65;(0.32190885543823244, 0.8095090866088868);35.6398239136;1.0;8;0;0;0;0;();(-2000.0, -2000.0);
04:23:15:015;04:23:15:015;0;15;-1.5;1;0;0;0;0;1;1;1;1;04:23:14:993;1447946592.65;(0.32190885543823244, 0.8095090866088868);35.6398239136;1.0;8;0;0;0;0;();(-2000.0, -2000.0);
04:23:15:032;04:23:15:032;0;5;-1.5;1;0;0;0;0;1;1;1;1;04:23:14:993;1447946592.65;(0.32190885543823244, 0.8095090866088868);35.6398239136;1.0;8;0;0;0;0;();(-2000.0, -2000.0);
04:23:15:048;04:23:15:048;0;0;-1.5;1;0;0;0;0;1;1;1;1;04:23:14:993;1447946592.65;(0.32190885543823244, 0.8095090866088868);35.6398239136;1.0;8;0;0;0;0;();(-2000.0, -2000.0);
04:23:15:066;04:23:15:066;0;4;-1.5;1;0;0;0;0;1;1;1;1;04:23:15:057;1447946592.72;(0.3218050241470337, 0.8097878138224284);35.7275810242;1.0;8;0;0;0;0;();(-2000.0, -2000.0);
04:23:15:098;04:23:15:098;0;4;-1.5;1;0;0;0;0;1;1;1;1;04:23:15:094;1447946592.79;(0.3214076519012451, 0.8097247441609701);36.5882720947;1.0;8;0;0;0;0;();(-2000.0, -2000.0);
04:23:15:115;04:23:15:115;0;1;-1.5;1;0;0;0;0;1;1;1;1;04:23:15:094;1447946592.79;(0.3214076519012451, 0.8097247441609701);36.5882720947;1.0;8;0;0;0;0;();(-2000.0, -2000.0);
04:23:15:138;04:23:15:138;0;15;-1.5;1;0;0;0;0;1;1;1;1;04:23:15:094;1447946592.79;(0.3214076519012451, 0.8097247441609701);36.5882720947;1.0;8;0;0;0;0;();(-2000.0, -2000.0);
04:23:15:158;04:23:15:158;0;9;-1.5;1;0;0;0;0;1;1;1;1;04:23:15:094;1447946592.79;(0.3214076519012451, 0.8097247441609701);36.5882720947;1.0;8;0;0;0;0;();(-2000.0, -2000.0);
04:23:15:175;04:23:15:175;0;9;-1.5;1;0;0;0;0;1;1;1;1;04:23:15:094;1447946592.79;(0.3214076519012451, 0.8097247441609701);36.5882720947;1.0;8;0;0;0;0;();(-2000.0, -2000.0);
04:23:15:192;04:23:15:192;0;5;-1.5;1;0;0;0;0;1;1;1;1;04:23:15:094;1447946592.79;(0.3214076519012451, 0.8097247441609701);36.5882720947;1.0;8;0;0;0;0;();(-2000.0, -2000.0);
04:23:15:209;04:23:15:209;0;10;-1.5;1;0;0;0;0;1;1;1;1;04:23:15:194;1447946592.85;(0.32141115665435793, 0.8095777935451931);36.2547111511;1.0;8;0;0;0;0;();(-2000.0, -2000.0);
04:23:15:241;04:23:15:241;0;9;-1.5;1;0;0;0;0;1;1;1;1;04:23:15:194;1447946592.85;(0.32141115665435793, 0.8095777935451931);36.2547111511;1.0;8;0;0;0;0;();(-2000.0, -2000.0);
04:23:15:258;04:23:15:258;0;9;-1.5;1;0;0;0;0;1;1;1;1;04:23:15:194;1447946592.85;(0.32141115665435793, 0.8095777935451931);36.2547111511;1.0;8;0;0;0;0;();(-2000.0, -2000.0);
04:23:15:275;04:23:15:275;0;15;-1.5;1;0;0;0;0;1;1;1;1;04:23:15:262;1447946592.92;(0.3218292474746704, 0.8092481401231554);35.3000679016;1.0;8;0;0;0;0;();(-2000.0, -2000.0);
04:23:15:291;04:23:15:291;0;5;-1.5;1;0;0;0;0;1;1;1;1;04:23:15:262;1447946592.92;(0.3218292474746704, 0.8092481401231554);35.3000679016;1.0;8;0;0;0;0;();(-2000.0, -2000.0);
04:23:15:307;04:23:15:307;0;9;-1.5;1;0;0;0;0;1;1;1;1;04:23:15:293;1447946592.99;(0.32141761779785155, 0.8096928490532769);35.782623291;1.0;8;0;0;0;0;();(-2000.0, -2000.0);
04:23:15:348;04:23:15:348;0;4;-1.5;1;0;0;0;0;1;1;1;1;04:23:15:293;1447946592.99;(0.32141761779785155, 0.8096928490532769);35.782623291;1.0;8;0;0;0;0;();(-2000.0, -2000.0);
04:23:15:352;04:23:15:352;0;5;-1.5;1;0;0;0;0;1;1;1;1;04:23:15:293;1447946592.99;(0.32141761779785155, 0.8096928490532769);35.782623291;1.0;8;0;0;0;0;();(-2000.0, -2000.0);
04:23:15:382;04:23:15:382;0;4;-1.5;1;0;0;0;0;1;1;1;1;04:23:15:293;1447946592.99;(0.32141761779785155, 0.8096928490532769);35.782623291;1.0;8;0;0;0;0;();(-2000.0, -2000.0);
04:23:15:399;04:23:15:399;0;15;-1.5;1;0;0;0;0;1;1;1;1;04:23:15:394;1447946593.05;(0.32182319164276124, 0.8094093746609158);35.9455490112;1.0;8;0;0;0;0;();(-2000.0, -2000.0);
04:23:15:415;04:23:15:415;0;4;-1.5;1;0;0;0;0;1;1;1;1;04:23:15:394;1447946593.05;(0.32182319164276124, 0.8094093746609158);35.9455490112;1.0;8;0;0;0;0;();(-2000.0, -2000.0);
04:23:15:432;04:23:15:432;0;15;-1.5;1;0;0;0;0;1;1;1;1;04:23:15:425;1447946593.12;(0.3214178323745728, 0.8093944337632921);36.0541725159;1.0;8;0;0;0;0;();(-2000.0, -2000.0);
04:23:15:449;04:23:15:449;0;10;-1.5;1;0;0;0;0;1;1;1;1;04:23:15:425;1447946593.12;(0.3214178323745728, 0.8093944337632921);36.0541725159;1.0;8;0;0;0;0;();(-2000.0, -2000.0);
04:23:15:482;04:23:15:482;0;4;-1.5;1;0;0;0;0;1;1;1;1;04:23:15:425;1447946593.12;(0.3214178323745728, 0.8093944337632921);36.0541725159;1.0;8;0;0;0;0;();(-2000.0, -2000.0);
04:23:15:498;04:23:15:498;0;9;-1.5;1;0;0;0;0;1;1;1;1;04:23:15:494;1447946593.19;(0.3216913461685181, 0.8095331615871854);35.9994277954;1.0;8;0;0;0;0;();(-2000.0, -2000.0);
04:23:15:515;04:23:15:515;0;5;-1.5;1;0;0;0;0;1;1;1;1;04:23:15:494;1447946593.19;(0.3216913461685181, 0.8095331615871854);35.9994277954;1.0;8;0;0;0;0;();(-2000.0, -2000.0);
04:23:15:532;04:23:15:532;0;10;-1.5;1;0;0;0;0;1;1;1;1;04:23:15:494;1447946593.19;(0.3216913461685181, 0.8095331615871854);35.9994277954;1.0;8;0;0;0;0;();(-2000.0, -2000.0);
04:23:15:558;04:23:15:558;0;15;-1.5;1;0;0;0;0;1;1;1;1;04:23:15:494;1447946593.19;(0.3216913461685181, 0.8095331615871854);35.9994277954;1.0;8;0;0;0;0;();(-2000.0, -2000.0);
04:23:15:576;04:23:15:576;0;4;-1.5;1;0;0;0;0;1;1;1;1;04:23:15:561;1447946593.25;(0.3214672327041626, 0.8091946919759114);36.4246635437;1.0;8;0;0;0;0;();(-2000.0, -2000.0);
04:23:15:592;04:23:15:592;0;4;-1.5;1;0;0;0;0;1;1;1;1;04:23:15:561;1447946593.25;(0.3214672327041626, 0.8091946919759114);36.4246635437;1.0;8;0;0;0;0;();(-2000.0, -2000.0);
04:23:15:609;04:23:15:609;0;5;-1.5;1;0;0;0;0;1;1;1;1;04:23:15:561;1447946593.25;(0.3214672327041626, 0.8091946919759114);36.4246635437;1.0;8;0;0;0;0;();(-2000.0, -2000.0);
04:23:15:642;04:23:15:642;0;4;-1.5;1;0;0;0;0;1;1;1;1;04:23:15:561;1447946593.25;(0.3214672327041626, 0.8091946919759114);36.4246635437;1.0;8;0;0;0;0;();(-2000.0, -2000.0);
04:23:15:659;04:23:15:659;0;15;-1.5;1;0;0;0;0;1;1;1;1;04:23:15:561;1447946593.25;(0.3214672327041626, 0.8091946919759114);36.4246635437;1.0;8;0;0;0;0;();(-2000.0, -2000.0);
04:23:15:680;04:23:15:680;0;4;-1.5;1;0;0;0;0;1;1;1;1;04:23:15:662;1447946593.32;(0.32152793407440183, 0.8095133887396918);35.7696075439;1.0;8;0;0;0;0;();(-2000.0, -2000.0);
04:23:15:697;04:23:15:697;0;10;-1.5;1;0;0;0;0;1;1;1;1;04:23:15:662;1447946593.32;(0.32152793407440183, 0.8095133887396918);35.7696075439;1.0;8;0;0;0;0;();(-2000.0, -2000.0);
04:23:15:714;04:23:15:713;0;4;-1.5;1;0;0;0;0;1;1;1;1;04:23:15:662;1447946593.32;(0.32152793407440183, 0.8095133887396918);35.7696075439;1.0;8;0;0;0;0;();(-2000.0, -2000.0);
04:23:15:730;04:23:15:730;0;9;-1.5;1;0;0;0;0;1;1;1;1;04:23:15:729;1447946593.39;(0.3216270923614502, 0.8098764843410916);35.3102264404;1.0;8;0;0;0;0;();(-2000.0, -2000.0);
04:23:15:746;04:23:15:746;0;15;-1.5;1;0;0;0;0;1;1;1;1;04:23:15:729;1447946593.39;(0.3216270923614502, 0.8098764843410916);35.3102264404;1.0;8;0;0;0;0;();(-2000.0, -2000.0);
04:23:15:767;04:23:15:767;0;9;-1.5;1;0;0;0;0;1;1;1;1;04:23:15:762;1447946593.45;(0.3211540222167969, 0.8095926496717665);36.1473312378;1.0;8;0;0;0;0;();(-2000.0, -2000.0);
04:23:15:804;04:23:15:804;0;4;-1.5;1;0;0;0;0;1;1;1;1;04:23:15:762;1447946593.45;(0.3211540222167969, 0.8095926496717665);36.1473312378;1.0;8;0;0;0;0;();(-2000.0, -2000.0);
04:23:15:821;04:23:15:821;0;9;-1.5;1;0;0;0;0;1;1;1;1;04:23:15:762;1447946593.45;(0.3211540222167969, 0.8095926496717665);36.1473312378;1.0;8;0;0;0;0;();(-2000.0, -2000.0);
04:23:15:837;04:23:15:837;0;0;-1.5;1;0;0;0;0;1;1;1;1;04:23:15:829;1447946593.52;(0.32113649845123293, 0.8096731821695964);36.3882293701;1.0;8;0;0;0;0;();(-2000.0, -2000.0);
04:23:15:855;04:23:15:855;0;10;-1.5;1;0;0;0;0;1;1;1;1;04:23:15:829;1447946593.52;(0.32113649845123293, 0.8096731821695964);36.3882293701;1.0;8;0;0;0;0;();(-2000.0, -2000.0);
04:23:15:871;04:23:15:870;0;5;-1.5;1;0;0;0;0;1;1;1;1;04:23:15:829;1447946593.52;(0.32113649845123293, 0.8096731821695964);36.3882293701;1.0;8;0;0;0;0;();(-2000.0, -2000.0);
04:23:15:887;04:23:15:887;0;9;-1.5;1;0;0;0;0;1;1;1;1;04:23:15:829;1447946593.52;(0.32113649845123293, 0.8096731821695964);36.3882293701;1.0;8;0;0;0;0;();(-2000.0, -2000.0);
04:23:15:921;04:23:15:921;0;10;-1.5;1;0;0;0;0;1;1;1;1;04:23:15:897;1447946593.59;(0.32134270668029785, 0.8091293758816189);35.9825057983;1.0;8;0;0;0;0;();(-2000.0, -2000.0);
04:23:15:937;04:23:15:937;0;15;-1.5;1;0;0;0;0;1;1;1;1;04:23:15:897;1447946593.59;(0.32134270668029785, 0.8091293758816189);35.9825057983;1.0;8;0;0;0;0;();(-2000.0, -2000.0);
04:23:15:953;04:23:15:953;0;9;-1.5;1;0;0;0;0;1;1;1;1;04:23:15:897;1447946593.59;(0.32134270668029785, 0.8091293758816189);35.9825057983;1.0;8;0;0;0;0;();(-2000.0, -2000.0);
04:23:15:972;04:23:15:972;0;4;-1.5;1;0;0;0;0;1;1;1;1;04:23:15:961;1447946593.65;(0.3213153123855591, 0.8094483269585504);36.3104782104;1.0;8;0;0;0;0;();(-2000.0, -2000.0);
04:23:15:989;04:23:15:989;0;9;-1.5;1;0;0;0;0;1;1;1;1;04:23:15:961;1447946593.65;(0.3213153123855591, 0.8094483269585504);36.3104782104;1.0;8;0;0;0;0;();(-2000.0, -2000.0);
04:23:16:006;04:23:16:006;0;0;-1.5;1;0;0;0;0;1;1;1;1;04:23:15:961;1447946593.65;(0.3213153123855591, 0.8094483269585504);36.3104782104;1.0;8;0;0;0;0;();(-2000.0, -2000.0);
04:23:16:039;04:23:16:039;0;15;-1.5;1;0;0;0;0;1;1;1;1;04:23:16:029;1447946593.72;(0.32162306308746336, 0.8094619115193685);35.5493621826;0.985750489728;8;0;0;0;0;();(-2000.0, -2000.0);
04:23:16:056;04:23:16:056;0;4;-1.5;1;0;0;0;0;1;1;1;1;04:23:16:029;1447946593.72;(0.32162306308746336, 0.8094619115193685);35.5493621826;0.985750489728;8;0;0;0;0;();(-2000.0, -2000.0);
04:23:16:072;04:23:16:072;0;15;-1.5;1;0;0;0;0;1;1;1;1;04:23:16:029;1447946593.72;(0.32162306308746336, 0.8094619115193685);35.5493621826;0.985750489728;8;0;0;0;0;();(-2000.0, -2000.0);
04:23:16:089;04:23:16:089;0;4;-1.5;1;0;0;0;0;1;1;1;1;04:23:16:029;1447946593.72;(0.32162306308746336, 0.8094619115193685);35.5493621826;0.985750489728;8;0;0;0;0;();(-2000.0, -2000.0);
04:23:16:122;04:23:16:122;0;4;-1.5;1;0;0;0;0;1;1;1;1;04:23:16:097;1447946593.79;(0.3214862823486328, 0.8094285329182943);35.4533462524;1.0;8;0;0;0;0;();(-2000.0, -2000.0);
04:23:16:139;04:23:16:139;0;9;-1.5;1;0;0;0;0;1;1;1;1;04:23:16:097;1447946593.79;(0.3214862823486328, 0.8094285329182943);35.4533462524;1.0;8;0;0;0;0;();(-2000.0, -2000.0);
04:23:16:155;04:23:16:155;0;5;-1.5;1;0;0;0;0;1;1;1;1;04:23:16:097;1447946593.79;(0.3214862823486328, 0.8094285329182943);35.4533462524;1.0;8;0;0;0;0;();(-2000.0, -2000.0);
04:23:16:178;04:23:16:178;0;10;-1.5;1;0;0;0;0;1;1;1;1;04:23:16:166;1447946593.85;(0.3213146448135376, 0.8097310172186958);36.4396362305;1.0;8;0;0;0;0;();(-2000.0, -2000.0);
04:23:16:195;04:23:16:195;0;4;-1.5;1;0;0;0;0;1;1;1;1;04:23:16:166;1447946593.85;(0.3213146448135376, 0.8097310172186958);36.4396362305;1.0;8;0;0;0;0;();(-2000.0, -2000.0);
04:23:16:212;04:23:16:212;0;4;-1.5;1;0;0;0;0;1;1;1;1;04:23:16:166;1447946593.85;(0.3213146448135376, 0.8097310172186958);36.4396362305;1.0;8;0;0;0;0;();(-2000.0, -2000.0);
04:23:16:229;04:23:16:229;0;0;-1.5;1;0;0;0;0;1;1;1;1;04:23:16:166;1447946593.85;(0.3213146448135376, 0.8097310172186958);36.4396362305;1.0;8;0;0;0;0;();(-2000.0, -2000.0);
04:23:16:262;04:23:16:262;0;15;-1.5;1;0;0;0;0;1;1;1;1;04:23:16:229;1447946593.92;(0.3215264081954956, 0.809844970703125);36.0172080994;1.0;8;0;0;0;0;();(-2000.0, -2000.0);
04:23:16:278;04:23:16:278;0;9;-1.5;1;0;0;0;0;1;1;1;1;04:23:16:229;1447946593.92;(0.3215264081954956, 0.809844970703125);36.0172080994;1.0;8;0;0;0;0;();(-2000.0, -2000.0);
04:23:16:295;04:23:16:295;0;15;-1.5;1;0;0;0;0;1;1;1;1;04:23:16:229;1447946593.92;(0.3215264081954956, 0.809844970703125);36.0172080994;1.0;8;0;0;0;0;();(-2000.0, -2000.0);
04:23:16:312;04:23:16:311;0;4;-1.5;1;0;0;0;0;1;1;1;1;04:23:16:297;1447946593.99;(0.3216303825378418, 0.809821425543891);36.7628326416;1.0;8;0;0;0;0;();(-2000.0, -2000.0);
04:23:16:329;04:23:16:329;0;0;-1.5;1;0;0;0;0;1;1;1;1;04:23:16:297;1447946593.99;(0.3216303825378418, 0.809821425543891);36.7628326416;1.0;8;0;0;0;0;();(-2000.0, -2000.0);
04:23:16:361;04:23:16:361;0;2;-1.5;1;0;0;0;0;1;1;1;1;04:23:16:297;1447946593.99;(0.3216303825378418, 0.809821425543891);36.7628326416;1.0;8;0;0;0;0;();(-2000.0, -2000.0);
04:23:16:379;04:23:16:379;0;5;-1.5;1;0;0;0;0;1;1;1;1;04:23:16:365;1447946594.05;(0.32146296501159666, 0.809725719028049);35.8995895386;1.0;8;0;0;0;0;();(-2000.0, -2000.0);
04:23:16:394;04:23:16:394;0;10;-1.5;1;0;0;0;0;1;1;1;1;04:23:16:365;1447946594.05;(0.32146296501159666, 0.809725719028049);35.8995895386;1.0;8;0;0;0;0;();(-2000.0, -2000.0);
04:23:16:412;04:23:16:412;0;5;-1.5;1;0;0;0;0;1;1;1;1;04:23:16:365;1447946594.05;(0.32146296501159666, 0.809725719028049);35.8995895386;1.0;8;0;0;0;0;();(-2000.0, -2000.0);
04:23:16:429;04:23:16:429;0;0;-1.5;1;0;0;0;0;1;1;1;1;04:23:16:365;1447946594.05;(0.32146296501159666, 0.809725719028049);35.8995895386;1.0;8;0;0;0;0;();(-2000.0, -2000.0);
04:23:16:462;04:23:16:462;0;9;-1.5;1;0;0;0;0;1;1;1;1;04:23:16:429;1447946594.12;(0.3213067054748535, 0.8095403459337023);35.2117233276;1.0;8;0;0;0;0;();(-2000.0, -2000.0);
04:23:16:479;04:23:16:479;0;0;-1.5;1;0;0;0;0;1;1;1;1;04:23:16:429;1447946594.12;(0.3213067054748535, 0.8095403459337023);35.2117233276;1.0;8;0;0;0;0;();(-2000.0, -2000.0);
04:23:16:495;04:23:16:495;0;10;-1.5;1;0;0;0;0;1;1;1;1;04:23:16:429;1447946594.12;(0.3213067054748535, 0.8095403459337023);35.2117233276;1.0;8;0;0;0;0;();(-2000.0, -2000.0);
04:23:16:512;04:23:16:512;0;15;-1.5;1;0;0;0;0;1;1;1;1;04:23:16:497;1447946594.19;(0.3217717409133911, 0.8094326655069987);35.7358818054;1.0;8;0;0;0;0;();(-2000.0, -2000.0);
04:23:16:529;04:23:16:529;0;9;-1.5;1;0;0;0;0;1;1;1;1;04:23:16:497;1447946594.19;(0.3217717409133911, 0.8094326655069987);35.7358818054;1.0;8;0;0;0;0;();(-2000.0, -2000.0);
04:23:16:562;04:23:16:561;0;9;-1.5;1;0;0;0;0;1;1;1;1;04:23:16:497;1447946594.19;(0.3217717409133911, 0.8094326655069987);35.7358818054;1.0;8;0;0;0;0;();(-2000.0, -2000.0);
04:23:16:578;04:23:16:578;0;15;-1.5;1;0;0;0;0;1;1;1;1;04:23:16:566;1447946594.25;(0.3214677333831787, 0.8095024744669597);35.9040985107;1.0;8;0;0;0;0;();(-2000.0, -2000.0);
04:23:16:596;04:23:16:596;0;9;-1.5;1;0;0;0;0;1;1;1;1;04:23:16:566;1447946594.25;(0.3214677333831787, 0.8095024744669597);35.9040985107;1.0;8;0;0;0;0;();(-2000.0, -2000.0);
04:23:16:614;04:23:16:614;0;15;-1.5;1;0;0;0;0;1;1;1;1;04:23:16:566;1447946594.25;(0.3214677333831787, 0.8095024744669597);35.9040985107;1.0;8;0;0;0;0;();(-2000.0, -2000.0);
04:23:16:631;04:23:16:631;0;5;-1.5;1;0;0;0;0;1;1;1;1;04:23:16:566;1447946594.25;(0.3214677333831787, 0.8095024744669597);35.9040985107;1.0;8;0;0;0;0;();(-2000.0, -2000.0);
04:23:16:647;04:23:16:647;0;3;-1.5;1;0;0;0;0;1;1;1;1;04:23:16:633;1447946594.32;(0.3212568759918213, 0.8098113377888998);35.7887496948;1.0;8;0;0;0;0;();(-2000.0, -2000.0);
04:23:16:681;04:23:16:681;0;15;-1.5;1;0;0;0;0;1;1;1;1;04:23:16:633;1447946594.32;(0.3212568759918213, 0.8098113377888998);35.7887496948;1.0;8;0;0;0;0;();(-2000.0, -2000.0);
04:23:16:697;04:23:16:697;0;5;-1.5;1;0;0;0;0;1;1;1;1;04:23:16:633;1447946594.32;(0.3212568759918213, 0.8098113377888998);35.7887496948;1.0;8;0;0;0;0;();(-2000.0, -2000.0);
04:23:16:714;04:23:16:714;0;9;-1.5;1;0;0;0;0;1;1;1;1;04:23:16:698;1447946594.39;(0.32162606716156006, 0.8098014407687717);36.1033210754;1.0;8;0;0;0;0;();(-2000.0, -2000.0);
04:23:16:731;04:23:16:731;0;5;-1.5;1;0;0;0;0;1;1;1;1;04:23:16:698;1447946594.39;(0.32162606716156006, 0.8098014407687717);36.1033210754;1.0;8;0;0;0;0;();(-2000.0, -2000.0);
04:23:16:748;04:23:16:748;0;10;-1.5;1;0;0;0;0;1;1;1;1;04:23:16:698;1447946594.39;(0.32162606716156006, 0.8098014407687717);36.1033210754;1.0;8;0;0;0;0;();(-2000.0, -2000.0);
04:23:16:781;04:23:16:781;0;2;-1.5;1;0;0;0;0;1;1;1;1;04:23:16:765;1447946594.45;(0.3216043472290039, 0.809835222032335);35.6289978027;1.0;8;0;0;0;0;();(-2000.0, -2000.0);
04:23:16:803;04:23:16:803;0;4;-1.5;1;0;0;0;0;1;1;1;1;04:23:16:765;1447946594.45;(0.3216043472290039, 0.809835222032335);35.6289978027;1.0;8;0;0;0;0;();(-2000.0, -2000.0);
04:23:16:827;04:23:16:827;0;4;-1.5;1;0;0;0;0;1;1;1;1;04:23:16:765;1447946594.45;(0.3216043472290039, 0.809835222032335);35.6289978027;1.0;8;0;0;0;0;();(-2000.0, -2000.0);
04:23:16:829;04:23:16:829;0;4;-1.5;1;0;0;0;0;1;1;1;1;04:23:16:765;1447946594.45;(0.3216043472290039, 0.809835222032335);35.6289978027;1.0;8;0;0;0;0;();(-2000.0, -2000.0);
04:23:16:847;04:23:16:847;0;9;-1.5;1;0;0;0;0;1;1;1;1;04:23:16:833;1447946594.52;(0.3211590051651001, 0.8099500868055556);36.2489089966;1.0;8;0;0;0;0;();(-2000.0, -2000.0);
04:23:16:879;04:23:16:879;0;4;-1.5;1;0;0;0;0;1;1;1;1;04:23:16:833;1447946594.52;(0.3211590051651001, 0.8099500868055556);36.2489089966;1.0;8;0;0;0;0;();(-2000.0, -2000.0);
04:23:16:897;04:23:16:897;0;5;-1.5;1;0;0;0;0;1;1;1;1;04:23:16:833;1447946594.52;(0.3211590051651001, 0.8099500868055556);36.2489089966;1.0;8;0;0;0;0;();(-2000.0, -2000.0);
04:23:16:912;04:23:16:912;0;10;-1.5;1;0;0;0;0;1;1;1;1;04:23:16:902;1447946594.59;(0.32155184745788573, 0.809847026401096);35.7639884949;1.0;8;0;0;0;0;();(-2000.0, -2000.0);
04:23:16:934;04:23:16:934;0;4;-1.5;1;0;0;0;0;1;1;1;1;04:23:16:902;1447946594.59;(0.32155184745788573, 0.809847026401096);35.7639884949;1.0;10;0;0;0;0;();(-2000.0, -2000.0);
04:23:16:963;04:23:16:963;0;0;-1.5;1;0;0;0;0;1;1;1;1;04:23:16:902;1447946594.59;(0.32155184745788573, 0.809847026401096);35.7639884949;1.0;10;0;0;0;0;();(-2000.0, -2000.0);
04:23:16:978;04:23:16:978;0;10;-1.5;1;0;0;0;0;1;1;1;1;04:23:16:902;1447946594.59;(0.32155184745788573, 0.809847026401096);35.7639884949;1.0;10;0;0;0;0;();(-2000.0, -2000.0);
04:23:16:995;04:23:16:995;0;15;-1.5;1;0;0;0;0;1;1;1;1;04:23:16:902;1447946594.59;(0.32155184745788573, 0.809847026401096);35.7639884949;1.0;10;0;0;0;0;();(-2000.0, -2000.0);
04:23:17:015;04:23:17:015;0;5;-1.5;1;0;0;0;0;1;1;1;1;04:23:17:001;1447946594.65;(0.32141814231872556, 0.8098089853922525);36.2963867188;1.0;10;0;0;0;0;();(-2000.0, -2000.0);
04:23:17:032;04:23:17:032;0;9;-1.5;1;0;0;0;0;1;1;1;1;04:23:17:001;1447946594.65;(0.32141814231872556, 0.8098089853922525);36.2963867188;1.0;10;0;0;0;0;();(-2000.0, -2000.0);
04:23:17:049;04:23:17:049;0;9;-1.5;1;0;0;0;0;1;1;1;1;04:23:17:034;1447946594.72;(0.32169671058654786, 0.8093343522813585);35.807762146;1.0;10;0;0;0;0;();(-2000.0, -2000.0);
04:23:17:082;04:23:17:082;0;4;-1.5;1;0;0;0;0;1;1;1;1;04:23:17:034;1447946594.72;(0.32169671058654786, 0.8093343522813585);35.807762146;1.0;10;0;0;0;0;();(-2000.0, -2000.0);
04:23:17:099;04:23:17:099;0;9;-1.5;1;0;0;0;0;1;1;1;1;04:23:17:034;1447946594.72;(0.32169671058654786, 0.8093343522813585);35.807762146;1.0;10;0;0;0;0;();(-2000.0, -2000.0);
04:23:17:115;04:23:17:115;0;5;-1.5;1;0;0;0;0;1;1;1;1;04:23:17:101;1447946594.79;(0.32164769172668456, 0.8097517861260308);35.6275749207;1.0;10;0;0;0;0;();(-2000.0, -2000.0);
04:23:17:132;04:23:17:131;0;0;-1.5;1;0;0;0;0;1;1;1;1;04:23:17:101;1447946594.79;(0.32164769172668456, 0.8097517861260308);35.6275749207;1.0;10;0;0;0;0;();(-2000.0, -2000.0);
04:23:17:149;04:23:17:149;0;4;-1.5;1;0;0;0;0;1;1;1;1;04:23:17:101;1447946594.79;(0.32164769172668456, 0.8097517861260308);35.6275749207;1.0;10;0;0;0;0;();(-2000.0, -2000.0);
04:23:17:181;04:23:17:181;0;4;-1.5;1;0;0;0;0;1;1;1;1;04:23:17:169;1447946594.85;(0.3215159893035889, 0.809614774915907);35.9605903625;1.0;10;0;0;0;0;();(-2000.0, -2000.0);
04:23:17:199;04:23:17:199;0;10;-1.5;1;0;0;0;0;1;1;1;1;04:23:17:169;1447946594.85;(0.3215159893035889, 0.809614774915907);35.9605903625;1.0;10;0;0;0;0;();(-2000.0, -2000.0);
04:23:17:215;04:23:17:215;0;5;-1.5;1;0;0;0;0;1;1;1;1;04:23:17:169;1447946594.85;(0.3215159893035889, 0.809614774915907);35.9605903625;1.0;10;0;0;0;0;();(-2000.0, -2000.0);
04:23:17:231;04:23:17:231;0;10;-1.5;1;0;0;0;0;1;1;1;1;04:23:17:169;1447946594.85;(0.3215159893035889, 0.809614774915907);35.9605903625;1.0;10;0;0;0;0;();(-2000.0, -2000.0);
04:23:17:248;04:23:17:248;0;15;-1.5;1;0;0;0;0;1;1;1;1;04:23:17:233;1447946594.92;(0.32146430015563965, 0.8098732418484158);35.9202842712;1.0;10;0;0;0;0;();(-2000.0, -2000.0);
04:23:17:281;04:23:17:281;0;0;-1.5;1;0;0;0;0;1;1;1;1;04:23:17:233;1447946594.92;(0.32146430015563965, 0.8098732418484158);35.9202842712;1.0;10;0;0;0;0;();(-2000.0, -2000.0);
04:23:17:298;04:23:17:298;0;10;-1.5;1;0;0;0;0;1;1;1;1;04:23:17:233;1447946594.92;(0.32146430015563965, 0.8098732418484158);35.9202842712;1.0;10;0;0;0;0;();(-2000.0, -2000.0);
04:23:17:315;04:23:17:315;0;15;-1.5;1;0;0;0;0;1;1;1;1;04:23:17:302;1447946594.99;(0.3218778848648071, 0.8099576526217991);36.0539741516;1.0;10;0;0;0;0;();(-2000.0, -2000.0);
04:23:17:331;04:23:17:331;0;9;-1.5;1;0;0;0;0;1;1;1;1;04:23:17:302;1447946594.99;(0.3218778848648071, 0.8099576526217991);36.0539741516;1.0;10;0;0;0;0;();(-2000.0, -2000.0);
04:23:17:347;04:23:17:347;0;0;-1.5;1;0;0;0;0;1;1;1;1;04:23:17:302;1447946594.99;(0.3218778848648071, 0.8099576526217991);36.0539741516;1.0;10;0;0;0;0;();(-2000.0, -2000.0);
