%Timestamp,timestamp_write;timestamp_gotpupil;eyetrackertime;norm_pos;diameter;confidence;nplanes;lastaction;lastactiondetails;positivescore;negativescore;targetpositions;collision_point
08:14:19:999;1447960457.81;(0.3155250549316406, 0.25050650702582467);27.0847835541;1.0;2;0;0;0;0;();(0.0, 0.0);
08:14:20:018;08:14:20:018;1447960457.88;(0.3154007434844971, 0.2504681057400173);26.0697479248;1.0;2;0;0;0;0;();(-2000.0, -2000.0);
08:14:20:022;08:14:20:018;1447960457.88;(0.3154007434844971, 0.2504681057400173);26.0697479248;1.0;2;0;0;0;0;();(-2000.0, -2000.0);
08:14:20:026;08:14:20:018;1447960457.88;(0.3154007434844971, 0.2504681057400173);26.0697479248;1.0;2;0;0;0;0;();(-2000.0, -2000.0);
08:14:20:030;08:14:20:018;1447960457.88;(0.3154007434844971, 0.2504681057400173);26.0697479248;1.0;2;0;0;0;0;();(-2000.0, -2000.0);
08:14:20:034;08:14:20:018;1447960457.88;(0.3154007434844971, 0.2504681057400173);26.0697479248;1.0;2;0;0;0;0;();(-2000.0, -2000.0);
08:14:20:038;08:14:20:018;1447960457.88;(0.3154007434844971, 0.2504681057400173);26.0697479248;1.0;2;0;0;0;0;();(-2000.0, -2000.0);
08:14:20:042;08:14:20:018;1447960457.88;(0.3154007434844971, 0.2504681057400173);26.0697479248;1.0;2;0;0;0;0;();(-2000.0, -2000.0);
08:14:20:046;08:14:20:018;1447960457.88;(0.3154007434844971, 0.2504681057400173);26.0697479248;1.0;2;0;0;0;0;();(-2000.0, -2000.0);
08:14:20:050;08:14:20:018;1447960457.88;(0.3154007434844971, 0.2504681057400173);26.0697479248;1.0;2;0;0;0;0;();(-2000.0, -2000.0);
08:14:20:053;08:14:20:018;1447960457.88;(0.3154007434844971, 0.2504681057400173);26.0697479248;1.0;2;0;0;0;0;();(-2000.0, -2000.0);
08:14:20:055;08:14:20:018;1447960457.88;(0.3154007434844971, 0.2504681057400173);26.0697479248;1.0;2;0;0;0;0;();(-2000.0, -2000.0);
08:14:20:059;08:14:20:018;1447960457.88;(0.3154007434844971, 0.2504681057400173);26.0697479248;1.0;2;0;0;0;0;();(-2000.0, -2000.0);
08:14:20:063;08:14:20:018;1447960457.88;(0.3154007434844971, 0.2504681057400173);26.0697479248;1.0;2;0;0;0;0;();(-2000.0, -2000.0);
08:14:20:067;08:14:20:018;1447960457.88;(0.3154007434844971, 0.2504681057400173);26.0697479248;1.0;2;0;0;0;0;();(-2000.0, -2000.0);
08:14:20:071;08:14:20:018;1447960457.88;(0.3154007434844971, 0.2504681057400173);26.0697479248;1.0;2;0;0;0;0;();(-2000.0, -2000.0);
08:14:20:151;08:14:20:148;1447960458.01;(0.31581482887268064, 0.25034595065646703);26.9578056335;1.0;2;0;0;0;0;();(-2000.0, -2000.0);
08:14:20:153;08:14:20:148;1447960458.01;(0.31581482887268064, 0.25034595065646703);26.9578056335;1.0;2;0;0;0;0;();(-2000.0, -2000.0);
08:14:20:156;08:14:20:148;1447960458.01;(0.31581482887268064, 0.25034595065646703);26.9578056335;1.0;2;0;0;0;0;();(-2000.0, -2000.0);
08:14:20:159;08:14:20:148;1447960458.01;(0.31581482887268064, 0.25034595065646703);26.9578056335;1.0;2;0;0;0;0;();(-2000.0, -2000.0);
08:14:20:161;08:14:20:148;1447960458.01;(0.31581482887268064, 0.25034595065646703);26.9578056335;1.0;2;0;0;0;0;();(-2000.0, -2000.0);
08:14:20:162;08:14:20:148;1447960458.01;(0.31581482887268064, 0.25034595065646703);26.9578056335;1.0;2;0;0;0;0;();(-2000.0, -2000.0);
08:14:20:165;08:14:20:148;1447960458.01;(0.31581482887268064, 0.25034595065646703);26.9578056335;1.0;2;0;0;0;0;();(-2000.0, -2000.0);
08:14:20:167;08:14:20:148;1447960458.01;(0.31581482887268064, 0.25034595065646703);26.9578056335;1.0;2;0;0;0;0;();(-2000.0, -2000.0);
08:14:25:542;08:14:25:528;1447960463.34;(0.3158600091934204, 0.25063340928819444);26.5434112549;1.0;2;0;0;0;0;();(-2000.0, -2000.0);
08:14:25:544;08:14:25:528;1447960463.34;(0.3158600091934204, 0.25063340928819444);26.5434112549;1.0;2;0;0;0;0;();(-2000.0, -2000.0);
08:14:25:545;08:14:25:528;1447960463.34;(0.3158600091934204, 0.25063340928819444);26.5434112549;1.0;2;0;0;0;0;();(-2000.0, -2000.0);
08:14:25:547;08:14:25:528;1447960463.34;(0.3158600091934204, 0.25063340928819444);26.5434112549;1.0;2;0;0;0;0;();(-2000.0, -2000.0);
08:14:25:549;08:14:25:528;1447960463.34;(0.3158600091934204, 0.25063340928819444);26.5434112549;1.0;2;0;0;0;0;();(-2000.0, -2000.0);
08:14:25:551;08:14:25:528;1447960463.34;(0.3158600091934204, 0.25063340928819444);26.5434112549;1.0;2;0;0;0;0;();(-2000.0, -2000.0);
08:14:25:553;08:14:25:528;1447960463.34;(0.3158600091934204, 0.25063340928819444);26.5434112549;1.0;2;0;0;0;0;();(-2000.0, -2000.0);
08:14:25:555;08:14:25:528;1447960463.34;(0.3158600091934204, 0.25063340928819444);26.5434112549;1.0;2;0;0;0;0;();(-2000.0, -2000.0);
08:14:25:557;08:14:25:528;1447960463.34;(0.3158600091934204, 0.25063340928819444);26.5434112549;1.0;2;0;0;0;0;();(-2000.0, -2000.0);
08:14:25:558;08:14:25:528;1447960463.34;(0.3158600091934204, 0.25063340928819444);26.5434112549;1.0;2;0;0;0;0;();(-2000.0, -2000.0);
08:14:25:560;08:14:25:528;1447960463.34;(0.3158600091934204, 0.25063340928819444);26.5434112549;1.0;2;0;0;0;0;();(-2000.0, -2000.0);
08:14:25:562;08:14:25:528;1447960463.34;(0.3158600091934204, 0.25063340928819444);26.5434112549;1.0;2;0;0;0;0;();(-2000.0, -2000.0);
08:14:25:564;08:14:25:528;1447960463.34;(0.3158600091934204, 0.25063340928819444);26.5434112549;1.0;2;0;0;0;0;();(-2000.0, -2000.0);
08:14:25:565;08:14:25:528;1447960463.34;(0.3158600091934204, 0.25063340928819444);26.5434112549;1.0;2;0;0;0;0;();(-2000.0, -2000.0);
08:14:25:567;08:14:25:528;1447960463.34;(0.3158600091934204, 0.25063340928819444);26.5434112549;1.0;2;0;0;0;0;();(-2000.0, -2000.0);
08:14:25:568;08:14:25:528;1447960463.34;(0.3158600091934204, 0.25063340928819444);26.5434112549;1.0;2;0;0;0;0;();(-2000.0, -2000.0);
08:14:25:572;08:14:25:528;1447960463.34;(0.3158600091934204, 0.25063340928819444);26.5434112549;1.0;2;0;0;0;0;();(-2000.0, -2000.0);
08:14:25:573;08:14:25:528;1447960463.34;(0.3158600091934204, 0.25063340928819444);26.5434112549;1.0;2;0;0;0;0;();(-2000.0, -2000.0);
08:14:25:589;08:14:25:528;1447960463.34;(0.3158600091934204, 0.25063340928819444);26.5434112549;1.0;2;0;0;0;0;();(-2000.0, -2000.0);
08:14:25:605;08:14:25:593;1447960463.41;(0.31596496105194094, 0.25049336751302087);26.5021247864;1.0;2;0;0;0;0;();(-2000.0, -2000.0);
08:14:25:638;08:14:25:593;1447960463.41;(0.31596496105194094, 0.25049336751302087);26.5021247864;1.0;2;0;0;0;0;();(-2000.0, -2000.0);
08:14:25:655;08:14:25:593;1447960463.41;(0.31596496105194094, 0.25049336751302087);26.5021247864;1.0;2;0;0;0;0;();(-2000.0, -2000.0);
08:14:25:671;08:14:25:661;1447960463.48;(0.31557180881500246, 0.2501152886284722);27.2529659271;1.0;2;0;0;0;0;();(-2000.0, -2000.0);
08:14:25:688;08:14:25:661;1447960463.48;(0.31557180881500246, 0.2501152886284722);27.2529659271;1.0;2;0;0;0;0;();(-2000.0, -2000.0);
08:14:25:705;08:14:25:661;1447960463.48;(0.31557180881500246, 0.2501152886284722);27.2529659271;1.0;2;0;0;0;0;();(-2000.0, -2000.0);
08:14:25:738;08:14:25:726;1447960463.54;(0.3158564567565918, 0.2502113342285156);26.7508621216;1.0;2;0;0;0;0;();(-2000.0, -2000.0);
08:14:25:754;08:14:25:726;1447960463.54;(0.3158564567565918, 0.2502113342285156);26.7508621216;1.0;2;0;0;0;0;();(-2000.0, -2000.0);
08:14:25:775;08:14:25:726;1447960463.54;(0.3158564567565918, 0.2502113342285156);26.7508621216;1.0;2;0;0;0;0;();(-2000.0, -2000.0);
08:14:25:792;08:14:25:726;1447960463.54;(0.3158564567565918, 0.2502113342285156);26.7508621216;1.0;2;0;0;0;0;();(-2000.0, -2000.0);
08:14:25:811;08:14:25:793;1447960463.61;(0.31584742069244387, 0.25053058200412326);26.1396942139;1.0;2;0;0;0;0;();(-2000.0, -2000.0);
08:14:25:828;08:14:25:793;1447960463.61;(0.31584742069244387, 0.25053058200412326);26.1396942139;1.0;2;0;0;0;0;();(-2000.0, -2000.0);
08:14:25:845;08:14:25:793;1447960463.61;(0.31584742069244387, 0.25053058200412326);26.1396942139;1.0;2;0;0;0;0;();(-2000.0, -2000.0);
08:14:25:878;08:14:25:860;1447960463.68;(0.31578400135040285, 0.2505018446180556);26.6931552887;1.0;2;0;0;0;0;();(-2000.0, -2000.0);
08:14:25:894;08:14:25:860;1447960463.68;(0.31578400135040285, 0.2505018446180556);26.6931552887;1.0;2;0;0;0;0;();(-2000.0, -2000.0);
08:14:25:911;08:14:25:860;1447960463.68;(0.31578400135040285, 0.2505018446180556);26.6931552887;1.0;2;0;0;0;0;();(-2000.0, -2000.0);
08:14:25:928;08:14:25:925;1447960463.74;(0.3154728412628174, 0.2502271864149306);26.5458068848;1.0;2;0;0;0;0;();(-2000.0, -2000.0);
08:14:25:944;08:14:25:925;1447960463.74;(0.3154728412628174, 0.2502271864149306);26.5458068848;1.0;2;0;0;0;0;();(-2000.0, -2000.0);
08:14:25:980;08:14:25:925;1447960463.74;(0.3154728412628174, 0.2502271864149306);26.5458068848;1.0;2;0;0;0;0;();(-2000.0, -2000.0);
08:14:25:997;08:14:25:993;1447960463.81;(0.3153968334197998, 0.250522698296441);26.5400848389;1.0;2;0;0;0;0;();(-2000.0, -2000.0);
08:14:26:015;08:14:25:993;1447960463.81;(0.3153968334197998, 0.250522698296441);26.5400848389;1.0;2;0;0;0;0;();(-2000.0, -2000.0);
08:14:26:031;08:14:25:993;1447960463.81;(0.3153968334197998, 0.250522698296441);26.5400848389;1.0;2;0;0;0;0;();(-2000.0, -2000.0);
08:14:26:048;08:14:25:993;1447960463.81;(0.3153968334197998, 0.250522698296441);26.5400848389;1.0;2;0;0;0;0;();(-2000.0, -2000.0);
08:14:26:064;08:14:26:058;1447960463.88;(0.3154680490493774, 0.25076132880316837);26.4426822662;1.0;2;0;0;0;0;();(-2000.0, -2000.0);
08:14:26:098;08:14:26:058;1447960463.88;(0.3154680490493774, 0.25076132880316837);26.4426822662;1.0;2;0;0;0;0;();(-2000.0, -2000.0);
08:14:26:114;08:14:26:058;1447960463.88;(0.3154680490493774, 0.25076132880316837);26.4426822662;1.0;2;0;0;0;0;();(-2000.0, -2000.0);
08:14:26:131;08:14:26:126;1447960463.94;(0.31564531326293943, 0.25037350124782987);26.382900238;1.0;2;0;0;0;0;();(-2000.0, -2000.0);
08:14:26:147;08:14:26:126;1447960463.94;(0.31564531326293943, 0.25037350124782987);26.382900238;1.0;2;0;0;0;0;();(-2000.0, -2000.0);
08:14:26:180;08:14:26:126;1447960463.94;(0.31564531326293943, 0.25037350124782987);26.382900238;1.0;2;0;0;0;0;();(-2000.0, -2000.0);
08:14:26:197;08:14:26:194;1447960464.01;(0.31579954624176027, 0.2501419915093316);26.3619480133;1.0;2;0;0;0;0;();(-2000.0, -2000.0);
08:14:26:214;08:14:26:194;1447960464.01;(0.31579954624176027, 0.2501419915093316);26.3619480133;1.0;2;0;0;0;0;();(-2000.0, -2000.0);
08:14:26:230;08:14:26:194;1447960464.01;(0.31579954624176027, 0.2501419915093316);26.3619480133;1.0;2;0;0;0;0;();(-2000.0, -2000.0);
08:14:26:247;08:14:26:194;1447960464.01;(0.31579954624176027, 0.2501419915093316);26.3619480133;1.0;2;0;0;0;0;();(-2000.0, -2000.0);
08:14:26:280;08:14:26:258;1447960464.08;(0.3157158136367798, 0.24995074801974826);26.2826900482;1.0;2;0;0;0;0;();(-2000.0, -2000.0);
08:14:26:296;08:14:26:258;1447960464.08;(0.3157158136367798, 0.24995074801974826);26.2826900482;1.0;2;0;0;0;0;();(-2000.0, -2000.0);
08:14:26:313;08:14:26:258;1447960464.08;(0.3157158136367798, 0.24995074801974826);26.2826900482;1.0;2;0;0;0;0;();(-2000.0, -2000.0);
08:14:26:330;08:14:26:326;1447960464.14;(0.31583738327026367, 0.2502352396647135);26.3392505646;1.0;2;0;0;0;0;();(-2000.0, -2000.0);
08:14:26:346;08:14:26:326;1447960464.14;(0.31583738327026367, 0.2502352396647135);26.3392505646;1.0;2;0;0;0;0;();(-2000.0, -2000.0);
08:14:26:390;08:14:26:389;1447960464.21;(0.3160185575485229, 0.25064832899305556);26.5956420898;1.0;2;0;0;0;0;();(-2000.0, -2000.0);
08:14:26:392;08:14:26:389;1447960464.21;(0.3160185575485229, 0.25064832899305556);26.5956420898;1.0;2;0;0;0;0;();(-2000.0, -2000.0);
08:14:26:407;08:14:26:389;1447960464.21;(0.3160185575485229, 0.25064832899305556);26.5956420898;1.0;2;0;0;0;0;();(-2000.0, -2000.0);
08:14:26:424;08:14:26:389;1447960464.21;(0.3160185575485229, 0.25064832899305556);26.5956420898;1.0;2;0;0;0;0;();(-2000.0, -2000.0);
08:14:26:458;08:14:26:389;1447960464.21;(0.3160185575485229, 0.25064832899305556);26.5956420898;1.0;2;0;0;0;0;();(-2000.0, -2000.0);
08:14:26:474;08:14:26:459;1447960464.28;(0.31534290313720703, 0.25080066257052946);27.0643825531;1.0;2;0;0;0;0;();(-2000.0, -2000.0);
08:14:26:491;08:14:26:459;1447960464.28;(0.31534290313720703, 0.25080066257052946);27.0643825531;1.0;2;0;0;0;0;();(-2000.0, -2000.0);
08:14:26:507;08:14:26:459;1447960464.28;(0.31534290313720703, 0.25080066257052946);27.0643825531;1.0;2;0;0;0;0;();(-2000.0, -2000.0);
08:14:26:540;08:14:26:526;1447960464.34;(0.31575727462768555, 0.25063501993815107);26.859790802;1.0;2;0;0;0;0;();(-2000.0, -2000.0);
08:14:26:557;08:14:26:526;1447960464.34;(0.31575727462768555, 0.25063501993815107);26.859790802;1.0;2;0;0;0;0;();(-2000.0, -2000.0);
08:14:26:574;08:14:26:526;1447960464.34;(0.31575727462768555, 0.25063501993815107);26.859790802;1.0;2;0;0;0;0;();(-2000.0, -2000.0);
08:14:26:590;08:14:26:590;1447960464.41;(0.31586227416992185, 0.2503942701551649);26.4974536896;1.0;2;0;0;0;0;();(-2000.0, -2000.0);
08:14:26:607;08:14:26:590;1447960464.41;(0.31586227416992185, 0.2503942701551649);26.4974536896;1.0;2;0;0;0;0;();(-2000.0, -2000.0);
08:14:26:624;08:14:26:590;1447960464.41;(0.31586227416992185, 0.2503942701551649);26.4974536896;1.0;2;0;0;0;0;();(-2000.0, -2000.0);
08:14:26:657;08:14:26:590;1447960464.41;(0.31586227416992185, 0.2503942701551649);26.4974536896;1.0;2;0;0;0;0;();(-2000.0, -2000.0);
08:14:26:674;08:14:26:659;1447960464.48;(0.31575963497161863, 0.25067138671875);26.6207809448;1.0;2;0;0;0;0;();(-2000.0, -2000.0);
08:14:26:690;08:14:26:659;1447960464.48;(0.31575963497161863, 0.25067138671875);26.6207809448;1.0;2;0;0;0;0;();(-2000.0, -2000.0);
08:14:26:707;08:14:26:659;1447960464.48;(0.31575963497161863, 0.25067138671875);26.6207809448;1.0;2;0;0;0;0;();(-2000.0, -2000.0);
08:14:26:740;08:14:26:721;1447960464.54;(0.315731406211853, 0.25056593153211804);26.269865036;1.0;2;0;0;0;0;();(-2000.0, -2000.0);
08:14:26:757;08:14:26:721;1447960464.54;(0.315731406211853, 0.25056593153211804);26.269865036;1.0;2;0;0;0;0;();(-2000.0, -2000.0);
08:14:26:773;08:14:26:721;1447960464.54;(0.315731406211853, 0.25056593153211804);26.269865036;1.0;2;0;0;0;0;();(-2000.0, -2000.0);
08:14:26:790;08:14:26:790;1447960464.61;(0.31565423011779786, 0.25021464029947915);27.0445976257;1.0;2;0;0;0;0;();(-2000.0, -2000.0);
08:14:26:808;08:14:26:790;1447960464.61;(0.31565423011779786, 0.25021464029947915);27.0445976257;1.0;2;0;0;0;0;();(-2000.0, -2000.0);
08:14:26:825;08:14:26:790;1447960464.61;(0.31565423011779786, 0.25021464029947915);27.0445976257;1.0;2;0;0;0;0;();(-2000.0, -2000.0);
08:14:26:858;08:14:26:790;1447960464.61;(0.31565423011779786, 0.25021464029947915);27.0445976257;1.0;2;0;0;0;0;();(-2000.0, -2000.0);
08:14:26:876;08:14:26:859;1447960464.68;(0.31576569080352784, 0.2500520494249132);26.7523269653;1.0;2;0;0;0;0;();(-2000.0, -2000.0);
08:14:26:891;08:14:26:859;1447960464.68;(0.31576569080352784, 0.2500520494249132);26.7523269653;1.0;2;0;0;0;0;();(-2000.0, -2000.0);
08:14:26:908;08:14:26:859;1447960464.68;(0.31576569080352784, 0.2500520494249132);26.7523269653;1.0;2;0;0;0;0;();(-2000.0, -2000.0);
08:14:26:925;08:14:26:921;1447960464.74;(0.31575870513916016, 0.25057907104492183);26.9976825714;1.0;2;0;0;0;0;();(-2000.0, -2000.0);
08:14:26:958;08:14:26:921;1447960464.74;(0.31575870513916016, 0.25057907104492183);26.9976825714;1.0;2;0;0;0;0;();(-2000.0, -2000.0);
08:14:26:974;08:14:26:921;1447960464.74;(0.31575870513916016, 0.25057907104492183);26.9976825714;1.0;2;0;0;0;0;();(-2000.0, -2000.0);
08:14:26:991;08:14:26:990;1447960464.81;(0.3157937049865723, 0.2505466885036892);26.2542972565;1.0;2;0;0;0;0;();(-2000.0, -2000.0);
08:14:27:008;08:14:26:990;1447960464.81;(0.3157937049865723, 0.2505466885036892);26.2542972565;1.0;2;0;0;0;0;();(-2000.0, -2000.0);
08:14:27:026;08:14:26:990;1447960464.81;(0.3157937049865723, 0.2505466885036892);26.2542972565;1.0;2;0;0;0;0;();(-2000.0, -2000.0);
08:14:27:060;08:14:27:053;1447960464.88;(0.3158928155899048, 0.25013139512803817);26.1437950134;1.0;2;0;0;0;0;();(-2000.0, -2000.0);
08:14:27:076;08:14:27:053;1447960464.88;(0.3158928155899048, 0.25013139512803817);26.1437950134;1.0;2;0;0;0;0;();(-2000.0, -2000.0);
08:14:27:093;08:14:27:053;1447960464.88;(0.3158928155899048, 0.25013139512803817);26.1437950134;1.0;2;0;0;0;0;();(-2000.0, -2000.0);
08:14:27:109;08:14:27:053;1447960464.88;(0.3158928155899048, 0.25013139512803817);26.1437950134;1.0;2;0;0;0;0;();(-2000.0, -2000.0);
08:14:27:126;08:14:27:122;1447960464.94;(0.3156218290328979, 0.2500198364257813);26.6919250488;1.0;2;0;0;0;0;();(-2000.0, -2000.0);
08:14:27:159;08:14:27:122;1447960464.94;(0.3156218290328979, 0.2500198364257813);26.6919250488;1.0;2;0;0;0;0;();(-2000.0, -2000.0);
08:14:27:176;08:14:27:122;1447960464.94;(0.3156218290328979, 0.2500198364257813);26.6919250488;1.0;2;0;0;0;0;();(-2000.0, -2000.0);
08:14:27:192;08:14:27:189;1447960465.01;(0.3155250310897827, 0.25034069485134547);26.7145309448;1.0;2;0;0;0;0;();(-2000.0, -2000.0);
08:14:27:209;08:14:27:189;1447960465.01;(0.3155250310897827, 0.25034069485134547);26.7145309448;1.0;2;0;0;0;0;();(-2000.0, -2000.0);
08:14:27:225;08:14:27:189;1447960465.01;(0.3155250310897827, 0.25034069485134547);26.7145309448;1.0;2;0;0;0;0;();(-2000.0, -2000.0);
08:14:27:259;08:14:27:253;1447960465.08;(0.3154544115066528, 0.25073962741427946);26.5514812469;1.0;2;0;0;0;0;();(-2000.0, -2000.0);
08:14:27:275;08:14:27:253;1447960465.08;(0.3154544115066528, 0.25073962741427946);26.5514812469;1.0;2;0;0;0;0;();(-2000.0, -2000.0);
08:14:27:292;08:14:27:253;1447960465.08;(0.3154544115066528, 0.25073962741427946);26.5514812469;1.0;2;0;0;0;0;();(-2000.0, -2000.0);
08:14:27:308;08:14:27:253;1447960465.08;(0.3154544115066528, 0.25073962741427946);26.5514812469;1.0;2;0;0;0;0;();(-2000.0, -2000.0);
08:14:27:325;08:14:27:321;1447960465.14;(0.31578061580657957, 0.25050667656792536);26.2472667694;1.0;2;0;0;0;0;();(-2000.0, -2000.0);
08:14:27:358;08:14:27:321;1447960465.14;(0.31578061580657957, 0.25050667656792536);26.2472667694;1.0;2;0;0;0;0;();(-2000.0, -2000.0);
08:14:27:375;08:14:27:321;1447960465.14;(0.31578061580657957, 0.25050667656792536);26.2472667694;1.0;2;0;0;0;0;();(-2000.0, -2000.0);
08:14:27:391;08:14:27:385;1447960465.21;(0.31601738929748535, 0.2501825968424479);26.5963726044;1.0;2;0;0;0;0;();(-2000.0, -2000.0);
08:14:27:408;08:14:27:385;1447960465.21;(0.31601738929748535, 0.2501825968424479);26.5963726044;1.0;2;0;0;0;0;();(-2000.0, -2000.0);
08:14:27:428;08:14:27:385;1447960465.21;(0.31601738929748535, 0.2501825968424479);26.5963726044;1.0;2;0;0;0;0;();(-2000.0, -2000.0);
08:14:27:444;08:14:27:385;1447960465.21;(0.31601738929748535, 0.2501825968424479);26.5963726044;1.0;2;0;0;0;0;();(-2000.0, -2000.0);
08:14:27:478;08:14:27:453;1447960465.28;(0.3154407501220703, 0.2505869547526042);26.8738059998;1.0;2;0;0;0;0;();(-2000.0, -2000.0);
08:14:27:494;08:14:27:453;1447960465.28;(0.3154407501220703, 0.2505869547526042);26.8738059998;1.0;2;0;0;0;0;();(-2000.0, -2000.0);
08:14:27:511;08:14:27:453;1447960465.28;(0.3154407501220703, 0.2505869547526042);26.8738059998;1.0;2;0;0;0;0;();(-2000.0, -2000.0);
08:14:27:527;08:14:27:517;1447960465.34;(0.3157968521118164, 0.24999237060546875);26.9003925323;1.0;2;0;0;0;0;();(-2000.0, -2000.0);
08:14:27:560;08:14:27:517;1447960465.34;(0.3157968521118164, 0.24999237060546875);26.9003925323;1.0;2;0;0;0;0;();(-2000.0, -2000.0);
08:14:27:577;08:14:27:517;1447960465.34;(0.3157968521118164, 0.24999237060546875);26.9003925323;1.0;2;0;0;0;0;();(-2000.0, -2000.0);
08:14:27:594;08:14:27:586;1447960465.41;(0.31559455394744873, 0.2501965840657552);27.2742671967;1.0;2;0;0;0;0;();(-2000.0, -2000.0);
08:14:27:610;08:14:27:586;1447960465.41;(0.31559455394744873, 0.2501965840657552);27.2742671967;1.0;2;0;0;0;0;();(-2000.0, -2000.0);
08:14:27:627;08:14:27:586;1447960465.41;(0.31559455394744873, 0.2501965840657552);27.2742671967;1.0;2;0;0;0;0;();(-2000.0, -2000.0);
08:14:27:660;08:14:27:653;1447960465.48;(0.31610147953033446, 0.25049836900499134);26.6986045837;1.0;2;0;0;0;0;();(-2000.0, -2000.0);
08:14:27:676;08:14:27:653;1447960465.48;(0.31610147953033446, 0.25049836900499134);26.6986045837;1.0;2;0;0;0;0;();(-2000.0, -2000.0);
08:14:27:693;08:14:27:653;1447960465.48;(0.31610147953033446, 0.25049836900499134);26.6986045837;1.0;2;0;0;0;0;();(-2000.0, -2000.0);
08:14:27:710;08:14:27:653;1447960465.48;(0.31610147953033446, 0.25049836900499134);26.6986045837;1.0;2;0;0;0;0;();(-2000.0, -2000.0);
08:14:27:726;08:14:27:717;1447960465.54;(0.3158083438873291, 0.2507787068684896);26.6729068756;1.0;2;0;0;0;0;();(-2000.0, -2000.0);
08:14:27:759;08:14:27:717;1447960465.54;(0.3158083438873291, 0.2507787068684896);26.6729068756;1.0;2;0;0;0;0;();(-2000.0, -2000.0);
08:14:27:776;08:14:27:717;1447960465.54;(0.3158083438873291, 0.2507787068684896);26.6729068756;1.0;2;0;0;0;0;();(-2000.0, -2000.0);
08:14:27:792;08:14:27:785;1447960465.61;(0.3157336235046387, 0.2504950629340278);26.454908371;1.0;2;0;0;0;0;();(-2000.0, -2000.0);
08:14:27:809;08:14:27:785;1447960465.61;(0.3157336235046387, 0.2504950629340278);26.454908371;1.0;2;0;0;0;0;();(-2000.0, -2000.0);
08:14:27:825;08:14:27:785;1447960465.61;(0.3157336235046387, 0.2504950629340278);26.454908371;1.0;2;0;0;0;0;();(-2000.0, -2000.0);
08:14:27:859;08:14:27:849;1447960465.68;(0.3155671119689941, 0.25020336574978297);26.7457542419;1.0;2;0;0;0;0;();(-2000.0, -2000.0);
08:14:27:875;08:14:27:849;1447960465.68;(0.3155671119689941, 0.25020336574978297);26.7457542419;1.0;2;0;0;0;0;();(-2000.0, -2000.0);
08:14:27:892;08:14:27:849;1447960465.68;(0.3155671119689941, 0.25020336574978297);26.7457542419;1.0;2;0;0;0;0;();(-2000.0, -2000.0);
08:14:27:908;08:14:27:849;1447960465.68;(0.3155671119689941, 0.25020336574978297);26.7457542419;1.0;2;0;0;0;0;();(-2000.0, -2000.0);
08:14:27:925;08:14:27:918;1447960465.74;(0.3154895544052124, 0.2500849405924479);26.9398612976;1.0;2;0;0;0;0;();(-2000.0, -2000.0);
08:14:27:963;08:14:27:918;1447960465.74;(0.3154895544052124, 0.2500849405924479);26.9398612976;1.0;4;0;0;0;0;();(-2000.0, -2000.0);
08:14:27:974;08:14:27:918;1447960465.74;(0.3154895544052124, 0.2500849405924479);26.9398612976;1.0;4;0;0;0;0;();(-2000.0, -2000.0);
08:14:27:991;08:14:27:985;1447960465.81;(0.31592574119567873, 0.2504191080729167);26.2979545593;1.0;4;0;0;0;0;();(-2000.0, -2000.0);
08:14:28:008;08:14:27:985;1447960465.81;(0.31592574119567873, 0.2504191080729167);26.2979545593;1.0;4;0;0;0;0;();(-2000.0, -2000.0);
08:14:28:024;08:14:27:985;1447960465.81;(0.31592574119567873, 0.2504191080729167);26.2979545593;1.0;4;0;0;0;0;();(-2000.0, -2000.0);
08:14:28:057;08:14:28:049;1447960465.88;(0.31584320068359373, 0.2502766927083333);26.3270206451;1.0;4;0;0;0;0;();(-2000.0, -2000.0);
08:14:28:074;08:14:28:049;1447960465.88;(0.31584320068359373, 0.2502766927083333);26.3270206451;1.0;4;0;0;0;0;();(-2000.0, -2000.0);
08:14:28:091;08:14:28:049;1447960465.88;(0.31584320068359373, 0.2502766927083333);26.3270206451;1.0;4;0;0;0;0;();(-2000.0, -2000.0);
08:14:28:107;08:14:28:049;1447960465.88;(0.31584320068359373, 0.2502766927083333);26.3270206451;1.0;4;0;0;0;0;();(-2000.0, -2000.0);
08:14:28:140;08:14:28:117;1447960465.94;(0.31588823795318605, 0.25017140706380203);26.5691566467;1.0;4;0;0;0;0;();(-2000.0, -2000.0);
08:14:28:157;08:14:28:117;1447960465.94;(0.31588823795318605, 0.25017140706380203);26.5691566467;1.0;4;0;0;0;0;();(-2000.0, -2000.0);
08:14:28:173;08:14:28:117;1447960465.94;(0.31588823795318605, 0.25017140706380203);26.5691566467;1.0;4;0;0;0;0;();(-2000.0, -2000.0);
08:14:28:190;08:14:28:181;1447960466.01;(0.31586694717407227, 0.25062866210937496);26.8097839355;1.0;4;0;0;0;0;();(-2000.0, -2000.0);
08:14:28:207;08:14:28:181;1447960466.01;(0.31586694717407227, 0.25062866210937496);26.8097839355;1.0;4;0;0;0;0;();(-2000.0, -2000.0);
08:14:28:239;08:14:28:181;1447960466.01;(0.31586694717407227, 0.25062866210937496);26.8097839355;1.0;4;0;0;0;0;();(-2000.0, -2000.0);
08:14:28:256;08:14:28:249;1447960466.08;(0.31581740379333495, 0.25050082736545143);26.7849559784;1.0;4;0;0;0;0;();(-2000.0, -2000.0);
08:14:28:274;08:14:28:249;1447960466.08;(0.31581740379333495, 0.25050082736545143);26.7849559784;1.0;4;0;0;0;0;();(-2000.0, -2000.0);
08:14:28:291;08:14:28:249;1447960466.08;(0.31581740379333495, 0.25050082736545143);26.7849559784;1.0;4;0;0;0;0;();(-2000.0, -2000.0);
08:14:28:308;08:14:28:249;1447960466.08;(0.31581740379333495, 0.25050082736545143);26.7849559784;1.0;4;0;0;0;0;();(-2000.0, -2000.0);
08:14:28:324;08:14:28:318;1447960466.14;(0.31582624912261964, 0.25053914388020837);26.9360866547;1.0;4;0;0;0;0;();(-2000.0, -2000.0);
08:14:28:357;08:14:28:318;1447960466.14;(0.31582624912261964, 0.25053914388020837);26.9360866547;1.0;4;0;0;0;0;();(-2000.0, -2000.0);
08:14:28:374;08:14:28:318;1447960466.14;(0.31582624912261964, 0.25053914388020837);26.9360866547;1.0;4;0;0;0;0;();(-2000.0, -2000.0);
08:14:28:390;08:14:28:381;1447960466.21;(0.31582257747650144, 0.2505431281195747);26.2477283478;1.0;4;0;0;0;0;();(-2000.0, -2000.0);
08:14:28:407;08:14:28:381;1447960466.21;(0.31582257747650144, 0.2505431281195747);26.2477283478;1.0;4;0;0;0;0;();(-2000.0, -2000.0);
08:14:28:440;08:14:28:381;1447960466.21;(0.31582257747650144, 0.2505431281195747);26.2477283478;1.0;4;0;0;0;0;();(-2000.0, -2000.0);
08:14:28:457;08:14:28:450;1447960466.28;(0.31548094749450684, 0.25038418240017357);26.5262680054;1.0;4;0;0;0;0;();(-2000.0, -2000.0);
08:14:28:473;08:14:28:450;1447960466.28;(0.31548094749450684, 0.25038418240017357);26.5262680054;1.0;4;0;0;0;0;();(-2000.0, -2000.0);
08:14:28:490;08:14:28:450;1447960466.28;(0.31548094749450684, 0.25038418240017357);26.5262680054;1.0;4;0;0;0;0;();(-2000.0, -2000.0);
08:14:28:506;08:14:28:450;1447960466.28;(0.31548094749450684, 0.25038418240017357);26.5262680054;1.0;4;0;0;0;0;();(-2000.0, -2000.0);
08:14:28:540;08:14:28:513;1447960466.34;(0.3156388282775879, 0.25004670884874136);26.6130771637;1.0;4;0;0;0;0;();(-2000.0, -2000.0);
08:14:28:556;08:14:28:513;1447960466.34;(0.3156388282775879, 0.25004670884874136);26.6130771637;1.0;4;0;0;0;0;();(-2000.0, -2000.0);
08:14:28:573;08:14:28:513;1447960466.34;(0.3156388282775879, 0.25004670884874136);26.6130771637;1.0;4;0;0;0;0;();(-2000.0, -2000.0);
08:14:28:589;08:14:28:586;1447960466.41;(0.31557636260986327, 0.2500585767957899);26.3758544922;1.0;4;0;0;0;0;();(-2000.0, -2000.0);
08:14:28:606;08:14:28:586;1447960466.41;(0.31557636260986327, 0.2500585767957899);26.3758544922;1.0;4;0;0;0;0;();(-2000.0, -2000.0);
08:14:28:639;08:14:28:586;1447960466.41;(0.31557636260986327, 0.2500585767957899);26.3758544922;1.0;4;0;0;0;0;();(-2000.0, -2000.0);
08:14:28:656;08:14:28:649;1447960466.48;(0.31587953567504884, 0.25019115871853304);26.4484272003;1.0;4;0;0;0;0;();(-2000.0, -2000.0);
08:14:28:672;08:14:28:649;1447960466.48;(0.31587953567504884, 0.25019115871853304);26.4484272003;1.0;4;0;0;0;0;();(-2000.0, -2000.0);
08:14:28:689;08:14:28:649;1447960466.48;(0.31587953567504884, 0.25019115871853304);26.4484272003;1.0;4;0;0;0;0;();(-2000.0, -2000.0);
08:14:28:705;08:14:28:649;1447960466.48;(0.31587953567504884, 0.25019115871853304);26.4484272003;1.0;4;0;0;0;0;();(-2000.0, -2000.0);
08:14:28:738;08:14:28:713;1447960466.54;(0.3155708312988281, 0.2500827365451389);26.4659004211;1.0;4;0;0;0;0;();(-2000.0, -2000.0);
08:14:28:755;08:14:28:713;1447960466.54;(0.3155708312988281, 0.2500827365451389);26.4659004211;1.0;4;0;0;0;0;();(-2000.0, -2000.0);
08:14:28:771;08:14:28:713;1447960466.54;(0.3155708312988281, 0.2500827365451389);26.4659004211;1.0;4;0;0;0;0;();(-2000.0, -2000.0);
08:14:28:788;08:14:28:781;1447960466.61;(0.3154980897903442, 0.2500476413302951);26.5525684357;1.0;4;0;0;0;0;();(-2000.0, -2000.0);
08:14:28:805;08:14:28:781;1447960466.61;(0.3154980897903442, 0.2500476413302951);26.5525684357;1.0;4;0;0;0;0;();(-2000.0, -2000.0);
08:14:28:838;08:14:28:781;1447960466.61;(0.3154980897903442, 0.2500476413302951);26.5525684357;1.0;4;0;0;0;0;();(-2000.0, -2000.0);
08:14:28:854;08:14:28:845;1447960466.68;(0.31605052947998047, 0.2504845513237848);26.108007431;1.0;4;0;0;0;0;();(-2000.0, -2000.0);
08:14:28:871;08:14:28:845;1447960466.68;(0.31605052947998047, 0.2504845513237848);26.108007431;1.0;4;0;0;0;0;();(-2000.0, -2000.0);
08:14:28:887;08:14:28:845;1447960466.68;(0.31605052947998047, 0.2504845513237848);26.108007431;1.0;4;0;0;0;0;();(-2000.0, -2000.0);
08:14:28:904;08:14:28:845;1447960466.68;(0.31605052947998047, 0.2504845513237848);26.108007431;1.0;4;0;0;0;0;();(-2000.0, -2000.0);
08:14:28:937;08:14:28:913;1447960466.74;(0.3157347679138184, 0.2500830756293403);26.5087680817;1.0;4;0;0;0;0;();(-2000.0, -2000.0);
08:14:28:954;08:14:28:913;1447960466.74;(0.3157347679138184, 0.2500830756293403);26.5087680817;1.0;4;0;0;0;0;();(-2000.0, -2000.0);
08:14:28:970;08:14:28:913;1447960466.74;(0.3157347679138184, 0.2500830756293403);26.5087680817;1.0;4;0;0;0;0;();(-2000.0, -2000.0);
08:14:28:987;08:14:28:981;1447960466.81;(0.3157127141952515, 0.250433349609375);26.4204788208;1.0;4;0;0;0;0;();(-2000.0, -2000.0);
08:14:29:020;08:14:28:981;1447960466.81;(0.3157127141952515, 0.250433349609375);26.4204788208;1.0;4;0;0;0;0;();(-2000.0, -2000.0);
08:14:29:037;08:14:28:981;1447960466.81;(0.3157127141952515, 0.250433349609375);26.4204788208;1.0;4;0;0;0;0;();(-2000.0, -2000.0);
08:14:29:053;08:14:29:045;1447960466.88;(0.3155596017837524, 0.24981782701280386);26.577507019;1.0;4;0;0;0;0;();(-2000.0, -2000.0);
08:14:29:070;08:14:29:045;1447960466.88;(0.3155596017837524, 0.24981782701280386);26.577507019;1.0;4;0;0;0;0;();(-2000.0, -2000.0);
08:14:29:086;08:14:29:045;1447960466.88;(0.3155596017837524, 0.24981782701280386);26.577507019;1.0;4;0;0;0;0;();(-2000.0, -2000.0);
08:14:29:119;08:14:29:113;1447960466.94;(0.31559319496154786, 0.25069656372070315);26.4895610809;1.0;4;0;0;0;0;();(-2000.0, -2000.0);
08:14:29:136;08:14:29:113;1447960466.94;(0.31559319496154786, 0.25069656372070315);26.4895610809;1.0;4;0;0;0;0;();(-2000.0, -2000.0);
08:14:29:153;08:14:29:113;1447960466.94;(0.31559319496154786, 0.25069656372070315);26.4895610809;1.0;4;0;0;0;0;();(-2000.0, -2000.0);
08:14:29:169;08:14:29:113;1447960466.94;(0.31559319496154786, 0.25069656372070315);26.4895610809;1.0;4;0;0;0;0;();(-2000.0, -2000.0);
08:14:29:186;08:14:29:178;1447960467.01;(0.3156202077865601, 0.2507024129231771);26.7095928192;1.0;4;0;0;0;0;();(-2000.0, -2000.0);
08:14:29:219;08:14:29:178;1447960467.01;(0.3156202077865601, 0.2507024129231771);26.7095928192;1.0;4;0;0;0;0;();(-2000.0, -2000.0);
08:14:29:236;08:14:29:178;1447960467.01;(0.3156202077865601, 0.2507024129231771);26.7095928192;1.0;4;0;0;0;0;();(-2000.0, -2000.0);
08:14:29:252;08:14:29:245;1447960467.08;(0.3157034873962402, 0.25023244222005203);26.4598026276;1.0;4;0;0;0;0;();(-2000.0, -2000.0);
08:14:29:269;08:14:29:245;1447960467.08;(0.3157034873962402, 0.25023244222005203);26.4598026276;1.0;4;0;0;0;0;();(-2000.0, -2000.0);
08:14:29:286;08:14:29:245;1447960467.08;(0.3157034873962402, 0.25023244222005203);26.4598026276;1.0;4;0;0;0;0;();(-2000.0, -2000.0);
08:14:29:321;08:14:29:313;1447960467.14;(0.3156968832015991, 0.25050209893120656);26.528295517;1.0;4;0;0;0;0;();(-2000.0, -2000.0);
08:14:29:337;08:14:29:313;1447960467.14;(0.3156968832015991, 0.25050209893120656);26.528295517;1.0;4;0;0;0;0;();(-2000.0, -2000.0);
08:14:29:354;08:14:29:313;1447960467.14;(0.3156968832015991, 0.25050209893120656);26.528295517;1.0;4;0;0;0;0;();(-2000.0, -2000.0);
08:14:29:371;08:14:29:313;1447960467.14;(0.3156968832015991, 0.25050209893120656);26.528295517;1.0;4;0;0;0;0;();(-2000.0, -2000.0);
08:14:29:387;08:14:29:378;1447960467.21;(0.316194486618042, 0.2505259195963542);26.5387687683;1.0;4;0;0;0;0;();(-2000.0, -2000.0);
08:14:29:420;08:14:29:378;1447960467.21;(0.316194486618042, 0.2505259195963542);26.5387687683;1.0;4;0;0;0;0;();(-2000.0, -2000.0);
08:14:29:437;08:14:29:378;1447960467.21;(0.316194486618042, 0.2505259195963542);26.5387687683;1.0;4;0;0;0;0;();(-2000.0, -2000.0);
08:14:29:453;08:14:29:445;1447960467.28;(0.31579883098602296, 0.250281016031901);26.9683990479;1.0;4;0;0;0;0;();(-2000.0, -2000.0);
08:14:29:470;08:14:29:445;1447960467.28;(0.31579883098602296, 0.250281016031901);26.9683990479;1.0;4;0;0;0;0;();(-2000.0, -2000.0);
08:14:29:487;08:14:29:445;1447960467.28;(0.31579883098602296, 0.250281016031901);26.9683990479;1.0;4;0;0;0;0;();(-2000.0, -2000.0);
08:14:29:520;08:14:29:510;1447960467.34;(0.3153419256210327, 0.2501640319824219);26.226140976;1.0;4;0;0;0;0;();(-2000.0, -2000.0);
08:14:29:537;08:14:29:510;1447960467.34;(0.3153419256210327, 0.2501640319824219);26.226140976;1.0;4;0;0;0;0;();(-2000.0, -2000.0);
08:14:29:554;08:14:29:510;1447960467.34;(0.3153419256210327, 0.2501640319824219);26.226140976;1.0;4;0;0;0;0;();(-2000.0, -2000.0);
08:14:29:570;08:14:29:510;1447960467.34;(0.3153419256210327, 0.2501640319824219);26.226140976;1.0;4;0;0;0;0;();(-2000.0, -2000.0);
08:14:29:587;08:14:29:577;1447960467.41;(0.31549623012542727, 0.2506478203667535);26.1091442108;1.0;4;0;0;0;0;();(-2000.0, -2000.0);
08:14:29:620;08:14:29:577;1447960467.41;(0.31549623012542727, 0.2506478203667535);26.1091442108;1.0;4;0;0;0;0;();(-2000.0, -2000.0);
08:14:29:637;08:14:29:577;1447960467.41;(0.31549623012542727, 0.2506478203667535);26.1091442108;1.0;4;0;0;0;0;();(-2000.0, -2000.0);
08:14:29:653;08:14:29:647;1447960467.48;(0.31599998474121094, 0.25075336032443574);26.6088581085;1.0;4;0;0;0;0;();(-2000.0, -2000.0);
08:14:29:670;08:14:29:647;1447960467.48;(0.31599998474121094, 0.25075336032443574);26.6088581085;1.0;4;0;0;0;0;();(-2000.0, -2000.0);
08:14:29:686;08:14:29:647;1447960467.48;(0.31599998474121094, 0.25075336032443574);26.6088581085;1.0;4;0;0;0;0;();(-2000.0, -2000.0);
08:14:29:720;08:14:29:710;1447960467.54;(0.31572747230529785, 0.25012062920464406);26.6896247864;1.0;4;0;0;0;0;();(-2000.0, -2000.0);
08:14:29:736;08:14:29:710;1447960467.54;(0.31572747230529785, 0.25012062920464406);26.6896247864;1.0;4;0;0;0;0;();(-2000.0, -2000.0);
08:14:29:753;08:14:29:710;1447960467.54;(0.31572747230529785, 0.25012062920464406);26.6896247864;1.0;4;0;0;0;0;();(-2000.0, -2000.0);
08:14:29:769;08:14:29:710;1447960467.54;(0.31572747230529785, 0.25012062920464406);26.6896247864;1.0;4;0;0;0;0;();(-2000.0, -2000.0);
08:14:29:786;08:14:29:777;1447960467.61;(0.31559789180755615, 0.2504558987087674);26.6505126953;1.0;4;0;0;0;0;();(-2000.0, -2000.0);
08:14:29:820;08:14:29:777;1447960467.61;(0.31559789180755615, 0.2504558987087674);26.6505126953;1.0;4;0;0;0;0;();(-2000.0, -2000.0);
08:14:29:836;08:14:29:777;1447960467.61;(0.31559789180755615, 0.2504558987087674);26.6505126953;1.0;4;0;0;0;0;();(-2000.0, -2000.0);
08:14:29:853;08:14:29:851;1447960467.68;(0.31553990840911866, 0.2501725090874566);27.0151367188;1.0;4;0;0;0;0;();(-2000.0, -2000.0);
08:14:29:870;08:14:29:851;1447960467.68;(0.31553990840911866, 0.2501725090874566);27.0151367188;1.0;4;0;0;0;0;();(-2000.0, -2000.0);
08:14:29:886;08:14:29:851;1447960467.68;(0.31553990840911866, 0.2501725090874566);27.0151367188;1.0;4;0;0;0;0;();(-2000.0, -2000.0);
08:14:29:919;08:14:29:910;1447960467.74;(0.3155543088912964, 0.24994023640950525);26.4014530182;1.0;4;0;0;0;0;();(-2000.0, -2000.0);
08:14:29:936;08:14:29:910;1447960467.74;(0.3155543088912964, 0.24994023640950525);26.4014530182;1.0;4;0;0;0;0;();(-2000.0, -2000.0);
08:14:29:953;08:14:29:910;1447960467.74;(0.3155543088912964, 0.24994023640950525);26.4014530182;1.0;4;0;0;0;0;();(-2000.0, -2000.0);
08:14:29:969;08:14:29:910;1447960467.74;(0.3155543088912964, 0.24994023640950525);26.4014530182;1.0;4;0;0;0;0;();(-2000.0, -2000.0);
08:14:29:986;08:14:29:977;1447960467.81;(0.3156775951385498, 0.24980027940538196);26.6454753876;1.0;4;0;0;0;0;();(-2000.0, -2000.0);
08:14:30:019;08:14:29:977;1447960467.81;(0.3156775951385498, 0.24980027940538196);26.6454753876;1.0;4;0;0;0;0;();(-2000.0, -2000.0);
08:14:30:036;08:14:29:977;1447960467.81;(0.3156775951385498, 0.24980027940538196);26.6454753876;1.0;4;0;0;0;0;();(-2000.0, -2000.0);
08:14:30:052;08:14:30:042;1447960467.88;(0.31570050716400144, 0.25047175089518225);26.6836013794;1.0;4;0;0;0;0;();(-2000.0, -2000.0);
08:14:30:069;08:14:30:042;1447960467.88;(0.31570050716400144, 0.25047175089518225);26.6836013794;1.0;4;0;0;0;0;();(-2000.0, -2000.0);
08:14:30:086;08:14:30:042;1447960467.88;(0.31570050716400144, 0.25047175089518225);26.6836013794;1.0;4;0;0;0;0;();(-2000.0, -2000.0);
08:14:30:119;08:14:30:109;1447960467.94;(0.31539220809936525, 0.2503896077473958);26.2792758942;1.0;4;0;0;0;0;();(-2000.0, -2000.0);
08:14:30:135;08:14:30:109;1447960467.94;(0.31539220809936525, 0.2503896077473958);26.2792758942;1.0;4;0;0;0;0;();(-2000.0, -2000.0);
08:14:30:152;08:14:30:109;1447960467.94;(0.31539220809936525, 0.2503896077473958);26.2792758942;1.0;4;0;0;0;0;();(-2000.0, -2000.0);
08:14:30:168;08:14:30:109;1447960467.94;(0.31539220809936525, 0.2503896077473958);26.2792758942;1.0;4;0;0;0;0;();(-2000.0, -2000.0);
08:14:30:187;08:14:30:173;1447960468.01;(0.31573431491851806, 0.2506448533799913);26.354637146;1.0;4;0;0;0;0;();(-2000.0, -2000.0);
08:14:30:206;08:14:30:173;1447960468.01;(0.31573431491851806, 0.2506448533799913);26.354637146;1.0;4;0;0;0;0;();(-2000.0, -2000.0);
08:14:30:240;08:14:30:173;1447960468.01;(0.31573431491851806, 0.2506448533799913);26.354637146;1.0;4;0;0;0;0;();(-2000.0, -2000.0);
08:14:30:257;08:14:30:241;1447960468.08;(0.31590244770050047, 0.24994277954101562);26.6827373505;1.0;4;0;0;0;0;();(-2000.0, -2000.0);
08:14:30:273;08:14:30:241;1447960468.08;(0.31590244770050047, 0.24994277954101562);26.6827373505;1.0;4;0;0;0;0;();(-2000.0, -2000.0);
08:14:30:290;08:14:30:241;1447960468.08;(0.31590244770050047, 0.24994277954101562);26.6827373505;1.0;4;0;0;0;0;();(-2000.0, -2000.0);
08:14:30:306;08:14:30:241;1447960468.08;(0.31590244770050047, 0.24994277954101562);26.6827373505;1.0;4;0;0;0;0;();(-2000.0, -2000.0);
08:14:30:339;08:14:30:306;1447960468.14;(0.31594789028167725, 0.2506823221842448);26.2897853851;1.0;4;0;0;0;0;();(-2000.0, -2000.0);
08:14:30:356;08:14:30:306;1447960468.14;(0.31594789028167725, 0.2506823221842448);26.2897853851;1.0;4;0;0;0;0;();(-2000.0, -2000.0);
08:14:30:373;08:14:30:306;1447960468.14;(0.31594789028167725, 0.2506823221842448);26.2897853851;1.0;4;0;0;0;0;();(-2000.0, -2000.0);
08:14:30:391;08:14:30:373;1447960468.21;(0.31557865142822267, 0.2502555847167969);26.5017471313;1.0;4;0;0;0;0;();(-2000.0, -2000.0);
08:14:30:409;08:14:30:373;1447960468.21;(0.31557865142822267, 0.2502555847167969);26.5017471313;1.0;4;0;0;0;0;();(-2000.0, -2000.0);
08:14:30:426;08:14:30:373;1447960468.21;(0.31557865142822267, 0.2502555847167969);26.5017471313;1.0;4;0;0;0;0;();(-2000.0, -2000.0);
08:14:30:459;08:14:30:442;1447960468.28;(0.3156238317489624, 0.25016276041666663);26.3782691956;1.0;4;0;0;0;0;();(-2000.0, -2000.0);
08:14:30:475;08:14:30:442;1447960468.28;(0.3156238317489624, 0.25016276041666663);26.3782691956;1.0;4;0;0;0;0;();(-2000.0, -2000.0);
08:14:30:492;08:14:30:442;1447960468.28;(0.3156238317489624, 0.25016276041666663);26.3782691956;1.0;4;0;0;0;0;();(-2000.0, -2000.0);
08:14:30:509;08:14:30:505;1447960468.34;(0.3155545949935913, 0.25067494710286453);26.3294715881;1.0;4;0;0;0;0;();(-2000.0, -2000.0);
08:14:30:525;08:14:30:505;1447960468.34;(0.3155545949935913, 0.25067494710286453);26.3294715881;1.0;4;0;0;0;0;();(-2000.0, -2000.0);
08:14:30:558;08:14:30:505;1447960468.34;(0.3155545949935913, 0.25067494710286453);26.3294715881;1.0;4;0;0;0;0;();(-2000.0, -2000.0);
08:14:30:575;08:14:30:573;1447960468.41;(0.31563239097595214, 0.2503471374511719);26.0883312225;1.0;4;0;0;0;0;();(-2000.0, -2000.0);
08:14:30:597;08:14:30:573;1447960468.41;(0.31563239097595214, 0.2503471374511719);26.0883312225;1.0;4;0;0;0;0;();(-2000.0, -2000.0);
08:14:30:615;08:14:30:573;1447960468.41;(0.31563239097595214, 0.2503471374511719);26.0883312225;1.0;4;0;0;0;0;();(-2000.0, -2000.0);
08:14:30:633;08:14:30:573;1447960468.41;(0.31563239097595214, 0.2503471374511719);26.0883312225;1.0;4;0;0;0;0;();(-2000.0, -2000.0);
08:14:30:650;08:14:30:638;1447960468.48;(0.31589527130126954, 0.2501333448621962);26.3787231445;1.0;4;0;0;0;0;();(-2000.0, -2000.0);
08:14:30:666;08:14:30:638;1447960468.48;(0.31589527130126954, 0.2501333448621962);26.3787231445;1.0;4;0;0;0;0;();(-2000.0, -2000.0);
08:14:30:699;08:14:30:638;1447960468.48;(0.31589527130126954, 0.2501333448621962);26.3787231445;1.0;4;0;0;0;0;();(-2000.0, -2000.0);
08:14:30:716;08:14:30:706;1447960468.54;(0.315672492980957, 0.24982172648111978);26.0453529358;1.0;4;0;0;0;0;();(-2000.0, -2000.0);
08:14:30:732;08:14:30:706;1447960468.54;(0.315672492980957, 0.24982172648111978);26.0453529358;1.0;4;0;0;0;0;();(-2000.0, -2000.0);
08:14:30:749;08:14:30:706;1447960468.54;(0.315672492980957, 0.24982172648111978);26.0453529358;1.0;4;0;0;0;0;();(-2000.0, -2000.0);
08:14:30:765;08:14:30:706;1447960468.54;(0.315672492980957, 0.24982172648111978);26.0453529358;1.0;4;0;0;0;0;();(-2000.0, -2000.0);
08:14:30:803;08:14:30:774;1447960468.61;(0.3156407833099365, 0.2504836188422309);26.547794342;1.0;4;0;0;0;0;();(-2000.0, -2000.0);
08:14:30:822;08:14:30:774;1447960468.61;(0.3156407833099365, 0.2504836188422309);26.547794342;1.0;4;0;0;0;0;();(-2000.0, -2000.0);
08:14:30:838;08:14:30:838;1447960468.68;(0.3153294324874878, 0.2504709031846788);26.5582942963;1.0;4;0;0;0;0;();(-2000.0, -2000.0);
08:14:30:855;08:14:30:838;1447960468.68;(0.3153294324874878, 0.2504709031846788);26.5582942963;1.0;4;0;0;0;0;();(-2000.0, -2000.0);
08:14:30:872;08:14:30:838;1447960468.68;(0.3153294324874878, 0.2504709031846788);26.5582942963;1.0;4;0;0;0;0;();(-2000.0, -2000.0);
08:14:30:888;08:14:30:838;1447960468.68;(0.3153294324874878, 0.2504709031846788);26.5582942963;1.0;4;0;0;0;0;();(-2000.0, -2000.0);
08:14:30:905;08:14:30:905;1447960468.74;(0.31555378437042236, 0.25053753323025174);26.4350738525;1.0;4;0;0;0;0;();(-2000.0, -2000.0);
08:14:30:938;08:14:30:905;1447960468.74;(0.31555378437042236, 0.25053753323025174);26.4350738525;1.0;4;0;0;0;0;();(-2000.0, -2000.0);
08:14:30:955;08:14:30:905;1447960468.74;(0.31555378437042236, 0.25053753323025174);26.4350738525;1.0;4;0;0;0;0;();(-2000.0, -2000.0);
08:14:30:971;08:14:30:969;1447960468.81;(0.31553082466125487, 0.25015572441948786);26.9082260132;1.0;4;0;0;0;0;();(-2000.0, -2000.0);
08:14:30:988;08:14:30:969;1447960468.81;(0.31553082466125487, 0.25015572441948786);26.9082260132;1.0;4;0;0;0;0;();(-2000.0, -2000.0);
08:14:31:012;08:14:30:969;1447960468.81;(0.31553082466125487, 0.25015572441948786);26.9082260132;1.0;4;0;0;0;0;();(-2000.0, -2000.0);
08:14:31:028;08:14:30:969;1447960468.81;(0.31553082466125487, 0.25015572441948786);26.9082260132;1.0;4;0;0;0;0;();(-2000.0, -2000.0);
08:14:31:045;08:14:31:037;1447960468.88;(0.3156577110290527, 0.2506718953450521);26.2504291534;1.0;4;0;0;0;0;();(-2000.0, -2000.0);
08:14:31:079;08:14:31:037;1447960468.88;(0.3156577110290527, 0.2506718953450521);26.2504291534;1.0;4;0;0;0;0;();(-2000.0, -2000.0);
08:14:31:095;08:14:31:037;1447960468.88;(0.3156577110290527, 0.2506718953450521);26.2504291534;1.0;4;0;0;0;0;();(-2000.0, -2000.0);
08:14:31:111;08:14:31:106;1447960468.94;(0.3156320095062256, 0.2504989624023437);26.1265602112;1.0;4;0;0;0;0;();(-2000.0, -2000.0);
08:14:31:129;08:14:31:106;1447960468.94;(0.3156320095062256, 0.2504989624023437);26.1265602112;1.0;4;0;0;0;0;();(-2000.0, -2000.0);
08:14:31:146;08:14:31:106;1447960468.94;(0.3156320095062256, 0.2504989624023437);26.1265602112;1.0;4;0;0;0;0;();(-2000.0, -2000.0);
08:14:31:179;08:14:31:169;1447960469.01;(0.31563353538513184, 0.25014071994357634);26.4627799988;1.0;4;0;0;0;0;();(-2000.0, -2000.0);
08:14:31:196;08:14:31:169;1447960469.01;(0.31563353538513184, 0.25014071994357634);26.4627799988;1.0;4;0;0;0;0;();(-2000.0, -2000.0);
08:14:31:220;08:14:31:169;1447960469.01;(0.31563353538513184, 0.25014071994357634);26.4627799988;1.0;4;0;0;0;0;();(-2000.0, -2000.0);
08:14:31:239;08:14:31:238;1447960469.08;(0.31581265926361085, 0.25060916476779516);26.8270015717;1.0;4;0;0;0;0;();(-2000.0, -2000.0);
08:14:31:255;08:14:31:238;1447960469.08;(0.31581265926361085, 0.25060916476779516);26.8270015717;1.0;4;0;0;0;0;();(-2000.0, -2000.0);
08:14:31:272;08:14:31:238;1447960469.08;(0.31581265926361085, 0.25060916476779516);26.8270015717;1.0;4;0;0;0;0;();(-2000.0, -2000.0);
08:14:31:288;08:14:31:238;1447960469.08;(0.31581265926361085, 0.25060916476779516);26.8270015717;1.0;4;0;0;0;0;();(-2000.0, -2000.0);
08:14:31:305;08:14:31:301;1447960469.14;(0.31548008918762205, 0.2503768073187934);26.0344867706;1.0;4;0;0;0;0;();(-2000.0, -2000.0);
08:14:31:338;08:14:31:301;1447960469.14;(0.31548008918762205, 0.2503768073187934);26.0344867706;1.0;4;0;0;0;0;();(-2000.0, -2000.0);
08:14:31:356;08:14:31:301;1447960469.14;(0.31548008918762205, 0.2503768073187934);26.0344867706;1.0;4;0;0;0;0;();(-2000.0, -2000.0);
08:14:31:371;08:14:31:369;1447960469.21;(0.3156907558441162, 0.25043750339084203);26.2919197083;1.0;4;0;0;0;0;();(-2000.0, -2000.0);
08:14:31:388;08:14:31:369;1447960469.21;(0.3156907558441162, 0.25043750339084203);26.2919197083;1.0;4;0;0;0;0;();(-2000.0, -2000.0);
08:14:31:404;08:14:31:369;1447960469.21;(0.3156907558441162, 0.25043750339084203);26.2919197083;1.0;4;0;0;0;0;();(-2000.0, -2000.0);
08:14:31:426;08:14:31:369;1447960469.21;(0.3156907558441162, 0.25043750339084203);26.2919197083;1.0;4;0;0;0;0;();(-2000.0, -2000.0);
08:14:31:459;08:14:31:437;1447960469.28;(0.3157570123672485, 0.25025219387478304);27.013338089;1.0;4;0;0;0;0;();(-2000.0, -2000.0);
08:14:31:476;08:14:31:437;1447960469.28;(0.3157570123672485, 0.25025219387478304);27.013338089;1.0;4;0;0;0;0;();(-2000.0, -2000.0);
08:14:31:492;08:14:31:437;1447960469.28;(0.3157570123672485, 0.25025219387478304);27.013338089;1.0;4;0;0;0;0;();(-2000.0, -2000.0);
08:14:31:509;08:14:31:501;1447960469.34;(0.3156827449798584, 0.25023617214626737);26.6684970856;1.0;4;0;0;0;0;();(-2000.0, -2000.0);
08:14:31:526;08:14:31:501;1447960469.34;(0.3156827449798584, 0.25023617214626737);26.6684970856;1.0;4;0;0;0;0;();(-2000.0, -2000.0);
08:14:31:559;08:14:31:501;1447960469.34;(0.3156827449798584, 0.25023617214626737);26.6684970856;1.0;4;0;0;0;0;();(-2000.0, -2000.0);
08:14:31:575;08:14:31:569;1447960469.41;(0.3155554533004761, 0.25073971218532987);26.7097377777;1.0;4;0;0;0;0;();(-2000.0, -2000.0);
08:14:31:592;08:14:31:569;1447960469.41;(0.3155554533004761, 0.25073971218532987);26.7097377777;1.0;4;0;0;0;0;();(-2000.0, -2000.0);
08:14:31:608;08:14:31:569;1447960469.41;(0.3155554533004761, 0.25073971218532987);26.7097377777;1.0;4;0;0;0;0;();(-2000.0, -2000.0);
08:14:31:628;08:14:31:569;1447960469.41;(0.3155554533004761, 0.25073971218532987);26.7097377777;1.0;4;0;0;0;0;();(-2000.0, -2000.0);
08:14:31:646;08:14:31:633;1447960469.48;(0.3159198522567749, 0.2504010518391927);26.4875850677;1.0;4;0;0;0;0;();(-2000.0, -2000.0);
08:14:31:680;08:14:31:633;1447960469.48;(0.3159198522567749, 0.2504010518391927);26.4875850677;1.0;4;0;0;0;0;();(-2000.0, -2000.0);
08:14:31:696;08:14:31:633;1447960469.48;(0.3159198522567749, 0.2504010518391927);26.4875850677;1.0;4;0;0;0;0;();(-2000.0, -2000.0);
08:14:31:713;08:14:31:702;1447960469.54;(0.3157289743423462, 0.2500453525119357);26.5987262726;1.0;4;0;0;0;0;();(-2000.0, -2000.0);
08:14:31:729;08:14:31:702;1447960469.54;(0.3157289743423462, 0.2500453525119357);26.5987262726;1.0;4;0;0;0;0;();(-2000.0, -2000.0);
08:14:31:746;08:14:31:702;1447960469.54;(0.3157289743423462, 0.2500453525119357);26.5987262726;1.0;4;0;0;0;0;();(-2000.0, -2000.0);
08:14:31:779;08:14:31:769;1447960469.61;(0.3157083988189697, 0.2504146152072483);27.12682724;1.0;4;0;0;0;0;();(-2000.0, -2000.0);
08:14:31:795;08:14:31:769;1447960469.61;(0.3157083988189697, 0.2504146152072483);27.12682724;1.0;4;0;0;0;0;();(-2000.0, -2000.0);
08:14:31:812;08:14:31:769;1447960469.61;(0.3157083988189697, 0.2504146152072483);27.12682724;1.0;4;0;0;0;0;();(-2000.0, -2000.0);
08:14:31:836;08:14:31:833;1447960469.68;(0.3156238317489624, 0.2502249823676215);26.6159133911;1.0;4;0;0;0;0;();(-2000.0, -2000.0);
08:14:31:854;08:14:31:833;1447960469.68;(0.3156238317489624, 0.2502249823676215);26.6159133911;1.0;4;0;0;0;0;();(-2000.0, -2000.0);
08:14:31:871;08:14:31:833;1447960469.68;(0.3156238317489624, 0.2502249823676215);26.6159133911;1.0;4;0;0;0;0;();(-2000.0, -2000.0);
08:14:31:888;08:14:31:833;1447960469.68;(0.3156238317489624, 0.2502249823676215);26.6159133911;1.0;4;0;0;0;0;();(-2000.0, -2000.0);
08:14:31:904;08:14:31:901;1447960469.74;(0.3157133340835571, 0.2499607510036892);26.625995636;1.0;4;0;0;0;0;();(-2000.0, -2000.0);
08:14:31:937;08:14:31:901;1447960469.74;(0.3157133340835571, 0.2499607510036892);26.625995636;1.0;4;0;0;0;0;();(-2000.0, -2000.0);
08:14:31:954;08:14:31:901;1447960469.74;(0.3157133340835571, 0.2499607510036892);26.625995636;1.0;4;0;0;0;0;();(-2000.0, -2000.0);
08:14:31:971;08:14:31:966;1447960469.81;(0.31581480503082277, 0.25012936062282987);26.1592903137;1.0;4;0;0;0;0;();(-2000.0, -2000.0);
08:14:31:987;08:14:31:966;1447960469.81;(0.31581480503082277, 0.25012936062282987);26.1592903137;1.0;4;0;0;0;0;();(-2000.0, -2000.0);
08:14:32:020;08:14:31:966;1447960469.81;(0.31581480503082277, 0.25012936062282987);26.1592903137;1.0;4;0;0;0;0;();(-2000.0, -2000.0);
08:14:32:043;08:14:32:033;1447960469.88;(0.31573004722595216, 0.2506078932020399);26.4176082611;1.0;4;0;0;0;0;();(-2000.0, -2000.0);
08:14:32:062;08:14:32:033;1447960469.88;(0.31573004722595216, 0.2506078932020399);26.4176082611;1.0;4;0;0;0;0;();(-2000.0, -2000.0);
08:14:32:078;08:14:32:033;1447960469.88;(0.31573004722595216, 0.2506078932020399);26.4176082611;1.0;4;0;0;0;0;();(-2000.0, -2000.0);
08:14:32:095;08:14:32:033;1447960469.88;(0.31573004722595216, 0.2506078932020399);26.4176082611;1.0;4;0;0;0;0;();(-2000.0, -2000.0);
08:14:32:111;08:14:32:101;1447960469.94;(0.3158726215362549, 0.25051540798611116);26.2859954834;1.0;4;0;0;0;0;();(-2000.0, -2000.0);
08:14:32:128;08:14:32:101;1447960469.94;(0.3158726215362549, 0.25051540798611116);26.2859954834;1.0;4;0;0;0;0;();(-2000.0, -2000.0);
08:14:32:144;08:14:32:101;1447960469.94;(0.3158726215362549, 0.25051540798611116);26.2859954834;1.0;4;0;0;0;0;();(-2000.0, -2000.0);
08:14:32:178;08:14:32:165;1447960470.01;(0.3161140441894531, 0.2506887647840712);26.3084144592;1.0;4;0;0;0;0;();(-2000.0, -2000.0);
08:14:32:194;08:14:32:165;1447960470.01;(0.3161140441894531, 0.2506887647840712);26.3084144592;1.0;4;0;0;0;0;();(-2000.0, -2000.0);
08:14:32:211;08:14:32:165;1447960470.01;(0.3161140441894531, 0.2506887647840712);26.3084144592;1.0;4;0;0;0;0;();(-2000.0, -2000.0);
08:14:32:227;08:14:32:165;1447960470.01;(0.3161140441894531, 0.2506887647840712);26.3084144592;1.0;4;0;0;0;0;();(-2000.0, -2000.0);
08:14:32:250;08:14:32:233;1447960470.08;(0.31564090251922605, 0.25042215983072913);26.6324577332;1.0;4;0;0;0;0;();(-2000.0, -2000.0);
08:14:32:267;08:14:32:233;1447960470.08;(0.31564090251922605, 0.25042215983072913);26.6324577332;1.0;4;0;0;0;0;();(-2000.0, -2000.0);
08:14:32:300;08:14:32:297;1447960470.14;(0.3155083179473877, 0.2504070705837673);26.7113170624;1.0;4;0;0;0;0;();(-2000.0, -2000.0);
08:14:32:317;08:14:32:297;1447960470.14;(0.3155083179473877, 0.2504070705837673);26.7113170624;1.0;4;0;0;0;0;();(-2000.0, -2000.0);
08:14:32:333;08:14:32:297;1447960470.14;(0.3155083179473877, 0.2504070705837673);26.7113170624;1.0;4;0;0;0;0;();(-2000.0, -2000.0);
08:14:32:350;08:14:32:297;1447960470.14;(0.3155083179473877, 0.2504070705837673);26.7113170624;1.0;4;0;0;0;0;();(-2000.0, -2000.0);
08:14:32:366;08:14:32:365;1447960470.21;(0.315803074836731, 0.2503181457519531);26.4789886475;1.0;4;0;0;0;0;();(-2000.0, -2000.0);
08:14:32:399;08:14:32:365;1447960470.21;(0.315803074836731, 0.2503181457519531);26.4789886475;1.0;4;0;0;0;0;();(-2000.0, -2000.0);
08:14:32:416;08:14:32:365;1447960470.21;(0.315803074836731, 0.2503181457519531);26.4789886475;1.0;4;0;0;0;0;();(-2000.0, -2000.0);
08:14:32:433;08:14:32:365;1447960470.21;(0.315803074836731, 0.2503181457519531);26.4789886475;1.0;4;0;0;0;0;();(-2000.0, -2000.0);
08:14:32:456;08:14:32:433;1447960470.28;(0.3160709381103516, 0.2506927490234375);26.8188114166;1.0;6;0;0;0;0;();(-2000.0, -2000.0);
08:14:32:468;08:14:32:433;1447960470.28;(0.3160709381103516, 0.2506927490234375);26.8188114166;1.0;6;0;0;0;0;();(-2000.0, -2000.0);
08:14:32:486;08:14:32:433;1447960470.28;(0.3160709381103516, 0.2506927490234375);26.8188114166;1.0;6;0;0;0;0;();(-2000.0, -2000.0);
08:14:32:519;08:14:32:497;1447960470.34;(0.3159808874130249, 0.25038036770290795);27.3665924072;1.0;6;0;0;0;0;();(-2000.0, -2000.0);
08:14:32:535;08:14:32:497;1447960470.34;(0.3159808874130249, 0.25038036770290795);27.3665924072;1.0;6;0;0;0;0;();(-2000.0, -2000.0);
08:14:32:552;08:14:32:497;1447960470.34;(0.3159808874130249, 0.25038036770290795);27.3665924072;1.0;6;0;0;0;0;();(-2000.0, -2000.0);
08:14:32:569;08:14:32:565;1447960470.41;(0.3156633138656616, 0.25032204522026913);27.3389110565;1.0;6;0;0;0;0;();(-2000.0, -2000.0);
08:14:32:585;08:14:32:565;1447960470.41;(0.3156633138656616, 0.25032204522026913);27.3389110565;1.0;6;0;0;0;0;();(-2000.0, -2000.0);
08:14:32:619;08:14:32:565;1447960470.41;(0.3156633138656616, 0.25032204522026913);27.3389110565;1.0;6;0;0;0;0;();(-2000.0, -2000.0);
08:14:32:635;08:14:32:630;1447960470.48;(0.3156640291213989, 0.2506390041775174);27.1932048798;1.0;6;0;0;0;0;();(-2000.0, -2000.0);
08:14:32:653;08:14:32:630;1447960470.48;(0.3156640291213989, 0.2506390041775174);27.1932048798;1.0;6;0;0;0;0;();(-2000.0, -2000.0);
08:14:32:670;08:14:32:630;1447960470.48;(0.3156640291213989, 0.2506390041775174);27.1932048798;1.0;6;0;0;0;0;();(-2000.0, -2000.0);
08:14:32:687;08:14:32:630;1447960470.48;(0.3156640291213989, 0.2506390041775174);27.1932048798;1.0;6;0;0;0;0;();(-2000.0, -2000.0);
08:14:32:720;08:14:32:697;1447960470.54;(0.3156921863555908, 0.25028923882378473);26.7707023621;1.0;6;0;0;0;0;();(-2000.0, -2000.0);
08:14:32:736;08:14:32:697;1447960470.54;(0.3156921863555908, 0.25028923882378473);26.7707023621;1.0;6;0;0;0;0;();(-2000.0, -2000.0);
08:14:32:753;08:14:32:697;1447960470.54;(0.3156921863555908, 0.25028923882378473);26.7707023621;1.0;6;0;0;0;0;();(-2000.0, -2000.0);
08:14:32:769;08:14:32:765;1447960470.61;(0.31543142795562745, 0.24989251030815973);26.6021747589;1.0;6;0;0;0;0;();(-2000.0, -2000.0);
08:14:32:786;08:14:32:765;1447960470.61;(0.31543142795562745, 0.24989251030815973);26.6021747589;1.0;6;0;0;0;0;();(-2000.0, -2000.0);
08:14:32:819;08:14:32:765;1447960470.61;(0.31543142795562745, 0.24989251030815973);26.6021747589;1.0;6;0;0;0;0;();(-2000.0, -2000.0);
08:14:32:836;08:14:32:829;1447960470.68;(0.3157848834991455, 0.25043241712782116);26.3096103668;1.0;6;0;0;0;0;();(-2000.0, -2000.0);
08:14:32:852;08:14:32:829;1447960470.68;(0.3157848834991455, 0.25043241712782116);26.3096103668;1.0;6;0;0;0;0;();(-2000.0, -2000.0);
08:14:32:870;08:14:32:829;1447960470.68;(0.3157848834991455, 0.25043241712782116);26.3096103668;1.0;6;0;0;0;0;();(-2000.0, -2000.0);
08:14:32:887;08:14:32:829;1447960470.68;(0.3157848834991455, 0.25043241712782116);26.3096103668;1.0;6;0;0;0;0;();(-2000.0, -2000.0);
08:14:32:920;08:14:32:897;1447960470.74;(0.315639853477478, 0.2505518595377604);26.4373779297;1.0;6;0;0;0;0;();(-2000.0, -2000.0);
08:14:32:937;08:14:32:897;1447960470.74;(0.315639853477478, 0.2505518595377604);26.4373779297;1.0;6;0;0;0;0;();(-2000.0, -2000.0);
08:14:32:954;08:14:32:897;1447960470.74;(0.315639853477478, 0.2505518595377604);26.4373779297;1.0;6;0;0;0;0;();(-2000.0, -2000.0);
08:14:32:970;08:14:32:961;1447960470.81;(0.3162045478820801, 0.25068113538953996);26.6318149567;1.0;6;0;0;0;0;();(-2000.0, -2000.0);
08:14:32:987;08:14:32:961;1447960470.81;(0.3162045478820801, 0.25068113538953996);26.6318149567;1.0;6;0;0;0;0;();(-2000.0, -2000.0);
08:14:33:020;08:14:32:961;1447960470.81;(0.3162045478820801, 0.25068113538953996);26.6318149567;1.0;6;0;0;0;0;();(-2000.0, -2000.0);
08:14:33:036;08:14:33:029;1447960470.88;(0.31548776626586916, 0.2506566365559896);26.6139717102;1.0;6;0;0;0;0;();(-2000.0, -2000.0);
08:14:33:055;08:14:33:029;1447960470.88;(0.31548776626586916, 0.2506566365559896);26.6139717102;1.0;6;0;0;0;0;();(-2000.0, -2000.0);
08:14:33:072;08:14:33:029;1447960470.88;(0.31548776626586916, 0.2506566365559896);26.6139717102;1.0;6;0;0;0;0;();(-2000.0, -2000.0);
08:14:33:088;08:14:33:029;1447960470.88;(0.31548776626586916, 0.2506566365559896);26.6139717102;1.0;6;0;0;0;0;();(-2000.0, -2000.0);
08:14:33:105;08:14:33:097;1447960470.94;(0.31574795246124265, 0.2506934271918403);27.0314617157;1.0;6;0;0;0;0;();(-2000.0, -2000.0);
08:14:33:138;08:14:33:097;1447960470.94;(0.31574795246124265, 0.2506934271918403);27.0314617157;1.0;6;0;0;0;0;();(-2000.0, -2000.0);
08:14:33:155;08:14:33:097;1447960470.94;(0.31574795246124265, 0.2506934271918403);27.0314617157;1.0;6;0;0;0;0;();(-2000.0, -2000.0);
08:14:33:173;08:14:33:161;1447960471.01;(0.3155990123748779, 0.25053948296440975);26.0586795807;1.0;6;0;0;0;0;();(-2000.0, -2000.0);
08:14:33:190;08:14:33:161;1447960471.01;(0.3155990123748779, 0.25053948296440975);26.0586795807;1.0;6;0;0;0;0;();(-2000.0, -2000.0);
08:14:33:206;08:14:33:161;1447960471.01;(0.3155990123748779, 0.25053948296440975);26.0586795807;1.0;6;0;0;0;0;();(-2000.0, -2000.0);
08:14:33:239;08:14:33:229;1447960471.08;(0.3151861667633057, 0.25044360690646705);26.7605571747;1.0;6;0;0;0;0;();(-2000.0, -2000.0);
08:14:33:256;08:14:33:229;1447960471.08;(0.3151861667633057, 0.25044360690646705);26.7605571747;1.0;6;0;0;0;0;();(-2000.0, -2000.0);
08:14:33:273;08:14:33:229;1447960471.08;(0.3151861667633057, 0.25044360690646705);26.7605571747;1.0;6;0;0;0;0;();(-2000.0, -2000.0);
08:14:33:289;08:14:33:229;1447960471.08;(0.3151861667633057, 0.25044360690646705);26.7605571747;1.0;6;0;0;0;0;();(-2000.0, -2000.0);
08:14:33:306;08:14:33:293;1447960471.14;(0.3155080318450928, 0.2506585862901476);26.5547180176;1.0;6;0;0;0;0;();(-2000.0, -2000.0);
08:14:33:339;08:14:33:293;1447960471.14;(0.3155080318450928, 0.2506585862901476);26.5547180176;1.0;6;0;0;0;0;();(-2000.0, -2000.0);
08:14:33:355;08:14:33:293;1447960471.14;(0.3155080318450928, 0.2506585862901476);26.5547180176;1.0;6;0;0;0;0;();(-2000.0, -2000.0);
08:14:33:372;08:14:33:361;1447960471.21;(0.31559488773345945, 0.25028652615017366);26.6019439697;1.0;6;0;0;0;0;();(-2000.0, -2000.0);
08:14:33:388;08:14:33:361;1447960471.21;(0.31559488773345945, 0.25028652615017366);26.6019439697;1.0;6;0;0;0;0;();(-2000.0, -2000.0);
08:14:33:405;08:14:33:361;1447960471.21;(0.31559488773345945, 0.25028652615017366);26.6019439697;1.0;6;0;0;0;0;();(-2000.0, -2000.0);
08:14:33:438;08:14:33:425;1447960471.28;(0.31607506275177, 0.25061840481228304);26.7937107086;1.0;6;0;0;0;0;();(-2000.0, -2000.0);
08:14:33:455;08:14:33:425;1447960471.28;(0.31607506275177, 0.25061840481228304);26.7937107086;1.0;6;0;0;0;0;();(-2000.0, -2000.0);
08:14:33:471;08:14:33:425;1447960471.28;(0.31607506275177, 0.25061840481228304);26.7937107086;1.0;6;0;0;0;0;();(-2000.0, -2000.0);
08:14:33:488;08:14:33:425;1447960471.28;(0.31607506275177, 0.25061840481228304);26.7937107086;1.0;6;0;0;0;0;();(-2000.0, -2000.0);
08:14:33:504;08:14:33:493;1447960471.34;(0.3159158945083618, 0.25036544799804683);26.3852443695;1.0;6;0;0;0;0;();(-2000.0, -2000.0);
08:14:33:538;08:14:33:493;1447960471.34;(0.3159158945083618, 0.25036544799804683);26.3852443695;1.0;6;0;0;0;0;();(-2000.0, -2000.0);
08:14:33:554;08:14:33:493;1447960471.34;(0.3159158945083618, 0.25036544799804683);26.3852443695;1.0;6;0;0;0;0;();(-2000.0, -2000.0);
08:14:33:571;08:14:33:561;1447960471.41;(0.3158764600753784, 0.2504157172309027);26.4745292664;1.0;6;0;0;0;0;();(-2000.0, -2000.0);
08:14:33:591;08:14:33:561;1447960471.41;(0.3158764600753784, 0.2504157172309027);26.4745292664;1.0;6;0;0;0;0;();(-2000.0, -2000.0);
08:14:33:608;08:14:33:561;1447960471.41;(0.3158764600753784, 0.2504157172309027);26.4745292664;1.0;6;0;0;0;0;();(-2000.0, -2000.0);
08:14:33:624;08:14:33:561;1447960471.41;(0.3158764600753784, 0.2504157172309027);26.4745292664;1.0;6;0;0;0;0;();(-2000.0, -2000.0);
08:14:33:658;08:14:33:625;1447960471.48;(0.31605889797210696, 0.25037612915039065);26.717382431;1.0;6;0;0;0;0;();(-2000.0, -2000.0);
08:14:33:674;08:14:33:625;1447960471.48;(0.31605889797210696, 0.25037612915039065);26.717382431;1.0;6;0;0;0;0;();(-2000.0, -2000.0);
08:14:33:691;08:14:33:625;1447960471.48;(0.31605889797210696, 0.25037612915039065);26.717382431;1.0;6;0;0;0;0;();(-2000.0, -2000.0);
08:14:33:707;08:14:33:693;1447960471.54;(0.31605098247528074, 0.2502772013346354);26.2532730103;1.0;6;0;0;0;0;();(-2000.0, -2000.0);
08:14:33:724;08:14:33:693;1447960471.54;(0.31605098247528074, 0.2502772013346354);26.2532730103;1.0;6;0;0;0;0;();(-2000.0, -2000.0);
08:14:33:757;08:14:33:757;1447960471.61;(0.3155080318450928, 0.25039579603407114);26.4527511597;1.0;6;0;0;0;0;();(-2000.0, -2000.0);
08:14:33:774;08:14:33:757;1447960471.61;(0.3155080318450928, 0.25039579603407114);26.4527511597;1.0;6;0;0;0;0;();(-2000.0, -2000.0);
08:14:33:790;08:14:33:757;1447960471.61;(0.3155080318450928, 0.25039579603407114);26.4527511597;1.0;6;0;0;0;0;();(-2000.0, -2000.0);
08:14:33:807;08:14:33:757;1447960471.61;(0.3155080318450928, 0.25039579603407114);26.4527511597;1.0;6;0;0;0;0;();(-2000.0, -2000.0);
08:14:33:840;08:14:33:825;1447960471.68;(0.31571054458618164, 0.2502183702256945);26.7810058594;1.0;6;0;0;0;0;();(-2000.0, -2000.0);
08:14:33:857;08:14:33:825;1447960471.68;(0.31571054458618164, 0.2502183702256945);26.7810058594;1.0;6;0;0;0;0;();(-2000.0, -2000.0);
08:14:33:873;08:14:33:825;1447960471.68;(0.31571054458618164, 0.2502183702256945);26.7810058594;1.0;6;0;0;0;0;();(-2000.0, -2000.0);
08:14:33:890;08:14:33:825;1447960471.68;(0.31571054458618164, 0.2502183702256945);26.7810058594;1.0;6;0;0;0;0;();(-2000.0, -2000.0);
08:14:33:906;08:14:33:893;1447960471.74;(0.31586370468139646, 0.2503666347927518);26.5744152069;1.0;6;0;0;0;0;();(-2000.0, -2000.0);
08:14:33:939;08:14:33:893;1447960471.74;(0.31586370468139646, 0.2503666347927518);26.5744152069;1.0;6;0;0;0;0;();(-2000.0, -2000.0);
08:14:33:956;08:14:33:893;1447960471.74;(0.31586370468139646, 0.2503666347927518);26.5744152069;1.0;6;0;0;0;0;();(-2000.0, -2000.0);
08:14:33:972;08:14:33:957;1447960471.81;(0.31550581455230714, 0.25070495605468746);26.5379714966;1.0;6;0;0;0;0;();(-2000.0, -2000.0);
08:14:33:989;08:14:33:957;1447960471.81;(0.31550581455230714, 0.25070495605468746);26.5379714966;1.0;6;0;0;0;0;();(-2000.0, -2000.0);
08:14:34:006;08:14:33:957;1447960471.81;(0.31550581455230714, 0.25070495605468746);26.5379714966;1.0;6;0;0;0;0;();(-2000.0, -2000.0);
08:14:34:039;08:14:34:025;1447960471.88;(0.3159831762313843, 0.2502046373155382);26.93932724;1.0;6;0;0;0;0;();(-2000.0, -2000.0);
08:14:34:055;08:14:34:025;1447960471.88;(0.3159831762313843, 0.2502046373155382);26.93932724;1.0;6;0;0;0;0;();(-2000.0, -2000.0);
08:14:34:072;08:14:34:025;1447960471.88;(0.3159831762313843, 0.2502046373155382);26.93932724;1.0;6;0;0;0;0;();(-2000.0, -2000.0);
08:14:34:088;08:14:34:025;1447960471.88;(0.3159831762313843, 0.2502046373155382);26.93932724;1.0;6;0;0;0;0;();(-2000.0, -2000.0);
08:14:34:105;08:14:34:090;1447960471.94;(0.3154038906097412, 0.2503395080566406);26.6547336578;1.0;6;0;0;0;0;();(-2000.0, -2000.0);
08:14:34:138;08:14:34:090;1447960471.94;(0.3154038906097412, 0.2503395080566406);26.6547336578;1.0;6;0;0;0;0;();(-2000.0, -2000.0);
08:14:34:155;08:14:34:090;1447960471.94;(0.3154038906097412, 0.2503395080566406);26.6547336578;1.0;6;0;0;0;0;();(-2000.0, -2000.0);
08:14:34:171;08:14:34:157;1447960472.01;(0.31551241874694824, 0.250346204969618);26.6220836639;1.0;6;0;0;0;0;();(-2000.0, -2000.0);
08:14:34:188;08:14:34:157;1447960472.01;(0.31551241874694824, 0.250346204969618);26.6220836639;1.0;6;0;0;0;0;();(-2000.0, -2000.0);
08:14:34:204;08:14:34:157;1447960472.01;(0.31551241874694824, 0.250346204969618);26.6220836639;1.0;6;0;0;0;0;();(-2000.0, -2000.0);
08:14:34:238;08:14:34:226;1447960472.08;(0.3156780958175659, 0.2504925198025174);27.07721138;1.0;6;0;0;0;0;();(-2000.0, -2000.0);
08:14:34:254;08:14:34:226;1447960472.08;(0.3156780958175659, 0.2504925198025174);27.07721138;1.0;6;0;0;0;0;();(-2000.0, -2000.0);
08:14:34:271;08:14:34:226;1447960472.08;(0.3156780958175659, 0.2504925198025174);27.07721138;1.0;6;0;0;0;0;();(-2000.0, -2000.0);
08:14:34:287;08:14:34:226;1447960472.08;(0.3156780958175659, 0.2504925198025174);27.07721138;1.0;6;0;0;0;0;();(-2000.0, -2000.0);
08:14:34:320;08:14:34:289;1447960472.14;(0.3157420873641968, 0.25037189059787324);26.1784114838;1.0;6;0;0;0;0;();(-2000.0, -2000.0);
08:14:34:338;08:14:34:289;1447960472.14;(0.3157420873641968, 0.25037189059787324);26.1784114838;1.0;6;0;0;0;0;();(-2000.0, -2000.0);
08:14:34:354;08:14:34:289;1447960472.14;(0.3157420873641968, 0.25037189059787324);26.1784114838;1.0;6;0;0;0;0;();(-2000.0, -2000.0);
08:14:34:371;08:14:34:357;1447960472.21;(0.3155609846115112, 0.25038418240017357);26.2025318146;1.0;6;0;0;0;0;();(-2000.0, -2000.0);
08:14:34:387;08:14:34:357;1447960472.21;(0.3155609846115112, 0.25038418240017357);26.2025318146;1.0;6;0;0;0;0;();(-2000.0, -2000.0);
08:14:34:404;08:14:34:357;1447960472.21;(0.3155609846115112, 0.25038418240017357);26.2025318146;1.0;6;0;0;0;0;();(-2000.0, -2000.0);
08:14:34:437;08:14:34:421;1447960472.28;(0.3154998540878296, 0.25005518595377607);26.2736988068;1.0;6;0;0;0;0;();(-2000.0, -2000.0);
08:14:34:454;08:14:34:421;1447960472.28;(0.3154998540878296, 0.25005518595377607);26.2736988068;1.0;6;0;0;0;0;();(-2000.0, -2000.0);
08:14:34:470;08:14:34:421;1447960472.28;(0.3154998540878296, 0.25005518595377607);26.2736988068;1.0;6;0;0;0;0;();(-2000.0, -2000.0);
08:14:34:487;08:14:34:421;1447960472.28;(0.3154998540878296, 0.25005518595377607);26.2736988068;1.0;6;0;0;0;0;();(-2000.0, -2000.0);
08:14:34:520;08:14:34:489;1447960472.34;(0.31551988124847413, 0.24992429945203998);27.2827892303;1.0;6;0;0;0;0;();(-2000.0, -2000.0);
08:14:34:539;08:14:34:489;1447960472.34;(0.31551988124847413, 0.24992429945203998);27.2827892303;1.0;6;0;0;0;0;();(-2000.0, -2000.0);
08:14:34:556;08:14:34:489;1447960472.34;(0.31551988124847413, 0.24992429945203998);27.2827892303;1.0;6;0;0;0;0;();(-2000.0, -2000.0);
08:14:34:572;08:14:34:557;1447960472.41;(0.31559484004974364, 0.25053753323025174);26.6766166687;1.0;6;0;0;0;0;();(-2000.0, -2000.0);
08:14:34:589;08:14:34:557;1447960472.41;(0.31559484004974364, 0.25053753323025174);26.6766166687;1.0;6;0;0;0;0;();(-2000.0, -2000.0);
08:14:34:606;08:14:34:557;1447960472.41;(0.31559484004974364, 0.25053753323025174);26.6766166687;1.0;6;0;0;0;0;();(-2000.0, -2000.0);
08:14:34:639;08:14:34:621;1447960472.48;(0.3153435230255127, 0.25001458062065973);26.9656925201;1.0;6;0;0;0;0;();(-2000.0, -2000.0);
08:14:34:655;08:14:34:621;1447960472.48;(0.3153435230255127, 0.25001458062065973);26.9656925201;1.0;6;0;0;0;0;();(-2000.0, -2000.0);
08:14:34:672;08:14:34:621;1447960472.48;(0.3153435230255127, 0.25001458062065973);26.9656925201;1.0;6;0;0;0;0;();(-2000.0, -2000.0);
08:14:34:688;08:14:34:621;1447960472.48;(0.3153435230255127, 0.25001458062065973);26.9656925201;1.0;6;0;0;0;0;();(-2000.0, -2000.0);
08:14:34:705;08:14:34:689;1447960472.54;(0.3154507875442505, 0.250063239203559);26.5793876648;1.0;6;0;0;0;0;();(-2000.0, -2000.0);
08:14:34:740;08:14:34:689;1447960472.54;(0.3154507875442505, 0.250063239203559);26.5793876648;1.0;6;0;0;0;0;();(-2000.0, -2000.0);
08:14:34:757;08:14:34:752;1447960472.61;(0.3152979612350464, 0.25038214789496527);26.9050159454;1.0;6;0;0;0;0;();(-2000.0, -2000.0);
08:14:34:783;08:14:34:752;1447960472.61;(0.3152979612350464, 0.25038214789496527);26.9050159454;1.0;6;0;0;0;0;();(-2000.0, -2000.0);
08:14:34:800;08:14:34:752;1447960472.61;(0.3152979612350464, 0.25038214789496527);26.9050159454;1.0;6;0;0;0;0;();(-2000.0, -2000.0);
08:14:34:816;08:14:34:752;1447960472.61;(0.3152979612350464, 0.25038214789496527);26.9050159454;1.0;6;0;0;0;0;();(-2000.0, -2000.0);
08:14:34:833;08:14:34:820;1447960472.68;(0.3157843828201294, 0.2501106262207031);26.7708625793;1.0;6;0;0;0;0;();(-2000.0, -2000.0);
08:14:34:850;08:14:34:820;1447960472.68;(0.3157843828201294, 0.2501106262207031);26.7708625793;1.0;6;0;0;0;0;();(-2000.0, -2000.0);
08:14:34:866;08:14:34:820;1447960472.68;(0.3157843828201294, 0.2501106262207031);26.7708625793;1.0;6;0;0;0;0;();(-2000.0, -2000.0);
08:14:34:899;08:14:34:889;1447960472.74;(0.3153786897659302, 0.25010596381293404);26.7531337738;1.0;6;0;0;0;0;();(-2000.0, -2000.0);
08:14:34:916;08:14:34:889;1447960472.74;(0.3153786897659302, 0.25010596381293404);26.7531337738;1.0;6;0;0;0;0;();(-2000.0, -2000.0);
08:14:34:932;08:14:34:889;1447960472.74;(0.3153786897659302, 0.25010596381293404);26.7531337738;1.0;6;0;0;0;0;();(-2000.0, -2000.0);
08:14:34:949;08:14:34:889;1447960472.74;(0.3153786897659302, 0.25010596381293404);26.7531337738;1.0;6;0;0;0;0;();(-2000.0, -2000.0);
08:14:34:966;08:14:34:953;1447960472.81;(0.31538345813751223, 0.2503289116753472);26.8518543243;1.0;6;0;0;0;0;();(-2000.0, -2000.0);
08:14:34:999;08:14:34:953;1447960472.81;(0.31538345813751223, 0.2503289116753472);26.8518543243;1.0;6;0;0;0;0;();(-2000.0, -2000.0);
08:14:35:015;08:14:34:953;1447960472.81;(0.31538345813751223, 0.2503289116753472);26.8518543243;1.0;6;0;0;0;0;();(-2000.0, -2000.0);
08:14:35:032;08:14:35:021;1447960472.88;(0.3156258583068848, 0.2504093594021267);26.2370223999;1.0;6;0;0;0;0;();(-2000.0, -2000.0);
08:14:35:048;08:14:35:021;1447960472.88;(0.3156258583068848, 0.2504093594021267);26.2370223999;1.0;6;0;0;0;0;();(-2000.0, -2000.0);
08:14:35:065;08:14:35:021;1447960472.88;(0.3156258583068848, 0.2504093594021267);26.2370223999;1.0;6;0;0;0;0;();(-2000.0, -2000.0);
08:14:35:098;08:14:35:085;1447960472.94;(0.3155867576599121, 0.25008392333984375);26.7047557831;1.0;6;0;0;0;0;();(-2000.0, -2000.0);
08:14:35:116;08:14:35:085;1447960472.94;(0.3155867576599121, 0.25008392333984375);26.7047557831;1.0;6;0;0;0;0;();(-2000.0, -2000.0);
08:14:35:131;08:14:35:085;1447960472.94;(0.3155867576599121, 0.25008392333984375);26.7047557831;1.0;6;0;0;0;0;();(-2000.0, -2000.0);
08:14:35:148;08:14:35:085;1447960472.94;(0.3155867576599121, 0.25008392333984375);26.7047557831;1.0;6;0;0;0;0;();(-2000.0, -2000.0);
08:14:35:164;08:14:35:153;1447960473.01;(0.31590235233306885, 0.2502396477593316);26.8320331573;1.0;6;0;0;0;0;();(-2000.0, -2000.0);
08:14:35:198;08:14:35:153;1447960473.01;(0.31590235233306885, 0.2502396477593316);26.8320331573;1.0;6;0;0;0;0;();(-2000.0, -2000.0);
08:14:35:214;08:14:35:153;1447960473.01;(0.31590235233306885, 0.2502396477593316);26.8320331573;1.0;6;0;0;0;0;();(-2000.0, -2000.0);
08:14:35:231;08:14:35:221;1447960473.08;(0.31559250354766843, 0.2503753662109375);26.4164390564;1.0;6;0;0;0;0;();(-2000.0, -2000.0);
08:14:35:247;08:14:35:221;1447960473.08;(0.31559250354766843, 0.2503753662109375);26.4164390564;1.0;6;0;0;0;0;();(-2000.0, -2000.0);
08:14:35:264;08:14:35:221;1447960473.08;(0.31559250354766843, 0.2503753662109375);26.4164390564;1.0;6;0;0;0;0;();(-2000.0, -2000.0);
08:14:35:297;08:14:35:285;1447960473.14;(0.3156643629074097, 0.25029101901584205);26.7831230164;1.0;6;0;0;0;0;();(-2000.0, -2000.0);
08:14:35:314;08:14:35:285;1447960473.14;(0.3156643629074097, 0.25029101901584205);26.7831230164;1.0;6;0;0;0;0;();(-2000.0, -2000.0);
08:14:35:330;08:14:35:285;1447960473.14;(0.3156643629074097, 0.25029101901584205);26.7831230164;1.0;6;0;0;0;0;();(-2000.0, -2000.0);
08:14:35:347;08:14:35:285;1447960473.14;(0.3156643629074097, 0.25029101901584205);26.7831230164;1.0;6;0;0;0;0;();(-2000.0, -2000.0);
08:14:35:380;08:14:35:353;1447960473.21;(0.3154607772827148, 0.2504733615451389);26.7222270966;1.0;6;0;0;0;0;();(-2000.0, -2000.0);
08:14:35:396;08:14:35:353;1447960473.21;(0.3154607772827148, 0.2504733615451389);26.7222270966;1.0;6;0;0;0;0;();(-2000.0, -2000.0);
08:14:35:413;08:14:35:353;1447960473.21;(0.3154607772827148, 0.2504733615451389);26.7222270966;1.0;6;0;0;0;0;();(-2000.0, -2000.0);
08:14:35:430;08:14:35:417;1447960473.28;(0.31568107604980467, 0.2506107754177518);27.0267944336;1.0;6;0;0;0;0;();(-2000.0, -2000.0);
08:14:35:446;08:14:35:417;1447960473.28;(0.31568107604980467, 0.2506107754177518);27.0267944336;1.0;6;0;0;0;0;();(-2000.0, -2000.0);
08:14:35:479;08:14:35:417;1447960473.28;(0.31568107604980467, 0.2506107754177518);27.0267944336;1.0;6;0;0;0;0;();(-2000.0, -2000.0);
08:14:35:496;08:14:35:485;1447960473.34;(0.31573383808135985, 0.2508305867513021);25.9787120819;1.0;6;0;0;0;0;();(-2000.0, -2000.0);
08:14:35:512;08:14:35:485;1447960473.34;(0.31573383808135985, 0.2508305867513021);25.9787120819;1.0;6;0;0;0;0;();(-2000.0, -2000.0);
08:14:35:529;08:14:35:485;1447960473.34;(0.31573383808135985, 0.2508305867513021);25.9787120819;1.0;6;0;0;0;0;();(-2000.0, -2000.0);
08:14:35:545;08:14:35:485;1447960473.34;(0.31573383808135985, 0.2508305867513021);25.9787120819;1.0;6;0;0;0;0;();(-2000.0, -2000.0);
08:14:35:579;08:14:35:552;1447960473.41;(0.3157559633255005, 0.2503250969780816);26.4481544495;1.0;6;0;0;0;0;();(-2000.0, -2000.0);
08:14:35:595;08:14:35:552;1447960473.41;(0.3157559633255005, 0.2503250969780816);26.4481544495;1.0;6;0;0;0;0;();(-2000.0, -2000.0);
08:14:35:612;08:14:35:552;1447960473.41;(0.3157559633255005, 0.2503250969780816);26.4481544495;1.0;6;0;0;0;0;();(-2000.0, -2000.0);
08:14:35:628;08:14:35:617;1447960473.48;(0.3156406879425049, 0.25056389702690973);26.324054718;1.0;6;0;0;0;0;();(-2000.0, -2000.0);
08:14:35:645;08:14:35:617;1447960473.48;(0.3156406879425049, 0.25056389702690973);26.324054718;1.0;6;0;0;0;0;();(-2000.0, -2000.0);
08:14:35:678;08:14:35:617;1447960473.48;(0.3156406879425049, 0.25056389702690973);26.324054718;1.0;6;0;0;0;0;();(-2000.0, -2000.0);
08:14:35:695;08:14:35:685;1447960473.54;(0.31583189964294434, 0.250583733452691);26.2584228516;1.0;6;0;0;0;0;();(-2000.0, -2000.0);
08:14:35:711;08:14:35:685;1447960473.54;(0.31583189964294434, 0.250583733452691);26.2584228516;1.0;6;0;0;0;0;();(-2000.0, -2000.0);
08:14:35:728;08:14:35:685;1447960473.54;(0.31583189964294434, 0.250583733452691);26.2584228516;1.0;6;0;0;0;0;();(-2000.0, -2000.0);
08:14:35:744;08:14:35:685;1447960473.54;(0.31583189964294434, 0.250583733452691);26.2584228516;1.0;6;0;0;0;0;();(-2000.0, -2000.0);
08:14:35:777;08:14:35:749;1447960473.61;(0.3155856132507324, 0.250030517578125);26.8981513977;0.994583191236;6;0;0;0;0;();(-2000.0, -2000.0);
08:14:35:794;08:14:35:749;1447960473.61;(0.3155856132507324, 0.250030517578125);26.8981513977;0.994583191236;6;0;0;0;0;();(-2000.0, -2000.0);
08:14:35:810;08:14:35:749;1447960473.61;(0.3155856132507324, 0.250030517578125);26.8981513977;0.994583191236;6;0;0;0;0;();(-2000.0, -2000.0);
08:14:35:827;08:14:35:817;1447960473.68;(0.3157002925872803, 0.2504854838053385);26.6135902405;1.0;6;0;0;0;0;();(-2000.0, -2000.0);
08:14:35:860;08:14:35:817;1447960473.68;(0.3157002925872803, 0.2504854838053385);26.6135902405;1.0;6;0;0;0;0;();(-2000.0, -2000.0);
08:14:35:878;08:14:35:817;1447960473.68;(0.3157002925872803, 0.2504854838053385);26.6135902405;1.0;6;0;0;0;0;();(-2000.0, -2000.0);
08:14:35:893;08:14:35:885;1447960473.74;(0.31569724082946776, 0.25090755886501737);26.5734176636;1.0;6;0;0;0;0;();(-2000.0, -2000.0);
08:14:35:910;08:14:35:885;1447960473.74;(0.31569724082946776, 0.25090755886501737);26.5734176636;1.0;6;0;0;0;0;();(-2000.0, -2000.0);
08:14:35:926;08:14:35:885;1447960473.74;(0.31569724082946776, 0.25090755886501737);26.5734176636;1.0;6;0;0;0;0;();(-2000.0, -2000.0);
08:14:35:944;08:14:35:885;1447960473.74;(0.31569724082946776, 0.25090755886501737);26.5734176636;1.0;6;0;0;0;0;();(-2000.0, -2000.0);
08:14:35:978;08:14:35:949;1447960473.81;(0.3156381368637085, 0.25032585991753475);26.5603618622;1.0;6;0;0;0;0;();(-2000.0, -2000.0);
08:14:36:001;08:14:35:949;1447960473.81;(0.3156381368637085, 0.25032585991753475);26.5603618622;1.0;6;0;0;0;0;();(-2000.0, -2000.0);
08:14:36:017;08:14:36:017;1447960473.88;(0.3151525974273682, 0.25026304456922743);26.8341293335;1.0;6;0;0;0;0;();(-2000.0, -2000.0);
08:14:36:034;08:14:36:017;1447960473.88;(0.3151525974273682, 0.25026304456922743);26.8341293335;1.0;6;0;0;0;0;();(-2000.0, -2000.0);
08:14:36:050;08:14:36:017;1447960473.88;(0.3151525974273682, 0.25026304456922743);26.8341293335;1.0;6;0;0;0;0;();(-2000.0, -2000.0);
08:14:36:067;08:14:36:017;1447960473.88;(0.3151525974273682, 0.25026304456922743);26.8341293335;1.0;6;0;0;0;0;();(-2000.0, -2000.0);
08:14:36:100;08:14:36:081;1447960473.94;(0.3155739545822144, 0.2503790961371528);26.715089798;1.0;6;0;0;0;0;();(-2000.0, -2000.0);
