%Timestamp,timestamp_write;timestamp_gotpupil;eyetrackertime;norm_pos;diameter;confidence;timestamp_gotbitdata;CRC;SEQ;AnalogOutp1;AnalogOutp2;AnalogOutp3;AnalogOutp4;AnalogOutp5;AnalogOutp6;DigitalOutp1;DigitalOutp2;igitalOutp3;DigitalOutp4;nplanes;lastaction;lastactiondetails;positivescore;negativescore;targetpositions;collision_point
05:11:28:461;;;;;;;;;;;;;;1447949486.11;(0.40013368129730226, 0.29946967230902777);26.8023548126;1.0;2;0;0;0;0;();(0.0, 0.0);
05:11:28:474;;;;;;;;;;;;;;05:11:28:464;1447949486.17;(0.40019707679748534, 0.299429448445638);26.6395206451;1.0;2;0;0;0;0;();(-2000.0, -2000.0);
05:11:28:478;;;;;;;;;;;;;;05:11:28:464;1447949486.17;(0.40019707679748534, 0.299429448445638);26.6395206451;1.0;2;0;0;0;0;();(-2000.0, -2000.0);
05:11:28:483;;;;;;;;;;;;;;05:11:28:464;1447949486.17;(0.40019707679748534, 0.299429448445638);26.6395206451;1.0;2;0;0;0;0;();(-2000.0, -2000.0);
05:11:28:487;;;;;;;;;;;;;;05:11:28:464;1447949486.17;(0.40019707679748534, 0.299429448445638);26.6395206451;1.0;2;0;0;0;0;();(-2000.0, -2000.0);
05:11:28:491;;;;;;;;;;;;;;05:11:28:464;1447949486.17;(0.40019707679748534, 0.299429448445638);26.6395206451;1.0;2;0;0;0;0;();(-2000.0, -2000.0);
05:11:28:495;;;;;;;;;;;;;;05:11:28:464;1447949486.17;(0.40019707679748534, 0.299429448445638);26.6395206451;1.0;2;0;0;0;0;();(-2000.0, -2000.0);
05:11:28:499;;;;;;;;;;;;;;05:11:28:464;1447949486.17;(0.40019707679748534, 0.299429448445638);26.6395206451;1.0;2;0;0;0;0;();(-2000.0, -2000.0);
05:11:28:503;;;;;;;;;;;;;;05:11:28:464;1447949486.17;(0.40019707679748534, 0.299429448445638);26.6395206451;1.0;2;0;0;0;0;();(-2000.0, -2000.0);
05:11:28:507;;;;;;;;;;;;;;05:11:28:464;1447949486.17;(0.40019707679748534, 0.299429448445638);26.6395206451;1.0;2;0;0;0;0;();(-2000.0, -2000.0);
05:11:28:511;;;;;;;;;;;;;;05:11:28:464;1447949486.17;(0.40019707679748534, 0.299429448445638);26.6395206451;1.0;2;0;0;0;0;();(-2000.0, -2000.0);
05:11:28:515;;;;;;;;;;;;;;05:11:28:464;1447949486.17;(0.40019707679748534, 0.299429448445638);26.6395206451;1.0;2;0;0;0;0;();(-2000.0, -2000.0);
05:11:28:518;;;;;;;;;;;;;;05:11:28:464;1447949486.17;(0.40019707679748534, 0.299429448445638);26.6395206451;1.0;2;0;0;0;0;();(-2000.0, -2000.0);
05:11:28:520;;;;;;;;;;;;;;05:11:28:464;1447949486.17;(0.40019707679748534, 0.299429448445638);26.6395206451;1.0;2;0;0;0;0;();(-2000.0, -2000.0);
05:11:28:523;;;;;;;;;;;;;;05:11:28:464;1447949486.17;(0.40019707679748534, 0.299429448445638);26.6395206451;1.0;2;0;0;0;0;();(-2000.0, -2000.0);
05:11:28:527;;;;;;;;;;;;;;05:11:28:464;1447949486.17;(0.40019707679748534, 0.299429448445638);26.6395206451;1.0;2;0;0;0;0;();(-2000.0, -2000.0);
05:11:28:734;;;;;;;;;;;;;;05:11:28:715;1447949486.44;(0.40042617321014407, 0.2992358737521701);26.4714393616;1.0;2;0;0;0;0;();(-2000.0, -2000.0);
05:11:28:736;;;;;;;;;;;;;;05:11:28:715;1447949486.44;(0.40042617321014407, 0.2992358737521701);26.4714393616;1.0;2;0;0;0;0;();(-2000.0, -2000.0);
05:11:28:739;;;;;;;;;;;;;;05:11:28:715;1447949486.44;(0.40042617321014407, 0.2992358737521701);26.4714393616;1.0;2;0;0;0;0;();(-2000.0, -2000.0);
05:11:28:741;;;;;;;;;;;;;;05:11:28:715;1447949486.44;(0.40042617321014407, 0.2992358737521701);26.4714393616;1.0;2;0;0;0;0;();(-2000.0, -2000.0);
05:11:28:744;;;;;;;;;;;;;;05:11:28:715;1447949486.44;(0.40042617321014407, 0.2992358737521701);26.4714393616;1.0;2;0;0;0;0;();(-2000.0, -2000.0);
05:11:28:746;;;;;;;;;;;;;;05:11:28:715;1447949486.44;(0.40042617321014407, 0.2992358737521701);26.4714393616;1.0;2;0;0;0;0;();(-2000.0, -2000.0);
05:11:28:748;;;;;;;;;;;;;;05:11:28:715;1447949486.44;(0.40042617321014407, 0.2992358737521701);26.4714393616;1.0;2;0;0;0;0;();(-2000.0, -2000.0);
05:11:28:749;;;;;;;;;;;;;;05:11:28:715;1447949486.44;(0.40042617321014407, 0.2992358737521701);26.4714393616;1.0;2;0;0;0;0;();(-2000.0, -2000.0);
05:11:28:751;;;;;;;;;;;;;;05:11:28:715;1447949486.44;(0.40042617321014407, 0.2992358737521701);26.4714393616;1.0;2;0;0;0;0;();(-2000.0, -2000.0);
05:11:28:753;;;;;;;;;;;;;;05:11:28:715;1447949486.44;(0.40042617321014407, 0.2992358737521701);26.4714393616;1.0;2;0;0;0;0;();(-2000.0, -2000.0);
05:11:28:755;;;;;;;;;;;;;;05:11:28:715;1447949486.44;(0.40042617321014407, 0.2992358737521701);26.4714393616;1.0;2;0;0;0;0;();(-2000.0, -2000.0);
05:11:28:756;;;;;;;;;;;;;;05:11:28:715;1447949486.44;(0.40042617321014407, 0.2992358737521701);26.4714393616;1.0;2;0;0;0;0;();(-2000.0, -2000.0);
05:11:28:758;;;;;;;;;;;;;;05:11:28:715;1447949486.44;(0.40042617321014407, 0.2992358737521701);26.4714393616;1.0;2;0;0;0;0;();(-2000.0, -2000.0);
05:11:28:760;;;;;;;;;;;;;;05:11:28:715;1447949486.44;(0.40042617321014407, 0.2992358737521701);26.4714393616;1.0;2;0;0;0;0;();(-2000.0, -2000.0);
05:11:31:933;;;;;;;;;;;;;;05:11:31:867;1447949489.57;(0.40023205280303953, 0.29974492390950525);27.0827674866;1.0;2;0;0;0;0;();(-2000.0, -2000.0);
05:11:31:934;;;;;;;;;;;;;;05:11:31:867;1447949489.57;(0.40023205280303953, 0.29974492390950525);27.0827674866;1.0;2;0;0;0;0;();(-2000.0, -2000.0);
05:11:31:937;;;;;;;;;;;;;;05:11:31:867;1447949489.57;(0.40023205280303953, 0.29974492390950525);27.0827674866;1.0;2;0;0;0;0;();(-2000.0, -2000.0);
05:11:31:939;;;;;;;;;;;;;;05:11:31:867;1447949489.57;(0.40023205280303953, 0.29974492390950525);27.0827674866;1.0;2;0;0;0;0;();(-2000.0, -2000.0);
05:11:31:942;;;;;;;;;;;;;;05:11:31:867;1447949489.57;(0.40023205280303953, 0.29974492390950525);27.0827674866;1.0;2;0;0;0;0;();(-2000.0, -2000.0);
05:11:31:945;;;;;;;;;;;;;;05:11:31:867;1447949489.57;(0.40023205280303953, 0.29974492390950525);27.0827674866;1.0;2;0;0;0;0;();(-2000.0, -2000.0);
05:11:31:948;;;;;;;;;;;;;;05:11:31:947;1447949489.64;(0.40012316703796386, 0.2997779846191406);26.5982666016;1.0;2;0;0;0;0;();(-2000.0, -2000.0);
05:11:31:950;;;;;;;;;;;;;;05:11:31:947;1447949489.64;(0.40012316703796386, 0.2997779846191406);26.5982666016;1.0;2;0;0;0;0;();(-2000.0, -2000.0);
05:11:31:953;;;;;;;;;;;;;;05:11:31:947;1447949489.64;(0.40012316703796386, 0.2997779846191406);26.5982666016;1.0;2;0;0;0;0;();(-2000.0, -2000.0);
05:11:31:955;;;;;;;;;;;;;;05:11:31:947;1447949489.64;(0.40012316703796386, 0.2997779846191406);26.5982666016;1.0;2;0;0;0;0;();(-2000.0, -2000.0);
05:11:31:957;;;;;;;;;;;;;;05:11:31:947;1447949489.64;(0.40012316703796386, 0.2997779846191406);26.5982666016;1.0;2;0;0;0;0;();(-2000.0, -2000.0);
05:11:31:959;;;;;;;;;;;;;;05:11:31:947;1447949489.64;(0.40012316703796386, 0.2997779846191406);26.5982666016;1.0;2;0;0;0;0;();(-2000.0, -2000.0);
05:11:31:961;;;;;;;;;;;;;;05:11:31:947;1447949489.64;(0.40012316703796386, 0.2997779846191406);26.5982666016;1.0;2;0;0;0;0;();(-2000.0, -2000.0);
05:11:31:963;;;;;;;;;;;;;;05:11:31:947;1447949489.64;(0.40012316703796386, 0.2997779846191406);26.5982666016;1.0;2;0;0;0;0;();(-2000.0, -2000.0);
05:11:31:964;;;;;;;;;;;;;;05:11:31:947;1447949489.64;(0.40012316703796386, 0.2997779846191406);26.5982666016;1.0;2;0;0;0;0;();(-2000.0, -2000.0);
05:11:31:966;;;;;;;;;;;;;;05:11:31:947;1447949489.64;(0.40012316703796386, 0.2997779846191406);26.5982666016;1.0;2;0;0;0;0;();(-2000.0, -2000.0);
05:11:31:967;;;;;;;;;;;;;;05:11:31:947;1447949489.64;(0.40012316703796386, 0.2997779846191406);26.5982666016;1.0;2;0;0;0;0;();(-2000.0, -2000.0);
05:11:31:972;;;;;;;;;;;;;;05:11:31:947;1447949489.64;(0.40012316703796386, 0.2997779846191406);26.5982666016;1.0;2;0;0;0;0;();(-2000.0, -2000.0);
05:11:31:988;;;;;;;;;;;;;;05:11:31:947;1447949489.64;(0.40012316703796386, 0.2997779846191406);26.5982666016;1.0;2;0;0;0;0;();(-2000.0, -2000.0);
05:11:32:005;;;;;;;;;;;;;;05:11:31:991;1447949489.71;(0.4002958059310913, 0.2996238708496094);26.5067176819;1.0;2;0;0;0;0;();(-2000.0, -2000.0);
05:11:32:023;;;;;;;;;;;;;;05:11:31:991;1447949489.71;(0.4002958059310913, 0.2996238708496094);26.5067176819;1.0;2;0;0;0;0;();(-2000.0, -2000.0);
05:11:32:038;;;;;;;;;;;;;;05:11:31:991;1447949489.71;(0.4002958059310913, 0.2996238708496094);26.5067176819;1.0;2;0;0;0;0;();(-2000.0, -2000.0);
05:11:32:055;;;;;;;;;;;;;;05:11:31:991;1447949489.71;(0.4002958059310913, 0.2996238708496094);26.5067176819;1.0;2;0;0;0;0;();(-2000.0, -2000.0);
05:11:32:088;;;;;;;;;;;;;;05:11:32:075;1447949489.77;(0.40030865669250487, 0.29955088297526045);27.3499565125;1.0;2;0;0;0;0;();(-2000.0, -2000.0);
05:11:32:105;;;;;;;;;;;;;;05:11:32:075;1447949489.77;(0.40030865669250487, 0.29955088297526045);27.3499565125;1.0;2;0;0;0;0;();(-2000.0, -2000.0);
05:11:32:125;;;;;;;;;;;;;;05:11:32:116;1447949489.84;(0.4003830671310425, 0.29926918877495656);26.4569683075;1.0;2;0;0;0;0;();(-2000.0, -2000.0);
05:11:32:148;;;;;;;;;;;;;;05:11:32:116;1447949489.84;(0.4003830671310425, 0.29926918877495656);26.4569683075;1.0;2;0;0;0;0;();(-2000.0, -2000.0);
05:11:32:189;;;;;;;;;;;;;;05:11:32:116;1447949489.84;(0.4003830671310425, 0.29926918877495656);26.4569683075;1.0;2;0;0;0;0;();(-2000.0, -2000.0);
05:11:32:191;;;;;;;;;;;;;;05:11:32:116;1447949489.84;(0.4003830671310425, 0.29926918877495656);26.4569683075;1.0;2;0;0;0;0;();(-2000.0, -2000.0);
05:11:32:207;;;;;;;;;;;;;;05:11:32:199;1447949489.91;(0.40006265640258787, 0.29976192050509987);26.5978603363;1.0;2;0;0;0;0;();(-2000.0, -2000.0);
05:11:32:226;;;;;;;;;;;;;;05:11:32:199;1447949489.91;(0.40006265640258787, 0.29976192050509987);26.5978603363;1.0;2;0;0;0;0;();(-2000.0, -2000.0);
05:11:32:244;;;;;;;;;;;;;;05:11:32:199;1447949489.91;(0.40006265640258787, 0.29976192050509987);26.5978603363;1.0;2;0;0;0;0;();(-2000.0, -2000.0);
05:11:32:260;;;;;;;;;;;;;;05:11:32:199;1447949489.91;(0.40006265640258787, 0.29976192050509987);26.5978603363;1.0;2;0;0;0;0;();(-2000.0, -2000.0);
05:11:32:276;;;;;;;;;;;;;;05:11:32:199;1447949489.91;(0.40006265640258787, 0.29976192050509987);26.5978603363;1.0;2;0;0;0;0;();(-2000.0, -2000.0);
05:11:32:293;;;;;;;;;;;;;;05:11:32:279;1447949489.97;(0.40021188259124757, 0.29885982937282984);26.6214046478;1.0;2;0;0;0;0;();(-2000.0, -2000.0);
05:11:32:326;;;;;;;;;;;;;;05:11:32:323;1447949490.04;(0.400160813331604, 0.29937850104437935);26.8674316406;1.0;2;0;0;0;0;();(-2000.0, -2000.0);
05:11:32:342;;;;;;;;;;;;;;05:11:32:323;1447949490.04;(0.400160813331604, 0.29937850104437935);26.8674316406;1.0;2;0;0;0;0;();(-2000.0, -2000.0);
05:11:32:359;;;;;;;;;;;;;;05:11:32:323;1447949490.04;(0.400160813331604, 0.29937850104437935);26.8674316406;1.0;2;0;0;0;0;();(-2000.0, -2000.0);
05:11:32:389;;;;;;;;;;;;;;05:11:32:323;1447949490.04;(0.400160813331604, 0.29937850104437935);26.8674316406;1.0;2;0;0;0;0;();(-2000.0, -2000.0);
05:11:32:405;;;;;;;;;;;;;;05:11:32:323;1447949490.04;(0.400160813331604, 0.29937850104437935);26.8674316406;1.0;2;0;0;0;0;();(-2000.0, -2000.0);
05:11:32:422;;;;;;;;;;;;;;05:11:32:408;1447949490.11;(0.4001986265182495, 0.29948069254557297);27.1973190308;1.0;2;0;0;0;0;();(-2000.0, -2000.0);
05:11:32:439;;;;;;;;;;;;;;05:11:32:408;1447949490.11;(0.4001986265182495, 0.29948069254557297);27.1973190308;1.0;2;0;0;0;0;();(-2000.0, -2000.0);
05:11:32:455;;;;;;;;;;;;;;05:11:32:447;1447949490.17;(0.4003442287445068, 0.2996066623263889);27.0609493256;1.0;2;0;0;0;0;();(-2000.0, -2000.0);
05:11:32:488;;;;;;;;;;;;;;05:11:32:447;1447949490.17;(0.4003442287445068, 0.2996066623263889);27.0609493256;1.0;2;0;0;0;0;();(-2000.0, -2000.0);
05:11:32:505;;;;;;;;;;;;;;05:11:32:447;1447949490.17;(0.4003442287445068, 0.2996066623263889);27.0609493256;1.0;2;0;0;0;0;();(-2000.0, -2000.0);
05:11:32:522;;;;;;;;;;;;;;05:11:32:447;1447949490.17;(0.4003442287445068, 0.2996066623263889);27.0609493256;1.0;2;0;0;0;0;();(-2000.0, -2000.0);
05:11:32:538;;;;;;;;;;;;;;05:11:32:531;1447949490.24;(0.40036511421203613, 0.29959475199381513);27.3396949768;1.0;2;0;0;0;0;();(-2000.0, -2000.0);
05:11:32:555;;;;;;;;;;;;;;05:11:32:531;1447949490.24;(0.40036511421203613, 0.29959475199381513);27.3396949768;1.0;2;0;0;0;0;();(-2000.0, -2000.0);
05:11:32:595;;;;;;;;;;;;;;05:11:32:531;1447949490.24;(0.40036511421203613, 0.29959475199381513);27.3396949768;1.0;2;0;0;0;0;();(-2000.0, -2000.0);
05:11:32:599;;;;;;;;;;;;;;05:11:32:531;1447949490.24;(0.40036511421203613, 0.29959475199381513);27.3396949768;1.0;2;0;0;0;0;();(-2000.0, -2000.0);
05:11:33:153;05:11:33:151;0;10;-1.5;1;0;0;0;0;1;1;1;1;05:11:33:067;1447949490.77;(0.4002411365509033, 0.2989958869086371);26.7547016144;1.0;2;0;0;0;0;();(-2000.0, -2000.0);
05:11:33:157;05:11:33:157;0;10;-1.5;1;0;0;0;0;1;1;1;1;05:11:33:151;1447949490.84;(0.4003472328186035, 0.29977484809027777);26.8225727081;1.0;2;0;0;0;0;();(-2000.0, -2000.0);
05:11:33:162;05:11:33:162;0;5;-1.5;1;0;0;0;0;1;1;1;1;05:11:33:151;1447949490.84;(0.4003472328186035, 0.29977484809027777);26.8225727081;1.0;2;0;0;0;0;();(-2000.0, -2000.0);
05:11:33:164;05:11:33:164;0;5;-1.5;1;0;0;0;0;1;1;1;1;05:11:33:151;1447949490.84;(0.4003472328186035, 0.29977484809027777);26.8225727081;1.0;2;0;0;0;0;();(-2000.0, -2000.0);
05:11:33:168;05:11:33:168;0;5;-1.5;1;0;0;0;0;1;1;1;1;05:11:33:151;1447949490.84;(0.4003472328186035, 0.29977484809027777);26.8225727081;1.0;2;0;0;0;0;();(-2000.0, -2000.0);
05:11:33:170;05:11:33:170;0;5;-1.5;1;0;0;0;0;1;1;1;1;05:11:33:151;1447949490.84;(0.4003472328186035, 0.29977484809027777);26.8225727081;1.0;2;0;0;0;0;();(-2000.0, -2000.0);
05:11:33:171;05:11:33:171;0;5;-1.5;1;0;0;0;0;1;1;1;1;05:11:33:151;1447949490.84;(0.4003472328186035, 0.29977484809027777);26.8225727081;1.0;2;0;0;0;0;();(-2000.0, -2000.0);
05:11:33:173;05:11:33:173;0;5;-1.5;1;0;0;0;0;1;1;1;1;05:11:33:151;1447949490.84;(0.4003472328186035, 0.29977484809027777);26.8225727081;1.0;2;0;0;0;0;();(-2000.0, -2000.0);
05:11:33:174;05:11:33:174;0;5;-1.5;1;0;0;0;0;1;1;1;1;05:11:33:151;1447949490.84;(0.4003472328186035, 0.29977484809027777);26.8225727081;1.0;2;0;0;0;0;();(-2000.0, -2000.0);
05:11:33:176;05:11:33:176;0;0;-1.5;1;0;0;0;0;1;1;1;1;05:11:33:151;1447949490.84;(0.4003472328186035, 0.29977484809027777);26.8225727081;1.0;2;0;0;0;0;();(-2000.0, -2000.0);
05:11:33:178;05:11:33:178;0;0;-1.5;1;0;0;0;0;1;1;1;1;05:11:33:151;1447949490.84;(0.4003472328186035, 0.29977484809027777);26.8225727081;1.0;2;0;0;0;0;();(-2000.0, -2000.0);
05:11:33:179;05:11:33:179;0;0;-1.5;1;0;0;0;0;1;1;1;1;05:11:33:151;1447949490.84;(0.4003472328186035, 0.29977484809027777);26.8225727081;1.0;2;0;0;0;0;();(-2000.0, -2000.0);
05:11:33:181;05:11:33:181;0;0;-1.5;1;0;0;0;0;1;1;1;1;05:11:33:151;1447949490.84;(0.4003472328186035, 0.29977484809027777);26.8225727081;1.0;2;0;0;0;0;();(-2000.0, -2000.0);
05:11:33:182;05:11:33:182;0;11;-1.5;1;0;0;0;0;1;1;1;1;05:11:33:151;1447949490.84;(0.4003472328186035, 0.29977484809027777);26.8225727081;1.0;2;0;0;0;0;();(-2000.0, -2000.0);
05:11:33:184;05:11:33:184;0;11;-1.5;1;0;0;0;0;1;1;1;1;05:11:33:151;1447949490.84;(0.4003472328186035, 0.29977484809027777);26.8225727081;1.0;2;0;0;0;0;();(-2000.0, -2000.0);
05:11:33:185;05:11:33:185;0;11;-1.5;1;0;0;0;0;1;1;1;1;05:11:33:151;1447949490.84;(0.4003472328186035, 0.29977484809027777);26.8225727081;1.0;2;0;0;0;0;();(-2000.0, -2000.0);
05:11:33:187;05:11:33:187;0;11;-1.5;1;0;0;0;0;1;1;1;1;05:11:33:151;1447949490.84;(0.4003472328186035, 0.29977484809027777);26.8225727081;1.0;2;0;0;0;0;();(-2000.0, -2000.0);
05:11:33:190;05:11:33:190;0;11;-1.5;1;0;0;0;0;1;1;1;1;05:11:33:151;1447949490.84;(0.4003472328186035, 0.29977484809027777);26.8225727081;1.0;2;0;0;0;0;();(-2000.0, -2000.0);
05:11:33:194;05:11:33:194;0;11;-1.5;1;0;0;0;0;1;1;1;1;05:11:33:151;1447949490.84;(0.4003472328186035, 0.29977484809027777);26.8225727081;1.0;2;0;0;0;0;();(-2000.0, -2000.0);
05:11:33:208;05:11:33:208;0;5;-1.5;1;0;0;0;0;1;1;1;1;05:11:33:195;1447949490.91;(0.40034024715423583, 0.2994891696506077);26.4429645538;1.0;2;0;0;0;0;();(-2000.0, -2000.0);
05:11:33:224;05:11:33:224;0;9;-1.5;1;0;0;0;0;1;1;1;1;05:11:33:195;1447949490.91;(0.40034024715423583, 0.2994891696506077);26.4429645538;1.0;2;0;0;0;0;();(-2000.0, -2000.0);
05:11:33:240;05:11:33:240;0;0;-1.5;1;0;0;0;0;1;1;1;1;05:11:33:195;1447949490.91;(0.40034024715423583, 0.2994891696506077);26.4429645538;1.0;2;0;0;0;0;();(-2000.0, -2000.0);
05:11:33:258;05:11:33:258;0;14;-1.5;1;0;0;0;0;1;1;1;1;05:11:33:195;1447949490.91;(0.40034024715423583, 0.2994891696506077);26.4429645538;1.0;2;0;0;0;0;();(-2000.0, -2000.0);
05:11:33:290;05:11:33:290;0;15;-1.5;1;0;0;0;0;1;1;1;1;05:11:33:275;1447949490.97;(0.40036907196044924, 0.2992821587456598);26.5025405884;1.0;2;0;0;0;0;();(-2000.0, -2000.0);
05:11:33:308;05:11:33:308;0;1;-1.5;1;0;0;0;0;1;1;1;1;05:11:33:275;1447949490.97;(0.40036907196044924, 0.2992821587456598);26.5025405884;1.0;2;0;0;0;0;();(-2000.0, -2000.0);
05:11:33:323;05:11:33:323;0;5;-1.5;1;0;0;0;0;1;1;1;1;05:11:33:319;1447949491.04;(0.3999748706817627, 0.2995841979980469);26.8781909943;1.0;2;0;0;0;0;();(-2000.0, -2000.0);
05:11:33:340;05:11:33:340;0;0;-1.5;1;0;0;0;0;1;1;1;1;05:11:33:319;1447949491.04;(0.3999748706817627, 0.2995841979980469);26.8781909943;1.0;2;0;0;0;0;();(-2000.0, -2000.0);
05:11:33:373;05:11:33:373;0;0;-1.5;1;0;0;0;0;1;1;1;1;05:11:33:319;1447949491.04;(0.3999748706817627, 0.2995841979980469);26.8781909943;1.0;2;0;0;0;0;();(-2000.0, -2000.0);
05:11:33:390;05:11:33:389;0;5;-1.5;1;0;0;0;0;1;1;1;1;05:11:33:319;1447949491.04;(0.3999748706817627, 0.2995841979980469);26.8781909943;1.0;2;0;0;0;0;();(-2000.0, -2000.0);
05:11:33:406;05:11:33:406;0;10;-1.5;1;0;0;0;0;1;1;1;1;05:11:33:399;1447949491.11;(0.40007007122039795, 0.2998874664306641);26.2943248749;1.0;2;0;0;0;0;();(-2000.0, -2000.0);
05:11:33:424;05:11:33:424;0;6;-1.5;1;0;0;0;0;1;1;1;1;05:11:33:399;1447949491.11;(0.40007007122039795, 0.2998874664306641);26.2943248749;1.0;2;0;0;0;0;();(-2000.0, -2000.0);
05:11:33:439;05:11:33:439;0;11;-1.5;1;0;0;0;0;1;1;1;1;05:11:33:399;1447949491.11;(0.40007007122039795, 0.2998874664306641);26.2943248749;1.0;2;0;0;0;0;();(-2000.0, -2000.0);
05:11:33:472;05:11:33:472;0;10;-1.5;1;0;0;0;0;1;1;1;1;05:11:33:399;1447949491.11;(0.40007007122039795, 0.2998874664306641);26.2943248749;1.0;2;0;0;0;0;();(-2000.0, -2000.0);
05:11:33:489;05:11:33:489;0;9;-1.5;1;0;0;0;0;1;1;1;1;05:11:33:483;1447949491.17;(0.40008974075317383, 0.29916225009494357);27.0697937012;1.0;2;0;0;0;0;();(-2000.0, -2000.0);
05:11:33:506;05:11:33:506;0;11;-1.5;1;0;0;0;0;1;1;1;1;05:11:33:483;1447949491.17;(0.40008974075317383, 0.29916225009494357);27.0697937012;1.0;2;0;0;0;0;();(-2000.0, -2000.0);
05:11:33:522;05:11:33:522;0;6;-1.5;1;0;0;0;0;1;1;1;1;05:11:33:483;1447949491.17;(0.40008974075317383, 0.29916225009494357);27.0697937012;1.0;2;0;0;0;0;();(-2000.0, -2000.0);
05:11:33:539;05:11:33:539;0;11;-1.5;1;0;0;0;0;1;1;1;1;05:11:33:528;1447949491.24;(0.4005168914794922, 0.2995032416449652);26.7124500275;1.0;2;0;0;0;0;();(-2000.0, -2000.0);
05:11:33:572;05:11:33:572;0;10;-1.5;1;0;0;0;0;1;1;1;1;05:11:33:528;1447949491.24;(0.4005168914794922, 0.2995032416449652);26.7124500275;1.0;2;0;0;0;0;();(-2000.0, -2000.0);
05:11:33:588;05:11:33:588;0;0;-1.5;1;0;0;0;0;1;1;1;1;05:11:33:528;1447949491.24;(0.4005168914794922, 0.2995032416449652);26.7124500275;1.0;2;0;0;0;0;();(-2000.0, -2000.0);
05:11:33:605;05:11:33:605;0;11;-1.5;1;0;0;0;0;1;1;1;1;05:11:33:528;1447949491.24;(0.4005168914794922, 0.2995032416449652);26.7124500275;1.0;2;0;0;0;0;();(-2000.0, -2000.0);
05:11:33:622;05:11:33:622;0;5;-1.5;1;0;0;0;0;1;1;1;1;05:11:33:607;1447949491.31;(0.39996063709259033, 0.2992743598090277);26.7163944244;1.0;2;0;0;0;0;();(-2000.0, -2000.0);
05:11:33:638;05:11:33:638;0;10;-1.5;1;0;0;0;0;1;1;1;1;05:11:33:607;1447949491.31;(0.39996063709259033, 0.2992743598090277);26.7163944244;1.0;2;0;0;0;0;();(-2000.0, -2000.0);
05:11:33:671;05:11:33:671;0;11;-1.5;1;0;0;0;0;1;1;1;1;05:11:33:651;1447949491.37;(0.4001396417617798, 0.29981842041015627);27.0805969238;1.0;2;0;0;0;0;();(-2000.0, -2000.0);
05:11:33:688;05:11:33:688;0;0;-1.5;1;0;0;0;0;1;1;1;1;05:11:33:651;1447949491.37;(0.4001396417617798, 0.29981842041015627);27.0805969238;1.0;2;0;0;0;0;();(-2000.0, -2000.0);
05:11:33:704;05:11:33:704;0;10;-1.5;1;0;0;0;0;1;1;1;1;05:11:33:651;1447949491.37;(0.4001396417617798, 0.29981842041015627);27.0805969238;1.0;2;0;0;0;0;();(-2000.0, -2000.0);
05:11:33:721;05:11:33:721;0;0;-1.5;1;0;0;0;0;1;1;1;1;05:11:33:651;1447949491.37;(0.4001396417617798, 0.29981842041015627);27.0805969238;1.0;2;0;0;0;0;();(-2000.0, -2000.0);
05:11:33:737;05:11:33:737;0;10;-1.5;1;0;0;0;0;1;1;1;1;05:11:33:731;1447949491.44;(0.40040671825408936, 0.29959259033203123);27.0703125;1.0;2;0;0;0;0;();(-2000.0, -2000.0);
05:11:33:771;05:11:33:770;0;11;-1.5;1;0;0;0;0;1;1;1;1;05:11:33:731;1447949491.44;(0.40040671825408936, 0.29959259033203123);27.0703125;1.0;2;0;0;0;0;();(-2000.0, -2000.0);
05:11:33:787;05:11:33:787;0;0;-1.5;1;0;0;0;0;1;1;1;1;05:11:33:731;1447949491.44;(0.40040671825408936, 0.29959259033203123);27.0703125;1.0;2;0;0;0;0;();(-2000.0, -2000.0);
05:11:33:804;05:11:33:804;0;10;-1.5;1;0;0;0;0;1;1;1;1;05:11:33:731;1447949491.44;(0.40040671825408936, 0.29959259033203123);27.0703125;1.0;2;0;0;0;0;();(-2000.0, -2000.0);
05:11:33:820;05:11:33:820;0;0;-1.5;1;0;0;0;0;1;1;1;1;05:11:33:815;1447949491.51;(0.40022399425506594, 0.29966595967610676);26.6731243134;1.0;2;0;0;0;0;();(-2000.0, -2000.0);
05:11:33:853;05:11:33:853;0;0;-1.5;1;0;0;0;0;1;1;1;1;05:11:33:815;1447949491.51;(0.40022399425506594, 0.29966595967610676);26.6731243134;1.0;2;0;0;0;0;();(-2000.0, -2000.0);
05:11:33:870;05:11:33:870;0;5;-1.5;1;0;0;0;0;1;1;1;1;05:11:33:855;1447949491.57;(0.40019385814666747, 0.29951820373535154);26.7938613892;1.0;2;0;0;0;0;();(-2000.0, -2000.0);
05:11:33:887;05:11:33:887;0;0;-1.5;1;0;0;0;0;1;1;1;1;05:11:33:855;1447949491.57;(0.40019385814666747, 0.29951820373535154);26.7938613892;1.0;2;0;0;0;0;();(-2000.0, -2000.0);
05:11:33:903;05:11:33:903;0;5;-1.5;1;0;0;0;0;1;1;1;1;05:11:33:855;1447949491.57;(0.40019385814666747, 0.29951820373535154);26.7938613892;1.0;2;0;0;0;0;();(-2000.0, -2000.0);
05:11:33:920;05:11:33:920;0;0;-1.5;1;0;0;0;0;1;1;1;1;05:11:33:855;1447949491.57;(0.40019385814666747, 0.29951820373535154);26.7938613892;1.0;2;0;0;0;0;();(-2000.0, -2000.0);
05:11:33:953;05:11:33:953;0;0;-1.5;1;0;0;0;0;1;1;1;1;05:11:33:939;1447949491.64;(0.4001899242401123, 0.29917339748806426);27.3664741516;1.0;2;0;0;0;0;();(-2000.0, -2000.0);
05:11:33:969;05:11:33:969;0;5;-1.5;1;0;0;0;0;1;1;1;1;05:11:33:939;1447949491.64;(0.4001899242401123, 0.29917339748806426);27.3664741516;1.0;2;0;0;0;0;();(-2000.0, -2000.0);
05:11:33:986;05:11:33:986;0;0;-1.5;1;0;0;0;0;1;1;1;1;05:11:33:983;1447949491.71;(0.4000333309173584, 0.2994707743326823);26.7747936249;1.0;2;0;0;0;0;();(-2000.0, -2000.0);
05:11:34:002;05:11:34:002;0;6;-1.5;1;0;0;0;0;1;1;1;1;05:11:33:983;1447949491.71;(0.4000333309173584, 0.2994707743326823);26.7747936249;1.0;2;0;0;0;0;();(-2000.0, -2000.0);
05:11:34:019;05:11:34:019;0;10;-1.5;1;0;0;0;0;1;1;1;1;05:11:33:983;1447949491.71;(0.4000333309173584, 0.2994707743326823);26.7747936249;1.0;2;0;0;0;0;();(-2000.0, -2000.0);
05:11:34:052;05:11:34:052;0;11;-1.5;1;0;0;0;0;1;1;1;1;05:11:33:983;1447949491.71;(0.4000333309173584, 0.2994707743326823);26.7747936249;1.0;2;0;0;0;0;();(-2000.0, -2000.0);
05:11:34:069;05:11:34:069;0;6;-1.5;1;0;0;0;0;1;1;1;1;05:11:34:063;1447949491.77;(0.4000362157821655, 0.2996824052598741);26.9758262634;1.0;2;0;0;0;0;();(-2000.0, -2000.0);
05:11:34:085;05:11:34:085;0;10;-1.5;1;0;0;0;0;1;1;1;1;05:11:34:063;1447949491.77;(0.4000362157821655, 0.2996824052598741);26.9758262634;1.0;2;0;0;0;0;();(-2000.0, -2000.0);
05:11:34:102;05:11:34:102;0;0;-1.5;1;0.586510263929619;0;0;0;1;1;1;1;05:11:34:063;1447949491.77;(0.4000362157821655, 0.2996824052598741);26.9758262634;1.0;2;0;0;0;0;();(-2000.0, -2000.0);
05:11:34:118;05:11:34:118;0;10;-1.5;1;0;0;0;0;1;1;1;1;05:11:34:063;1447949491.77;(0.4000362157821655, 0.2996824052598741);26.9758262634;1.0;2;0;0;0;0;();(-2000.0, -2000.0);
05:11:34:152;05:11:34:152;0;11;-1.5;1;0;0;0;0;1;1;1;1;05:11:34:147;1447949491.84;(0.4001192569732666, 0.29964404635959196);26.9099731445;1.0;2;0;0;0;0;();(-2000.0, -2000.0);
05:11:34:168;05:11:34:168;0;0;-1.5;1;0;0;0;0;1;1;1;1;05:11:34:147;1447949491.84;(0.4001192569732666, 0.29964404635959196);26.9099731445;1.0;2;0;0;0;0;();(-2000.0, -2000.0);
05:11:34:185;05:11:34:185;0;11;-1.5;1;0;0;0;0;1;1;1;1;05:11:34:147;1447949491.84;(0.4001192569732666, 0.29964404635959196);26.9099731445;1.0;2;0;0;0;0;();(-2000.0, -2000.0);
05:11:34:201;05:11:34:201;0;7;-1.5;1;0.0977517106549365;0;0;0;1;1;1;1;05:11:34:187;1447949491.91;(0.4000527858734131, 0.29935239156087234);26.9635620117;1.0;2;0;0;0;0;();(-2000.0, -2000.0);
05:11:34:219;05:11:34:219;0;6;-1.5;1;0;0;0;0;1;1;1;1;05:11:34:187;1447949491.91;(0.4000527858734131, 0.29935239156087234);26.9635620117;1.0;2;0;0;0;0;();(-2000.0, -2000.0);
05:11:34:237;05:11:34:237;0;0;-1.5;1;0;0;0;0;1;1;1;1;05:11:34:187;1447949491.91;(0.4000527858734131, 0.29935239156087234);26.9635620117;1.0;2;0;0;0;0;();(-2000.0, -2000.0);
05:11:34:272;05:11:34:271;0;5;-1.5;1;0;0;0;0;1;1;1;1;05:11:34:271;1447949491.97;(0.40005548000335694, 0.29968143039279516);27.0504684448;1.0;2;0;0;0;0;();(-2000.0, -2000.0);
05:11:34:289;05:11:34:289;0;10;-1.5;1;0;0;0;0;1;1;1;1;05:11:34:271;1447949491.97;(0.40005548000335694, 0.29968143039279516);27.0504684448;1.0;2;0;0;0;0;();(-2000.0, -2000.0);
05:11:34:305;05:11:34:305;0;0;-1.5;1;0;0;0;0;1;1;1;1;05:11:34:271;1447949491.97;(0.40005548000335694, 0.29968143039279516);27.0504684448;1.0;2;0;0;0;0;();(-2000.0, -2000.0);
05:11:34:321;05:11:34:321;0;6;-1.5;1;0;0;0;0;1;1;1;1;05:11:34:315;1447949492.04;(0.4004887819290161, 0.29926486545138886);27.0694503784;1.0;2;0;0;0;0;();(-2000.0, -2000.0);
05:11:34:338;05:11:34:338;0;10;-1.5;1;0;0;0;0;1;1;1;1;05:11:34:315;1447949492.04;(0.4004887819290161, 0.29926486545138886);27.0694503784;1.0;2;0;0;0;0;();(-2000.0, -2000.0);
05:11:34:371;05:11:34:371;0;11;-1.5;1;0;0;0;0;1;1;1;1;05:11:34:315;1447949492.04;(0.4004887819290161, 0.29926486545138886);27.0694503784;1.0;2;0;0;0;0;();(-2000.0, -2000.0);
05:11:34:388;05:11:34:387;0;6;-1.5;1;0;0;0;0;1;1;1;1;05:11:34:315;1447949492.04;(0.4004887819290161, 0.29926486545138886);27.0694503784;1.0;2;0;0;0;0;();(-2000.0, -2000.0);
05:11:34:404;05:11:34:404;0;11;-1.5;1;0;0;0;0;1;1;1;1;05:11:34:395;1447949492.11;(0.40026264190673827, 0.2990853203667535);27.439453125;1.0;2;0;0;0;0;();(-2000.0, -2000.0);
05:11:34:421;05:11:34:421;0;5;-1.5;1;0;0;0;0;1;1;1;1;05:11:34:395;1447949492.11;(0.40026264190673827, 0.2990853203667535);27.439453125;1.0;2;0;0;0;0;();(-2000.0, -2000.0);
05:11:34:445;05:11:34:445;0;5;-1.5;1;0;0;0;0;1;1;1;1;05:11:34:395;1447949492.11;(0.40026264190673827, 0.2990853203667535);27.439453125;1.0;2;0;0;0;0;();(-2000.0, -2000.0);
05:11:34:462;05:11:34:461;0;5;-1.5;1;0;0;0;0;1;1;1;1;05:11:34:395;1447949492.11;(0.40026264190673827, 0.2990853203667535);27.439453125;1.0;2;0;0;0;0;();(-2000.0, -2000.0);
05:11:34:478;05:11:34:478;0;5;-1.5;1;0;0;0;0;1;1;1;1;05:11:34:395;1447949492.11;(0.40026264190673827, 0.2990853203667535);27.439453125;1.0;2;0;0;0;0;();(-2000.0, -2000.0);
05:11:34:511;05:11:34:511;0;5;-1.5;1;0;0;0;0;1;1;1;1;05:11:34:479;1447949492.17;(0.4002797842025757, 0.2995208316379123);27.0857448578;1.0;2;0;0;0;0;();(-2000.0, -2000.0);
05:11:34:528;05:11:34:528;0;0;-1.5;1;0;0;0;0;1;1;1;1;05:11:34:519;1447949492.24;(0.4002588987350464, 0.29944788614908857);27.0620613098;1.0;2;0;0;0;0;();(-2000.0, -2000.0);
05:11:34:545;05:11:34:545;0;5;-1.5;1;0;0;0;0;1;1;1;1;05:11:34:519;1447949492.24;(0.4002588987350464, 0.29944788614908857);27.0620613098;1.0;2;0;0;0;0;();(-2000.0, -2000.0);
05:11:34:561;05:11:34:561;0;11;-1.5;1;0;0;0;0;1;1;1;1;05:11:34:519;1447949492.24;(0.4002588987350464, 0.29944788614908857);27.0620613098;1.0;2;0;0;0;0;();(-2000.0, -2000.0);
05:11:34:578;05:11:34:577;0;5;-1.5;1;0;0;0;0;1;1;1;1;05:11:34:519;1447949492.24;(0.4002588987350464, 0.29944788614908857);27.0620613098;1.0;2;0;0;0;0;();(-2000.0, -2000.0);
05:11:34:611;05:11:34:611;0;0;-1.5;1;0;0;0;0;1;1;1;1;05:11:34:603;1447949492.31;(0.40022783279418944, 0.2997345818413628);26.3506679535;1.0;2;0;0;0;0;();(-2000.0, -2000.0);
05:11:34:627;05:11:34:627;0;11;-1.5;1;0;0;0;0;1;1;1;1;05:11:34:603;1447949492.31;(0.40022783279418944, 0.2997345818413628);26.3506679535;1.0;2;0;0;0;0;();(-2000.0, -2000.0);
05:11:34:645;05:11:34:645;0;0;-1.5;1;0;0;0;0;1;1;1;1;05:11:34:643;1447949492.37;(0.40015583038330077, 0.30013766818576393);26.5422687531;1.0;2;0;0;0;0;();(-2000.0, -2000.0);
05:11:34:662;05:11:34:662;0;10;-1.5;1;0;0;0;0;1;1;1;1;05:11:34:643;1447949492.37;(0.40015583038330077, 0.30013766818576393);26.5422687531;1.0;2;0;0;0;0;();(-2000.0, -2000.0);
05:11:34:679;05:11:34:679;0;0;-1.5;1;0;0;0;0;1;1;1;1;05:11:34:643;1447949492.37;(0.40015583038330077, 0.30013766818576393);26.5422687531;1.0;2;0;0;0;0;();(-2000.0, -2000.0);
05:11:34:712;05:11:34:712;0;0;-1.5;1;0;0;0;0;1;1;1;1;05:11:34:643;1447949492.37;(0.40015583038330077, 0.30013766818576393);26.5422687531;1.0;2;0;0;0;0;();(-2000.0, -2000.0);
05:11:34:729;05:11:34:728;0;12;-1.5;1;0;0;0;0;1;1;1;1;05:11:34:727;1447949492.44;(0.39982621669769286, 0.2996081458197699);26.5826263428;1.0;2;0;0;0;0;();(-2000.0, -2000.0);
05:11:34:745;05:11:34:745;0;0;-1.5;1;0.0977517106549365;0;0;0;1;1;1;1;05:11:34:727;1447949492.44;(0.39982621669769286, 0.2996081458197699);26.5826263428;1.0;2;0;0;0;0;();(-2000.0, -2000.0);
05:11:34:762;05:11:34:762;0;5;-1.5;1;0;0;0;0;1;1;1;1;05:11:34:727;1447949492.44;(0.39982621669769286, 0.2996081458197699);26.5826263428;1.0;2;0;0;0;0;();(-2000.0, -2000.0);
05:11:34:778;05:11:34:778;0;0;-1.5;1;0;0;0;0;1;1;1;1;05:11:34:727;1447949492.44;(0.39982621669769286, 0.2996081458197699);26.5826263428;1.0;2;0;0;0;0;();(-2000.0, -2000.0);
05:11:34:811;05:11:34:811;0;0;-1.5;1;0;0;0;0;1;1;1;1;05:11:34:811;1447949492.51;(0.399964427947998, 0.2996780819363064);26.2757911682;1.0;2;0;0;0;0;();(-2000.0, -2000.0);
05:11:34:828;05:11:34:828;0;11;-1.5;1;0;0;0;0;1;1;1;1;05:11:34:811;1447949492.51;(0.399964427947998, 0.2996780819363064);26.2757911682;1.0;2;0;0;0;0;();(-2000.0, -2000.0);
05:11:34:844;05:11:34:844;0;0;-1.5;1;0;0;0;0;1;1;1;1;05:11:34:811;1447949492.51;(0.399964427947998, 0.2996780819363064);26.2757911682;1.0;2;0;0;0;0;();(-2000.0, -2000.0);
05:11:34:867;05:11:34:867;0;5;-1.5;1;0;0;0;0;1;1;1;1;05:11:34:851;1447949492.57;(0.39992337226867675, 0.2989563412136502);26.3699378967;1.0;2;0;0;0;0;();(-2000.0, -2000.0);
05:11:34:883;05:11:34:883;0;11;-1.5;1;0;0;0;0;1;1;1;1;05:11:34:851;1447949492.57;(0.39992337226867675, 0.2989563412136502);26.3699378967;1.0;2;0;0;0;0;();(-2000.0, -2000.0);
05:11:34:902;05:11:34:902;0;12;-1.5;1;0;0;0;0;1;1;1;1;05:11:34:851;1447949492.57;(0.39992337226867675, 0.2989563412136502);26.3699378967;1.0;2;0;0;0;0;();(-2000.0, -2000.0);
05:11:34:919;05:11:34:919;0;10;-1.5;1;0;0;0;0;1;1;1;1;05:11:34:851;1447949492.57;(0.39992337226867675, 0.2989563412136502);26.3699378967;1.0;2;0;0;0;0;();(-2000.0, -2000.0);
05:11:34:952;05:11:34:951;0;11;-1.5;1;0;0;0;0;1;1;1;1;05:11:34:935;1447949492.64;(0.4000538349151611, 0.29930860731336806);26.9068813324;1.0;2;0;0;0;0;();(-2000.0, -2000.0);
05:11:34:968;05:11:34:968;0;0;-1.5;1;0;0;0;0;1;1;1;1;05:11:34:935;1447949492.64;(0.4000538349151611, 0.29930860731336806);26.9068813324;1.0;2;0;0;0;0;();(-2000.0, -2000.0);
05:11:34:985;05:11:34:985;0;5;-1.5;1;0;0;0;0;1;1;1;1;05:11:34:935;1447949492.64;(0.4000538349151611, 0.29930860731336806);26.9068813324;1.0;2;0;0;0;0;();(-2000.0, -2000.0);
05:11:35:002;05:11:35:002;0;0;-1.5;1;0;0;0;0;1;1;1;1;05:11:34:935;1447949492.64;(0.4000538349151611, 0.29930860731336806);26.9068813324;1.0;2;0;0;0;0;();(-2000.0, -2000.0);
05:11:35:018;05:11:35:018;0;11;-1.5;1;0;0;0;0;1;1;1;1;05:11:34:935;1447949492.64;(0.4000538349151611, 0.29930860731336806);26.9068813324;1.0;2;0;0;0;0;();(-2000.0, -2000.0);
05:11:35:051;05:11:35:051;0;5;-1.5;1;0;0;0;0;1;1;1;1;05:11:35:019;1447949492.71;(0.40009112358093263, 0.2993646833631728);26.8237342834;1.0;2;0;0;0;0;();(-2000.0, -2000.0);
05:11:35:068;05:11:35:068;0;3;-1.5;1;0.0977517106549365;0;0;0;1;1;1;1;05:11:35:059;1447949492.77;(0.40029296875, 0.29945233662923176);26.5422706604;1.0;2;0;0;0;0;();(-2000.0, -2000.0);
05:11:35:085;05:11:35:085;0;5;-1.5;1;0;0;0;0;1;1;1;1;05:11:35:059;1447949492.77;(0.40029296875, 0.29945233662923176);26.5422706604;1.0;2;0;0;0;0;();(-2000.0, -2000.0);
05:11:35:101;05:11:35:101;0;0;-1.5;1;0;0;0;0;1;1;1;1;05:11:35:059;1447949492.77;(0.40029296875, 0.29945233662923176);26.5422706604;1.0;2;0;0;0;0;();(-2000.0, -2000.0);
05:11:35:118;05:11:35:118;0;6;-1.5;1;0;0;0;0;1;1;1;1;05:11:35:059;1447949492.77;(0.40029296875, 0.29945233662923176);26.5422706604;1.0;2;0;0;0;0;();(-2000.0, -2000.0);
05:11:35:151;05:11:35:151;0;5;-1.5;1;0;0;0;0;1;1;1;1;05:11:35:143;1447949492.84;(0.39993014335632326, 0.2991003248426649);27.0023517609;1.0;2;0;0;0;0;();(-2000.0, -2000.0);
05:11:35:169;05:11:35:169;0;10;-1.5;1;0;0;0;0;1;1;1;1;05:11:35:143;1447949492.84;(0.39993014335632326, 0.2991003248426649);27.0023517609;1.0;2;0;0;0;0;();(-2000.0, -2000.0);
05:11:35:184;05:11:35:184;0;5;-1.5;1;0;0;0;0;1;1;1;1;05:11:35:183;1447949492.91;(0.39999754428863527, 0.2996995713975694);26.9572620392;1.0;2;0;0;0;0;();(-2000.0, -2000.0);
05:11:35:201;05:11:35:201;0;11;-1.5;1;0;0;0;0;1;1;1;1;05:11:35:183;1447949492.91;(0.39999754428863527, 0.2996995713975694);26.9572620392;1.0;2;0;0;0;0;();(-2000.0, -2000.0);
05:11:35:217;05:11:35:217;0;5;-1.5;1;0;0;0;0;1;1;1;1;05:11:35:183;1447949492.91;(0.39999754428863527, 0.2996995713975694);26.9572620392;1.0;2;0;0;0;0;();(-2000.0, -2000.0);
05:11:35:250;05:11:35:250;0;5;-1.5;1;0;0;0;0;1;1;1;1;05:11:35:183;1447949492.91;(0.39999754428863527, 0.2996995713975694);26.9572620392;1.0;2;0;0;0;0;();(-2000.0, -2000.0);
05:11:35:267;05:11:35:267;0;11;-1.5;1;0.293255131964809;0;0;0;1;1;1;1;05:11:35:267;1447949492.97;(0.40012378692626954, 0.2992026858859592);27.0613517761;1.0;2;0;0;0;0;();(-2000.0, -2000.0);
05:11:35:284;05:11:35:283;0;6;-1.5;1;0;0;0;0;1;1;1;1;05:11:35:267;1447949492.97;(0.40012378692626954, 0.2992026858859592);27.0613517761;1.0;2;0;0;0;0;();(-2000.0, -2000.0);
05:11:35:300;05:11:35:300;0;10;-1.5;1;0;0;0;0;1;1;1;1;05:11:35:267;1447949492.97;(0.40012378692626954, 0.2992026858859592);27.0613517761;1.0;2;0;0;0;0;();(-2000.0, -2000.0);
05:11:35:333;05:11:35:333;0;11;-1.5;1;0;0;0;0;1;1;1;1;05:11:35:267;1447949492.97;(0.40012378692626954, 0.2992026858859592);27.0613517761;1.0;2;0;0;0;0;();(-2000.0, -2000.0);
05:11:35:350;05:11:35:350;0;7;-1.5;1;0;0;0;0;1;1;1;1;05:11:35:267;1447949492.97;(0.40012378692626954, 0.2992026858859592);27.0613517761;1.0;2;0;0;0;0;();(-2000.0, -2000.0);
05:11:35:366;05:11:35:366;0;10;-1.5;1;0;0;0;0;1;1;1;1;05:11:35:351;1447949493.04;(0.4002346992492676, 0.2991752200656467);26.3856678009;1.0;2;0;0;0;0;();(-2000.0, -2000.0);
05:11:35:383;05:11:35:383;0;0;-1.5;1;0;0;0;0;1;1;1;1;05:11:35:351;1447949493.04;(0.4002346992492676, 0.2991752200656467);26.3856678009;1.0;2;0;0;0;0;();(-2000.0, -2000.0);
05:11:35:400;05:11:35:399;0;10;-1.5;1;0;0;0;0;1;1;1;1;05:11:35:391;1447949493.11;(0.39998319149017336, 0.2996215396457248);27.0086116791;1.0;2;0;0;0;0;();(-2000.0, -2000.0);
05:11:35:417;05:11:35:417;0;8;-1.5;1;0;0;0;0;1;1;1;1;05:11:35:391;1447949493.11;(0.39998319149017336, 0.2996215396457248);27.0086116791;1.0;2;0;0;0;0;();(-2000.0, -2000.0);
05:11:35:449;05:11:35:449;0;0;-1.5;1;0;0;0;0;1;1;1;1;05:11:35:391;1447949493.11;(0.39998319149017336, 0.2996215396457248);27.0086116791;1.0;2;0;0;0;0;();(-2000.0, -2000.0);
05:11:35:466;05:11:35:466;0;10;-1.5;1;0;0;0;0;1;1;1;1;05:11:35:391;1447949493.11;(0.39998319149017336, 0.2996215396457248);27.0086116791;1.0;2;0;0;0;0;();(-2000.0, -2000.0);
05:11:35:483;05:11:35:483;0;0;-1.5;1;0;0;0;0;1;1;1;1;05:11:35:475;1447949493.17;(0.39987313747406006, 0.29962488810221355);26.877450943;1.0;2;0;0;0;0;();(-2000.0, -2000.0);
05:11:35:499;05:11:35:499;0;6;-1.5;1;0;0;0;0;1;1;1;1;05:11:35:475;1447949493.17;(0.39987313747406006, 0.29962488810221355);26.877450943;1.0;2;0;0;0;0;();(-2000.0, -2000.0);
05:11:35:532;05:11:35:532;0;5;-1.5;1;0;0;0;0;1;1;1;1;05:11:35:515;1447949493.24;(0.3999268293380737, 0.2995797051323785);26.5702724457;1.0;2;0;0;0;0;();(-2000.0, -2000.0);
05:11:35:549;05:11:35:549;0;0;-1.5;1;0;0;0;0;1;1;1;1;05:11:35:515;1447949493.24;(0.3999268293380737, 0.2995797051323785);26.5702724457;1.0;2;0;0;0;0;();(-2000.0, -2000.0);
05:11:35:566;05:11:35:565;0;5;-1.5;1;0;0;0;0;1;1;1;1;05:11:35:515;1447949493.24;(0.3999268293380737, 0.2995797051323785);26.5702724457;1.0;2;0;0;0;0;();(-2000.0, -2000.0);
05:11:35:582;05:11:35:582;0;0;-1.5;1;0;0;0;0;1;1;1;1;05:11:35:515;1447949493.24;(0.3999268293380737, 0.2995797051323785);26.5702724457;1.0;2;0;0;0;0;();(-2000.0, -2000.0);
05:11:35:599;05:11:35:599;0;6;-1.5;1;0;0;0;0;1;1;1;1;05:11:35:515;1447949493.24;(0.3999268293380737, 0.2995797051323785);26.5702724457;1.0;2;0;0;0;0;();(-2000.0, -2000.0);
05:11:35:633;05:11:35:633;0;5;-1.5;1;0;0;0;0;1;1;1;1;05:11:35:599;1447949493.31;(0.40005733966827395, 0.29961594475640196);26.909324646;1.0;2;0;0;0;0;();(-2000.0, -2000.0);
05:11:35:651;05:11:35:651;0;11;-1.5;1;0;0;0;0;1;1;1;1;05:11:35:599;1447949493.31;(0.40005733966827395, 0.29961594475640196);26.909324646;1.0;2;0;0;0;0;();(-2000.0, -2000.0);
05:11:35:667;05:11:35:666;0;6;-1.5;1;0;0;0;0;1;1;1;1;05:11:35:599;1447949493.31;(0.40005733966827395, 0.29961594475640196);26.909324646;1.0;2;0;0;0;0;();(-2000.0, -2000.0);
05:11:35:683;05:11:35:683;0;10;-1.5;1;0;0;0;0;1;1;1;1;05:11:35:683;1447949493.37;(0.39986720085144045, 0.299505615234375);26.5197162628;1.0;2;0;0;0;0;();(-2000.0, -2000.0);
05:11:35:701;05:11:35:701;0;0;-1.5;1;0;0;0;0;1;1;1;1;05:11:35:683;1447949493.37;(0.39986720085144045, 0.299505615234375);26.5197162628;1.0;2;0;0;0;0;();(-2000.0, -2000.0);
05:11:35:733;05:11:35:732;0;10;-1.5;1;0.0977517106549365;0;0;0;1;1;1;1;05:11:35:723;1447949493.44;(0.39995837211608887, 0.29982778761121964);26.8810634613;1.0;2;0;0;0;0;();(-2000.0, -2000.0);
05:11:35:749;05:11:35:749;0;11;-1.5;1;0;0;0;0;1;1;1;1;05:11:35:723;1447949493.44;(0.39995837211608887, 0.29982778761121964);26.8810634613;1.0;2;0;0;0;0;();(-2000.0, -2000.0);
05:11:35:767;05:11:35:767;0;6;-1.5;1;0;0;0;0;1;1;1;1;05:11:35:723;1447949493.44;(0.39995837211608887, 0.29982778761121964);26.8810634613;1.0;2;0;0;0;0;();(-2000.0, -2000.0);
05:11:35:783;05:11:35:783;0;10;-1.5;1;0;0;0;0;1;1;1;1;05:11:35:723;1447949493.44;(0.39995837211608887, 0.29982778761121964);26.8810634613;1.0;2;0;0;0;0;();(-2000.0, -2000.0);
05:11:35:799;05:11:35:799;0;11;-1.5;1;0.293255131964809;0;0;0;1;1;1;1;05:11:35:723;1447949493.44;(0.39995837211608887, 0.29982778761121964);26.8810634613;1.0;2;0;0;0;0;();(-2000.0, -2000.0);
05:11:35:832;05:11:35:832;0;0;-1.5;1;0;0;0;0;1;1;1;1;05:11:35:807;1447949493.51;(0.3998732566833496, 0.2995825025770399);26.7358207703;1.0;2;0;0;0;0;();(-2000.0, -2000.0);
05:11:35:849;05:11:35:849;0;10;-1.5;1;0;0;0;0;1;1;1;1;05:11:35:847;1447949493.57;(0.40005810260772706, 0.2997019449869792);26.4992752075;1.0;2;0;0;0;0;();(-2000.0, -2000.0);
05:11:35:865;05:11:35:865;0;0;-1.5;1;0;0;0;0;1;1;1;1;05:11:35:847;1447949493.57;(0.40005810260772706, 0.2997019449869792);26.4992752075;1.0;2;0;0;0;0;();(-2000.0, -2000.0);
05:11:35:883;05:11:35:882;0;5;-1.5;1;0;0;0;0;1;1;1;1;05:11:35:847;1447949493.57;(0.40005810260772706, 0.2997019449869792);26.4992752075;1.0;2;0;0;0;0;();(-2000.0, -2000.0);
05:11:35:898;05:11:35:898;0;0;-1.5;1;0;0;0;0;1;1;1;1;05:11:35:847;1447949493.57;(0.40005810260772706, 0.2997019449869792);26.4992752075;1.0;2;0;0;0;0;();(-2000.0, -2000.0);
05:11:35:931;05:11:35:931;0;0;-1.5;1;0;0;0;0;1;1;1;1;05:11:35:931;1447949493.64;(0.3998907804489136, 0.29938320583767364);26.4803333282;1.0;2;0;0;0;0;();(-2000.0, -2000.0);
05:11:35:948;05:11:35:948;0;10;-1.5;1;0;0;0;0;1;1;1;1;05:11:35:931;1447949493.64;(0.3998907804489136, 0.29938320583767364);26.4803333282;1.0;2;0;0;0;0;();(-2000.0, -2000.0);
05:11:35:965;05:11:35:965;0;0;-1.5;1;0;0;0;0;1;1;1;1;05:11:35:931;1447949493.64;(0.3998907804489136, 0.29938320583767364);26.4803333282;1.0;2;0;0;0;0;();(-2000.0, -2000.0);
05:11:35:981;05:11:35:981;0;6;-1.5;1;0;0;0;0;1;1;1;1;05:11:35:931;1447949493.64;(0.3998907804489136, 0.29938320583767364);26.4803333282;1.0;2;0;0;0;0;();(-2000.0, -2000.0);
05:11:35:998;05:11:35:998;0;10;-1.5;1;0;0;0;0;1;1;1;1;05:11:35:931;1447949493.64;(0.3998907804489136, 0.29938320583767364);26.4803333282;1.0;2;0;0;0;0;();(-2000.0, -2000.0);
05:11:36:031;05:11:36:031;0;0;-1.5;1;0;0;0;0;1;1;1;1;05:11:36:015;1447949493.71;(0.4001311779022217, 0.2993775685628255);26.594329834;1.0;2;0;0;0;0;();(-2000.0, -2000.0);
05:11:36:047;05:11:36:047;0;6;-1.5;1;0;0;0;0;1;1;1;1;05:11:36:015;1447949493.71;(0.4001311779022217, 0.2993775685628255);26.594329834;1.0;2;0;0;0;0;();(-2000.0, -2000.0);
05:11:36:064;05:11:36:064;0;0;-1.5;1;0;0;0;0;1;1;1;1;05:11:36:055;1447949493.77;(0.4000983238220215, 0.29927177429199214);26.8453998566;1.0;2;0;0;0;0;();(-2000.0, -2000.0);
05:11:36:080;05:11:36:080;0;5;-1.5;1;0;0;0;0;1;1;1;1;05:11:36:055;1447949493.77;(0.4000983238220215, 0.29927177429199214);26.8453998566;1.0;2;0;0;0;0;();(-2000.0, -2000.0);
05:11:36:097;05:11:36:097;0;0;-1.5;1;0;0;0;0;1;1;1;1;05:11:36:055;1447949493.77;(0.4000983238220215, 0.29927177429199214);26.8453998566;1.0;2;0;0;0;0;();(-2000.0, -2000.0);
05:11:36:130;05:11:36:130;0;10;-1.5;1;0;0;0;0;1;1;1;1;05:11:36:055;1447949493.77;(0.4000983238220215, 0.29927177429199214);26.8453998566;1.0;2;0;0;0;0;();(-2000.0, -2000.0);
05:11:36:147;05:11:36:147;0;6;-1.5;1;0;0;0;0;1;1;1;1;05:11:36:139;1447949493.84;(0.3999835252761841, 0.2996240403917101);26.6538467407;1.0;2;0;0;0;0;();(-2000.0, -2000.0);
05:11:36:163;05:11:36:163;0;10;-1.5;1;0;0;0;0;1;1;1;1;05:11:36:139;1447949493.84;(0.3999835252761841, 0.2996240403917101);26.6538467407;1.0;2;0;0;0;0;();(-2000.0, -2000.0);
05:11:36:180;05:11:36:180;0;5;-1.5;1;0;0;0;0;1;1;1;1;05:11:36:180;1447949493.91;(0.3998676061630249, 0.29938473171657987);26.7818489075;1.0;2;0;0;0;0;();(-2000.0, -2000.0);
05:11:36:213;05:11:36:213;0;0;-1.5;1;0;0;0;0;1;1;1;1;05:11:36:180;1447949493.91;(0.3998676061630249, 0.29938473171657987);26.7818489075;1.0;2;0;0;0;0;();(-2000.0, -2000.0);
05:11:36:230;05:11:36:230;0;11;-1.5;1;0;0;0;0;1;1;1;1;05:11:36:180;1447949493.91;(0.3998676061630249, 0.29938473171657987);26.7818489075;1.0;2;0;0;0;0;();(-2000.0, -2000.0);
05:11:36:246;05:11:36:246;0;0;-1.5;1;0;0;0;0;1;1;1;1;05:11:36:180;1447949493.91;(0.3998676061630249, 0.29938473171657987);26.7818489075;1.0;2;0;0;0;0;();(-2000.0, -2000.0);
05:11:36:263;05:11:36:263;0;10;-1.5;1;0;0;0;0;1;1;1;1;05:11:36:263;1447949493.97;(0.40022568702697753, 0.299628406100803);26.4836673737;1.0;2;0;0;0;0;();(-2000.0, -2000.0);
05:11:36:280;05:11:36:279;0;0;-1.5;1;0;0;0;0;1;1;1;1;05:11:36:263;1447949493.97;(0.40022568702697753, 0.299628406100803);26.4836673737;1.0;2;0;0;0;0;();(-2000.0, -2000.0);
05:11:36:313;05:11:36:313;0;0;-1.5;1;0;0;0;0;1;1;1;1;05:11:36:263;1447949493.97;(0.40022568702697753, 0.299628406100803);26.4836673737;1.0;2;0;0;0;0;();(-2000.0, -2000.0);
05:11:36:329;05:11:36:329;0;11;-1.5;1;0;0;0;0;1;1;1;1;05:11:36:263;1447949493.97;(0.40022568702697753, 0.299628406100803);26.4836673737;1.0;2;0;0;0;0;();(-2000.0, -2000.0);
05:11:36:346;05:11:36:346;0;0;-1.5;1;0;0;0;0;1;1;1;1;05:11:36:263;1447949493.97;(0.40022568702697753, 0.299628406100803);26.4836673737;1.0;2;0;0;0;0;();(-2000.0, -2000.0);
05:11:36:362;05:11:36:362;0;10;-1.5;1;0;0;0;0;1;1;1;1;05:11:36:347;1447949494.04;(0.39995269775390624, 0.2997004614935981);26.5537319183;1.0;2;0;0;0;0;();(-2000.0, -2000.0);
05:11:36:379;05:11:36:379;0;0;-1.5;1;0;0;0;0;1;1;1;1;05:11:36:347;1447949494.04;(0.39995269775390624, 0.2997004614935981);26.5537319183;1.0;2;0;0;0;0;();(-2000.0, -2000.0);
05:11:36:412;05:11:36:412;0;0;-1.5;1;0;0;0;0;1;1;1;1;05:11:36:387;1447949494.11;(0.4002861022949219, 0.29940469529893665);26.3214187622;1.0;2;0;0;0;0;();(-2000.0, -2000.0);
05:11:36:428;05:11:36:428;0;5;-1.5;1;0;0;0;0;1;1;1;1;05:11:36:387;1447949494.11;(0.4002861022949219, 0.29940469529893665);26.3214187622;1.0;2;0;0;0;0;();(-2000.0, -2000.0);
05:11:36:445;05:11:36:445;0;4;-1.5;1;0;0;0;0;1;1;1;1;05:11:36:387;1447949494.11;(0.4002861022949219, 0.29940469529893665);26.3214187622;1.0;2;0;0;0;0;();(-2000.0, -2000.0);
05:11:36:463;05:11:36:463;0;5;-1.5;1;0;0;0;0;1;1;1;1;05:11:36:387;1447949494.11;(0.4002861022949219, 0.29940469529893665);26.3214187622;1.0;2;0;0;0;0;();(-2000.0, -2000.0);
05:11:36:478;05:11:36:478;0;0;-1.5;1;0;0;0;0;1;1;1;1;05:11:36:471;1447949494.17;(0.40006868839263915, 0.29959178500705297);26.8405056;1.0;2;0;0;0;0;();(-2000.0, -2000.0);
05:11:36:511;05:11:36:511;0;0;-1.5;1;0;0;0;0;1;1;1;1;05:11:36:471;1447949494.17;(0.40006868839263915, 0.29959178500705297);26.8405056;1.0;2;0;0;0;0;();(-2000.0, -2000.0);
05:11:36:528;05:11:36:528;0;6;-1.5;1;0;0;0;0;1;1;1;1;05:11:36:471;1447949494.17;(0.40006868839263915, 0.29959178500705297);26.8405056;1.0;2;0;0;0;0;();(-2000.0, -2000.0);
05:11:36:544;05:11:36:544;0;0;-1.5;1;0;0;0;0;1;1;1;1;05:11:36:471;1447949494.17;(0.40006868839263915, 0.29959178500705297);26.8405056;1.0;2;0;0;0;0;();(-2000.0, -2000.0);
05:11:36:561;05:11:36:561;0;6;-1.5;1;0;0;0;0;1;1;1;1;05:11:36:551;1447949494.24;(0.3999632358551025, 0.2994445376925998);26.6269435883;1.0;2;0;0;0;0;();(-2000.0, -2000.0);
05:11:36:578;05:11:36:578;0;10;-1.5;1;0;0;0;0;1;1;1;1;05:11:36:551;1447949494.24;(0.3999632358551025, 0.2994445376925998);26.6269435883;1.0;2;0;0;0;0;();(-2000.0, -2000.0);
05:11:36:611;05:11:36:611;0;11;-1.5;1;0;0;0;0;1;1;1;1;05:11:36:595;1447949494.31;(0.40008580684661865, 0.2990238189697265);26.9714355469;1.0;2;0;0;0;0;();(-2000.0, -2000.0);
05:11:36:628;05:11:36:628;0;5;-1.5;1;0;0;0;0;1;1;1;1;05:11:36:595;1447949494.31;(0.40008580684661865, 0.2990238189697265);26.9714355469;1.0;2;0;0;0;0;();(-2000.0, -2000.0);
05:11:36:644;05:11:36:644;0;11;-1.5;1;0;0;0;0;1;1;1;1;05:11:36:595;1447949494.31;(0.40008580684661865, 0.2990238189697265);26.9714355469;1.0;2;0;0;0;0;();(-2000.0, -2000.0);
05:11:36:668;05:11:36:666;0;0;-1.5;1;0;0;0;0;1;1;1;1;05:11:36:595;1447949494.31;(0.40008580684661865, 0.2990238189697265);26.9714355469;1.0;4;0;0;0;0;();(-2000.0, -2000.0);
05:11:36:679;05:11:36:679;0;10;-1.5;1;0;0;0;0;1;1;1;1;05:11:36:679;1447949494.37;(0.4001873254776001, 0.2996634589301215);26.800163269;1.0;4;0;0;0;0;();(-2000.0, -2000.0);
05:11:36:712;05:11:36:712;0;11;-1.5;1;0;0;0;0;1;1;1;1;05:11:36:679;1447949494.37;(0.4001873254776001, 0.2996634589301215);26.800163269;1.0;4;0;0;0;0;();(-2000.0, -2000.0);
05:11:36:729;05:11:36:729;0;0;-1.5;1;0;0;0;0;1;1;1;1;05:11:36:719;1447949494.44;(0.39996745586395266, 0.2997108035617404);26.9291915894;1.0;4;0;0;0;0;();(-2000.0, -2000.0);
05:11:36:745;05:11:36:745;0;10;-1.5;1;0;0;0;0;1;1;1;1;05:11:36:719;1447949494.44;(0.39996745586395266, 0.2997108035617404);26.9291915894;1.0;4;0;0;0;0;();(-2000.0, -2000.0);
05:11:36:763;05:11:36:763;0;0;-1.5;1;0;0;0;0;1;1;1;1;05:11:36:719;1447949494.44;(0.39996745586395266, 0.2997108035617404);26.9291915894;1.0;4;0;0;0;0;();(-2000.0, -2000.0);
05:11:36:778;05:11:36:778;0;11;-1.5;1;0;0;0;0;1;1;1;1;05:11:36:719;1447949494.44;(0.39996745586395266, 0.2997108035617404);26.9291915894;1.0;4;0;0;0;0;();(-2000.0, -2000.0);
05:11:36:813;05:11:36:813;0;5;-1.5;1;0;0;0;0;1;1;1;1;05:11:36:811;1447949494.51;(0.39980154037475585, 0.29949022928873703);26.5622425079;1.0;4;0;0;0;0;();(-2000.0, -2000.0);
05:11:36:828;05:11:36:828;0;0;-1.5;1;0;0;0;0;1;1;1;1;05:11:36:811;1447949494.51;(0.39980154037475585, 0.29949022928873703);26.5622425079;1.0;4;0;0;0;0;();(-2000.0, -2000.0);
05:11:36:845;05:11:36:845;0;10;-1.5;1;0;0;0;0;1;1;1;1;05:11:36:843;1447949494.57;(0.3998170137405396, 0.2993121253119575);26.5614261627;1.0;4;0;0;0;0;();(-2000.0, -2000.0);
05:11:36:861;05:11:36:861;0;0;-1.5;1;0;0;0;0;1;1;1;1;05:11:36:843;1447949494.57;(0.3998170137405396, 0.2993121253119575);26.5614261627;1.0;4;0;0;0;0;();(-2000.0, -2000.0);
05:11:36:878;05:11:36:878;0;6;-1.5;1;0;0;0;0;1;1;1;1;05:11:36:843;1447949494.57;(0.3998170137405396, 0.2993121253119575);26.5614261627;1.0;4;0;0;0;0;();(-2000.0, -2000.0);
05:11:36:911;05:11:36:911;0;5;-1.5;1;0;0;0;0;1;1;1;1;05:11:36:843;1447949494.57;(0.3998170137405396, 0.2993121253119575);26.5614261627;1.0;4;0;0;0;0;();(-2000.0, -2000.0);
05:11:36:928;05:11:36:928;0;0;-1.5;1;0;0;0;0;1;1;1;1;05:11:36:927;1447949494.64;(0.39991862773895265, 0.29964018927680125);26.8896121979;1.0;4;0;0;0;0;();(-2000.0, -2000.0);
05:11:36:944;05:11:36:944;0;6;-1.5;1;0;0;0;0;1;1;1;1;05:11:36:927;1447949494.64;(0.39991862773895265, 0.29964018927680125);26.8896121979;1.0;4;0;0;0;0;();(-2000.0, -2000.0);
05:11:36:961;05:11:36:961;0;11;-1.5;1;0;0;0;0;1;1;1;1;05:11:36:927;1447949494.64;(0.39991862773895265, 0.29964018927680125);26.8896121979;1.0;4;0;0;0;0;();(-2000.0, -2000.0);
05:11:36:977;05:11:36:977;0;5;-1.5;1;0;0;0;0;1;1;1;1;05:11:36:927;1447949494.64;(0.39991862773895265, 0.29964018927680125);26.8896121979;1.0;4;0;0;0;0;();(-2000.0, -2000.0);
05:11:37:011;05:11:37:010;0;5;-1.5;1;0.293255131964809;0;0;0;1;1;1;1;05:11:36:927;1447949494.64;(0.39991862773895265, 0.29964018927680125);26.8896121979;1.0;4;0;0;0;0;();(-2000.0, -2000.0);
05:11:37:027;05:11:37:027;0;11;-1.5;1;0.0977517106549365;0;0;0;1;1;1;1;05:11:37:010;1447949494.71;(0.400065279006958, 0.2996197594536676);26.5443954468;1.0;4;0;0;0;0;();(-2000.0, -2000.0);
05:11:37:045;05:11:37:044;0;5;-1.5;1;0;0;0;0;1;1;1;1;05:11:37:010;1447949494.71;(0.400065279006958, 0.2996197594536676);26.5443954468;1.0;4;0;0;0;0;();(-2000.0, -2000.0);
05:11:37:060;05:11:37:060;0;5;-1.5;1;0;0;0;0;1;1;1;1;05:11:37:051;1447949494.77;(0.40014138221740725, 0.2997464921739367);26.4960098267;1.0;4;0;0;0;0;();(-2000.0, -2000.0);
05:11:37:093;05:11:37:093;0;11;-1.5;1;0;0;0;0;1;1;1;1;05:11:37:051;1447949494.77;(0.40014138221740725, 0.2997464921739367);26.4960098267;1.0;4;0;0;0;0;();(-2000.0, -2000.0);
05:11:37:110;05:11:37:110;0;6;-1.5;1;0;0;0;0;1;1;1;1;05:11:37:051;1447949494.77;(0.40014138221740725, 0.2997464921739367);26.4960098267;1.0;4;0;0;0;0;();(-2000.0, -2000.0);
05:11:37:126;05:11:37:126;0;7;-1.5;1;0;0;0;0;1;1;1;1;05:11:37:051;1447949494.77;(0.40014138221740725, 0.2997464921739367);26.4960098267;1.0;4;0;0;0;0;();(-2000.0, -2000.0);
05:11:37:143;05:11:37:143;0;0;-1.5;1;0;0;0;0;1;1;1;1;05:11:37:135;1447949494.84;(0.400039529800415, 0.2992243025037977);26.4004859924;1.0;4;0;0;0;0;();(-2000.0, -2000.0);
05:11:37:160;05:11:37:160;0;10;-1.5;1;0;0;0;0;1;1;1;1;05:11:37:135;1447949494.84;(0.400039529800415, 0.2992243025037977);26.4004859924;1.0;4;0;0;0;0;();(-2000.0, -2000.0);
05:11:37:190;05:11:37:190;0;11;-1.5;1;0;0;0;0;1;1;1;1;05:11:37:135;1447949494.84;(0.400039529800415, 0.2992243025037977);26.4004859924;1.0;4;0;0;0;0;();(-2000.0, -2000.0);
05:11:37:207;05:11:37:207;0;0;-1.5;1;0;0;0;0;1;1;1;1;05:11:37:135;1447949494.84;(0.400039529800415, 0.2992243025037977);26.4004859924;1.0;4;0;0;0;0;();(-2000.0, -2000.0);
05:11:37:223;05:11:37:223;0;10;-1.5;1;0;0;0;0;1;1;1;1;05:11:37:214;1447949494.91;(0.4001143455505371, 0.2992379930284288);27.1458950043;1.0;4;0;0;0;0;();(-2000.0, -2000.0);
05:11:37:240;05:11:37:240;0;0;-1.5;1;0;0;0;0;1;1;1;1;05:11:37:214;1447949494.91;(0.4001143455505371, 0.2992379930284288);27.1458950043;1.0;4;0;0;0;0;();(-2000.0, -2000.0);
05:11:37:273;05:11:37:273;0;0;-1.5;1;0.0977517106549365;0;0;0;1;1;1;1;05:11:37:259;1447949494.97;(0.40028550624847414, 0.2993146684434679);26.906867981;1.0;4;0;0;0;0;();(-2000.0, -2000.0);
05:11:37:290;05:11:37:290;0;11;-1.5;1;0;0;0;0;1;1;1;1;05:11:37:259;1447949494.97;(0.40028550624847414, 0.2993146684434679);26.906867981;1.0;4;0;0;0;0;();(-2000.0, -2000.0);
05:11:37:306;05:11:37:306;0;0;-1.5;1;0;0;0;0;1;1;1;1;05:11:37:259;1447949494.97;(0.40028550624847414, 0.2993146684434679);26.906867981;1.0;4;0;0;0;0;();(-2000.0, -2000.0);
05:11:37:323;05:11:37:323;0;10;-1.5;1;0;0;0;0;1;1;1;1;05:11:37:259;1447949494.97;(0.40028550624847414, 0.2993146684434679);26.906867981;1.0;4;0;0;0;0;();(-2000.0, -2000.0);
05:11:37:340;05:11:37:340;0;0;-1.5;1;0;0;0;0;1;1;1;1;05:11:37:339;1447949495.04;(0.4001107931137085, 0.29970787896050344);27.0050144196;1.0;4;0;0;0;0;();(-2000.0, -2000.0);
05:11:37:373;05:11:37:372;0;0;-1.5;1;0.0977517106549365;0;0;0;1;1;1;1;05:11:37:339;1447949495.04;(0.4001107931137085, 0.29970787896050344);27.0050144196;1.0;4;0;0;0;0;();(-2000.0, -2000.0);
05:11:37:390;05:11:37:390;0;5;-1.5;1;0;0;0;0;1;1;1;1;05:11:37:383;1447949495.11;(0.40021553039550783, 0.2995106591118707);26.8954048157;1.0;4;0;0;0;0;();(-2000.0, -2000.0);
05:11:37:406;05:11:37:406;0;10;-1.5;1;0;0;0;0;1;1;1;1;05:11:37:383;1447949495.11;(0.40021553039550783, 0.2995106591118707);26.8954048157;1.0;4;0;0;0;0;();(-2000.0, -2000.0);
05:11:37:422;05:11:37:422;0;5;-1.5;1;0;0;0;0;1;1;1;1;05:11:37:383;1447949495.11;(0.40021553039550783, 0.2995106591118707);26.8954048157;1.0;4;0;0;0;0;();(-2000.0, -2000.0);
05:11:37:440;05:11:37:440;0;11;-1.5;1;0;0;0;0;1;1;1;1;05:11:37:383;1447949495.11;(0.40021553039550783, 0.2995106591118707);26.8954048157;1.0;4;0;0;0;0;();(-2000.0, -2000.0);
05:11:37:472;05:11:37:472;0;0;-1.5;1;0;0;0;0;1;1;1;1;05:11:37:467;1447949495.17;(0.4001432180404663, 0.2996219211154514);26.7830295563;1.0;4;0;0;0;0;();(-2000.0, -2000.0);
05:11:37:488;05:11:37:488;0;6;-1.5;1;0;0;0;0;1;1;1;1;05:11:37:467;1447949495.17;(0.4001432180404663, 0.2996219211154514);26.7830295563;1.0;4;0;0;0;0;();(-2000.0, -2000.0);
05:11:37:506;05:11:37:506;0;11;-1.5;1;0;0;0;0;1;1;1;1;05:11:37:467;1447949495.17;(0.4001432180404663, 0.2996219211154514);26.7830295563;1.0;4;0;0;0;0;();(-2000.0, -2000.0);
05:11:37:522;05:11:37:522;0;6;-1.5;1;0;0;0;0;1;1;1;1;05:11:37:467;1447949495.17;(0.4001432180404663, 0.2996219211154514);26.7830295563;1.0;4;0;0;0;0;();(-2000.0, -2000.0);
05:11:37:538;05:11:37:538;0;10;-1.5;1;0;0;0;0;1;1;1;1;05:11:37:467;1447949495.17;(0.4001432180404663, 0.2996219211154514);26.7830295563;1.0;4;0;0;0;0;();(-2000.0, -2000.0);
05:11:37:571;05:11:37:571;0;12;-1.5;1;0;0;0;0;1;1;1;1;05:11:37:548;1447949495.24;(0.4001351833343506, 0.2994793362087673);26.5423259735;1.0;4;0;0;0;0;();(-2000.0, -2000.0);
05:11:37:588;05:11:37:588;0;0;-1.5;1;0;0;0;0;1;1;1;1;05:11:37:548;1447949495.24;(0.4001351833343506, 0.2994793362087673);26.5423259735;1.0;4;0;0;0;0;();(-2000.0, -2000.0);
05:11:37:605;05:11:37:605;0;11;-1.5;1;0;0;0;0;1;1;1;1;05:11:37:590;1447949495.31;(0.40028502941131594, 0.29894705878363714);26.8898506165;1.0;4;0;0;0;0;();(-2000.0, -2000.0);
05:11:37:621;05:11:37:621;0;0;-1.5;1;0;0;0;0;1;1;1;1;05:11:37:590;1447949495.31;(0.40028502941131594, 0.29894705878363714);26.8898506165;1.0;4;0;0;0;0;();(-2000.0, -2000.0);
05:11:37:637;05:11:37:637;0;10;-1.5;1;0;0;0;0;1;1;1;1;05:11:37:590;1447949495.31;(0.40028502941131594, 0.29894705878363714);26.8898506165;1.0;4;0;0;0;0;();(-2000.0, -2000.0);
05:11:37:671;05:11:37:671;0;11;-1.5;1;0;0;0;0;1;1;1;1;05:11:37:590;1447949495.31;(0.40028502941131594, 0.29894705878363714);26.8898506165;1.0;4;0;0;0;0;();(-2000.0, -2000.0);
05:11:37:687;05:11:37:687;0;0;-1.5;1;0;0;0;0;1;1;1;1;05:11:37:671;1447949495.37;(0.4000862121582031, 0.29911270141601565);26.5535106659;1.0;4;0;0;0;0;();(-2000.0, -2000.0);
05:11:37:705;05:11:37:705;0;10;-1.5;1;0;0;0;0;1;1;1;1;05:11:37:671;1447949495.37;(0.4000862121582031, 0.29911270141601565);26.5535106659;1.0;4;0;0;0;0;();(-2000.0, -2000.0);
05:11:37:720;05:11:37:720;0;0;-1.5;1;0;0;0;0;1;1;1;1;05:11:37:714;1447949495.44;(0.4000558376312256, 0.2995688968234592);27.0333919525;1.0;4;0;0;0;0;();(-2000.0, -2000.0);
05:11:37:737;05:11:37:737;0;6;-1.5;1;0;0;0;0;1;1;1;1;05:11:37:714;1447949495.44;(0.4000558376312256, 0.2995688968234592);27.0333919525;1.0;4;0;0;0;0;();(-2000.0, -2000.0);
05:11:37:770;05:11:37:770;0;11;-1.5;1;0;0;0;0;1;1;1;1;05:11:37:714;1447949495.44;(0.4000558376312256, 0.2995688968234592);27.0333919525;1.0;4;0;0;0;0;();(-2000.0, -2000.0);
05:11:37:787;05:11:37:787;0;0;-1.5;1;0.293255131964809;0;0;0;1;1;1;1;05:11:37:714;1447949495.44;(0.4000558376312256, 0.2995688968234592);27.0333919525;1.0;4;0;0;0;0;();(-2000.0, -2000.0);
05:11:37:803;05:11:37:803;0;5;-1.5;1;0;0;0;0;1;1;1;1;05:11:37:798;1447949495.51;(0.3999239206314087, 0.2997484419080946);26.6932430267;1.0;4;0;0;0;0;();(-2000.0, -2000.0);
05:11:37:820;05:11:37:820;0;0;-1.5;1;0;0;0;0;1;1;1;1;05:11:37:798;1447949495.51;(0.3999239206314087, 0.2997484419080946);26.6932430267;1.0;4;0;0;0;0;();(-2000.0, -2000.0);
05:11:37:853;05:11:37:853;0;0;-1.5;1;0;0;0;0;1;1;1;1;05:11:37:798;1447949495.51;(0.3999239206314087, 0.2997484419080946);26.6932430267;1.0;4;0;0;0;0;();(-2000.0, -2000.0);
05:11:37:871;05:11:37:870;0;5;-1.5;1;0;0;0;0;1;1;1;1;05:11:37:798;1447949495.51;(0.3999239206314087, 0.2997484419080946);26.6932430267;1.0;4;0;0;0;0;();(-2000.0, -2000.0);
05:11:37:887;05:11:37:887;0;11;-1.5;1;0;0;0;0;1;1;1;1;05:11:37:879;1447949495.57;(0.39987294673919677, 0.29947857326931426);26.3639640808;1.0;4;0;0;0;0;();(-2000.0, -2000.0);
05:11:37:904;05:11:37:902;0;6;-1.5;1;0;0;0;0;1;1;1;1;05:11:37:879;1447949495.57;(0.39987294673919677, 0.29947857326931426);26.3639640808;1.0;4;0;0;0;0;();(-2000.0, -2000.0);
05:11:37:919;05:11:37:919;0;0;-1.5;1;0;0;0;0;1;1;1;1;05:11:37:879;1447949495.57;(0.39987294673919677, 0.29947857326931426);26.3639640808;1.0;4;0;0;0;0;();(-2000.0, -2000.0);
05:11:37:937;05:11:37:937;0;5;-1.5;1;0;0;0;0;1;1;1;1;05:11:37:922;1447949495.64;(0.4001251220703125, 0.2998290591769748);26.6111450195;1.0;4;0;0;0;0;();(-2000.0, -2000.0);
05:11:37:970;05:11:37:970;0;5;-1.5;1;0;0;0;0;1;1;1;1;05:11:37:922;1447949495.64;(0.4001251220703125, 0.2998290591769748);26.6111450195;1.0;4;0;0;0;0;();(-2000.0, -2000.0);
05:11:37:987;05:11:37:987;0;11;-1.5;1;0.293255131964809;0;0;0;1;1;1;1;05:11:37:922;1447949495.64;(0.4001251220703125, 0.2998290591769748);26.6111450195;1.0;4;0;0;0;0;();(-2000.0, -2000.0);
05:11:38:003;05:11:38:003;0;6;-1.5;1;0;0;0;0;1;1;1;1;05:11:37:922;1447949495.64;(0.4001251220703125, 0.2998290591769748);26.6111450195;1.0;4;0;0;0;0;();(-2000.0, -2000.0);
05:11:38:020;05:11:38:020;0;10;-1.5;1;0;0;0;0;1;1;1;1;05:11:38:004;1447949495.71;(0.3999319314956665, 0.2998171064588758);26.7079544067;1.0;4;0;0;0;0;();(-2000.0, -2000.0);
05:11:38:054;05:11:38:054;0;10;-1.5;1;0;0;0;0;1;1;1;1;05:11:38:046;1447949495.77;(0.400134015083313, 0.2995533837212456);26.7739467621;1.0;4;0;0;0;0;();(-2000.0, -2000.0);
05:11:38:070;05:11:38:069;0;0;-1.5;1;0;0;0;0;1;1;1;1;05:11:38:046;1447949495.77;(0.400134015083313, 0.2995533837212456);26.7739467621;1.0;4;0;0;0;0;();(-2000.0, -2000.0);
05:11:38:086;05:11:38:086;0;1;-1.5;1;0;0;0;0;1;1;1;1;05:11:38:046;1447949495.77;(0.400134015083313, 0.2995533837212456);26.7739467621;1.0;4;0;0;0;0;();(-2000.0, -2000.0);
05:11:38:104;05:11:38:104;0;0;-1.5;1;0;0;0;0;1;1;1;1;05:11:38:046;1447949495.77;(0.400134015083313, 0.2995533837212456);26.7739467621;1.0;4;0;0;0;0;();(-2000.0, -2000.0);
05:11:38:119;05:11:38:119;0;10;-1.5;1;0;0;0;0;1;1;1;1;05:11:38:046;1447949495.77;(0.400134015083313, 0.2995533837212456);26.7739467621;1.0;4;0;0;0;0;();(-2000.0, -2000.0);
05:11:38:152;05:11:38:152;0;11;-1.5;1;0;0;0;0;1;1;1;1;05:11:38:131;1447949495.84;(0.3999962091445923, 0.2996281517876519);26.5417423248;1.0;4;0;0;0;0;();(-2000.0, -2000.0);
05:11:38:169;05:11:38:169;0;0;-1.5;1;0;0;0;0;1;1;1;1;05:11:38:131;1447949495.84;(0.3999962091445923, 0.2996281517876519);26.5417423248;1.0;4;0;0;0;0;();(-2000.0, -2000.0);
05:11:38:186;05:11:38:185;0;5;-1.5;1;0;0;0;0;1;1;1;1;05:11:38:131;1447949495.84;(0.3999962091445923, 0.2996281517876519);26.5417423248;1.0;4;0;0;0;0;();(-2000.0, -2000.0);
05:11:38:202;05:11:38:202;0;0;-1.5;1;0;0;0;0;1;1;1;1;05:11:38:131;1447949495.84;(0.3999962091445923, 0.2996281517876519);26.5417423248;1.0;4;0;0;0;0;();(-2000.0, -2000.0);
05:11:38:219;05:11:38:219;0;10;-1.5;1;0;0;0;0;1;1;1;1;05:11:38:211;1447949495.91;(0.399934720993042, 0.29943771362304683);26.9816589355;1.0;4;0;0;0;0;();(-2000.0, -2000.0);
05:11:38:252;05:11:38:252;0;5;-1.5;1;0;0;0;0;1;1;1;1;05:11:38:211;1447949495.91;(0.399934720993042, 0.29943771362304683);26.9816589355;1.0;4;0;0;0;0;();(-2000.0, -2000.0);
05:11:38:269;05:11:38:269;0;0;-1.5;1;0;0;0;0;1;1;1;1;05:11:38:254;1447949495.97;(0.3998261451721191, 0.29976001315646705);26.8083019257;1.0;4;0;0;0;0;();(-2000.0, -2000.0);
05:11:38:285;05:11:38:285;0;5;-1.5;1;0;0;0;0;1;1;1;1;05:11:38:254;1447949495.97;(0.3998261451721191, 0.29976001315646705);26.8083019257;1.0;4;0;0;0;0;();(-2000.0, -2000.0);
05:11:38:302;05:11:38:301;0;0;-1.5;1;0;0;0;0;1;1;1;1;05:11:38:254;1447949495.97;(0.3998261451721191, 0.29976001315646705);26.8083019257;1.0;4;0;0;0;0;();(-2000.0, -2000.0);
05:11:38:319;05:11:38:319;0;6;-1.5;1;0;0;0;0;1;1;1;1;05:11:38:254;1447949495.97;(0.3998261451721191, 0.29976001315646705);26.8083019257;1.0;4;0;0;0;0;();(-2000.0, -2000.0);
05:11:38:351;05:11:38:351;0;5;-1.5;1;0;0;0;0;1;1;1;1;05:11:38:334;1447949496.04;(0.4001728296279907, 0.29952875773111975);26.8925151825;1.0;4;0;0;0;0;();(-2000.0, -2000.0);
05:11:38:369;05:11:38:369;0;0;-1.5;1;0;0;0;0;1;1;1;1;05:11:38:334;1447949496.04;(0.4001728296279907, 0.29952875773111975);26.8925151825;1.0;4;0;0;0;0;();(-2000.0, -2000.0);
05:11:38:384;05:11:38:384;0;6;-1.5;1;0;0;0;0;1;1;1;1;05:11:38:378;1447949496.11;(0.39998636245727537, 0.29969287448459203);26.3267936707;1.0;4;0;0;0;0;();(-2000.0, -2000.0);
05:11:38:401;05:11:38:401;0;2;-1.5;1;0;0;0;0;1;1;1;1;05:11:38:378;1447949496.11;(0.39998636245727537, 0.29969287448459203);26.3267936707;1.0;4;0;0;0;0;();(-2000.0, -2000.0);
05:11:38:417;05:11:38:417;0;5;-1.5;1;0;0;0;0;1;1;1;1;05:11:38:378;1447949496.11;(0.39998636245727537, 0.29969287448459203);26.3267936707;1.0;4;0;0;0;0;();(-2000.0, -2000.0);
05:11:38:451;05:11:38:450;0;10;-1.5;1;0;0;0;0;1;1;1;1;05:11:38:378;1447949496.11;(0.39998636245727537, 0.29969287448459203);26.3267936707;1.0;4;0;0;0;0;();(-2000.0, -2000.0);
05:11:38:467;05:11:38:467;0;10;-1.5;1;0;0;0;0;1;1;1;1;05:11:38:458;1447949496.17;(0.3999607801437378, 0.2996763017442491);26.7803001404;1.0;4;0;0;0;0;();(-2000.0, -2000.0);
05:11:38:484;05:11:38:484;0;6;-1.5;1;0;0;0;0;1;1;1;1;05:11:38:458;1447949496.17;(0.3999607801437378, 0.2996763017442491);26.7803001404;1.0;4;0;0;0;0;();(-2000.0, -2000.0);
05:11:38:500;05:11:38:500;0;10;-1.5;1;0;0;0;0;1;1;1;1;05:11:38:458;1447949496.17;(0.3999607801437378, 0.2996763017442491);26.7803001404;1.0;4;0;0;0;0;();(-2000.0, -2000.0);
05:11:38:517;05:11:38:517;0;5;-1.5;1;0;0;0;0;1;1;1;1;05:11:38:458;1447949496.17;(0.3999607801437378, 0.2996763017442491);26.7803001404;1.0;4;0;0;0;0;();(-2000.0, -2000.0);
05:11:38:550;05:11:38:550;0;0;-1.5;1;0.0977517106549365;0;0;0;1;1;1;1;05:11:38:542;1447949496.24;(0.4000611066818237, 0.29994956122504335);26.5664234161;1.0;4;0;0;0;0;();(-2000.0, -2000.0);
05:11:38:567;05:11:38:566;0;11;-1.5;1;0;0;0;0;1;1;1;1;05:11:38:542;1447949496.24;(0.4000611066818237, 0.29994956122504335);26.5664234161;1.0;4;0;0;0;0;();(-2000.0, -2000.0);
05:11:38:584;05:11:38:584;0;0;-1.5;1;0;0;0;0;1;1;1;1;05:11:38:542;1447949496.24;(0.4000611066818237, 0.29994956122504335);26.5664234161;1.0;4;0;0;0;0;();(-2000.0, -2000.0);
05:11:38:600;05:11:38:600;0;10;-1.5;1;0;0;0;0;1;1;1;1;05:11:38:542;1447949496.24;(0.4000611066818237, 0.29994956122504335);26.5664234161;1.0;4;0;0;0;0;();(-2000.0, -2000.0);
05:11:38:634;05:11:38:634;0;11;-1.5;1;0;0;0;0;1;1;1;1;05:11:38:626;1447949496.31;(0.40009655952453616, 0.2995255364312066);26.9195423126;1.0;4;0;0;0;0;();(-2000.0, -2000.0);
05:11:38:650;05:11:38:649;0;15;-1.5;1;0;0;0;0;1;1;1;1;05:11:38:626;1447949496.31;(0.40009655952453616, 0.2995255364312066);26.9195423126;1.0;4;0;0;0;0;();(-2000.0, -2000.0);
05:11:38:666;05:11:38:666;0;10;-1.5;1;0;0;0;0;1;1;1;1;05:11:38:626;1447949496.31;(0.40009655952453616, 0.2995255364312066);26.9195423126;1.0;4;0;0;0;0;();(-2000.0, -2000.0);
05:11:38:683;05:11:38:683;0;0;-1.5;1;0;0;0;0;1;1;1;1;05:11:38:666;1447949496.37;(0.4003761768341064, 0.29883401658799913);27.4206314087;1.0;4;0;0;0;0;();(-2000.0, -2000.0);
05:11:38:699;05:11:38:699;0;5;-1.5;1;0;0;0;0;1;1;1;1;05:11:38:666;1447949496.37;(0.4003761768341064, 0.29883401658799913);27.4206314087;1.0;4;0;0;0;0;();(-2000.0, -2000.0);
05:11:38:732;05:11:38:732;0;5;-1.5;1;0;0;0;0;1;1;1;1;05:11:38:710;1447949496.44;(0.40023767948150635, 0.2993096669514974);27.3816661835;1.0;4;0;0;0;0;();(-2000.0, -2000.0);
05:11:38:749;05:11:38:749;0;0;-1.5;1;0;0;0;0;1;1;1;1;05:11:38:710;1447949496.44;(0.40023767948150635, 0.2993096669514974);27.3816661835;1.0;4;0;0;0;0;();(-2000.0, -2000.0);
05:11:38:765;05:11:38:765;0;5;-1.5;1;0.0977517106549365;0;0;0;1;1;1;1;05:11:38:710;1447949496.44;(0.40023767948150635, 0.2993096669514974);27.3816661835;1.0;4;0;0;0;0;();(-2000.0, -2000.0);
05:11:38:782;05:11:38:782;0;1;-1.5;1;0;0;0;0;1;1;1;1;05:11:38:710;1447949496.44;(0.40023767948150635, 0.2993096669514974);27.3816661835;1.0;4;0;0;0;0;();(-2000.0, -2000.0);
05:11:38:799;05:11:38:798;0;15;-1.5;1;0;0;0;0;1;1;1;1;05:11:38:790;1447949496.51;(0.40032527446746824, 0.29912965562608507);27.1996574402;1.0;4;0;0;0;0;();(-2000.0, -2000.0);
05:11:38:832;05:11:38:832;0;5;-1.5;1;0;0;0;0;1;1;1;1;05:11:38:790;1447949496.51;(0.40032527446746824, 0.29912965562608507);27.1996574402;1.0;4;0;0;0;0;();(-2000.0, -2000.0);
05:11:38:849;05:11:38:848;0;1;-1.5;1;0;0;0;0;1;1;1;1;05:11:38:790;1447949496.51;(0.40032527446746824, 0.29912965562608507);27.1996574402;1.0;4;0;0;0;0;();(-2000.0, -2000.0);
05:11:38:865;05:11:38:865;0;5;-1.5;1;0;0;0;0;1;1;1;1;05:11:38:790;1447949496.51;(0.40032527446746824, 0.29912965562608507);27.1996574402;1.0;4;0;0;0;0;();(-2000.0, -2000.0);
05:11:38:881;05:11:38:881;0;11;-1.5;1;0;0;0;0;1;1;1;1;05:11:38:874;1447949496.57;(0.4002703666687012, 0.29945297241210933);27.2263584137;1.0;4;0;0;0;0;();(-2000.0, -2000.0);
05:11:38:898;05:11:38:898;0;0;-1.5;1;0;0;0;0;1;1;1;1;05:11:38:874;1447949496.57;(0.4002703666687012, 0.29945297241210933);27.2263584137;1.0;4;0;0;0;0;();(-2000.0, -2000.0);
05:11:38:931;05:11:38:931;0;0;-1.5;1;0;0;0;0;1;1;1;1;05:11:38:919;1447949496.64;(0.4002341032028198, 0.29989513821072045);27.1240367889;1.0;4;0;0;0;0;();(-2000.0, -2000.0);
05:11:38:948;05:11:38:947;0;11;-1.5;1;0;0;0;0;1;1;1;1;05:11:38:919;1447949496.64;(0.4002341032028198, 0.29989513821072045);27.1240367889;1.0;4;0;0;0;0;();(-2000.0, -2000.0);
05:11:38:964;05:11:38:964;0;6;-1.5;1;0;0;0;0;1;1;1;1;05:11:38:919;1447949496.64;(0.4002341032028198, 0.29989513821072045);27.1240367889;1.0;4;0;0;0;0;();(-2000.0, -2000.0);
05:11:38:981;05:11:38:981;0;10;-1.5;1;0;0;0;0;1;1;1;1;05:11:38:919;1447949496.64;(0.4002341032028198, 0.29989513821072045);27.1240367889;1.0;4;0;0;0;0;();(-2000.0, -2000.0);
05:11:38:997;05:11:38:997;0;0;-1.5;1;0;0;0;0;1;1;1;1;05:11:38:919;1447949496.64;(0.4002341032028198, 0.29989513821072045);27.1240367889;1.0;4;0;0;0;0;();(-2000.0, -2000.0);
05:11:39:031;05:11:39:031;0;6;-1.5;1;0;0;0;0;1;1;1;1;05:11:38:998;1447949496.71;(0.4001441955566406, 0.29995858934190534);27.2758960724;1.0;4;0;0;0;0;();(-2000.0, -2000.0);
05:11:39:047;05:11:39:047;0;11;-1.5;1;0;0;0;0;1;1;1;1;05:11:39:042;1447949496.77;(0.4000538349151611, 0.30018721686469185);26.902053833;1.0;4;0;0;0;0;();(-2000.0, -2000.0);
05:11:39:063;05:11:39:063;0;12;-1.5;1;0;0;0;0;1;1;1;1;05:11:39:042;1447949496.77;(0.4000538349151611, 0.30018721686469185);26.902053833;1.0;4;0;0;0;0;();(-2000.0, -2000.0);
05:11:39:081;05:11:39:081;0;10;-1.5;1;0;0;0;0;1;1;1;1;05:11:39:042;1447949496.77;(0.4000538349151611, 0.30018721686469185);26.902053833;1.0;4;0;0;0;0;();(-2000.0, -2000.0);
05:11:39:113;05:11:39:113;0;6;-1.5;1;0;0;0;0;1;1;1;1;05:11:39:042;1447949496.77;(0.4000538349151611, 0.30018721686469185);26.902053833;1.0;4;0;0;0;0;();(-2000.0, -2000.0);
05:11:39:131;05:11:39:131;0;6;-1.5;1;0;0;0;0;1;1;1;1;05:11:39:122;1447949496.84;(0.4000330686569214, 0.299959479437934);27.1623401642;1.0;4;0;0;0;0;();(-2000.0, -2000.0);
05:11:39:146;05:11:39:146;0;5;-1.5;1;0;0;0;0;1;1;1;1;05:11:39:122;1447949496.84;(0.4000330686569214, 0.299959479437934);27.1623401642;1.0;4;0;0;0;0;();(-2000.0, -2000.0);
05:11:39:163;05:11:39:163;0;0;-1.5;1;0;0;0;0;1;1;1;1;05:11:39:122;1447949496.84;(0.4000330686569214, 0.299959479437934);27.1623401642;1.0;4;0;0;0;0;();(-2000.0, -2000.0);
05:11:39:180;05:11:39:179;0;6;-1.5;1;0;0;0;0;1;1;1;1;05:11:39:122;1447949496.84;(0.4000330686569214, 0.299959479437934);27.1623401642;1.0;4;0;0;0;0;();(-2000.0, -2000.0);
05:11:39:213;05:11:39:213;0;5;-1.5;1;0;0;0;0;1;1;1;1;05:11:39:206;1447949496.91;(0.3999011516571045, 0.29993002149793835);26.5067806244;1.0;4;0;0;0;0;();(-2000.0, -2000.0);
05:11:39:229;05:11:39:229;0;0;-1.5;1;0;0;0;0;1;1;1;1;05:11:39:206;1447949496.91;(0.3999011516571045, 0.29993002149793835);26.5067806244;1.0;4;0;0;0;0;();(-2000.0, -2000.0);
05:11:39:246;05:11:39:246;0;5;-1.5;1;0.293255131964809;0;0;0;1;1;1;1;05:11:39:206;1447949496.91;(0.3999011516571045, 0.29993002149793835);26.5067806244;1.0;4;0;0;0;0;();(-2000.0, -2000.0);
05:11:39:262;05:11:39:262;0;0;-1.5;1;0;0;0;0;1;1;1;1;05:11:39:206;1447949496.91;(0.3999011516571045, 0.29993002149793835);26.5067806244;1.0;4;0;0;0;0;();(-2000.0, -2000.0);
05:11:39:279;05:11:39:279;0;6;-1.5;1;0;0;0;0;1;1;1;1;05:11:39:206;1447949496.91;(0.3999011516571045, 0.29993002149793835);26.5067806244;1.0;4;0;0;0;0;();(-2000.0, -2000.0);
05:11:39:312;05:11:39:312;0;5;-1.5;1;0;0;0;0;1;1;1;1;05:11:39:290;1447949496.97;(0.3997541666030884, 0.2994586520724827);26.6959648132;1.0;4;0;0;0;0;();(-2000.0, -2000.0);
05:11:39:329;05:11:39:329;0;10;-1.5;1;0;0;0;0;1;1;1;1;05:11:39:290;1447949496.97;(0.3997541666030884, 0.2994586520724827);26.6959648132;1.0;4;0;0;0;0;();(-2000.0, -2000.0);
05:11:39:345;05:11:39:345;0;6;-1.5;1;0;0;0;0;1;1;1;1;05:11:39:330;1447949497.04;(0.39994134902954104, 0.29948552449544275);26.4011077881;1.0;4;0;0;0;0;();(-2000.0, -2000.0);
05:11:39:362;05:11:39:362;0;11;-1.5;1;0;0;0;0;1;1;1;1;05:11:39:330;1447949497.04;(0.39994134902954104, 0.29948552449544275);26.4011077881;1.0;4;0;0;0;0;();(-2000.0, -2000.0);
05:11:39:379;05:11:39:379;0;5;-1.5;1;0;0;0;0;1;1;1;1;05:11:39:330;1447949497.04;(0.39994134902954104, 0.29948552449544275);26.4011077881;1.0;4;0;0;0;0;();(-2000.0, -2000.0);
05:11:39:412;05:11:39:412;0;10;-1.5;1;0;0;0;0;1;1;1;1;05:11:39:330;1447949497.04;(0.39994134902954104, 0.29948552449544275);26.4011077881;1.0;4;0;0;0;0;();(-2000.0, -2000.0);
05:11:39:428;05:11:39:428;0;11;-1.5;1;0;0;0;0;1;1;1;1;05:11:39:414;1447949497.11;(0.39987668991088865, 0.2998047298855252);26.7076320648;1.0;4;0;0;0;0;();(-2000.0, -2000.0);
05:11:39:445;05:11:39:445;0;0;-1.5;1;0;0;0;0;1;1;1;1;05:11:39:414;1447949497.11;(0.39987668991088865, 0.2998047298855252);26.7076320648;1.0;4;0;0;0;0;();(-2000.0, -2000.0);
05:11:39:462;05:11:39:461;0;10;-1.5;1;0;0;0;0;1;1;1;1;05:11:39:454;1447949497.17;(0.39995560646057127, 0.2993930816650391);26.9366264343;1.0;4;0;0;0;0;();(-2000.0, -2000.0);
05:11:39:478;05:11:39:478;0;0;-1.5;1;0;0;0;0;1;1;1;1;05:11:39:454;1447949497.17;(0.39995560646057127, 0.2993930816650391);26.9366264343;1.0;4;0;0;0;0;();(-2000.0, -2000.0);
05:11:39:511;05:11:39:511;0;0;-1.5;1;0;0;0;0;1;1;1;1;05:11:39:454;1447949497.17;(0.39995560646057127, 0.2993930816650391);26.9366264343;1.0;4;0;0;0;0;();(-2000.0, -2000.0);
05:11:39:527;05:11:39:527;0;5;-1.5;1;0.0977517106549365;0;0;0;1;1;1;1;05:11:39:454;1447949497.17;(0.39995560646057127, 0.2993930816650391);26.9366264343;1.0;4;0;0;0;0;();(-2000.0, -2000.0);
05:11:39:545;05:11:39:545;0;0;-1.5;1;0;0;0;0;1;1;1;1;05:11:39:538;1447949497.24;(0.4000263690948486, 0.2992900000678168);26.8185768127;1.0;4;0;0;0;0;();(-2000.0, -2000.0);
05:11:39:561;05:11:39:560;0;10;-1.5;1;0;0;0;0;1;1;1;1;05:11:39:538;1447949497.24;(0.4000263690948486, 0.2992900000678168);26.8185768127;1.0;4;0;0;0;0;();(-2000.0, -2000.0);
05:11:39:577;05:11:39:577;0;0;-1.5;1;0;0;0;0;1;1;1;1;05:11:39:538;1447949497.24;(0.4000263690948486, 0.2992900000678168);26.8185768127;1.0;4;0;0;0;0;();(-2000.0, -2000.0);
05:11:39:610;05:11:39:610;0;5;-1.5;1;0;0;0;0;1;1;1;1;05:11:39:578;1447949497.31;(0.3997852325439453, 0.29977959526909725);26.5273151398;1.0;4;0;0;0;0;();(-2000.0, -2000.0);
05:11:39:627;05:11:39:627;0;0;-1.5;1;0;0;0;0;1;1;1;1;05:11:39:578;1447949497.31;(0.3997852325439453, 0.29977959526909725);26.5273151398;1.0;4;0;0;0;0;();(-2000.0, -2000.0);
05:11:39:643;05:11:39:643;0;0;-1.5;1;0;0;0;0;1;1;1;1;05:11:39:578;1447949497.31;(0.3997852325439453, 0.29977959526909725);26.5273151398;1.0;4;0;0;0;0;();(-2000.0, -2000.0);
05:11:39:660;05:11:39:660;0;14;-1.5;1;0;0;0;0;1;1;1;1;05:11:39:578;1447949497.31;(0.3997852325439453, 0.29977959526909725);26.5273151398;1.0;4;0;0;0;0;();(-2000.0, -2000.0);
05:11:39:693;05:11:39:693;0;5;-1.5;1;0;0;0;0;1;1;1;1;05:11:39:662;1447949497.37;(0.4002291917800903, 0.2995844946967231);26.5004825592;1.0;4;0;0;0;0;();(-2000.0, -2000.0);
05:11:39:711;05:11:39:711;0;0;-1.5;1;0;0;0;0;1;1;1;1;05:11:39:662;1447949497.37;(0.4002291917800903, 0.2995844946967231);26.5004825592;1.0;4;0;0;0;0;();(-2000.0, -2000.0);
05:11:39:726;05:11:39:726;0;5;-1.5;1;0.0977517106549365;0;0;0;1;1;1;1;05:11:39:662;1447949497.37;(0.4002291917800903, 0.2995844946967231);26.5004825592;1.0;4;0;0;0;0;();(-2000.0, -2000.0);
05:11:39:743;05:11:39:743;0;0;-1.5;1;0;0;0;0;1;1;1;1;05:11:39:662;1447949497.37;(0.4002291917800903, 0.2995844946967231);26.5004825592;1.0;4;0;0;0;0;();(-2000.0, -2000.0);
05:11:39:759;05:11:39:759;0;5;-1.5;1;0;0;0;0;1;1;1;1;05:11:39:747;1447949497.44;(0.3998896598815918, 0.2997832404242622);26.7547836304;1.0;4;0;0;0;0;();(-2000.0, -2000.0);
05:11:39:793;05:11:39:793;0;5;-1.5;1;0;0;0;0;1;1;1;1;05:11:39:747;1447949497.44;(0.3998896598815918, 0.2997832404242622);26.7547836304;1.0;4;0;0;0;0;();(-2000.0, -2000.0);
05:11:39:809;05:11:39:809;0;11;-1.5;1;0;0;0;0;1;1;1;1;05:11:39:747;1447949497.44;(0.3998896598815918, 0.2997832404242622);26.7547836304;1.0;4;0;0;0;0;();(-2000.0, -2000.0);
05:11:39:826;05:11:39:826;0;5;-1.5;1;0;0;0;0;1;1;1;1;05:11:39:747;1447949497.44;(0.3998896598815918, 0.2997832404242622);26.7547836304;1.0;4;0;0;0;0;();(-2000.0, -2000.0);
05:11:39:842;05:11:39:842;0;10;-1.5;1;0;0;0;0;1;1;1;1;05:11:39:832;1447949497.51;(0.39980876445770264, 0.29931047227647567);26.6144542694;1.0;4;0;0;0;0;();(-2000.0, -2000.0);
05:11:39:859;05:11:39:859;0;0;-1.5;1;0;0;0;0;1;1;1;1;05:11:39:832;1447949497.51;(0.39980876445770264, 0.29931047227647567);26.6144542694;1.0;4;0;0;0;0;();(-2000.0, -2000.0);
05:11:39:893;05:11:39:893;0;7;-1.5;1;0;0;0;0;1;1;1;1;05:11:39:870;1447949497.57;(0.4001199245452881, 0.29928491380479605);26.8248291016;1.0;4;0;0;0;0;();(-2000.0, -2000.0);
05:11:39:909;05:11:39:909;0;11;-1.5;1;0;0;0;0;1;1;1;1;05:11:39:870;1447949497.57;(0.4001199245452881, 0.29928491380479605);26.8248291016;1.0;4;0;0;0;0;();(-2000.0, -2000.0);
05:11:39:925;05:11:39:925;0;0;-1.5;1;0;0;0;0;1;1;1;1;05:11:39:870;1447949497.57;(0.4001199245452881, 0.29928491380479605);26.8248291016;1.0;4;0;0;0;0;();(-2000.0, -2000.0);
05:11:39:942;05:11:39:942;0;10;-1.5;1;0;0;0;0;1;1;1;1;05:11:39:870;1447949497.57;(0.4001199245452881, 0.29928491380479605);26.8248291016;1.0;4;0;0;0;0;();(-2000.0, -2000.0);
05:11:39:959;05:11:39:959;0;7;-1.5;1;0;0;0;0;1;1;1;1;05:11:39:954;1447949497.64;(0.39997589588165283, 0.29938312106662324);26.78606987;1.0;4;0;0;0;0;();(-2000.0, -2000.0);
05:11:39:991;05:11:39:991;0;0;-1.5;1;0;0;0;0;1;1;1;1;05:11:39:954;1447949497.64;(0.39997589588165283, 0.29938312106662324);26.78606987;1.0;4;0;0;0;0;();(-2000.0, -2000.0);
05:11:40:008;05:11:40:008;0;5;-1.5;1;0;0;0;0;1;1;1;1;05:11:39:994;1447949497.71;(0.4002675533294678, 0.2997743394639757);26.8043308258;1.0;4;0;0;0;0;();(-2000.0, -2000.0);
05:11:40:025;05:11:40:025;0;0;-1.5;1;0;0;0;0;1;1;1;1;05:11:39:994;1447949497.71;(0.4002675533294678, 0.2997743394639757);26.8043308258;1.0;4;0;0;0;0;();(-2000.0, -2000.0);
05:11:40:041;05:11:40:041;0;10;-1.5;1;0;0;0;0;1;1;1;1;05:11:39:994;1447949497.71;(0.4002675533294678, 0.2997743394639757);26.8043308258;1.0;4;0;0;0;0;();(-2000.0, -2000.0);
05:11:40:058;05:11:40:058;0;10;-1.5;1;0;0;0;0;1;1;1;1;05:11:39:994;1447949497.71;(0.4002675533294678, 0.2997743394639757);26.8043308258;1.0;4;0;0;0;0;();(-2000.0, -2000.0);
05:11:40:092;05:11:40:092;0;0;-1.5;1;0;0;0;0;1;1;1;1;05:11:40:078;1447949497.77;(0.4001417875289917, 0.29976234436035154);26.6163425446;1.0;4;0;0;0;0;();(-2000.0, -2000.0);
05:11:40:107;05:11:40:107;0;10;-1.5;1;0;0;0;0;1;1;1;1;05:11:40:078;1447949497.77;(0.4001417875289917, 0.29976234436035154);26.6163425446;1.0;4;0;0;0;0;();(-2000.0, -2000.0);
05:11:40:124;05:11:40:124;0;0;-1.5;1;0;0;0;0;1;1;1;1;05:11:40:118;1447949497.84;(0.4003216028213501, 0.2996869828965929);26.6445713043;1.0;4;0;0;0;0;();(-2000.0, -2000.0);
05:11:40:141;05:11:40:140;0;11;-1.5;1;0;0;0;0;1;1;1;1;05:11:40:118;1447949497.84;(0.4003216028213501, 0.2996869828965929);26.6445713043;1.0;4;0;0;0;0;();(-2000.0, -2000.0);
05:11:40:158;05:11:40:158;0;0;-1.5;1;0;0;0;0;1;1;1;1;05:11:40:118;1447949497.84;(0.4003216028213501, 0.2996869828965929);26.6445713043;1.0;4;0;0;0;0;();(-2000.0, -2000.0);
05:11:40:190;05:11:40:190;0;10;-1.5;1;0;0;0;0;1;1;1;1;05:11:40:118;1447949497.84;(0.4003216028213501, 0.2996869828965929);26.6445713043;1.0;4;0;0;0;0;();(-2000.0, -2000.0);
05:11:40:207;05:11:40:207;0;6;-1.5;1;0;0;0;0;1;1;1;1;05:11:40:202;1447949497.91;(0.40010862350463866, 0.29960280524359806);27.0122776031;1.0;4;0;0;0;0;();(-2000.0, -2000.0);
05:11:40:223;05:11:40:223;0;0;-1.5;1;0;0;0;0;1;1;1;1;05:11:40:202;1447949497.91;(0.40010862350463866, 0.29960280524359806);27.0122776031;1.0;4;0;0;0;0;();(-2000.0, -2000.0);
05:11:40:243;05:11:40:243;0;6;-1.5;1;0;0;0;0;1;1;1;1;05:11:40:242;1447949497.97;(0.4001976251602173, 0.29942881266276045);27.1620635986;1.0;4;0;0;0;0;();(-2000.0, -2000.0);
05:11:40:261;05:11:40:261;0;10;-1.5;1;0;0;0;0;1;1;1;1;05:11:40:242;1447949497.97;(0.4001976251602173, 0.29942881266276045);27.1620635986;1.0;4;0;0;0;0;();(-2000.0, -2000.0);
05:11:40:293;05:11:40:293;0;11;-1.5;1;0;0;0;0;1;1;1;1;05:11:40:242;1447949497.97;(0.4001976251602173, 0.29942881266276045);27.1620635986;1.0;4;0;0;0;0;();(-2000.0, -2000.0);
05:11:40:309;05:11:40:309;0;0;-1.5;1;0;0;0;0;1;1;1;1;05:11:40:242;1447949497.97;(0.4001976251602173, 0.29942881266276045);27.1620635986;1.0;4;0;0;0;0;();(-2000.0, -2000.0);
05:11:40:326;05:11:40:326;0;11;-1.5;1;0;0;0;0;1;1;1;1;05:11:40:242;1447949497.97;(0.4001976251602173, 0.29942881266276045);27.1620635986;1.0;4;0;0;0;0;();(-2000.0, -2000.0);
05:11:40:343;05:11:40:342;0;5;-1.5;1;0;0;0;0;1;1;1;1;05:11:40:326;1447949498.04;(0.400168251991272, 0.29957661098904076);27.3382835388;1.0;4;0;0;0;0;();(-2000.0, -2000.0);
05:11:40:359;05:11:40:359;0;10;-1.5;1;0;0;0;0;1;1;1;1;05:11:40:326;1447949498.04;(0.400168251991272, 0.29957661098904076);27.3382835388;1.0;4;0;0;0;0;();(-2000.0, -2000.0);
05:11:40:392;05:11:40:392;0;11;-1.5;1;0;0;0;0;1;1;1;1;05:11:40:326;1447949498.04;(0.400168251991272, 0.29957661098904076);27.3382835388;1.0;4;0;0;0;0;();(-2000.0, -2000.0);
05:11:40:409;05:11:40:409;0;0;-1.5;1;0;0;0;0;1;1;1;1;05:11:40:326;1447949498.04;(0.400168251991272, 0.29957661098904076);27.3382835388;1.0;4;0;0;0;0;();(-2000.0, -2000.0);
05:11:40:426;05:11:40:426;0;10;-1.5;1;0;0;0;0;1;1;1;1;05:11:40:410;1447949498.11;(0.40007853507995605, 0.2998829735649957);26.9209136963;1.0;4;0;0;0;0;();(-2000.0, -2000.0);
05:11:40:442;05:11:40:442;0;0;-1.5;1;0;0;0;0;1;1;1;1;05:11:40:410;1447949498.11;(0.40007853507995605, 0.2998829735649957);26.9209136963;1.0;4;0;0;0;0;();(-2000.0, -2000.0);
05:11:40:459;05:11:40:458;0;5;-1.5;1;0;0;0;0;1;1;1;1;05:11:40:450;1447949498.17;(0.4001306533813477, 0.29991946750217013);27.0251693726;1.0;4;0;0;0;0;();(-2000.0, -2000.0);
05:11:40:492;05:11:40:492;0;5;-1.5;1;0;0;0;0;1;1;1;1;05:11:40:450;1447949498.17;(0.4001306533813477, 0.29991946750217013);27.0251693726;1.0;4;0;0;0;0;();(-2000.0, -2000.0);
05:11:40:508;05:11:40:508;0;10;-1.5;1;0;0;0;0;1;1;1;1;05:11:40:450;1447949498.17;(0.4001306533813477, 0.29991946750217013);27.0251693726;1.0;4;0;0;0;0;();(-2000.0, -2000.0);
05:11:40:526;05:11:40:526;0;6;-1.5;1;0;0;0;0;1;1;1;1;05:11:40:450;1447949498.17;(0.4001306533813477, 0.29991946750217013);27.0251693726;1.0;4;0;0;0;0;();(-2000.0, -2000.0);
05:11:40:541;05:11:40:541;0;0;-1.5;1;0;0;0;0;1;1;1;1;05:11:40:535;1447949498.24;(0.4002007722854614, 0.29956855773925783);26.9758148193;1.0;4;0;0;0;0;();(-2000.0, -2000.0);
05:11:40:558;05:11:40:558;0;5;-1.5;1;0;0;0;0;1;1;1;1;05:11:40:535;1447949498.24;(0.4002007722854614, 0.29956855773925783);26.9758148193;1.0;4;0;0;0;0;();(-2000.0, -2000.0);
05:11:40:592;05:11:40:592;0;5;-1.5;1;0;0;0;0;1;1;1;1;05:11:40:535;1447949498.24;(0.4002007722854614, 0.29956855773925783);26.9758148193;1.0;4;0;0;0;0;();(-2000.0, -2000.0);
05:11:40:608;05:11:40:608;0;10;-1.5;1;0;0;0;0;1;1;1;1;05:11:40:535;1447949498.24;(0.4002007722854614, 0.29956855773925783);26.9758148193;1.0;4;0;0;0;0;();(-2000.0, -2000.0);
05:11:40:624;05:11:40:624;0;6;-1.5;1;0;0;0;0;1;1;1;1;05:11:40:618;1447949498.31;(0.4001041650772095, 0.29981252882215714);27.2592220306;1.0;4;0;0;0;0;();(-2000.0, -2000.0);
05:11:40:642;05:11:40:642;0;0;-1.5;1;0;0;0;0;1;1;1;1;05:11:40:618;1447949498.31;(0.4001041650772095, 0.29981252882215714);27.2592220306;1.0;4;0;0;0;0;();(-2000.0, -2000.0);
05:11:40:658;05:11:40:657;0;5;-1.5;1;0;0;0;0;1;1;1;1;05:11:40:618;1447949498.31;(0.4001041650772095, 0.29981252882215714);27.2592220306;1.0;4;0;0;0;0;();(-2000.0, -2000.0);
05:11:40:691;05:11:40:690;0;0;-1.5;1;0;0;0;0;1;1;1;1;05:11:40:658;1447949498.37;(0.3998851299285889, 0.2998348236083984);26.8695888519;1.0;4;0;0;0;0;();(-2000.0, -2000.0);
05:11:40:707;05:11:40:707;0;11;-1.5;1;0;0;0;0;1;1;1;1;05:11:40:658;1447949498.37;(0.3998851299285889, 0.2998348236083984);26.8695888519;1.0;4;0;0;0;0;();(-2000.0, -2000.0);
05:11:40:724;05:11:40:724;0;0;-1.5;1;0;0;0;0;1;1;1;1;05:11:40:658;1447949498.37;(0.3998851299285889, 0.2998348236083984);26.8695888519;1.0;4;0;0;0;0;();(-2000.0, -2000.0);
05:11:40:740;05:11:40:740;0;10;-1.5;1;0;0;0;0;1;1;1;1;05:11:40:658;1447949498.37;(0.3998851299285889, 0.2998348236083984);26.8695888519;1.0;4;0;0;0;0;();(-2000.0, -2000.0);
05:11:40:758;05:11:40:758;0;5;-1.5;1;0;0;0;0;1;1;1;1;05:11:40:743;1447949498.44;(0.40000152587890625, 0.2999593946668837);26.957611084;1.0;4;0;0;0;0;();(-2000.0, -2000.0);
05:11:40:790;05:11:40:790;0;0;-1.5;1;0;0;0;0;1;1;1;1;05:11:40:743;1447949498.44;(0.40000152587890625, 0.2999593946668837);26.957611084;1.0;4;0;0;0;0;();(-2000.0, -2000.0);
05:11:40:807;05:11:40:806;0;11;-1.5;1;0;0;0;0;1;1;1;1;05:11:40:743;1447949498.44;(0.40000152587890625, 0.2999593946668837);26.957611084;1.0;4;0;0;0;0;();(-2000.0, -2000.0);
05:11:40:824;05:11:40:824;0;7;-1.5;1;0;0;0;0;1;1;1;1;05:11:40:743;1447949498.44;(0.40000152587890625, 0.2999593946668837);26.957611084;1.0;4;0;0;0;0;();(-2000.0, -2000.0);
05:11:40:840;05:11:40:840;0;10;-1.5;1;0;0;0;0;1;1;1;1;05:11:40:826;1447949498.51;(0.40017290115356446, 0.29996049669053815);26.7384319305;1.0;4;0;0;0;0;();(-2000.0, -2000.0);
05:11:40:874;05:11:40:874;0;11;-1.5;1;0;0;0;0;1;1;1;1;05:11:40:866;1447949498.57;(0.399888277053833, 0.29949595133463547);26.7721805573;1.0;4;0;0;0;0;();(-2000.0, -2000.0);
05:11:40:890;05:11:40:889;0;6;-1.5;1;0;0;0;0;1;1;1;1;05:11:40:866;1447949498.57;(0.399888277053833, 0.29949595133463547);26.7721805573;1.0;4;0;0;0;0;();(-2000.0, -2000.0);
05:11:40:906;05:11:40:906;0;5;-1.5;1;0;0;0;0;1;1;1;1;05:11:40:866;1447949498.57;(0.399888277053833, 0.29949595133463547);26.7721805573;1.0;4;0;0;0;0;();(-2000.0, -2000.0);
05:11:40:924;05:11:40:922;0;0;-1.5;1;0;0;0;0;1;1;1;1;05:11:40:866;1447949498.57;(0.399888277053833, 0.29949595133463547);26.7721805573;1.0;4;0;0;0;0;();(-2000.0, -2000.0);
05:11:40:939;05:11:40:939;0;5;-1.5;1;0;0;0;0;1;1;1;1;05:11:40:866;1447949498.57;(0.399888277053833, 0.29949595133463547);26.7721805573;1.0;4;0;0;0;0;();(-2000.0, -2000.0);
05:11:40:972;05:11:40:972;0;5;-1.5;1;0;0;0;0;1;1;1;1;05:11:40:951;1447949498.64;(0.3997934341430664, 0.2996761322021484);27.1277656555;1.0;4;0;0;0;0;();(-2000.0, -2000.0);
05:11:40:990;05:11:40:990;0;5;-1.5;1;0;0;0;0;1;1;1;1;05:11:40:951;1447949498.64;(0.3997934341430664, 0.2996761322021484);27.1277656555;1.0;4;0;0;0;0;();(-2000.0, -2000.0);
05:11:41:007;05:11:41:007;0;6;-1.5;1;0;0;0;0;1;1;1;1;05:11:40:991;1447949498.71;(0.39995908737182617, 0.29962514241536453);26.6423797607;1.0;4;0;0;0;0;();(-2000.0, -2000.0);
05:11:41:032;05:11:41:032;0;11;-1.5;1;0;0;0;0;1;1;1;1;05:11:40:991;1447949498.71;(0.39995908737182617, 0.29962514241536453);26.6423797607;1.0;6;0;0;0;0;();(-2000.0, -2000.0);
05:11:41:043;05:11:41:043;0;5;-1.5;1;0;0;0;0;1;1;1;1;05:11:40:991;1447949498.71;(0.39995908737182617, 0.29962514241536453);26.6423797607;1.0;6;0;0;0;0;();(-2000.0, -2000.0);
05:11:41:060;05:11:41:060;0;10;-1.5;1;0;0;0;0;1;1;1;1;05:11:40:991;1447949498.71;(0.39995908737182617, 0.29962514241536453);26.6423797607;1.0;6;0;0;0;0;();(-2000.0, -2000.0);
05:11:41:093;05:11:41:093;0;10;-1.5;1;0;0;0;0;1;1;1;1;05:11:41:074;1447949498.77;(0.3999145984649658, 0.30012406243218315);26.7185134888;1.0;6;0;0;0;0;();(-2000.0, -2000.0);
05:11:41:109;05:11:41:109;0;0;-1.5;1;0;0;0;0;1;1;1;1;05:11:41:074;1447949498.77;(0.3999145984649658, 0.30012406243218315);26.7185134888;1.0;6;0;0;0;0;();(-2000.0, -2000.0);
05:11:41:126;05:11:41:126;0;11;-1.5;1;0;0;0;0;1;1;1;1;05:11:41:114;1447949498.84;(0.4001017570495605, 0.2995275285508897);26.7144889832;1.0;6;0;0;0;0;();(-2000.0, -2000.0);
05:11:41:143;05:11:41:143;0;5;-1.5;1;0;0;0;0;1;1;1;1;05:11:41:114;1447949498.84;(0.4001017570495605, 0.2995275285508897);26.7144889832;1.0;6;0;0;0;0;();(-2000.0, -2000.0);
05:11:41:159;05:11:41:159;0;10;-1.5;1;0;0;0;0;1;1;1;1;05:11:41:114;1447949498.84;(0.4001017570495605, 0.2995275285508897);26.7144889832;1.0;6;0;0;0;0;();(-2000.0, -2000.0);
05:11:41:192;05:11:41:192;0;11;-1.5;1;0;0;0;0;1;1;1;1;05:11:41:114;1447949498.84;(0.4001017570495605, 0.2995275285508897);26.7144889832;1.0;6;0;0;0;0;();(-2000.0, -2000.0);
05:11:41:214;05:11:41:214;0;0;-1.5;1;0.0977517106549365;0;0;0;1;1;1;1;05:11:41:199;1447949498.91;(0.39988555908203127, 0.2997083452012804);26.4577827454;1.0;6;0;0;0;0;();(-2000.0, -2000.0);
05:11:41:231;05:11:41:231;0;5;-1.5;1;0;0;0;0;1;1;1;1;05:11:41:199;1447949498.91;(0.39988555908203127, 0.2997083452012804);26.4577827454;1.0;6;0;0;0;0;();(-2000.0, -2000.0);
05:11:41:248;05:11:41:248;0;0;-1.5;1;0;0;0;0;1;1;1;1;05:11:41:199;1447949498.91;(0.39988555908203127, 0.2997083452012804);26.4577827454;1.0;6;0;0;0;0;();(-2000.0, -2000.0);
05:11:41:265;05:11:41:265;0;6;-1.5;1;0;0;0;0;1;1;1;1;05:11:41:199;1447949498.91;(0.39988555908203127, 0.2997083452012804);26.4577827454;1.0;6;0;0;0;0;();(-2000.0, -2000.0);
05:11:41:281;05:11:41:281;0;10;-1.5;1;0;0;0;0;1;1;1;1;05:11:41:199;1447949498.91;(0.39988555908203127, 0.2997083452012804);26.4577827454;1.0;6;0;0;0;0;();(-2000.0, -2000.0);
05:11:41:299;05:11:41:299;0;6;-1.5;1;0;0;0;0;1;1;1;1;05:11:41:282;1447949498.97;(0.3999882698059082, 0.2992471059163412);26.6145763397;1.0;6;0;0;0;0;();(-2000.0, -2000.0);
05:11:41:331;05:11:41:331;0;5;-1.5;1;0;0;0;0;1;1;1;1;05:11:41:323;1447949499.04;(0.40015742778778074, 0.29929178025987413);26.4250183105;1.0;6;0;0;0;0;();(-2000.0, -2000.0);
05:11:41:349;05:11:41:349;0;11;-1.5;1;0;0;0;0;1;1;1;1;05:11:41:323;1447949499.04;(0.40015742778778074, 0.29929178025987413);26.4250183105;1.0;6;0;0;0;0;();(-2000.0, -2000.0);
05:11:41:364;05:11:41:364;0;0;-1.5;1;0;0;0;0;1;1;1;1;05:11:41:323;1447949499.04;(0.40015742778778074, 0.29929178025987413);26.4250183105;1.0;6;0;0;0;0;();(-2000.0, -2000.0);
05:11:41:381;05:11:41:381;0;10;-1.5;1;0;0;0;0;1;1;1;1;05:11:41:323;1447949499.04;(0.40015742778778074, 0.29929178025987413);26.4250183105;1.0;6;0;0;0;0;();(-2000.0, -2000.0);
05:11:41:402;05:11:41:402;0;0;-1.5;1;0;0;0;0;1;1;1;1;05:11:41:323;1447949499.04;(0.40015742778778074, 0.29929178025987413);26.4250183105;1.0;6;0;0;0;0;();(-2000.0, -2000.0);
05:11:41:436;05:11:41:436;0;0;-1.5;1;0;0;0;0;1;1;1;1;05:11:41:406;1447949499.11;(0.40020596981048584, 0.2994077046712239);27.0534858704;1.0;6;0;0;0;0;();(-2000.0, -2000.0);
05:11:41:452;05:11:41:452;0;5;-1.5;1;0;0;0;0;1;1;1;1;05:11:41:446;1447949499.17;(0.3999568223953247, 0.2996541341145833);27.2182312012;1.0;6;0;0;0;0;();(-2000.0, -2000.0);
05:11:41:469;05:11:41:469;0;10;-1.5;1;0;0;0;0;1;1;1;1;05:11:41:446;1447949499.17;(0.3999568223953247, 0.2996541341145833);27.2182312012;1.0;6;0;0;0;0;();(-2000.0, -2000.0);
05:11:41:486;05:11:41:485;0;6;-1.5;1;0;0;0;0;1;1;1;1;05:11:41:446;1447949499.17;(0.3999568223953247, 0.2996541341145833);27.2182312012;1.0;6;0;0;0;0;();(-2000.0, -2000.0);
05:11:41:502;05:11:41:502;0;0;-1.5;1;0;0;0;0;1;1;1;1;05:11:41:446;1447949499.17;(0.3999568223953247, 0.2996541341145833);27.2182312012;1.0;6;0;0;0;0;();(-2000.0, -2000.0);
05:11:41:519;05:11:41:519;0;5;-1.5;1;0;0;0;0;1;1;1;1;05:11:41:446;1447949499.17;(0.3999568223953247, 0.2996541341145833);27.2182312012;1.0;6;0;0;0;0;();(-2000.0, -2000.0);
