%Timestamp,timestamp_write;timestamp_gotpupil;eyetrackertime;norm_pos;diameter;confidence;timestamp_gotbitdata;CRC;SEQ;AnalogOutp1;AnalogOutp2;AnalogOutp3;AnalogOutp4;AnalogOutp5;AnalogOutp6;DigitalOutp1;DigitalOutp2;igitalOutp3;DigitalOutp4;nplanes;lastaction;lastactiondetails;positivescore;negativescore;targetpositions;collision_point
08:07:05:853;;;;;;;;;;;;;;1447960023.61;(0.2978031635284424, 0.25628077189127607);26.557062149;1.0;2;0;0;0;0;();(0.0, 0.0);
08:07:05:864;;;;;;;;;;;;;;08:07:05:843;1447960023.68;(0.29764466285705565, 0.25638834635416663);26.8527736664;1.0;2;0;0;0;0;();(-2000.0, -2000.0);
08:07:05:868;;;;;;;;;;;;;;08:07:05:843;1447960023.68;(0.29764466285705565, 0.25638834635416663);26.8527736664;1.0;2;0;0;0;0;();(-2000.0, -2000.0);
08:07:05:871;;;;;;;;;;;;;;08:07:05:843;1447960023.68;(0.29764466285705565, 0.25638834635416663);26.8527736664;1.0;2;0;0;0;0;();(-2000.0, -2000.0);
08:07:05:875;;;;;;;;;;;;;;08:07:05:843;1447960023.68;(0.29764466285705565, 0.25638834635416663);26.8527736664;1.0;2;0;0;0;0;();(-2000.0, -2000.0);
08:07:05:879;;;;;;;;;;;;;;08:07:05:843;1447960023.68;(0.29764466285705565, 0.25638834635416663);26.8527736664;1.0;2;0;0;0;0;();(-2000.0, -2000.0);
08:07:05:882;;;;;;;;;;;;;;08:07:05:843;1447960023.68;(0.29764466285705565, 0.25638834635416663);26.8527736664;1.0;2;0;0;0;0;();(-2000.0, -2000.0);
08:07:05:885;;;;;;;;;;;;;;08:07:05:883;1447960023.75;(0.297623610496521, 0.256313239203559);26.4730644226;1.0;2;0;0;0;0;();(-2000.0, -2000.0);
08:07:05:888;;;;;;;;;;;;;;08:07:05:883;1447960023.75;(0.297623610496521, 0.256313239203559);26.4730644226;1.0;2;0;0;0;0;();(-2000.0, -2000.0);
08:07:05:892;;;;;;;;;;;;;;08:07:05:883;1447960023.75;(0.297623610496521, 0.256313239203559);26.4730644226;1.0;2;0;0;0;0;();(-2000.0, -2000.0);
08:07:05:893;;;;;;;;;;;;;;08:07:05:883;1447960023.75;(0.297623610496521, 0.256313239203559);26.4730644226;1.0;2;0;0;0;0;();(-2000.0, -2000.0);
08:07:05:895;;;;;;;;;;;;;;08:07:05:883;1447960023.75;(0.297623610496521, 0.256313239203559);26.4730644226;1.0;2;0;0;0;0;();(-2000.0, -2000.0);
08:07:05:899;;;;;;;;;;;;;;08:07:05:883;1447960023.75;(0.297623610496521, 0.256313239203559);26.4730644226;1.0;2;0;0;0;0;();(-2000.0, -2000.0);
08:07:05:902;;;;;;;;;;;;;;08:07:05:883;1447960023.75;(0.297623610496521, 0.256313239203559);26.4730644226;1.0;2;0;0;0;0;();(-2000.0, -2000.0);
08:07:05:905;;;;;;;;;;;;;;08:07:05:883;1447960023.75;(0.297623610496521, 0.256313239203559);26.4730644226;1.0;2;0;0;0;0;();(-2000.0, -2000.0);
08:07:05:908;;;;;;;;;;;;;;08:07:05:883;1447960023.75;(0.297623610496521, 0.256313239203559);26.4730644226;1.0;2;0;0;0;0;();(-2000.0, -2000.0);
08:07:06:165;;;;;;;;;;;;;;08:07:06:104;1447960023.95;(0.29757587909698485, 0.25623719957139757);26.7205200195;1.0;2;0;0;0;0;();(-2000.0, -2000.0);
08:07:06:167;;;;;;;;;;;;;;08:07:06:104;1447960023.95;(0.29757587909698485, 0.25623719957139757);26.7205200195;1.0;2;0;0;0;0;();(-2000.0, -2000.0);
08:07:06:169;;;;;;;;;;;;;;08:07:06:104;1447960023.95;(0.29757587909698485, 0.25623719957139757);26.7205200195;1.0;2;0;0;0;0;();(-2000.0, -2000.0);
08:07:06:171;;;;;;;;;;;;;;08:07:06:104;1447960023.95;(0.29757587909698485, 0.25623719957139757);26.7205200195;1.0;2;0;0;0;0;();(-2000.0, -2000.0);
08:07:06:173;;;;;;;;;;;;;;08:07:06:104;1447960023.95;(0.29757587909698485, 0.25623719957139757);26.7205200195;1.0;2;0;0;0;0;();(-2000.0, -2000.0);
08:07:06:175;;;;;;;;;;;;;;08:07:06:104;1447960023.95;(0.29757587909698485, 0.25623719957139757);26.7205200195;1.0;2;0;0;0;0;();(-2000.0, -2000.0);
08:07:06:177;;;;;;;;;;;;;;08:07:06:175;1447960024.01;(0.2975339651107788, 0.2559786478678385);26.7961883545;1.0;2;0;0;0;0;();(-2000.0, -2000.0);
08:07:06:179;;;;;;;;;;;;;;08:07:06:175;1447960024.01;(0.2975339651107788, 0.2559786478678385);26.7961883545;1.0;2;0;0;0;0;();(-2000.0, -2000.0);
08:07:06:182;;;;;;;;;;;;;;08:07:06:175;1447960024.01;(0.2975339651107788, 0.2559786478678385);26.7961883545;1.0;2;0;0;0;0;();(-2000.0, -2000.0);
08:07:06:184;;;;;;;;;;;;;;08:07:06:175;1447960024.01;(0.2975339651107788, 0.2559786478678385);26.7961883545;1.0;2;0;0;0;0;();(-2000.0, -2000.0);
08:07:06:186;;;;;;;;;;;;;;08:07:06:175;1447960024.01;(0.2975339651107788, 0.2559786478678385);26.7961883545;1.0;2;0;0;0;0;();(-2000.0, -2000.0);
08:07:06:188;;;;;;;;;;;;;;08:07:06:175;1447960024.01;(0.2975339651107788, 0.2559786478678385);26.7961883545;1.0;2;0;0;0;0;();(-2000.0, -2000.0);
08:07:06:190;;;;;;;;;;;;;;08:07:06:175;1447960024.01;(0.2975339651107788, 0.2559786478678385);26.7961883545;1.0;2;0;0;0;0;();(-2000.0, -2000.0);
08:07:06:192;;;;;;;;;;;;;;08:07:06:175;1447960024.01;(0.2975339651107788, 0.2559786478678385);26.7961883545;1.0;2;0;0;0;0;();(-2000.0, -2000.0);
08:07:06:193;;;;;;;;;;;;;;08:07:06:175;1447960024.01;(0.2975339651107788, 0.2559786478678385);26.7961883545;1.0;2;0;0;0;0;();(-2000.0, -2000.0);
08:07:06:195;;;;;;;;;;;;;;08:07:06:175;1447960024.01;(0.2975339651107788, 0.2559786478678385);26.7961883545;1.0;2;0;0;0;0;();(-2000.0, -2000.0);
08:07:06:196;;;;;;;;;;;;;;08:07:06:175;1447960024.01;(0.2975339651107788, 0.2559786478678385);26.7961883545;1.0;2;0;0;0;0;();(-2000.0, -2000.0);
08:07:11:570;;;;;;;;;;;;;;08:07:11:567;1447960029.41;(0.2974388122558594, 0.2566336737738715);26.7835712433;1.0;2;0;0;0;0;();(-2000.0, -2000.0);
08:07:11:572;;;;;;;;;;;;;;08:07:11:567;1447960029.41;(0.2974388122558594, 0.2566336737738715);26.7835712433;1.0;2;0;0;0;0;();(-2000.0, -2000.0);
08:07:11:573;;;;;;;;;;;;;;08:07:11:567;1447960029.41;(0.2974388122558594, 0.2566336737738715);26.7835712433;1.0;2;0;0;0;0;();(-2000.0, -2000.0);
08:07:11:575;;;;;;;;;;;;;;08:07:11:567;1447960029.41;(0.2974388122558594, 0.2566336737738715);26.7835712433;1.0;2;0;0;0;0;();(-2000.0, -2000.0);
08:07:11:577;;;;;;;;;;;;;;08:07:11:567;1447960029.41;(0.2974388122558594, 0.2566336737738715);26.7835712433;1.0;2;0;0;0;0;();(-2000.0, -2000.0);
08:07:11:579;;;;;;;;;;;;;;08:07:11:567;1447960029.41;(0.2974388122558594, 0.2566336737738715);26.7835712433;1.0;2;0;0;0;0;();(-2000.0, -2000.0);
08:07:11:580;;;;;;;;;;;;;;08:07:11:567;1447960029.41;(0.2974388122558594, 0.2566336737738715);26.7835712433;1.0;2;0;0;0;0;();(-2000.0, -2000.0);
08:07:11:582;;;;;;;;;;;;;;08:07:11:567;1447960029.41;(0.2974388122558594, 0.2566336737738715);26.7835712433;1.0;2;0;0;0;0;();(-2000.0, -2000.0);
08:07:11:584;;;;;;;;;;;;;;08:07:11:567;1447960029.41;(0.2974388122558594, 0.2566336737738715);26.7835712433;1.0;2;0;0;0;0;();(-2000.0, -2000.0);
08:07:11:585;;;;;;;;;;;;;;08:07:11:567;1447960029.41;(0.2974388122558594, 0.2566336737738715);26.7835712433;1.0;2;0;0;0;0;();(-2000.0, -2000.0);
08:07:11:587;;;;;;;;;;;;;;08:07:11:567;1447960029.41;(0.2974388122558594, 0.2566336737738715);26.7835712433;1.0;2;0;0;0;0;();(-2000.0, -2000.0);
08:07:11:589;;;;;;;;;;;;;;08:07:11:567;1447960029.41;(0.2974388122558594, 0.2566336737738715);26.7835712433;1.0;2;0;0;0;0;();(-2000.0, -2000.0);
08:07:11:591;;;;;;;;;;;;;;08:07:11:567;1447960029.41;(0.2974388122558594, 0.2566336737738715);26.7835712433;1.0;2;0;0;0;0;();(-2000.0, -2000.0);
08:07:11:593;;;;;;;;;;;;;;08:07:11:567;1447960029.41;(0.2974388122558594, 0.2566336737738715);26.7835712433;1.0;2;0;0;0;0;();(-2000.0, -2000.0);
08:07:11:595;;;;;;;;;;;;;;08:07:11:567;1447960029.41;(0.2974388122558594, 0.2566336737738715);26.7835712433;1.0;2;0;0;0;0;();(-2000.0, -2000.0);
08:07:11:596;;;;;;;;;;;;;;08:07:11:567;1447960029.41;(0.2974388122558594, 0.2566336737738715);26.7835712433;1.0;2;0;0;0;0;();(-2000.0, -2000.0);
08:07:11:597;;;;;;;;;;;;;;08:07:11:567;1447960029.41;(0.2974388122558594, 0.2566336737738715);26.7835712433;1.0;2;0;0;0;0;();(-2000.0, -2000.0);
08:07:11:601;;;;;;;;;;;;;;08:07:11:567;1447960029.41;(0.2974388122558594, 0.2566336737738715);26.7835712433;1.0;2;0;0;0;0;();(-2000.0, -2000.0);
08:07:11:618;;;;;;;;;;;;;;08:07:11:567;1447960029.41;(0.2974388122558594, 0.2566336737738715);26.7835712433;1.0;2;0;0;0;0;();(-2000.0, -2000.0);
08:07:11:635;;;;;;;;;;;;;;08:07:11:567;1447960029.41;(0.2974388122558594, 0.2566336737738715);26.7835712433;1.0;2;0;0;0;0;();(-2000.0, -2000.0);
08:07:11:651;;;;;;;;;;;;;;08:07:11:650;1447960029.48;(0.29710772037506106, 0.2565290662977431);26.9940719604;1.0;2;0;0;0;0;();(-2000.0, -2000.0);
08:07:11:684;;;;;;;;;;;;;;08:07:11:650;1447960029.48;(0.29710772037506106, 0.2565290662977431);26.9940719604;1.0;2;0;0;0;0;();(-2000.0, -2000.0);
08:07:11:701;;;;;;;;;;;;;;08:07:11:690;1447960029.55;(0.2973970413208008, 0.2561452229817708);26.5345821381;1.0;2;0;0;0;0;();(-2000.0, -2000.0);
08:07:11:717;;;;;;;;;;;;;;08:07:11:690;1447960029.55;(0.2973970413208008, 0.2561452229817708);26.5345821381;1.0;2;0;0;0;0;();(-2000.0, -2000.0);
08:07:11:734;;;;;;;;;;;;;;08:07:11:690;1447960029.55;(0.2973970413208008, 0.2561452229817708);26.5345821381;1.0;2;0;0;0;0;();(-2000.0, -2000.0);
08:07:11:752;;;;;;;;;;;;;;08:07:11:690;1447960029.55;(0.2973970413208008, 0.2561452229817708);26.5345821381;1.0;2;0;0;0;0;();(-2000.0, -2000.0);
08:07:11:774;;;;;;;;;;;;;;08:07:11:690;1447960029.55;(0.2973970413208008, 0.2561452229817708);26.5345821381;1.0;2;0;0;0;0;();(-2000.0, -2000.0);
08:07:11:815;;;;;;;;;;;;;;08:07:11:815;1447960029.68;(0.29749906063079834, 0.2562872144911025);26.499048233;1.0;2;0;0;0;0;();(-2000.0, -2000.0);
08:07:11:818;;;;;;;;;;;;;;08:07:11:815;1447960029.68;(0.29749906063079834, 0.2562872144911025);26.499048233;1.0;2;0;0;0;0;();(-2000.0, -2000.0);
08:07:11:835;;;;;;;;;;;;;;08:07:11:815;1447960029.68;(0.29749906063079834, 0.2562872144911025);26.499048233;1.0;2;0;0;0;0;();(-2000.0, -2000.0);
08:07:11:855;;;;;;;;;;;;;;08:07:11:815;1447960029.68;(0.29749906063079834, 0.2562872144911025);26.499048233;1.0;2;0;0;0;0;();(-2000.0, -2000.0);
08:07:11:872;;;;;;;;;;;;;;08:07:11:815;1447960029.68;(0.29749906063079834, 0.2562872144911025);26.499048233;1.0;2;0;0;0;0;();(-2000.0, -2000.0);
08:07:11:905;;;;;;;;;;;;;;08:07:11:898;1447960029.75;(0.29717416763305665, 0.2562344021267361);26.1582069397;1.0;2;0;0;0;0;();(-2000.0, -2000.0);
08:07:11:922;;;;;;;;;;;;;;08:07:11:898;1447960029.75;(0.29717416763305665, 0.2562344021267361);26.1582069397;1.0;2;0;0;0;0;();(-2000.0, -2000.0);
08:07:11:938;;;;;;;;;;;;;;08:07:11:898;1447960029.75;(0.29717416763305665, 0.2562344021267361);26.1582069397;1.0;2;0;0;0;0;();(-2000.0, -2000.0);
08:07:11:955;;;;;;;;;;;;;;08:07:11:898;1447960029.75;(0.29717416763305665, 0.2562344021267361);26.1582069397;1.0;2;0;0;0;0;();(-2000.0, -2000.0);
08:07:11:972;;;;;;;;;;;;;;08:07:11:898;1447960029.75;(0.29717416763305665, 0.2562344021267361);26.1582069397;1.0;2;0;0;0;0;();(-2000.0, -2000.0);
08:07:12:020;;;;;;;;;;;;;;08:07:11:983;1447960029.81;(0.297432541847229, 0.2563345167371962);26.7189769745;1.0;2;0;0;0;0;();(-2000.0, -2000.0);
08:07:12:023;;;;;;;;;;;;;;08:07:11:983;1447960029.81;(0.297432541847229, 0.2563345167371962);26.7189769745;1.0;2;0;0;0;0;();(-2000.0, -2000.0);
08:07:12:038;;;;;;;;;;;;;;08:07:12:024;1447960029.88;(0.2974433183670044, 0.25666944715711804);26.2772636414;1.0;2;0;0;0;0;();(-2000.0, -2000.0);
08:07:12:055;;;;;;;;;;;;;;08:07:12:024;1447960029.88;(0.2974433183670044, 0.25666944715711804);26.2772636414;1.0;2;0;0;0;0;();(-2000.0, -2000.0);
08:07:12:072;;;;;;;;;;;;;;08:07:12:024;1447960029.88;(0.2974433183670044, 0.25666944715711804);26.2772636414;1.0;2;0;0;0;0;();(-2000.0, -2000.0);
08:07:12:105;;;;;;;;;;;;;;08:07:12:024;1447960029.88;(0.2974433183670044, 0.25666944715711804);26.2772636414;1.0;2;0;0;0;0;();(-2000.0, -2000.0);
08:07:12:122;;;;;;;;;;;;;;08:07:12:107;1447960029.95;(0.297312593460083, 0.25639682345920134);26.5718383789;1.0;2;0;0;0;0;();(-2000.0, -2000.0);
08:07:12:138;;;;;;;;;;;;;;08:07:12:107;1447960029.95;(0.297312593460083, 0.25639682345920134);26.5718383789;1.0;2;0;0;0;0;();(-2000.0, -2000.0);
08:07:12:155;;;;;;;;;;;;;;08:07:12:147;1447960030.01;(0.29715166091918943, 0.2561037699381511);26.8903465271;1.0;2;0;0;0;0;();(-2000.0, -2000.0);
08:07:12:171;;;;;;;;;;;;;;08:07:12:147;1447960030.01;(0.29715166091918943, 0.2561037699381511);26.8903465271;1.0;2;0;0;0;0;();(-2000.0, -2000.0);
08:07:12:204;;;;;;;;;;;;;;08:07:12:147;1447960030.01;(0.29715166091918943, 0.2561037699381511);26.8903465271;1.0;2;0;0;0;0;();(-2000.0, -2000.0);
08:07:12:234;;;;;;;;;;;;;;08:07:12:230;1447960030.08;(0.2972211122512817, 0.25600017971462674);26.7298927307;1.0;2;0;0;0;0;();(-2000.0, -2000.0);
08:07:12:236;;;;;;;;;;;;;;08:07:12:230;1447960030.08;(0.2972211122512817, 0.25600017971462674);26.7298927307;1.0;2;0;0;0;0;();(-2000.0, -2000.0);
08:07:12:252;;;;;;;;;;;;;;08:07:12:230;1447960030.08;(0.2972211122512817, 0.25600017971462674);26.7298927307;1.0;2;0;0;0;0;();(-2000.0, -2000.0);
08:07:12:279;;;;;;;;;;;;;;08:07:12:230;1447960030.08;(0.2972211122512817, 0.25600017971462674);26.7298927307;1.0;2;0;0;0;0;();(-2000.0, -2000.0);
08:07:12:295;;;;;;;;;;;;;;08:07:12:230;1447960030.08;(0.2972211122512817, 0.25600017971462674);26.7298927307;1.0;2;0;0;0;0;();(-2000.0, -2000.0);
08:07:12:312;;;;;;;;;;;;;;08:07:12:230;1447960030.08;(0.2972211122512817, 0.25600017971462674);26.7298927307;1.0;2;0;0;0;0;();(-2000.0, -2000.0);
08:07:12:345;;;;;;;;;;;;;;08:07:12:314;1447960030.15;(0.29708573818206785, 0.2561707390679253);26.7999591827;1.0;2;0;0;0;0;();(-2000.0, -2000.0);
08:07:12:362;;;;;;;;;;;;;;08:07:12:355;1447960030.21;(0.2973175048828125, 0.2562086317274306);26.3730888367;1.0;2;0;0;0;0;();(-2000.0, -2000.0);
08:07:12:378;;;;;;;;;;;;;;08:07:12:355;1447960030.21;(0.2973175048828125, 0.2562086317274306);26.3730888367;1.0;2;0;0;0;0;();(-2000.0, -2000.0);
08:07:12:395;;;;;;;;;;;;;;08:07:12:355;1447960030.21;(0.2973175048828125, 0.2562086317274306);26.3730888367;1.0;2;0;0;0;0;();(-2000.0, -2000.0);
08:07:12:411;;;;;;;;;;;;;;08:07:12:355;1447960030.21;(0.2973175048828125, 0.2562086317274306);26.3730888367;1.0;2;0;0;0;0;();(-2000.0, -2000.0);
08:07:12:439;;;;;;;;;;;;;;08:07:12:438;1447960030.28;(0.2972740888595581, 0.2564918518066406);27.134059906;1.0;2;0;0;0;0;();(-2000.0, -2000.0);
08:07:12:455;;;;;;;;;;;;;;08:07:12:438;1447960030.28;(0.2972740888595581, 0.2564918518066406);27.134059906;1.0;2;0;0;0;0;();(-2000.0, -2000.0);
08:07:12:472;;;;;;;;;;;;;;08:07:12:438;1447960030.28;(0.2972740888595581, 0.2564918518066406);27.134059906;1.0;2;0;0;0;0;();(-2000.0, -2000.0);
08:07:12:505;;;;;;;;;;;;;;08:07:12:479;1447960030.35;(0.2974636793136597, 0.2562174479166667);26.334318161;1.0;2;0;0;0;0;();(-2000.0, -2000.0);
08:07:12:522;;;;;;;;;;;;;;08:07:12:479;1447960030.35;(0.2974636793136597, 0.2562174479166667);26.334318161;1.0;2;0;0;0;0;();(-2000.0, -2000.0);
08:07:12:538;;;;;;;;;;;;;;08:07:12:479;1447960030.35;(0.2974636793136597, 0.2562174479166667);26.334318161;1.0;2;0;0;0;0;();(-2000.0, -2000.0);
08:07:12:555;;;;;;;;;;;;;;08:07:12:479;1447960030.35;(0.2974636793136597, 0.2562174479166667);26.334318161;1.0;2;0;0;0;0;();(-2000.0, -2000.0);
08:07:12:571;;;;;;;;;;;;;;08:07:12:563;1447960030.41;(0.29744277000427244, 0.2561574300130208);26.3935127258;1.0;2;0;0;0;0;();(-2000.0, -2000.0);
08:07:12:605;;;;;;;;;;;;;;08:07:12:563;1447960030.41;(0.29744277000427244, 0.2561574300130208);26.3935127258;1.0;2;0;0;0;0;();(-2000.0, -2000.0);
08:07:12:621;;;;;;;;;;;;;;08:07:12:563;1447960030.41;(0.29744277000427244, 0.2561574300130208);26.3935127258;1.0;2;0;0;0;0;();(-2000.0, -2000.0);
08:07:12:640;;;;;;;;;;;;;;08:07:12:563;1447960030.41;(0.29744277000427244, 0.2561574300130208);26.3935127258;1.0;2;0;0;0;0;();(-2000.0, -2000.0);
08:07:12:656;;;;;;;;;;;;;;08:07:12:646;1447960030.48;(0.2975282669067383, 0.25604112413194446);26.8016033173;1.0;2;0;0;0;0;();(-2000.0, -2000.0);
08:07:12:673;;;;;;;;;;;;;;08:07:12:646;1447960030.48;(0.2975282669067383, 0.25604112413194446);26.8016033173;1.0;2;0;0;0;0;();(-2000.0, -2000.0);
08:07:12:706;;;;;;;;;;;;;;08:07:12:686;1447960030.55;(0.29753832817077636, 0.2563546922471788);26.1935443878;1.0;2;0;0;0;0;();(-2000.0, -2000.0);
08:07:12:723;;;;;;;;;;;;;;08:07:12:686;1447960030.55;(0.29753832817077636, 0.2563546922471788);26.1935443878;1.0;2;0;0;0;0;();(-2000.0, -2000.0);
08:07:12:739;;;;;;;;;;;;;;08:07:12:686;1447960030.55;(0.29753832817077636, 0.2563546922471788);26.1935443878;1.0;2;0;0;0;0;();(-2000.0, -2000.0);
08:07:12:756;;;;;;;;;;;;;;08:07:12:686;1447960030.55;(0.29753832817077636, 0.2563546922471788);26.1935443878;1.0;2;0;0;0;0;();(-2000.0, -2000.0);
08:07:12:772;;;;;;;;;;;;;;08:07:12:770;1447960030.61;(0.29730701446533203, 0.2561886257595486);26.6761684418;1.0;2;0;0;0;0;();(-2000.0, -2000.0);
08:07:12:806;;;;;;;;;;;;;;08:07:12:770;1447960030.61;(0.29730701446533203, 0.2561886257595486);26.6761684418;1.0;2;0;0;0;0;();(-2000.0, -2000.0);
08:07:12:822;;;;;;;;;;;;;;08:07:12:811;1447960030.68;(0.29759984016418456, 0.2566289265950521);26.7549190521;1.0;2;0;0;0;0;();(-2000.0, -2000.0);
08:07:12:842;;;;;;;;;;;;;;08:07:12:811;1447960030.68;(0.29759984016418456, 0.2566289265950521);26.7549190521;1.0;2;0;0;0;0;();(-2000.0, -2000.0);
08:07:12:859;;;;;;;;;;;;;;08:07:12:811;1447960030.68;(0.29759984016418456, 0.2566289265950521);26.7549190521;1.0;2;0;0;0;0;();(-2000.0, -2000.0);
08:07:12:875;;;;;;;;;;;;;;08:07:12:811;1447960030.68;(0.29759984016418456, 0.2566289265950521);26.7549190521;1.0;2;0;0;0;0;();(-2000.0, -2000.0);
08:07:12:892;;;;;;;;;;;;;;08:07:12:811;1447960030.68;(0.29759984016418456, 0.2566289265950521);26.7549190521;1.0;2;0;0;0;0;();(-2000.0, -2000.0);
08:07:12:925;;;;;;;;;;;;;;08:07:12:894;1447960030.75;(0.2975706338882446, 0.2561381022135417);26.919506073;1.0;2;0;0;0;0;();(-2000.0, -2000.0);
08:07:12:942;;;;;;;;;;;;;;08:07:12:894;1447960030.75;(0.2975706338882446, 0.2561381022135417);26.919506073;1.0;2;0;0;0;0;();(-2000.0, -2000.0);
08:07:12:958;;;;;;;;;;;;;;08:07:12:894;1447960030.75;(0.2975706338882446, 0.2561381022135417);26.919506073;1.0;2;0;0;0;0;();(-2000.0, -2000.0);
08:07:12:975;;;;;;;;;;;;;;08:07:12:894;1447960030.75;(0.2975706338882446, 0.2561381022135417);26.919506073;1.0;2;0;0;0;0;();(-2000.0, -2000.0);
08:07:12:991;;;;;;;;;;;;;;08:07:12:979;1447960030.81;(0.29765949249267576, 0.2566157870822483);26.7164363861;1.0;2;0;0;0;0;();(-2000.0, -2000.0);
08:07:13:024;;;;;;;;;;;;;;08:07:13:018;1447960030.88;(0.29749011993408203, 0.2562534756130642);26.7231655121;1.0;2;0;0;0;0;();(-2000.0, -2000.0);
08:07:13:041;;;;;;;;;;;;;;08:07:13:018;1447960030.88;(0.29749011993408203, 0.2562534756130642);26.7231655121;1.0;2;0;0;0;0;();(-2000.0, -2000.0);
08:07:13:061;;;;;;;;;;;;;;08:07:13:018;1447960030.88;(0.29749011993408203, 0.2562534756130642);26.7231655121;1.0;2;0;0;0;0;();(-2000.0, -2000.0);
08:07:13:078;;;;;;;;;;;;;;08:07:13:018;1447960030.88;(0.29749011993408203, 0.2562534756130642);26.7231655121;1.0;2;0;0;0;0;();(-2000.0, -2000.0);
08:07:13:095;;;;;;;;;;;;;;08:07:13:018;1447960030.88;(0.29749011993408203, 0.2562534756130642);26.7231655121;1.0;2;0;0;0;0;();(-2000.0, -2000.0);
08:07:13:112;;;;;;;;;;;;;;08:07:13:102;1447960030.95;(0.2976774454116821, 0.2558202955457899);26.372133255;1.0;2;0;0;0;0;();(-2000.0, -2000.0);
08:07:13:145;;;;;;;;;;;;;;08:07:13:102;1447960030.95;(0.2976774454116821, 0.2558202955457899);26.372133255;1.0;2;0;0;0;0;();(-2000.0, -2000.0);
08:07:13:162;;;;;;;;;;;;;;08:07:13:102;1447960030.95;(0.2976774454116821, 0.2558202955457899);26.372133255;1.0;2;0;0;0;0;();(-2000.0, -2000.0);
08:07:13:178;;;;;;;;;;;;;;08:07:13:102;1447960030.95;(0.2976774454116821, 0.2558202955457899);26.372133255;1.0;2;0;0;0;0;();(-2000.0, -2000.0);
08:07:13:194;;;;;;;;;;;;;;08:07:13:183;1447960031.01;(0.2975701093673706, 0.25630111694335933);26.5821418762;1.0;2;0;0;0;0;();(-2000.0, -2000.0);
08:07:13:211;;;;;;;;;;;;;;08:07:13:183;1447960031.01;(0.2975701093673706, 0.25630111694335933);26.5821418762;1.0;2;0;0;0;0;();(-2000.0, -2000.0);
08:07:13:244;;;;;;;;;;;;;;08:07:13:226;1447960031.08;(0.2972780466079712, 0.2562514411078559);27.0935554504;1.0;2;0;0;0;0;();(-2000.0, -2000.0);
08:07:13:261;;;;;;;;;;;;;;08:07:13:226;1447960031.08;(0.2972780466079712, 0.2562514411078559);27.0935554504;1.0;2;0;0;0;0;();(-2000.0, -2000.0);
08:07:13:298;;;;;;;;;;;;;;08:07:13:226;1447960031.08;(0.2972780466079712, 0.2562514411078559);27.0935554504;1.0;2;0;0;0;0;();(-2000.0, -2000.0);
08:07:13:300;;;;;;;;;;;;;;08:07:13:226;1447960031.08;(0.2972780466079712, 0.2562514411078559);27.0935554504;1.0;2;0;0;0;0;();(-2000.0, -2000.0);
08:07:13:315;;;;;;;;;;;;;;08:07:13:310;1447960031.15;(0.2971937656402588, 0.25651668972439234);27.2027053833;1.0;2;0;0;0;0;();(-2000.0, -2000.0);
08:07:13:332;;;;;;;;;;;;;;08:07:13:310;1447960031.15;(0.2971937656402588, 0.25651668972439234);27.2027053833;1.0;2;0;0;0;0;();(-2000.0, -2000.0);
08:07:13:365;;;;;;;;;;;;;;08:07:13:351;1447960031.21;(0.2972006320953369, 0.256258053249783);27.0654754639;1.0;2;0;0;0;0;();(-2000.0, -2000.0);
08:07:13:381;;;;;;;;;;;;;;08:07:13:351;1447960031.21;(0.2972006320953369, 0.256258053249783);27.0654754639;1.0;2;0;0;0;0;();(-2000.0, -2000.0);
08:07:13:398;;;;;;;;;;;;;;08:07:13:351;1447960031.21;(0.2972006320953369, 0.256258053249783);27.0654754639;1.0;2;0;0;0;0;();(-2000.0, -2000.0);
08:07:13:415;;;;;;;;;;;;;;08:07:13:351;1447960031.21;(0.2972006320953369, 0.256258053249783);27.0654754639;1.0;2;0;0;0;0;();(-2000.0, -2000.0);
08:07:13:431;;;;;;;;;;;;;;08:07:13:351;1447960031.21;(0.2972006320953369, 0.256258053249783);27.0654754639;1.0;2;0;0;0;0;();(-2000.0, -2000.0);
08:07:13:464;;;;;;;;;;;;;;08:07:13:435;1447960031.28;(0.2975339412689209, 0.25641640557183165);26.9324169159;1.0;2;0;0;0;0;();(-2000.0, -2000.0);
08:07:13:481;;;;;;;;;;;;;;08:07:13:475;1447960031.35;(0.29777524471282957, 0.2560973273383247);26.7792453766;1.0;2;0;0;0;0;();(-2000.0, -2000.0);
08:07:13:502;;;;;;;;;;;;;;08:07:13:475;1447960031.35;(0.29777524471282957, 0.2560973273383247);26.7792453766;1.0;2;0;0;0;0;();(-2000.0, -2000.0);
08:07:13:521;;;;;;;;;;;;;;08:07:13:475;1447960031.35;(0.29777524471282957, 0.2560973273383247);26.7792453766;1.0;2;0;0;0;0;();(-2000.0, -2000.0);
08:07:13:537;;;;;;;;;;;;;;08:07:13:475;1447960031.35;(0.29777524471282957, 0.2560973273383247);26.7792453766;1.0;2;0;0;0;0;();(-2000.0, -2000.0);
08:07:13:555;;;;;;;;;;;;;;08:07:13:475;1447960031.35;(0.29777524471282957, 0.2560973273383247);26.7792453766;1.0;2;0;0;0;0;();(-2000.0, -2000.0);
08:07:13:570;;;;;;;;;;;;;;08:07:13:560;1447960031.41;(0.2973720788955688, 0.2562366909450955);27.0311565399;1.0;2;0;0;0;0;();(-2000.0, -2000.0);
08:07:13:604;;;;;;;;;;;;;;08:07:13:560;1447960031.41;(0.2973720788955688, 0.2562366909450955);27.0311565399;1.0;2;0;0;0;0;();(-2000.0, -2000.0);
08:07:13:620;;;;;;;;;;;;;;08:07:13:560;1447960031.41;(0.2973720788955688, 0.2562366909450955);27.0311565399;1.0;2;0;0;0;0;();(-2000.0, -2000.0);
08:07:13:637;;;;;;;;;;;;;;08:07:13:560;1447960031.41;(0.2973720788955688, 0.2562366909450955);27.0311565399;1.0;2;0;0;0;0;();(-2000.0, -2000.0);
08:07:13:653;;;;;;;;;;;;;;08:07:13:642;1447960031.48;(0.29720416069030764, 0.25621626112196183);26.6677055359;1.0;2;0;0;0;0;();(-2000.0, -2000.0);
08:07:13:686;;;;;;;;;;;;;;08:07:13:683;1447960031.55;(0.2972296953201294, 0.256223381890191);26.8760852814;1.0;2;0;0;0;0;();(-2000.0, -2000.0);
08:07:13:707;;;;;;;;;;;;;;08:07:13:683;1447960031.55;(0.2972296953201294, 0.256223381890191);26.8760852814;1.0;2;0;0;0;0;();(-2000.0, -2000.0);
08:07:13:730;;;;;;;;;;;;;;08:07:13:683;1447960031.55;(0.2972296953201294, 0.256223381890191);26.8760852814;1.0;4;0;0;0;0;();(-2000.0, -2000.0);
08:07:13:743;;;;;;;;;;;;;;08:07:13:683;1447960031.55;(0.2972296953201294, 0.256223381890191);26.8760852814;1.0;4;0;0;0;0;();(-2000.0, -2000.0);
08:07:13:760;;;;;;;;;;;;;;08:07:13:683;1447960031.55;(0.2972296953201294, 0.256223381890191);26.8760852814;1.0;4;0;0;0;0;();(-2000.0, -2000.0);
08:07:13:776;;;;;;;;;;;;;;08:07:13:766;1447960031.61;(0.29742884635925293, 0.2562996758355035);26.5019378662;1.0;4;0;0;0;0;();(-2000.0, -2000.0);
08:07:13:793;;;;;;;;;;;;;;08:07:13:766;1447960031.61;(0.29742884635925293, 0.2562996758355035);26.5019378662;1.0;4;0;0;0;0;();(-2000.0, -2000.0);
08:07:13:826;;;;;;;;;;;;;;08:07:13:807;1447960031.68;(0.29758553504943847, 0.2562911987304688);26.6879196167;1.0;4;0;0;0;0;();(-2000.0, -2000.0);
08:07:13:842;;;;;;;;;;;;;;08:07:13:807;1447960031.68;(0.29758553504943847, 0.2562911987304688);26.6879196167;1.0;4;0;0;0;0;();(-2000.0, -2000.0);
08:07:13:859;;;;;;;;;;;;;;08:07:13:807;1447960031.68;(0.29758553504943847, 0.2562911987304688);26.6879196167;1.0;4;0;0;0;0;();(-2000.0, -2000.0);
08:07:13:876;;;;;;;;;;;;;;08:07:13:807;1447960031.68;(0.29758553504943847, 0.2562911987304688);26.6879196167;1.0;4;0;0;0;0;();(-2000.0, -2000.0);
08:07:13:892;;;;;;;;;;;;;;08:07:13:890;1447960031.75;(0.29720172882080076, 0.25586285061306424);26.2624549866;1.0;4;0;0;0;0;();(-2000.0, -2000.0);
08:07:13:916;;;;;;;;;;;;;;08:07:13:890;1447960031.75;(0.29720172882080076, 0.25586285061306424);26.2624549866;1.0;4;0;0;0;0;();(-2000.0, -2000.0);
08:07:13:933;;;;;;;;;;;;;;08:07:13:890;1447960031.75;(0.29720172882080076, 0.25586285061306424);26.2624549866;1.0;4;0;0;0;0;();(-2000.0, -2000.0);
08:07:13:966;;;;;;;;;;;;;;08:07:13:890;1447960031.75;(0.29720172882080076, 0.25586285061306424);26.2624549866;1.0;4;0;0;0;0;();(-2000.0, -2000.0);
08:07:13:984;;;;;;;;;;;;;;08:07:13:974;1447960031.81;(0.2976630210876465, 0.2561949835883246);26.6943836212;1.0;4;0;0;0;0;();(-2000.0, -2000.0);
08:07:14:000;;;;;;;;;;;;;;08:07:13:974;1447960031.81;(0.2976630210876465, 0.2561949835883246);26.6943836212;1.0;4;0;0;0;0;();(-2000.0, -2000.0);
08:07:14:016;;;;;;;;;;;;;;08:07:14:014;1447960031.88;(0.2976830959320068, 0.2561822679307726);26.5418052673;1.0;4;0;0;0;0;();(-2000.0, -2000.0);
08:07:14:033;;;;;;;;;;;;;;08:07:14:014;1447960031.88;(0.2976830959320068, 0.2561822679307726);26.5418052673;1.0;4;0;0;0;0;();(-2000.0, -2000.0);
08:07:14:066;;;;;;;;;;;;;;08:07:14:014;1447960031.88;(0.2976830959320068, 0.2561822679307726);26.5418052673;1.0;4;0;0;0;0;();(-2000.0, -2000.0);
08:07:14:082;;;;;;;;;;;;;;08:07:14:014;1447960031.88;(0.2976830959320068, 0.2561822679307726);26.5418052673;1.0;4;0;0;0;0;();(-2000.0, -2000.0);
08:07:14:099;;;;;;;;;;;;;;08:07:14:098;1447960031.95;(0.29767608642578125, 0.2563471476236979);26.4410362244;1.0;4;0;0;0;0;();(-2000.0, -2000.0);
08:07:14:115;;;;;;;;;;;;;;08:07:14:098;1447960031.95;(0.29767608642578125, 0.2563471476236979);26.4410362244;1.0;4;0;0;0;0;();(-2000.0, -2000.0);
08:07:14:133;;;;;;;;;;;;;;08:07:14:098;1447960031.95;(0.29767608642578125, 0.2563471476236979);26.4410362244;1.0;4;0;0;0;0;();(-2000.0, -2000.0);
08:07:14:167;;;;;;;;;;;;;;08:07:14:098;1447960031.95;(0.29767608642578125, 0.2563471476236979);26.4410362244;1.0;4;0;0;0;0;();(-2000.0, -2000.0);
08:07:14:183;;;;;;;;;;;;;;08:07:14:179;1447960032.01;(0.2973925590515137, 0.2562515258789062);26.9924201965;1.0;4;0;0;0;0;();(-2000.0, -2000.0);
08:07:14:200;;;;;;;;;;;;;;08:07:14:179;1447960032.01;(0.2973925590515137, 0.2562515258789062);26.9924201965;1.0;4;0;0;0;0;();(-2000.0, -2000.0);
08:07:14:216;;;;;;;;;;;;;;08:07:14:179;1447960032.01;(0.2973925590515137, 0.2562515258789062);26.9924201965;1.0;4;0;0;0;0;();(-2000.0, -2000.0);
08:07:14:233;;;;;;;;;;;;;;08:07:14:222;1447960032.08;(0.2975583553314209, 0.2562783983018663);26.8374652863;1.0;4;0;0;0;0;();(-2000.0, -2000.0);
08:07:14:266;;;;;;;;;;;;;;08:07:14:222;1447960032.08;(0.2975583553314209, 0.2562783983018663);26.8374652863;1.0;4;0;0;0;0;();(-2000.0, -2000.0);
08:07:14:283;;;;;;;;;;;;;;08:07:14:222;1447960032.08;(0.2975583553314209, 0.2562783983018663);26.8374652863;1.0;4;0;0;0;0;();(-2000.0, -2000.0);
08:07:14:299;;;;;;;;;;;;;;08:07:14:222;1447960032.08;(0.2975583553314209, 0.2562783983018663);26.8374652863;1.0;4;0;0;0;0;();(-2000.0, -2000.0);
08:07:14:327;;;;;;;;;;;;;;08:07:14:302;1447960032.15;(0.2972466707229614, 0.2562817043728298);26.5231189728;1.0;4;0;0;0;0;();(-2000.0, -2000.0);
08:07:14:344;;;;;;;;;;;;;;08:07:14:302;1447960032.15;(0.2972466707229614, 0.2562817043728298);26.5231189728;1.0;4;0;0;0;0;();(-2000.0, -2000.0);
08:07:14:360;;;;;;;;;;;;;;08:07:14:346;1447960032.21;(0.2973612070083618, 0.25620668199327257);26.4956035614;1.0;4;0;0;0;0;();(-2000.0, -2000.0);
08:07:14:377;;;;;;;;;;;;;;08:07:14:346;1447960032.21;(0.2973612070083618, 0.25620668199327257);26.4956035614;1.0;4;0;0;0;0;();(-2000.0, -2000.0);
08:07:14:393;;;;;;;;;;;;;;08:07:14:346;1447960032.21;(0.2973612070083618, 0.25620668199327257);26.4956035614;1.0;4;0;0;0;0;();(-2000.0, -2000.0);
08:07:14:426;;;;;;;;;;;;;;08:07:14:346;1447960032.21;(0.2973612070083618, 0.25620668199327257);26.4956035614;1.0;4;0;0;0;0;();(-2000.0, -2000.0);
08:07:14:443;;;;;;;;;;;;;;08:07:14:431;1447960032.28;(0.2972611665725708, 0.25626339382595487);26.8854751587;1.0;4;0;0;0;0;();(-2000.0, -2000.0);
08:07:14:460;;;;;;;;;;;;;;08:07:14:431;1447960032.28;(0.2972611665725708, 0.25626339382595487);26.8854751587;1.0;4;0;0;0;0;();(-2000.0, -2000.0);
08:07:14:476;;;;;;;;;;;;;;08:07:14:431;1447960032.28;(0.2972611665725708, 0.25626339382595487);26.8854751587;1.0;4;0;0;0;0;();(-2000.0, -2000.0);
08:07:14:493;;;;;;;;;;;;;;08:07:14:431;1447960032.28;(0.2972611665725708, 0.25626339382595487);26.8854751587;1.0;4;0;0;0;0;();(-2000.0, -2000.0);
08:07:14:531;;;;;;;;;;;;;;08:07:14:511;1447960032.35;(0.2975603580474854, 0.2561624315049913);26.6876430511;1.0;4;0;0;0;0;();(-2000.0, -2000.0);
08:07:14:534;;;;;;;;;;;;;;08:07:14:511;1447960032.35;(0.2975603580474854, 0.2561624315049913);26.6876430511;1.0;4;0;0;0;0;();(-2000.0, -2000.0);
08:07:14:564;;;;;;;;;;;;;;08:07:14:555;1447960032.41;(0.2976477384567261, 0.2565389845106337);26.8153190613;1.0;4;0;0;0;0;();(-2000.0, -2000.0);
08:07:14:581;;;;;;;;;;;;;;08:07:14:555;1447960032.41;(0.2976477384567261, 0.2565389845106337);26.8153190613;1.0;4;0;0;0;0;();(-2000.0, -2000.0);
08:07:14:598;;;;;;;;;;;;;;08:07:14:555;1447960032.41;(0.2976477384567261, 0.2565389845106337);26.8153190613;1.0;4;0;0;0;0;();(-2000.0, -2000.0);
08:07:14:614;;;;;;;;;;;;;;08:07:14:555;1447960032.41;(0.2976477384567261, 0.2565389845106337);26.8153190613;1.0;4;0;0;0;0;();(-2000.0, -2000.0);
08:07:14:631;;;;;;;;;;;;;;08:07:14:555;1447960032.41;(0.2976477384567261, 0.2565389845106337);26.8153190613;1.0;4;0;0;0;0;();(-2000.0, -2000.0);
08:07:14:664;;;;;;;;;;;;;;08:07:14:634;1447960032.48;(0.2975331783294678, 0.25626203748914933);26.949010849;1.0;4;0;0;0;0;();(-2000.0, -2000.0);
08:07:14:680;;;;;;;;;;;;;;08:07:14:679;1447960032.55;(0.29750072956085205, 0.2562756008572049);26.7661094666;1.0;4;0;0;0;0;();(-2000.0, -2000.0);
08:07:14:697;;;;;;;;;;;;;;08:07:14:679;1447960032.55;(0.29750072956085205, 0.2562756008572049);26.7661094666;1.0;4;0;0;0;0;();(-2000.0, -2000.0);
08:07:14:713;;;;;;;;;;;;;;08:07:14:679;1447960032.55;(0.29750072956085205, 0.2562756008572049);26.7661094666;1.0;4;0;0;0;0;();(-2000.0, -2000.0);
08:07:14:734;;;;;;;;;;;;;;08:07:14:679;1447960032.55;(0.29750072956085205, 0.2562756008572049);26.7661094666;1.0;4;0;0;0;0;();(-2000.0, -2000.0);
08:07:14:751;;;;;;;;;;;;;;08:07:14:679;1447960032.55;(0.29750072956085205, 0.2562756008572049);26.7661094666;1.0;4;0;0;0;0;();(-2000.0, -2000.0);
08:07:14:785;;;;;;;;;;;;;;08:07:14:762;1447960032.61;(0.2975294828414917, 0.25630289713541665);26.8778953552;1.0;4;0;0;0;0;();(-2000.0, -2000.0);
08:07:14:802;;;;;;;;;;;;;;08:07:14:762;1447960032.61;(0.2975294828414917, 0.25630289713541665);26.8778953552;1.0;4;0;0;0;0;();(-2000.0, -2000.0);
08:07:14:818;;;;;;;;;;;;;;08:07:14:762;1447960032.61;(0.2975294828414917, 0.25630289713541665);26.8778953552;1.0;4;0;0;0;0;();(-2000.0, -2000.0);
08:07:14:835;;;;;;;;;;;;;;08:07:14:762;1447960032.61;(0.2975294828414917, 0.25630289713541665);26.8778953552;1.0;4;0;0;0;0;();(-2000.0, -2000.0);
08:07:14:851;;;;;;;;;;;;;;08:07:14:843;1447960032.68;(0.297451376914978, 0.25582377115885413);26.8365592957;1.0;4;0;0;0;0;();(-2000.0, -2000.0);
08:07:14:884;;;;;;;;;;;;;;08:07:14:843;1447960032.68;(0.297451376914978, 0.25582377115885413);26.8365592957;1.0;4;0;0;0;0;();(-2000.0, -2000.0);
08:07:14:901;;;;;;;;;;;;;;08:07:14:886;1447960032.75;(0.29728925228118896, 0.25614403618706594);26.5783996582;1.0;4;0;0;0;0;();(-2000.0, -2000.0);
08:07:14:918;;;;;;;;;;;;;;08:07:14:886;1447960032.75;(0.29728925228118896, 0.25614403618706594);26.5783996582;1.0;4;0;0;0;0;();(-2000.0, -2000.0);
08:07:14:939;;;;;;;;;;;;;;08:07:14:886;1447960032.75;(0.29728925228118896, 0.25614403618706594);26.5783996582;1.0;4;0;0;0;0;();(-2000.0, -2000.0);
08:07:14:956;;;;;;;;;;;;;;08:07:14:886;1447960032.75;(0.29728925228118896, 0.25614403618706594);26.5783996582;1.0;4;0;0;0;0;();(-2000.0, -2000.0);
08:07:14:972;;;;;;;;;;;;;;08:07:14:967;1447960032.81;(0.29741606712341306, 0.25600204467773435);26.9300880432;1.0;4;0;0;0;0;();(-2000.0, -2000.0);
08:07:15:006;;;;;;;;;;;;;;08:07:14:967;1447960032.81;(0.29741606712341306, 0.25600204467773435);26.9300880432;1.0;4;0;0;0;0;();(-2000.0, -2000.0);
08:07:15:022;;;;;;;;;;;;;;08:07:15:011;1447960032.88;(0.2975785493850708, 0.25602874755859373);26.9076385498;1.0;4;0;0;0;0;();(-2000.0, -2000.0);
08:07:15:039;;;;;;;;;;;;;;08:07:15:011;1447960032.88;(0.2975785493850708, 0.25602874755859373);26.9076385498;1.0;4;0;0;0;0;();(-2000.0, -2000.0);
08:07:15:055;;;;;;;;;;;;;;08:07:15:011;1447960032.88;(0.2975785493850708, 0.25602874755859373);26.9076385498;1.0;4;0;0;0;0;();(-2000.0, -2000.0);
08:07:15:072;;;;;;;;;;;;;;08:07:15:011;1447960032.88;(0.2975785493850708, 0.25602874755859373);26.9076385498;1.0;4;0;0;0;0;();(-2000.0, -2000.0);
08:07:15:105;;;;;;;;;;;;;;08:07:15:092;1447960032.95;(0.2977071046829224, 0.2564046223958333);26.6672439575;1.0;4;0;0;0;0;();(-2000.0, -2000.0);
08:07:15:122;;;;;;;;;;;;;;08:07:15:092;1447960032.95;(0.2977071046829224, 0.2564046223958333);26.6672439575;1.0;4;0;0;0;0;();(-2000.0, -2000.0);
08:07:15:139;;;;;;;;;;;;;;08:07:15:092;1447960032.95;(0.2977071046829224, 0.2564046223958333);26.6672439575;1.0;4;0;0;0;0;();(-2000.0, -2000.0);
08:07:15:156;;;;;;;;;;;;;;08:07:15:092;1447960032.95;(0.2977071046829224, 0.2564046223958333);26.6672439575;1.0;4;0;0;0;0;();(-2000.0, -2000.0);
08:07:15:173;;;;;;;;;;;;;;08:07:15:092;1447960032.95;(0.2977071046829224, 0.2564046223958333);26.6672439575;1.0;4;0;0;0;0;();(-2000.0, -2000.0);
08:07:15:206;;;;;;;;;;;;;;08:07:15:175;1447960033.01;(0.29753406047821046, 0.25630306667751734);27.0436229706;1.0;4;0;0;0;0;();(-2000.0, -2000.0);
08:07:15:223;;;;;;;;;;;;;;08:07:15:219;1447960033.08;(0.2975335597991943, 0.25600424872504335);26.8317050934;1.0;4;0;0;0;0;();(-2000.0, -2000.0);
08:07:15:239;;;;;;;;;;;;;;08:07:15:219;1447960033.08;(0.2975335597991943, 0.25600424872504335);26.8317050934;1.0;4;0;0;0;0;();(-2000.0, -2000.0);
08:07:15:256;;;;;;;;;;;;;;08:07:15:219;1447960033.08;(0.2975335597991943, 0.25600424872504335);26.8317050934;1.0;4;0;0;0;0;();(-2000.0, -2000.0);
08:07:15:273;;;;;;;;;;;;;;08:07:15:219;1447960033.08;(0.2975335597991943, 0.25600424872504335);26.8317050934;1.0;4;0;0;0;0;();(-2000.0, -2000.0);
08:07:15:315;;;;;;;;;;;;;;08:07:15:298;1447960033.15;(0.29769790172576904, 0.25658153957790797);26.6214447021;1.0;4;0;0;0;0;();(-2000.0, -2000.0);
08:07:15:317;;;;;;;;;;;;;;08:07:15:298;1447960033.15;(0.29769790172576904, 0.25658153957790797);26.6214447021;1.0;4;0;0;0;0;();(-2000.0, -2000.0);
08:07:15:349;;;;;;;;;;;;;;08:07:15:343;1447960033.21;(0.29766035079956055, 0.2566680060492621);26.9530887604;1.0;4;0;0;0;0;();(-2000.0, -2000.0);
08:07:15:366;;;;;;;;;;;;;;08:07:15:343;1447960033.21;(0.29766035079956055, 0.2566680060492621);26.9530887604;1.0;4;0;0;0;0;();(-2000.0, -2000.0);
08:07:15:382;;;;;;;;;;;;;;08:07:15:343;1447960033.21;(0.29766035079956055, 0.2566680060492621);26.9530887604;1.0;4;0;0;0;0;();(-2000.0, -2000.0);
08:07:15:399;;;;;;;;;;;;;;08:07:15:343;1447960033.21;(0.29766035079956055, 0.2566680060492621);26.9530887604;1.0;4;0;0;0;0;();(-2000.0, -2000.0);
08:07:15:416;;;;;;;;;;;;;;08:07:15:343;1447960033.21;(0.29766035079956055, 0.2566680060492621);26.9530887604;1.0;4;0;0;0;0;();(-2000.0, -2000.0);
08:07:15:432;;;;;;;;;;;;;;08:07:15:422;1447960033.28;(0.29732165336608884, 0.25647989908854163);26.7292385101;1.0;4;0;0;0;0;();(-2000.0, -2000.0);
08:07:15:465;;;;;;;;;;;;;;08:07:15:422;1447960033.28;(0.29732165336608884, 0.25647989908854163);26.7292385101;1.0;4;0;0;0;0;();(-2000.0, -2000.0);
08:07:15:483;;;;;;;;;;;;;;08:07:15:422;1447960033.28;(0.29732165336608884, 0.25647989908854163);26.7292385101;1.0;4;0;0;0;0;();(-2000.0, -2000.0);
08:07:15:498;;;;;;;;;;;;;;08:07:15:422;1447960033.28;(0.29732165336608884, 0.25647989908854163);26.7292385101;1.0;4;0;0;0;0;();(-2000.0, -2000.0);
08:07:15:515;;;;;;;;;;;;;;08:07:15:506;1447960033.35;(0.2975714683532715, 0.25577714708116317);26.5421981812;1.0;4;0;0;0;0;();(-2000.0, -2000.0);
08:07:15:532;;;;;;;;;;;;;;08:07:15:506;1447960033.35;(0.2975714683532715, 0.25577714708116317);26.5421981812;1.0;4;0;0;0;0;();(-2000.0, -2000.0);
08:07:15:551;;;;;;;;;;;;;;08:07:15:551;1447960033.41;(0.2974663734436035, 0.2560233222113715);26.5928115845;1.0;4;0;0;0;0;();(-2000.0, -2000.0);
08:07:15:586;;;;;;;;;;;;;;08:07:15:551;1447960033.41;(0.2974663734436035, 0.2560233222113715);26.5928115845;1.0;4;0;0;0;0;();(-2000.0, -2000.0);
08:07:15:603;;;;;;;;;;;;;;08:07:15:551;1447960033.41;(0.2974663734436035, 0.2560233222113715);26.5928115845;1.0;4;0;0;0;0;();(-2000.0, -2000.0);
08:07:15:619;;;;;;;;;;;;;;08:07:15:551;1447960033.41;(0.2974663734436035, 0.2560233222113715);26.5928115845;1.0;4;0;0;0;0;();(-2000.0, -2000.0);
08:07:15:636;;;;;;;;;;;;;;08:07:15:630;1447960033.48;(0.29775180816650393, 0.25624186197916665);26.2987174988;1.0;4;0;0;0;0;();(-2000.0, -2000.0);
08:07:15:652;;;;;;;;;;;;;;08:07:15:630;1447960033.48;(0.29775180816650393, 0.25624186197916665);26.2987174988;1.0;4;0;0;0;0;();(-2000.0, -2000.0);
08:07:15:685;;;;;;;;;;;;;;08:07:15:630;1447960033.48;(0.29775180816650393, 0.25624186197916665);26.2987174988;1.0;4;0;0;0;0;();(-2000.0, -2000.0);
08:07:15:702;;;;;;;;;;;;;;08:07:15:630;1447960033.48;(0.29775180816650393, 0.25624186197916665);26.2987174988;1.0;4;0;0;0;0;();(-2000.0, -2000.0);
08:07:15:718;;;;;;;;;;;;;;08:07:15:714;1447960033.55;(0.29766786098480225, 0.25645540025499136);26.8688583374;1.0;4;0;0;0;0;();(-2000.0, -2000.0);
08:07:15:735;;;;;;;;;;;;;;08:07:15:714;1447960033.55;(0.29766786098480225, 0.25645540025499136);26.8688583374;1.0;4;0;0;0;0;();(-2000.0, -2000.0);
08:07:15:756;;;;;;;;;;;;;;08:07:15:755;1447960033.61;(0.29766173362731935, 0.25691367255316844);26.6260356903;1.0;4;0;0;0;0;();(-2000.0, -2000.0);
08:07:15:773;;;;;;;;;;;;;;08:07:15:755;1447960033.61;(0.29766173362731935, 0.25691367255316844);26.6260356903;1.0;4;0;0;0;0;();(-2000.0, -2000.0);
08:07:15:790;;;;;;;;;;;;;;08:07:15:755;1447960033.61;(0.29766173362731935, 0.25691367255316844);26.6260356903;1.0;4;0;0;0;0;();(-2000.0, -2000.0);
08:07:15:823;;;;;;;;;;;;;;08:07:15:755;1447960033.61;(0.29766173362731935, 0.25691367255316844);26.6260356903;1.0;4;0;0;0;0;();(-2000.0, -2000.0);
08:07:15:840;;;;;;;;;;;;;;08:07:15:839;1447960033.68;(0.29741203784942627, 0.25635977851019964);26.600019455;1.0;4;0;0;0;0;();(-2000.0, -2000.0);
08:07:15:856;;;;;;;;;;;;;;08:07:15:839;1447960033.68;(0.29741203784942627, 0.25635977851019964);26.600019455;1.0;4;0;0;0;0;();(-2000.0, -2000.0);
08:07:15:873;;;;;;;;;;;;;;08:07:15:839;1447960033.68;(0.29741203784942627, 0.25635977851019964);26.600019455;1.0;4;0;0;0;0;();(-2000.0, -2000.0);
08:07:15:906;;;;;;;;;;;;;;08:07:15:878;1447960033.75;(0.2972391128540039, 0.2563501993815104);27.1062049866;1.0;4;0;0;0;0;();(-2000.0, -2000.0);
08:07:15:923;;;;;;;;;;;;;;08:07:15:878;1447960033.75;(0.2972391128540039, 0.2563501993815104);27.1062049866;1.0;4;0;0;0;0;();(-2000.0, -2000.0);
08:07:15:939;;;;;;;;;;;;;;08:07:15:878;1447960033.75;(0.2972391128540039, 0.2563501993815104);27.1062049866;1.0;4;0;0;0;0;();(-2000.0, -2000.0);
08:07:15:960;;;;;;;;;;;;;;08:07:15:878;1447960033.75;(0.2972391128540039, 0.2563501993815104);27.1062049866;1.0;4;0;0;0;0;();(-2000.0, -2000.0);
08:07:15:976;;;;;;;;;;;;;;08:07:15:962;1447960033.81;(0.2973642826080322, 0.2563406202528212);26.845823288;1.0;4;0;0;0;0;();(-2000.0, -2000.0);
08:07:15:993;;;;;;;;;;;;;;08:07:15:962;1447960033.81;(0.2973642826080322, 0.2563406202528212);26.845823288;1.0;4;0;0;0;0;();(-2000.0, -2000.0);
08:07:16:026;;;;;;;;;;;;;;08:07:16:006;1447960033.88;(0.2972188711166382, 0.2560619778103299);26.782491684;1.0;4;0;0;0;0;();(-2000.0, -2000.0);
08:07:16:043;;;;;;;;;;;;;;08:07:16:006;1447960033.88;(0.2972188711166382, 0.2560619778103299);26.782491684;1.0;4;0;0;0;0;();(-2000.0, -2000.0);
08:07:16:059;;;;;;;;;;;;;;08:07:16:006;1447960033.88;(0.2972188711166382, 0.2560619778103299);26.782491684;1.0;4;0;0;0;0;();(-2000.0, -2000.0);
08:07:16:076;;;;;;;;;;;;;;08:07:16:006;1447960033.88;(0.2972188711166382, 0.2560619778103299);26.782491684;1.0;4;0;0;0;0;();(-2000.0, -2000.0);
08:07:16:093;;;;;;;;;;;;;;08:07:16:087;1447960033.95;(0.2973992586135864, 0.25604968600802946);26.9136486053;1.0;4;0;0;0;0;();(-2000.0, -2000.0);
08:07:16:126;;;;;;;;;;;;;;08:07:16:087;1447960033.95;(0.2973992586135864, 0.25604968600802946);26.9136486053;1.0;4;0;0;0;0;();(-2000.0, -2000.0);
08:07:16:142;;;;;;;;;;;;;;08:07:16:087;1447960033.95;(0.2973992586135864, 0.25604968600802946);26.9136486053;1.0;4;0;0;0;0;();(-2000.0, -2000.0);
08:07:16:161;;;;;;;;;;;;;;08:07:16:087;1447960033.95;(0.2973992586135864, 0.25604968600802946);26.9136486053;1.0;4;0;0;0;0;();(-2000.0, -2000.0);
08:07:16:178;;;;;;;;;;;;;;08:07:16:171;1447960034.01;(0.2975369930267334, 0.25649024115668406);27.1272068024;1.0;4;0;0;0;0;();(-2000.0, -2000.0);
08:07:16:195;;;;;;;;;;;;;;08:07:16:171;1447960034.01;(0.2975369930267334, 0.25649024115668406);27.1272068024;1.0;4;0;0;0;0;();(-2000.0, -2000.0);
08:07:16:211;;;;;;;;;;;;;;08:07:16:171;1447960034.01;(0.2975369930267334, 0.25649024115668406);27.1272068024;1.0;4;0;0;0;0;();(-2000.0, -2000.0);
08:07:16:244;;;;;;;;;;;;;;08:07:16:171;1447960034.01;(0.2975369930267334, 0.25649024115668406);27.1272068024;1.0;4;0;0;0;0;();(-2000.0, -2000.0);
08:07:16:261;;;;;;;;;;;;;;08:07:16:255;1447960034.08;(0.29766154289245605, 0.25614657931857643);26.5145778656;1.0;4;0;0;0;0;();(-2000.0, -2000.0);
08:07:16:277;;;;;;;;;;;;;;08:07:16:255;1447960034.08;(0.29766154289245605, 0.25614657931857643);26.5145778656;1.0;4;0;0;0;0;();(-2000.0, -2000.0);
08:07:16:294;;;;;;;;;;;;;;08:07:16:255;1447960034.08;(0.29766154289245605, 0.25614657931857643);26.5145778656;1.0;4;0;0;0;0;();(-2000.0, -2000.0);
08:07:16:311;;;;;;;;;;;;;;08:07:16:295;1447960034.15;(0.29733374118804934, 0.2563568962944879);26.9147891998;1.0;4;0;0;0;0;();(-2000.0, -2000.0);
08:07:16:344;;;;;;;;;;;;;;08:07:16:338;1447960034.21;(0.29751665592193605, 0.2564213222927517);26.9824542999;1.0;4;0;0;0;0;();(-2000.0, -2000.0);
08:07:16:374;;;;;;;;;;;;;;08:07:16:338;1447960034.21;(0.29751665592193605, 0.2564213222927517);26.9824542999;1.0;4;0;0;0;0;();(-2000.0, -2000.0);
08:07:16:376;;;;;;;;;;;;;;08:07:16:338;1447960034.21;(0.29751665592193605, 0.2564213222927517);26.9824542999;1.0;4;0;0;0;0;();(-2000.0, -2000.0);
08:07:16:391;;;;;;;;;;;;;;08:07:16:338;1447960034.21;(0.29751665592193605, 0.2564213222927517);26.9824542999;1.0;4;0;0;0;0;();(-2000.0, -2000.0);
08:07:16:410;;;;;;;;;;;;;;08:07:16:338;1447960034.21;(0.29751665592193605, 0.2564213222927517);26.9824542999;1.0;4;0;0;0;0;();(-2000.0, -2000.0);
08:07:16:444;;;;;;;;;;;;;;08:07:16:419;1447960034.28;(0.29768054485321044, 0.25612869262695315);26.5227985382;1.0;4;0;0;0;0;();(-2000.0, -2000.0);
08:07:16:460;;;;;;;;;;;;;;08:07:16:419;1447960034.28;(0.29768054485321044, 0.25612869262695315);26.5227985382;1.0;4;0;0;0;0;();(-2000.0, -2000.0);
08:07:16:477;;;;;;;;;;;;;;08:07:16:419;1447960034.28;(0.29768054485321044, 0.25612869262695315);26.5227985382;1.0;4;0;0;0;0;();(-2000.0, -2000.0);
08:07:16:493;;;;;;;;;;;;;;08:07:16:419;1447960034.28;(0.29768054485321044, 0.25612869262695315);26.5227985382;1.0;4;0;0;0;0;();(-2000.0, -2000.0);
08:07:16:527;;;;;;;;;;;;;;08:07:16:502;1447960034.35;(0.2977336645126343, 0.25612657335069444);26.5860233307;1.0;4;0;0;0;0;();(-2000.0, -2000.0);
08:07:16:543;;;;;;;;;;;;;;08:07:16:542;1447960034.41;(0.2972735404968262, 0.25598466661241315);26.9787025452;1.0;4;0;0;0;0;();(-2000.0, -2000.0);
08:07:16:560;;;;;;;;;;;;;;08:07:16:542;1447960034.41;(0.2972735404968262, 0.25598466661241315);26.9787025452;1.0;4;0;0;0;0;();(-2000.0, -2000.0);
08:07:16:581;;;;;;;;;;;;;;08:07:16:542;1447960034.41;(0.2972735404968262, 0.25598466661241315);26.9787025452;1.0;4;0;0;0;0;();(-2000.0, -2000.0);
08:07:16:597;;;;;;;;;;;;;;08:07:16:542;1447960034.41;(0.2972735404968262, 0.25598466661241315);26.9787025452;1.0;4;0;0;0;0;();(-2000.0, -2000.0);
08:07:16:615;;;;;;;;;;;;;;08:07:16:542;1447960034.41;(0.2972735404968262, 0.25598466661241315);26.9787025452;1.0;4;0;0;0;0;();(-2000.0, -2000.0);
08:07:16:632;;;;;;;;;;;;;;08:07:16:627;1447960034.48;(0.2975010395050049, 0.2563283284505208);26.7399272919;1.0;4;0;0;0;0;();(-2000.0, -2000.0);
08:07:16:665;;;;;;;;;;;;;;08:07:16:627;1447960034.48;(0.2975010395050049, 0.2563283284505208);26.7399272919;1.0;4;0;0;0;0;();(-2000.0, -2000.0);
08:07:16:681;;;;;;;;;;;;;;08:07:16:627;1447960034.48;(0.2975010395050049, 0.2563283284505208);26.7399272919;1.0;4;0;0;0;0;();(-2000.0, -2000.0);
08:07:16:698;;;;;;;;;;;;;;08:07:16:627;1447960034.48;(0.2975010395050049, 0.2563283284505208);26.7399272919;1.0;4;0;0;0;0;();(-2000.0, -2000.0);
08:07:16:715;;;;;;;;;;;;;;08:07:16:711;1447960034.55;(0.297220516204834, 0.25597830878363714);27.0663337708;1.0;4;0;0;0;0;();(-2000.0, -2000.0);
08:07:16:731;;;;;;;;;;;;;;08:07:16:711;1447960034.55;(0.297220516204834, 0.25597830878363714);27.0663337708;1.0;4;0;0;0;0;();(-2000.0, -2000.0);
08:07:16:764;;;;;;;;;;;;;;08:07:16:751;1447960034.61;(0.29751083850860593, 0.2564853244357639);26.8175735474;1.0;4;0;0;0;0;();(-2000.0, -2000.0);
08:07:16:782;;;;;;;;;;;;;;08:07:16:751;1447960034.61;(0.29751083850860593, 0.2564853244357639);26.8175735474;1.0;4;0;0;0;0;();(-2000.0, -2000.0);
08:07:16:799;;;;;;;;;;;;;;08:07:16:751;1447960034.61;(0.29751083850860593, 0.2564853244357639);26.8175735474;1.0;4;0;0;0;0;();(-2000.0, -2000.0);
08:07:16:816;;;;;;;;;;;;;;08:07:16:751;1447960034.61;(0.29751083850860593, 0.2564853244357639);26.8175735474;1.0;4;0;0;0;0;();(-2000.0, -2000.0);
08:07:16:833;;;;;;;;;;;;;;08:07:16:751;1447960034.61;(0.29751083850860593, 0.2564853244357639);26.8175735474;1.0;4;0;0;0;0;();(-2000.0, -2000.0);
08:07:16:866;;;;;;;;;;;;;;08:07:16:835;1447960034.68;(0.2973695039749146, 0.2568662007649739);26.9229812622;1.0;4;0;0;0;0;();(-2000.0, -2000.0);
08:07:16:884;;;;;;;;;;;;;;08:07:16:874;1447960034.75;(0.2973414421081543, 0.2560615539550781);26.7028865814;1.0;4;0;0;0;0;();(-2000.0, -2000.0);
08:07:16:899;;;;;;;;;;;;;;08:07:16:874;1447960034.75;(0.2973414421081543, 0.2560615539550781);26.7028865814;1.0;4;0;0;0;0;();(-2000.0, -2000.0);
08:07:16:916;;;;;;;;;;;;;;08:07:16:874;1447960034.75;(0.2973414421081543, 0.2560615539550781);26.7028865814;1.0;4;0;0;0;0;();(-2000.0, -2000.0);
08:07:16:932;;;;;;;;;;;;;;08:07:16:874;1447960034.75;(0.2973414421081543, 0.2560615539550781);26.7028865814;1.0;4;0;0;0;0;();(-2000.0, -2000.0);
08:07:16:965;;;;;;;;;;;;;;08:07:16:958;1447960034.81;(0.29721965789794924, 0.25637936062282984);26.252658844;1.0;4;0;0;0;0;();(-2000.0, -2000.0);
08:07:16:987;;;;;;;;;;;;;;08:07:16:958;1447960034.81;(0.29721965789794924, 0.25637936062282984);26.252658844;1.0;4;0;0;0;0;();(-2000.0, -2000.0);
08:07:17:006;;;;;;;;;;;;;;08:07:16:958;1447960034.81;(0.29721965789794924, 0.25637936062282984);26.252658844;1.0;4;0;0;0;0;();(-2000.0, -2000.0);
08:07:17:022;;;;;;;;;;;;;;08:07:16:958;1447960034.81;(0.29721965789794924, 0.25637936062282984);26.252658844;1.0;4;0;0;0;0;();(-2000.0, -2000.0);
08:07:17:039;;;;;;;;;;;;;;08:07:16:958;1447960034.81;(0.29721965789794924, 0.25637936062282984);26.252658844;1.0;4;0;0;0;0;();(-2000.0, -2000.0);
08:07:17:057;;;;;;;;;;;;;;08:07:17:043;1447960034.88;(0.29731481075286864, 0.2564911736382378);26.5599117279;1.0;4;0;0;0;0;();(-2000.0, -2000.0);
08:07:17:073;;;;;;;;;;;;;;08:07:17:043;1447960034.88;(0.29731481075286864, 0.2564911736382378);26.5599117279;1.0;4;0;0;0;0;();(-2000.0, -2000.0);
08:07:17:106;;;;;;;;;;;;;;08:07:17:083;1447960034.95;(0.2974830389022827, 0.25662951999240446);26.848859787;1.0;4;0;0;0;0;();(-2000.0, -2000.0);
08:07:17:123;;;;;;;;;;;;;;08:07:17:083;1447960034.95;(0.2974830389022827, 0.25662951999240446);26.848859787;1.0;4;0;0;0;0;();(-2000.0, -2000.0);
08:07:17:139;;;;;;;;;;;;;;08:07:17:083;1447960034.95;(0.2974830389022827, 0.25662951999240446);26.848859787;1.0;4;0;0;0;0;();(-2000.0, -2000.0);
08:07:17:156;;;;;;;;;;;;;;08:07:17:083;1447960034.95;(0.2974830389022827, 0.25662951999240446);26.848859787;1.0;4;0;0;0;0;();(-2000.0, -2000.0);
08:07:17:172;;;;;;;;;;;;;;08:07:17:166;1447960035.01;(0.2976288557052612, 0.2566246880425347);26.3340473175;1.0;4;0;0;0;0;();(-2000.0, -2000.0);
08:07:17:193;;;;;;;;;;;;;;08:07:17:166;1447960035.01;(0.2976288557052612, 0.2566246880425347);26.3340473175;1.0;4;0;0;0;0;();(-2000.0, -2000.0);
