%Timestamp,timestamp_write;timestamp_gotpupil;eyetrackertime;norm_pos;diameter;confidence;timestamp_gotbitdata;CRC;SEQ;AnalogOutp1;AnalogOutp2;AnalogOutp3;AnalogOutp4;AnalogOutp5;AnalogOutp6;DigitalOutp1;DigitalOutp2;igitalOutp3;DigitalOutp4;nplanes;lastaction;lastactiondetails;lastactionairplanenumber;positivescore;negativescore;collidedairplanenumbers;targetpositions;collision_point
11:46:24:490;1448060541.96;(0.42012045383453367, 0.6912243949042427);71.9160232544;1.0;;;;;;;;;;;;;;0;0;0;;0;0;();();(0.0, 0.0);
11:46:24:496;1448060541.96;(0.42012045383453367, 0.6912243949042427);71.9160232544;1.0;;;;;;;;;;;;;;0;0;0;;0;0;();();(-2000.0, -2000.0);
11:46:24:499;1448060541.96;(0.42012045383453367, 0.6912243949042427);71.9160232544;1.0;;;;;;;;;;;;;;0;0;0;;0;0;();();(-2000.0, -2000.0);
11:46:24:502;1448060541.96;(0.42012045383453367, 0.6912243949042427);71.9160232544;1.0;;;;;;;;;;;;;;0;0;0;;0;0;();();(-2000.0, -2000.0);
11:46:24:504;1448060541.96;(0.42012045383453367, 0.6912243949042427);71.9160232544;1.0;;;;;;;;;;;;;;0;0;0;;0;0;();();(-2000.0, -2000.0);
11:46:24:506;1448060541.96;(0.42012045383453367, 0.6912243949042427);71.9160232544;1.0;;;;;;;;;;;;;;0;0;0;;0;0;();();(-2000.0, -2000.0);
11:46:24:508;1448060541.96;(0.42012045383453367, 0.6912243949042427);71.9160232544;1.0;;;;;;;;;;;;;;0;0;0;;0;0;();();(-2000.0, -2000.0);
11:46:24:511;1448060541.96;(0.42012045383453367, 0.6912243949042427);71.9160232544;1.0;;;;;;;;;;;;;;0;0;0;;0;0;();();(-2000.0, -2000.0);
11:46:24:513;1448060541.96;(0.42012045383453367, 0.6912243949042427);71.9160232544;1.0;;;;;;;;;;;;;;0;0;0;;0;0;();();(-2000.0, -2000.0);
11:46:24:515;1448060541.96;(0.42012045383453367, 0.6912243949042427);71.9160232544;1.0;;;;;;;;;;;;;;0;0;0;;0;0;();();(-2000.0, -2000.0);
11:46:24:517;1448060541.96;(0.42012045383453367, 0.6912243949042427);71.9160232544;1.0;;;;;;;;;;;;;;0;0;0;;0;0;();();(-2000.0, -2000.0);
11:46:24:519;1448060541.96;(0.42012045383453367, 0.6912243949042427);71.9160232544;1.0;;;;;;;;;;;;;;0;0;0;;0;0;();();(-2000.0, -2000.0);
11:46:24:522;1448060541.96;(0.42012045383453367, 0.6912243949042427);71.9160232544;1.0;;;;;;;;;;;;;;0;0;0;;0;0;();();(-2000.0, -2000.0);
11:46:24:524;1448060541.96;(0.42012045383453367, 0.6912243949042427);71.9160232544;1.0;;;;;;;;;;;;;;0;0;0;;0;0;();();(-2000.0, -2000.0);
11:46:24:526;1448060541.96;(0.42012045383453367, 0.6912243949042427);71.9160232544;1.0;;;;;;;;;;;;;;0;0;0;;0;0;();();(-2000.0, -2000.0);
11:46:24:528;1448060541.96;(0.42012045383453367, 0.6912243949042427);71.9160232544;1.0;;;;;;;;;;;;;;0;0;0;;0;0;();();(-2000.0, -2000.0);
11:46:24:530;1448060541.96;(0.42012045383453367, 0.6912243949042427);71.9160232544;1.0;;;;;;;;;;;;;;0;0;0;;0;0;();();(-2000.0, -2000.0);
11:46:24:531;1448060541.96;(0.42012045383453367, 0.6912243949042427);71.9160232544;1.0;;;;;;;;;;;;;;0;0;0;;0;0;();();(-2000.0, -2000.0);
11:46:24:532;1448060541.96;(0.42012045383453367, 0.6912243949042427);71.9160232544;1.0;;;;;;;;;;;;;;0;0;0;;0;0;();();(-2000.0, -2000.0);
11:46:24:556;11:46:24:544;1448060542.0;(0.420292592048645, 0.6913049697875977);72.287361145;1.0;;;;;;;;;;;;;;0;0;0;;0;0;();();(-2000.0, -2000.0);
11:46:24:572;11:46:24:544;1448060542.0;(0.420292592048645, 0.6913049697875977);72.287361145;1.0;;;;;;;;;;;;;;0;0;0;;0;0;();();(-2000.0, -2000.0);
11:46:24:588;11:46:24:544;1448060542.0;(0.420292592048645, 0.6913049697875977);72.287361145;1.0;;;;;;;;;;;;;;0;0;0;;0;0;();();(-2000.0, -2000.0);
11:46:24:622;11:46:24:609;1448060542.1;(0.4099419355392456, 0.6870205349392361);72.6390991211;1.0;;;;;;;;;;;;;;0;0;0;;0;0;();();(-2000.0, -2000.0);
11:46:24:639;11:46:24:609;1448060542.1;(0.4099419355392456, 0.6870205349392361);72.6390991211;1.0;;;;;;;;;;;;;;0;0;0;;0;0;();();(-2000.0, -2000.0);
11:46:26:783;11:46:26:734;1448060544.2;(0.4069187164306641, 0.690989367167155);72.0420303345;1.0;;;;;;;;;;;;;;0;0;0;;0;0;();();(-2000.0, -2000.0);
11:46:26:785;11:46:26:734;1448060544.2;(0.4069187164306641, 0.690989367167155);72.0420303345;1.0;;;;;;;;;;;;;;0;0;0;;0;0;();();(-2000.0, -2000.0);
11:46:26:788;11:46:26:734;1448060544.2;(0.4069187164306641, 0.690989367167155);72.0420303345;1.0;;;;;;;;;;;;;;0;0;0;;0;0;();();(-2000.0, -2000.0);
11:46:26:790;11:46:26:734;1448060544.2;(0.4069187164306641, 0.690989367167155);72.0420303345;1.0;;;;;;;;;;;;;;0;0;0;;0;0;();();(-2000.0, -2000.0);
11:46:26:793;11:46:26:734;1448060544.2;(0.4069187164306641, 0.690989367167155);72.0420303345;1.0;;;;;;;;;;;;;;0;0;0;;0;0;();();(-2000.0, -2000.0);
11:46:26:795;11:46:26:734;1448060544.2;(0.4069187164306641, 0.690989367167155);72.0420303345;1.0;;;;;;;;;;;;;;0;0;0;;0;0;();();(-2000.0, -2000.0);
11:46:26:797;11:46:26:734;1448060544.2;(0.4069187164306641, 0.690989367167155);72.0420303345;1.0;;;;;;;;;;;;;;0;0;0;;0;0;();();(-2000.0, -2000.0);
11:46:26:800;11:46:26:734;1448060544.2;(0.4069187164306641, 0.690989367167155);72.0420303345;1.0;;;;;;;;;;;;;;0;0;0;;0;0;();();(-2000.0, -2000.0);
11:46:26:803;11:46:26:801;1448060544.26;(0.40696423053741454, 0.6917369842529297);71.9311981201;1.0;;;;;;;;;;;;;;0;0;0;;0;0;();();(-2000.0, -2000.0);
11:46:26:805;11:46:26:801;1448060544.26;(0.40696423053741454, 0.6917369842529297);71.9311981201;1.0;;;;;;;;;;;;;;0;0;0;;0;0;();();(-2000.0, -2000.0);
11:46:26:808;11:46:26:801;1448060544.26;(0.40696423053741454, 0.6917369842529297);71.9311981201;1.0;;;;;;;;;;;;;;0;0;0;;0;0;();();(-2000.0, -2000.0);
11:46:26:809;11:46:26:801;1448060544.26;(0.40696423053741454, 0.6917369842529297);71.9311981201;1.0;;;;;;;;;;;;;;0;0;0;;0;0;();();(-2000.0, -2000.0);
11:46:26:810;11:46:26:801;1448060544.26;(0.40696423053741454, 0.6917369842529297);71.9311981201;1.0;;;;;;;;;;;;;;0;0;0;;0;0;();();(-2000.0, -2000.0);
11:46:26:812;11:46:26:801;1448060544.26;(0.40696423053741454, 0.6917369842529297);71.9311981201;1.0;;;;;;;;;;;;;;0;0;0;;0;0;();();(-2000.0, -2000.0);
11:46:26:813;11:46:26:801;1448060544.26;(0.40696423053741454, 0.6917369842529297);71.9311981201;1.0;;;;;;;;;;;;;;0;0;0;;0;0;();();(-2000.0, -2000.0);
11:46:26:814;11:46:26:801;1448060544.26;(0.40696423053741454, 0.6917369842529297);71.9311981201;1.0;;;;;;;;;;;;;;0;0;0;;0;0;();();(-2000.0, -2000.0);
11:46:26:815;11:46:26:801;1448060544.26;(0.40696423053741454, 0.6917369842529297);71.9311981201;1.0;;;;;;;;;;;;;;0;0;0;;0;0;();();(-2000.0, -2000.0);
11:46:26:816;11:46:26:801;1448060544.26;(0.40696423053741454, 0.6917369842529297);71.9311981201;1.0;;;;;;;;;;;;;;0;0;0;;0;0;();();(-2000.0, -2000.0);
11:46:26:817;11:46:26:801;1448060544.26;(0.40696423053741454, 0.6917369842529297);71.9311981201;1.0;;;;;;;;;;;;;;0;0;0;;0;0;();();(-2000.0, -2000.0);
11:46:26:841;11:46:26:801;1448060544.26;(0.40696423053741454, 0.6917369842529297);71.9311981201;1.0;;;;;;;;;;;;;;0;0;0;;0;0;();();(-2000.0, -2000.0);
11:46:26:858;11:46:26:801;1448060544.26;(0.40696423053741454, 0.6917369842529297);71.9311981201;1.0;;;;;;;;;;;;;;0;0;0;;0;0;();();(-2000.0, -2000.0);
11:46:26:876;11:46:26:865;1448060544.33;(0.4068871736526489, 0.6920683754814996);71.5438842773;1.0;;;;;;;;;;;;;;0;0;0;;0;0;();();(-2000.0, -2000.0);
11:46:26:908;11:46:26:865;1448060544.33;(0.4068871736526489, 0.6920683754814996);71.5438842773;1.0;;;;;;;;;;;;;;0;0;0;;0;0;();();(-2000.0, -2000.0);
11:46:26:925;11:46:26:865;1448060544.33;(0.4068871736526489, 0.6920683754814996);71.5438842773;1.0;;;;;;;;;;;;;;0;0;0;;0;0;();();(-2000.0, -2000.0);
11:46:26:941;11:46:26:934;1448060544.4;(0.40700843334198, 0.6924160639444987);71.3742828369;1.0;;;;;;;;;;;;;;0;0;0;;0;0;();();(-2000.0, -2000.0);
11:46:26:958;11:46:26:934;1448060544.4;(0.40700843334198, 0.6924160639444987);71.3742828369;1.0;;;;;;;;;;;;;;0;0;0;;0;0;();();(-2000.0, -2000.0);
11:46:26:991;11:46:26:934;1448060544.4;(0.40700843334198, 0.6924160639444987);71.3742828369;1.0;;;;;;;;;;;;;;0;0;0;;0;0;();();(-2000.0, -2000.0);
11:46:27:008;11:46:26:997;1448060544.46;(0.4236958742141724, 0.6901366975572374);71.9716567993;1.0;;;;;;;;;;;;;;0;0;0;;0;0;();();(-2000.0, -2000.0);
11:46:27:025;11:46:26:997;1448060544.46;(0.4236958742141724, 0.6901366975572374);71.9716567993;1.0;;;;;;;;;;;;;;0;0;0;;0;0;();();(-2000.0, -2000.0);
11:46:27:041;11:46:26:997;1448060544.46;(0.4236958742141724, 0.6901366975572374);71.9716567993;1.0;;;;;;;;;;;;;;0;0;0;;0;0;();();(-2000.0, -2000.0);
11:46:27:058;11:46:26:997;1448060544.46;(0.4236958742141724, 0.6901366975572374);71.9716567993;1.0;;;;;;;;;;;;;;0;0;0;;0;0;();();(-2000.0, -2000.0);
11:46:27:091;11:46:27:065;1448060544.53;(0.4252694368362427, 0.6903025521172417);71.5916748047;1.0;;;;;;;;;;;;;;0;0;0;;0;0;();();(-2000.0, -2000.0);
11:46:27:108;11:46:27:065;1448060544.53;(0.4252694368362427, 0.6903025521172417);71.5916748047;1.0;;;;;;;;;;;;;;0;0;0;;0;0;();();(-2000.0, -2000.0);
11:46:27:124;11:46:27:065;1448060544.53;(0.4252694368362427, 0.6903025521172417);71.5916748047;1.0;;;;;;;;;;;;;;0;0;0;;0;0;();();(-2000.0, -2000.0);
11:46:27:141;11:46:27:133;1448060544.6;(0.42567579746246337, 0.6909273995293511);70.8661422729;1.0;;;;;;;;;;;;;;0;0;0;;0;0;();();(-2000.0, -2000.0);
11:46:27:158;11:46:27:133;1448060544.6;(0.42567579746246337, 0.6909273995293511);70.8661422729;1.0;;;;;;;;;;;;;;0;0;0;;0;0;();();(-2000.0, -2000.0);
11:46:27:191;11:46:27:133;1448060544.6;(0.42567579746246337, 0.6909273995293511);70.8661422729;1.0;;;;;;;;;;;;;;0;0;0;;0;0;();();(-2000.0, -2000.0);
11:46:27:209;11:46:27:197;1448060544.66;(0.4256424427032471, 0.6912817001342774);71.342956543;1.0;;;;;;;;;;;;;;0;0;0;;0;0;();();(-2000.0, -2000.0);
11:46:27:225;11:46:27:197;1448060544.66;(0.4256424427032471, 0.6912817001342774);71.342956543;1.0;;;;;;;;;;;;;;0;0;0;;0;0;();();(-2000.0, -2000.0);
11:46:27:242;11:46:27:197;1448060544.66;(0.4256424427032471, 0.6912817001342774);71.342956543;1.0;;;;;;;;;;;;;;0;0;0;;0;0;();();(-2000.0, -2000.0);
11:46:27:258;11:46:27:197;1448060544.66;(0.4256424427032471, 0.6912817001342774);71.342956543;1.0;;;;;;;;;;;;;;0;0;0;;0;0;();();(-2000.0, -2000.0);
11:46:27:292;11:46:27:265;1448060544.73;(0.4248578310012817, 0.690232170952691);71.8664474487;1.0;;;;;;;;;;;;;;0;0;0;;0;0;();();(-2000.0, -2000.0);
11:46:27:308;11:46:27:265;1448060544.73;(0.4248578310012817, 0.690232170952691);71.8664474487;1.0;;;;;;;;;;;;;;0;0;0;;0;0;();();(-2000.0, -2000.0);
11:46:27:324;11:46:27:265;1448060544.73;(0.4248578310012817, 0.690232170952691);71.8664474487;1.0;;;;;;;;;;;;;;0;0;0;;0;0;();();(-2000.0, -2000.0);
11:46:27:342;11:46:27:329;1448060544.76;(0.6313352584838867, 0.4520026312934028);37.710849762;0.617517903463;;;;;;;;;;;;;;0;0;0;;0;0;();();(-2000.0, -2000.0);
11:46:27:358;11:46:27:329;1448060544.76;(0.6313352584838867, 0.4520026312934028);37.710849762;0.617517903463;;;;;;;;;;;;;;0;0;0;;0;0;();();(-2000.0, -2000.0);
11:46:27:392;11:46:27:329;1448060544.76;(0.6313352584838867, 0.4520026312934028);37.710849762;0.617517903463;;;;;;;;;;;;;;0;0;0;;0;0;();();(-2000.0, -2000.0);
11:46:27:409;11:46:27:329;1448060544.76;(0.6313352584838867, 0.4520026312934028);37.710849762;0.617517903463;;;;;;;;;;;;;;0;0;0;;0;0;();();(-2000.0, -2000.0);
11:46:27:425;11:46:27:329;1448060544.76;(0.6313352584838867, 0.4520026312934028);37.710849762;0.617517903463;;;;;;;;;;;;;;0;0;0;;0;0;();();(-2000.0, -2000.0);
11:46:27:442;11:46:27:329;1448060544.76;(0.6313352584838867, 0.4520026312934028);37.710849762;0.617517903463;;;;;;;;;;;;;;0;0;0;;0;0;();();(-2000.0, -2000.0);
11:46:27:458;11:46:27:329;1448060544.76;(0.6313352584838867, 0.4520026312934028);37.710849762;0.617517903463;;;;;;;;;;;;;;0;0;0;;0;0;();();(-2000.0, -2000.0);
11:46:27:989;11:46:27:929;1448060545.4;(0.40940654277801514, 0.6926511340671115);72.3387298584;1.0;11:46:27:986;0;10;-0.758064516129032;1;0;0;0;0;1;1;1;1;0;0;0;;0;0;();();(-2000.0, -2000.0);
11:46:27:991;11:46:27:929;1448060545.4;(0.40940654277801514, 0.6926511340671115);72.3387298584;1.0;11:46:27:991;0;10;-0.758064516129032;1;0;0;0;0;1;1;1;1;0;0;0;;0;0;();();(-2000.0, -2000.0);
11:46:27:994;11:46:27:929;1448060545.4;(0.40940654277801514, 0.6926511340671115);72.3387298584;1.0;11:46:27:994;0;10;-0.758064516129032;1;0;0;0;0;1;1;1;1;0;0;0;;0;0;();();(-2000.0, -2000.0);
11:46:27:997;11:46:27:929;1448060545.4;(0.40940654277801514, 0.6926511340671115);72.3387298584;1.0;11:46:27:997;0;10;-0.758064516129032;1;0;0;0;0;1;1;1;1;0;0;0;;0;0;();();(-2000.0, -2000.0);
11:46:28:000;11:46:27:998;1448060545.46;(0.40776491165161133, 0.6921163770887586);71.6745605469;0.809630760698;11:46:28:000;0;10;-0.758064516129032;1;0;0;0;0;1;1;1;1;0;0;0;;0;0;();();(-2000.0, -2000.0);
11:46:28:003;11:46:27:998;1448060545.46;(0.40776491165161133, 0.6921163770887586);71.6745605469;0.809630760698;11:46:28:003;0;10;-0.758064516129032;1;0;0;0;0;1;1;1;1;0;0;0;;0;0;();();(-2000.0, -2000.0);
11:46:28:006;11:46:27:998;1448060545.46;(0.40776491165161133, 0.6921163770887586);71.6745605469;0.809630760698;11:46:28:006;0;10;-0.758064516129032;1;0;0;0;0;1;1;1;1;0;0;0;;0;0;();();(-2000.0, -2000.0);
11:46:28:009;11:46:27:998;1448060545.46;(0.40776491165161133, 0.6921163770887586);71.6745605469;0.809630760698;11:46:28:009;0;10;-0.758064516129032;1;0;0;0;0;1;1;1;1;0;0;0;;0;0;();();(-2000.0, -2000.0);
11:46:28:010;11:46:27:998;1448060545.46;(0.40776491165161133, 0.6921163770887586);71.6745605469;0.809630760698;11:46:28:010;0;10;-0.758064516129032;1;0;0;0;0;1;1;1;1;0;0;0;;0;0;();();(-2000.0, -2000.0);
11:46:28:011;11:46:27:998;1448060545.46;(0.40776491165161133, 0.6921163770887586);71.6745605469;0.809630760698;11:46:28:011;0;10;-0.758064516129032;1;0;0;0;0;1;1;1;1;0;0;0;;0;0;();();(-2000.0, -2000.0);
11:46:28:012;11:46:27:998;1448060545.46;(0.40776491165161133, 0.6921163770887586);71.6745605469;0.809630760698;11:46:28:012;0;10;-0.758064516129032;1;0;0;0;0;1;1;1;1;0;0;0;;0;0;();();(-2000.0, -2000.0);
11:46:28:014;11:46:27:998;1448060545.46;(0.40776491165161133, 0.6921163770887586);71.6745605469;0.809630760698;11:46:28:014;0;10;-0.758064516129032;1;0;0;0;0;1;1;1;1;0;0;0;;0;0;();();(-2000.0, -2000.0);
11:46:28:015;11:46:27:998;1448060545.46;(0.40776491165161133, 0.6921163770887586);71.6745605469;0.809630760698;11:46:28:015;0;10;-0.758064516129032;1;0;0;0;0;1;1;1;1;0;0;0;;0;0;();();(-2000.0, -2000.0);
11:46:28:016;11:46:27:998;1448060545.46;(0.40776491165161133, 0.6921163770887586);71.6745605469;0.809630760698;11:46:28:016;0;10;-0.758064516129032;1;0;0;0;0;1;1;1;1;0;0;0;;0;0;();();(-2000.0, -2000.0);
11:46:28:018;11:46:27:998;1448060545.46;(0.40776491165161133, 0.6921163770887586);71.6745605469;0.809630760698;11:46:28:018;0;10;-0.758064516129032;1;0;0;0;0;1;1;1;1;0;0;0;;0;0;();();(-2000.0, -2000.0);
11:46:28:019;11:46:27:998;1448060545.46;(0.40776491165161133, 0.6921163770887586);71.6745605469;0.809630760698;11:46:28:019;0;10;-0.758064516129032;1;0;0;0;0;1;1;1;1;0;0;0;;0;0;();();(-2000.0, -2000.0);
11:46:28:020;11:46:27:998;1448060545.46;(0.40776491165161133, 0.6921163770887586);71.6745605469;0.809630760698;11:46:28:020;0;10;-0.758064516129032;1;0;0;0;0;1;1;1;1;0;0;0;;0;0;();();(-2000.0, -2000.0);
11:46:28:022;11:46:27:998;1448060545.46;(0.40776491165161133, 0.6921163770887586);71.6745605469;0.809630760698;11:46:28:022;0;10;-0.758064516129032;1;0;0;0;0;1;1;1;1;0;0;0;;0;0;();();(-2000.0, -2000.0);
11:46:28:042;11:46:27:998;1448060545.46;(0.40776491165161133, 0.6921163770887586);71.6745605469;0.809630760698;11:46:28:042;0;3;-0.612903225806452;1;0;0;0;0;1;1;1;1;0;0;0;;0;0;();();(-2000.0, -2000.0);
11:46:28:058;11:46:27:998;1448060545.46;(0.40776491165161133, 0.6921163770887586);71.6745605469;0.809630760698;11:46:28:058;0;0;-0.429032258064516;1;0;0;0;0;1;1;1;1;0;0;0;;0;0;();();(-2000.0, -2000.0);
11:46:28:075;11:46:27:998;1448060545.46;(0.40776491165161133, 0.6921163770887586);71.6745605469;0.809630760698;11:46:28:075;0;5;-0.212903225806452;1;0;0;0;0;1;1;1;1;0;0;0;;0;0;();();(-2000.0, -2000.0);
11:46:28:092;11:46:27:998;1448060545.46;(0.40776491165161133, 0.6921163770887586);71.6745605469;0.809630760698;11:46:28:092;0;10;-0.164516129032258;1;0;0;0;0;1;1;1;1;0;0;0;;0;0;();();(-2000.0, -2000.0);
11:46:28:109;11:46:27:998;1448060545.46;(0.40776491165161133, 0.6921163770887586);71.6745605469;0.809630760698;11:46:28:109;0;5;0.0516129032258064;1;0;0;0;0;1;1;1;1;0;0;0;;0;0;();();(-2000.0, -2000.0);
11:46:28:142;11:46:27:998;1448060545.46;(0.40776491165161133, 0.6921163770887586);71.6745605469;0.809630760698;11:46:28:142;0;0;-0.0161290322580645;1;0;0;0;0;1;1;1;1;0;0;0;;0;0;();();(-2000.0, -2000.0);
11:46:28:159;11:46:27:998;1448060545.46;(0.40776491165161133, 0.6921163770887586);71.6745605469;0.809630760698;11:46:28:159;0;10;0.0870967741935482;1;0;0;0;0;1;1;1;1;0;0;0;;0;0;();();(-2000.0, -2000.0);
11:46:28:175;11:46:27:998;1448060545.46;(0.40776491165161133, 0.6921163770887586);71.6745605469;0.809630760698;11:46:28:175;0;15;0.0935483870967739;1;0;0;0;0;1;1;1;1;0;0;0;;0;0;();();(-2000.0, -2000.0);
11:46:28:192;11:46:27:998;1448060545.46;(0.40776491165161133, 0.6921163770887586);71.6745605469;0.809630760698;11:46:28:192;0;5;0.419354838709677;1;0;0;0;0;1;1;1;1;0;0;0;;0;0;();();(-2000.0, -2000.0);
11:46:28:209;11:46:28:194;1448060545.66;(0.39425086975097656, 0.6933107799953885);72.3154296875;1.0;11:46:28:209;0;0;0.380645161290323;1;0;0;0;0;1;1;1;1;0;0;0;;0;0;();();(-2000.0, -2000.0);
11:46:28:242;11:46:28:194;1448060545.66;(0.39425086975097656, 0.6933107799953885);72.3154296875;1.0;11:46:28:242;0;10;0.354838709677419;1;0;0;0;0;1;1;1;1;0;0;0;;0;0;();();(-2000.0, -2000.0);
11:46:28:259;11:46:28:194;1448060545.66;(0.39425086975097656, 0.6933107799953885);72.3154296875;1.0;11:46:28:259;0;6;0.5;1;0;0;0;0;1;1;1;1;0;0;0;;0;0;();();(-2000.0, -2000.0);
11:46:28:275;11:46:28:262;1448060545.73;(0.3951061248779297, 0.6934679243299696);72.4093093872;1.0;11:46:28:275;0;0;0.241935483870968;1;0;0;0;0;1;1;1;1;0;0;0;;0;0;();();(-2000.0, -2000.0);
11:46:28:292;11:46:28:262;1448060545.73;(0.3951061248779297, 0.6934679243299696);72.4093093872;1.0;11:46:28:292;0;5;0.664516129032258;1;0;0;0;0;1;1;1;1;0;0;0;;0;0;();();(-2000.0, -2000.0);
11:46:28:309;11:46:28:262;1448060545.73;(0.3951061248779297, 0.6934679243299696);72.4093093872;1.0;11:46:28:309;0;10;0.912903225806452;1;0;0;0;0;1;1;1;1;0;0;0;;0;0;();();(-2000.0, -2000.0);
11:46:28:343;11:46:28:262;1448060545.73;(0.3951061248779297, 0.6934679243299696);72.4093093872;1.0;11:46:28:343;0;11;1.78064516129032;1;0;0;0;0;1;1;1;1;0;0;0;;0;0;();();(-2000.0, -2000.0);
11:46:28:358;11:46:28:262;1448060545.73;(0.3951061248779297, 0.6934679243299696);72.4093093872;1.0;11:46:28:358;0;12;1.78064516129032;1;0;0;0;0;1;1;1;1;0;0;0;;0;0;();();(-2000.0, -2000.0);
11:46:28:375;11:46:28:262;1448060545.73;(0.3951061248779297, 0.6934679243299696);72.4093093872;1.0;11:46:28:375;0;10;1.77741935483871;1;0;0;0;0;1;1;1;1;0;0;0;;0;0;();();(-2000.0, -2000.0);
11:46:28:393;11:46:28:262;1448060545.73;(0.3951061248779297, 0.6934679243299696);72.4093093872;1.0;11:46:28:393;0;5;1.78064516129032;1;0;0;0;0;1;1;1;1;0;0;0;;0;0;();();(-2000.0, -2000.0);
11:46:28:409;11:46:28:396;1448060545.76;(0.4085277795791626, 0.6949581570095487);72.3637619019;1.0;11:46:28:409;0;11;1.77741935483871;1;0;0;0;0;1;1;1;1;0;0;0;;0;0;();();(-2000.0, -2000.0);
11:46:28:442;11:46:28:396;1448060545.76;(0.4085277795791626, 0.6949581570095487);72.3637619019;1.0;11:46:28:442;0;0;-1.5;1;0;0;0;0;1;1;1;1;0;0;0;;0;0;();();(-2000.0, -2000.0);
11:46:28:459;11:46:28:396;1448060545.76;(0.4085277795791626, 0.6949581570095487);72.3637619019;1.0;11:46:28:459;0;0;-1.5;1;0;0;0;0;1;1;1;1;0;0;0;;0;0;();();(-2000.0, -2000.0);
11:46:28:475;11:46:28:462;1448060545.93;(0.1501012921333313, 0.664507081773546);22.0015354156;0.89410072048;11:46:28:475;0;10;-1.5;1;0;0;0;0;1;1;1;1;0;0;0;;0;0;();();(-2000.0, -2000.0);
11:46:28:493;11:46:28:462;1448060545.93;(0.1501012921333313, 0.664507081773546);22.0015354156;0.89410072048;11:46:28:493;0;15;-1.5;1;0;0;0;0;1;1;1;1;0;0;0;;0;0;();();(-2000.0, -2000.0);
11:46:28:509;11:46:28:462;1448060545.93;(0.1501012921333313, 0.664507081773546);22.0015354156;0.89410072048;11:46:28:509;0;15;-1.5;1;0;0;0;0;1;1;1;1;0;0;0;;0;0;();();(-2000.0, -2000.0);
11:46:28:543;11:46:28:525;1448060546.0;(0.4094475030899048, 0.693411382039388);70.2169876099;1.0;11:46:28:543;0;5;-1.5;1;0;0;0;0;1;1;1;1;0;0;0;;0;0;();();(-2000.0, -2000.0);
11:46:28:559;11:46:28:525;1448060546.0;(0.4094475030899048, 0.693411382039388);70.2169876099;1.0;11:46:28:559;0;5;-1.5;1;0;0;0;0;1;1;1;1;0;0;0;;0;0;();();(-2000.0, -2000.0);
11:46:28:575;11:46:28:525;1448060546.0;(0.4094475030899048, 0.693411382039388);70.2169876099;1.0;11:46:28:575;0;5;-1.5;1;0;0;0;0;1;1;1;1;0;0;0;;0;0;();();(-2000.0, -2000.0);
11:46:28:593;11:46:28:525;1448060546.0;(0.4094475030899048, 0.693411382039388);70.2169876099;1.0;11:46:28:593;0;0;-1.5;1;0;0;0;0;1;1;1;1;0;0;0;;0;0;();();(-2000.0, -2000.0);
11:46:28:609;11:46:28:594;1448060546.03;(0.412998628616333, 0.6719000074598525);63.4635543823;0.673655256609;11:46:28:609;0;5;-1.5;1;0;0;0;0;1;1;1;1;0;0;0;;0;0;();();(-2000.0, -2000.0);
11:46:28:643;11:46:28:594;1448060546.03;(0.412998628616333, 0.6719000074598525);63.4635543823;0.673655256609;11:46:28:643;0;5;-1.07741935483871;1;0;0;0;0;1;1;1;1;0;0;0;;0;0;();();(-2000.0, -2000.0);
11:46:28:659;11:46:28:594;1448060546.03;(0.412998628616333, 0.6719000074598525);63.4635543823;0.673655256609;11:46:28:659;0;0;-1.07741935483871;1;0;0;0;0;1;1;1;1;0;0;0;;0;0;();();(-2000.0, -2000.0);
11:46:28:676;11:46:28:594;1448060546.03;(0.412998628616333, 0.6719000074598525);63.4635543823;0.673655256609;11:46:28:676;0;5;-1.04838709677419;1;0;0;0;0;1;1;1;1;0;0;0;;0;0;();();(-2000.0, -2000.0);
11:46:28:693;11:46:28:594;1448060546.03;(0.412998628616333, 0.6719000074598525);63.4635543823;0.673655256609;11:46:28:693;0;10;-0.8;1;0;0;0;0;1;1;1;1;0;0;0;;0;0;();();(-2000.0, -2000.0);
11:46:28:709;11:46:28:594;1448060546.03;(0.412998628616333, 0.6719000074598525);63.4635543823;0.673655256609;11:46:28:709;0;10;-0.8;1;0;0;0;0;1;1;1;1;0;0;0;;0;0;();();(-2000.0, -2000.0);
11:46:28:743;11:46:28:594;1448060546.03;(0.412998628616333, 0.6719000074598525);63.4635543823;0.673655256609;11:46:28:743;0;0;-0.790322580645161;1;0;0;0;0;1;1;1;1;0;0;0;;0;0;();();(-2000.0, -2000.0);
11:46:28:759;11:46:28:594;1448060546.03;(0.412998628616333, 0.6719000074598525);63.4635543823;0.673655256609;11:46:28:759;0;10;-0.419354838709677;1;0;0;0;0;1;1;1;1;0;0;0;;0;0;();();(-2000.0, -2000.0);
11:46:28:776;11:46:28:594;1448060546.03;(0.412998628616333, 0.6719000074598525);63.4635543823;0.673655256609;11:46:28:776;0;5;-0.612903225806452;1;0;0;0;0;1;1;1;1;0;0;0;;0;0;();();(-2000.0, -2000.0);
11:46:28:792;11:46:28:790;1448060546.26;(0.41208183765411377, 0.6978562672932942);69.9409790039;1.0;11:46:28:792;0;10;-0.258064516129032;1;0;0;0;0;1;1;1;1;0;0;0;;0;0;();();(-2000.0, -2000.0);
11:46:28:809;11:46:28:790;1448060546.26;(0.41208183765411377, 0.6978562672932942);69.9409790039;1.0;11:46:28:809;0;5;0.2;1;0;0;0;0;1;1;1;1;0;0;0;;0;0;();();(-2000.0, -2000.0);
11:46:28:843;11:46:28:790;1448060546.26;(0.41208183765411377, 0.6978562672932942);69.9409790039;1.0;11:46:28:843;0;0;1.78064516129032;1;0;0;0;0;1;1;1;1;0;0;0;;0;0;();();(-2000.0, -2000.0);
11:46:28:860;11:46:28:857;1448060546.33;(0.4129285097122192, 0.6983207278781467);70.5624389648;1.0;11:46:28:860;0;10;1.78064516129032;1;0;0;0;0;1;1;1;1;0;0;0;;0;0;();();(-2000.0, -2000.0);
11:46:28:876;11:46:28:857;1448060546.33;(0.4129285097122192, 0.6983207278781467);70.5624389648;1.0;11:46:28:876;0;15;1.78064516129032;1;0;0;0;0;1;1;1;1;0;0;0;;0;0;();();(-2000.0, -2000.0);
11:46:28:892;11:46:28:857;1448060546.33;(0.4129285097122192, 0.6983207278781467);70.5624389648;1.0;11:46:28:892;0;10;1.78064516129032;1;0;0;0;0;1;1;1;1;0;0;0;;0;0;();();(-2000.0, -2000.0);
11:46:28:909;11:46:28:857;1448060546.33;(0.4129285097122192, 0.6983207278781467);70.5624389648;1.0;11:46:28:909;0;0;1.04838709677419;1;0;0;0;0;1;1;1;1;0;0;0;;0;0;();();(-2000.0, -2000.0);
11:46:28:943;11:46:28:926;1448060546.4;(0.4133640766143799, 0.6987440533108181);71.3088531494;1.0;11:46:28:943;0;5;1.78064516129032;1;0;0;0;0;1;1;1;1;0;0;0;;0;0;();();(-2000.0, -2000.0);
11:46:28:960;11:46:28:926;1448060546.4;(0.4133640766143799, 0.6987440533108181);71.3088531494;1.0;11:46:28:960;0;10;1.78064516129032;1;0;0;0;0;1;1;1;1;0;0;0;;0;0;();();(-2000.0, -2000.0);
11:46:28:976;11:46:28:926;1448060546.4;(0.4133640766143799, 0.6987440533108181);71.3088531494;1.0;11:46:28:976;0;0;1.78064516129032;1;0;0;0;0;1;1;1;1;0;0;0;;0;0;();();(-2000.0, -2000.0);
11:46:28:993;11:46:28:989;1448060546.46;(0.4133471488952637, 0.6989156934950087);71.10131073;1.0;11:46:28:993;0;6;1.77741935483871;1;0;0;0;0;1;1;1;1;0;0;0;;0;0;();();(-2000.0, -2000.0);
11:46:29:009;11:46:28:989;1448060546.46;(0.4133471488952637, 0.6989156934950087);71.10131073;1.0;11:46:29:009;0;0;1.61935483870968;1;0;0;0;0;1;1;1;1;0;0;0;;0;0;();();(-2000.0, -2000.0);
11:46:29:043;11:46:28:989;1448060546.46;(0.4133471488952637, 0.6989156934950087);71.10131073;1.0;11:46:29:043;0;5;1.07741935483871;1;0;0;0;0;1;1;1;1;0;0;0;;0;0;();();(-2000.0, -2000.0);
11:46:29:060;11:46:29:057;1448060546.5;(0.4134417772293091, 0.6990645090738932);71.3369445801;1.0;11:46:29:060;0;5;0.154838709677419;1;0;0;0;0;1;1;1;1;0;0;0;;0;0;();();(-2000.0, -2000.0);
11:46:29:076;11:46:29:057;1448060546.5;(0.4134417772293091, 0.6990645090738932);71.3369445801;1.0;11:46:29:076;0;0;1.33225806451613;1;0;0;0;0;1;1;1;1;0;0;0;;0;0;();();(-2000.0, -2000.0);
11:46:29:093;11:46:29:057;1448060546.5;(0.4134417772293091, 0.6990645090738932);71.3369445801;1.0;11:46:29:093;0;5;0.461290322580645;1;0;0;0;0;1;1;1;1;0;0;0;;0;0;();();(-2000.0, -2000.0);
11:46:29:110;11:46:29:057;1448060546.5;(0.4134417772293091, 0.6990645090738932);71.3369445801;1.0;11:46:29:110;0;5;0.461290322580645;1;0;0;0;0;1;1;1;1;0;0;0;;0;0;();();(-2000.0, -2000.0);
11:46:29:143;11:46:29:121;1448060546.56;(0.426304030418396, 0.7010957929823134);71.3729248047;0.973966206775;11:46:29:143;0;11;1.78064516129032;1;0;0;0;0;1;1;1;1;0;0;0;;0;0;();();(-2000.0, -2000.0);
11:46:29:159;11:46:29:121;1448060546.56;(0.426304030418396, 0.7010957929823134);71.3729248047;0.973966206775;11:46:29:159;0;0;1.76129032258065;1;0;0;0;0;1;1;1;1;0;0;0;;0;0;();();(-2000.0, -2000.0);
11:46:29:177;11:46:29:121;1448060546.56;(0.426304030418396, 0.7010957929823134);71.3729248047;0.973966206775;11:46:29:177;0;0;1.76129032258065;1;0;0;0;0;1;1;1;1;0;0;0;;0;0;();();(-2000.0, -2000.0);
11:46:29:193;11:46:29:190;1448060546.66;(0.42652192115783694, 0.7019156350029839);71.6638946533;1.0;11:46:29:193;0;10;1.78064516129032;1;0;0;0;0;1;1;1;1;0;0;0;;0;0;();();(-2000.0, -2000.0);
11:46:29:210;11:46:29:190;1448060546.66;(0.42652192115783694, 0.7019156350029839);71.6638946533;1.0;11:46:29:210;0;10;1.78064516129032;1;0;0;0;0;1;1;1;1;0;0;0;;0;0;();();(-2000.0, -2000.0);
11:46:29:243;11:46:29:190;1448060546.66;(0.42652192115783694, 0.7019156350029839);71.6638946533;1.0;11:46:29:243;0;0;-0.361290322580645;1;0;0;0;0;1;1;1;1;0;0;0;;0;0;();();(-2000.0, -2000.0);
11:46:29:260;11:46:29:257;1448060546.73;(0.42675917148590087, 0.7017257478502061);71.2853164673;1.0;11:46:29:260;0;0;1.78064516129032;1;0;0;0;0;1;1;1;1;0;0;0;;0;0;();();(-2000.0, -2000.0);
11:46:29:276;11:46:29:257;1448060546.73;(0.42675917148590087, 0.7017257478502061);71.2853164673;1.0;11:46:29:276;0;10;1.78064516129032;1;0;0;0;0;1;1;1;1;0;0;0;;0;0;();();(-2000.0, -2000.0);
11:46:29:294;11:46:29:257;1448060546.73;(0.42675917148590087, 0.7017257478502061);71.2853164673;1.0;11:46:29:294;0;0;-1.5;1;0;0;0;0;1;1;1;1;0;0;0;;0;0;();();(-2000.0, -2000.0);
11:46:29:310;11:46:29:257;1448060546.73;(0.42675917148590087, 0.7017257478502061);71.2853164673;1.0;11:46:29:310;0;11;-1.5;1;0;0;0;0;1;1;1;1;0;0;0;;0;0;();();(-2000.0, -2000.0);
11:46:29:343;11:46:29:321;1448060546.8;(0.4264716863632202, 0.7016673194037544);71.1518859863;1.0;11:46:29:343;0;10;-1.5;1;0;0;0;0;1;1;1;1;0;0;0;;0;0;();();(-2000.0, -2000.0);
11:46:29:359;11:46:29:321;1448060546.8;(0.4264716863632202, 0.7016673194037544);71.1518859863;1.0;11:46:29:359;0;15;-1.5;1;0;0;0;0;1;1;1;1;0;0;0;;0;0;();();(-2000.0, -2000.0);
11:46:29:377;11:46:29:321;1448060546.8;(0.4264716863632202, 0.7016673194037544);71.1518859863;1.0;11:46:29:377;0;10;-1.5;1;0;0;0;0;1;1;1;1;0;0;0;;0;0;();();(-2000.0, -2000.0);
11:46:29:394;11:46:29:389;1448060546.86;(0.41375126838684084, 0.6891465081108941);70.9515228271;1.0;11:46:29:394;0;11;-1.5;1;0;0;0;0;1;1;1;1;0;0;0;;0;0;();();(-2000.0, -2000.0);
11:46:29:410;11:46:29:389;1448060546.86;(0.41375126838684084, 0.6891465081108941);70.9515228271;1.0;11:46:29:410;0;5;-1.5;1;0;0;0;0;1;1;1;1;0;0;0;;0;0;();();(-2000.0, -2000.0);
11:46:29:443;11:46:29:389;1448060546.86;(0.41375126838684084, 0.6891465081108941);70.9515228271;1.0;11:46:29:443;0;13;-1.5;1;0;0;0;0;1;1;1;1;0;0;0;;0;0;();();(-2000.0, -2000.0);
11:46:29:460;11:46:29:453;1448060546.9;(0.4120946407318115, 0.6850591023763021);70.3708190918;1.0;11:46:29:460;0;10;-1.5;1;0;0;0;0;1;1;1;1;0;0;0;;0;0;();();(-2000.0, -2000.0);
11:46:29:476;11:46:29:453;1448060546.9;(0.4120946407318115, 0.6850591023763021);70.3708190918;1.0;11:46:29:476;0;5;-1.5;1;0;0;0;0;1;1;1;1;0;0;0;;0;0;();();(-2000.0, -2000.0);
11:46:29:493;11:46:29:453;1448060546.9;(0.4120946407318115, 0.6850591023763021);70.3708190918;1.0;11:46:29:493;0;0;-1.5;1;0;0;0;0;1;1;1;1;0;0;0;;0;0;();();(-2000.0, -2000.0);
11:46:29:510;11:46:29:453;1448060546.9;(0.4120946407318115, 0.6850591023763021);70.3708190918;1.0;11:46:29:510;0;5;-1.5;1;0;0;0;0;1;1;1;1;0;0;0;;0;0;();();(-2000.0, -2000.0);
11:46:29:543;11:46:29:521;1448060547.0;(0.4119394063949585, 0.6855470021565755);70.3630905151;1.0;11:46:29:543;0;10;-1.5;1;0;0;0;0;1;1;1;1;0;0;0;;0;0;();();(-2000.0, -2000.0);
11:46:29:560;11:46:29:521;1448060547.0;(0.4119394063949585, 0.6855470021565755);70.3630905151;1.0;11:46:29:560;0;0;-1.5;1;0;0;0;0;1;1;1;1;0;0;0;;0;0;();();(-2000.0, -2000.0);
11:46:29:576;11:46:29:521;1448060547.0;(0.4119394063949585, 0.6855470021565755);70.3630905151;1.0;11:46:29:576;0;5;-1.5;1;0;0;0;0;1;1;1;1;0;0;0;;0;0;();();(-2000.0, -2000.0);
11:46:29:593;11:46:29:589;1448060547.06;(0.41189377307891845, 0.6858730528089736);70.2041168213;1.0;11:46:29:593;0;10;-1.19677419354839;1;0;0;0;0;1;1;1;1;0;0;0;;0;0;();();(-2000.0, -2000.0);
11:46:29:610;11:46:29:589;1448060547.06;(0.41189377307891845, 0.6858730528089736);70.2041168213;1.0;11:46:29:610;0;5;-0.961290322580645;1;0;0;0;0;1;1;1;1;0;0;0;;0;0;();();(-2000.0, -2000.0);
11:46:29:644;11:46:29:589;1448060547.06;(0.41189377307891845, 0.6858730528089736);70.2041168213;1.0;11:46:29:644;0;0;-0.67741935483871;1;0;0;0;0;1;1;1;1;0;0;0;;0;0;();();(-2000.0, -2000.0);
11:46:29:660;11:46:29:653;1448060547.13;(0.4118835210800171, 0.6856363084581163);70.3382644653;1.0;11:46:29:660;0;10;-0.72258064516129;1;0;0;0;0;1;1;1;1;0;0;0;;0;0;();();(-2000.0, -2000.0);
11:46:29:676;11:46:29:653;1448060547.13;(0.4118835210800171, 0.6856363084581163);70.3382644653;1.0;11:46:29:676;0;15;-0.961290322580645;1;0;0;0;0;1;1;1;1;0;0;0;;0;0;();();(-2000.0, -2000.0);
11:46:29:694;11:46:29:653;1448060547.13;(0.4118835210800171, 0.6856363084581163);70.3382644653;1.0;11:46:29:694;0;10;-0.861290322580645;1;0;0;0;0;1;1;1;1;0;0;0;;0;0;();();(-2000.0, -2000.0);
11:46:29:711;11:46:29:653;1448060547.13;(0.4118835210800171, 0.6856363084581163);70.3382644653;1.0;11:46:29:711;0;0;-0.629032258064516;1;0;0;0;0;1;1;1;1;0;0;0;;0;0;();();(-2000.0, -2000.0);
11:46:29:743;11:46:29:722;1448060547.2;(0.41203155517578127, 0.6855473836263021);69.8320007324;1.0;11:46:29:743;0;0;-0.454838709677419;1;0;0;0;0;1;1;1;1;0;0;0;;0;0;();();(-2000.0, -2000.0);
11:46:29:760;11:46:29:722;1448060547.2;(0.41203155517578127, 0.6855473836263021);69.8320007324;1.0;11:46:29:760;0;10;-0.419354838709677;1;0;0;0;0;1;1;1;1;0;0;0;;0;0;();();(-2000.0, -2000.0);
11:46:29:777;11:46:29:722;1448060547.2;(0.41203155517578127, 0.6855473836263021);69.8320007324;1.0;11:46:29:777;0;2;-0.429032258064516;1;0;0;0;0;1;1;1;1;0;0;0;;0;0;();();(-2000.0, -2000.0);
11:46:29:794;11:46:29:785;1448060547.23;(0.4160820484161377, 0.6859513600667317);70.4592590332;0.91983823748;11:46:29:794;0;5;-0.519354838709677;1;0;0;0;0;1;1;1;1;0;0;0;;0;0;();();(-2000.0, -2000.0);
11:46:29:810;11:46:29:785;1448060547.23;(0.4160820484161377, 0.6859513600667317);70.4592590332;0.91983823748;11:46:29:810;0;10;-0.448387096774194;1;0;0;0;0;1;1;1;1;0;0;0;;0;0;();();(-2000.0, -2000.0);
11:46:29:843;11:46:29:785;1448060547.23;(0.4160820484161377, 0.6859513600667317);70.4592590332;0.91983823748;11:46:29:843;0;10;-0.448387096774194;1;0;0;0;0;1;1;1;1;0;0;0;;0;0;();();(-2000.0, -2000.0);
11:46:29:860;11:46:29:853;1448060547.3;(0.4472525119781494, 0.6877298355102539);68.3022232056;1.0;11:46:29:860;0;10;-0.490322580645161;1;0;0;0;0;1;1;1;1;0;0;0;;0;0;();();(-2000.0, -2000.0);
11:46:29:876;11:46:29:853;1448060547.3;(0.4472525119781494, 0.6877298355102539);68.3022232056;1.0;11:46:29:876;0;11;-0.480645161290323;1;0;0;0;0;1;1;1;1;0;0;0;;0;0;();();(-2000.0, -2000.0);
11:46:29:894;11:46:29:853;1448060547.3;(0.4472525119781494, 0.6877298355102539);68.3022232056;1.0;11:46:29:894;0;0;-0.5;1;0;0;0;0;1;1;1;1;0;0;0;;0;0;();();(-2000.0, -2000.0);
11:46:29:910;11:46:29:853;1448060547.3;(0.4472525119781494, 0.6877298355102539);68.3022232056;1.0;11:46:29:910;0;10;-0.458064516129032;1;0;0;0;0;1;1;1;1;0;0;0;;0;0;();();(-2000.0, -2000.0);
11:46:29:943;11:46:29:921;1448060547.4;(0.4475522518157959, 0.6893376668294271);68.0974731445;1.0;11:46:29:943;0;11;-0.387096774193548;1;0;0;0;0;1;1;1;1;0;0;0;;0;0;();();(-2000.0, -2000.0);
11:46:29:961;11:46:29:921;1448060547.4;(0.4475522518157959, 0.6893376668294271);68.0974731445;1.0;11:46:29:961;0;6;-0.287096774193548;1;0;0;0;0;1;1;1;1;0;0;0;;0;0;();();(-2000.0, -2000.0);
11:46:29:977;11:46:29:921;1448060547.4;(0.4475522518157959, 0.6893376668294271);68.0974731445;1.0;11:46:29:977;0;10;-0.170967741935484;1;0;0;0;0;1;1;1;1;0;0;0;;0;0;();();(-2000.0, -2000.0);
11:46:29:993;11:46:29:985;1448060547.46;(0.4476455211639404, 0.6898338105943468);67.9080047607;1.0;11:46:29:993;0;5;-0.161290322580645;1;0;0;0;0;1;1;1;1;0;0;0;;0;0;();();(-2000.0, -2000.0);
11:46:30:011;11:46:29:985;1448060547.46;(0.4476455211639404, 0.6898338105943468);67.9080047607;1.0;11:46:30:011;0;10;-0.148387096774194;1;0;0;0;0;1;1;1;1;0;0;0;;0;0;();();(-2000.0, -2000.0);
11:46:30:044;11:46:29:985;1448060547.46;(0.4476455211639404, 0.6898338105943468);67.9080047607;1.0;11:46:30:044;0;5;0.0677419354838709;1;0;0;0;0;1;1;1;1;0;0;0;;0;0;();();(-2000.0, -2000.0);
11:46:30:061;11:46:30:053;1448060547.53;(0.44719839096069336, 0.6903860092163085);68.5389404297;1.0;11:46:30:061;0;5;0.0677419354838709;1;0;0;0;0;1;1;1;1;0;0;0;;0;0;();();(-2000.0, -2000.0);
11:46:30:078;11:46:30:053;1448060547.53;(0.44719839096069336, 0.6903860092163085);68.5389404297;1.0;11:46:30:078;0;10;0.145161290322581;1;0;0;0;0;1;1;1;1;0;0;0;;0;0;();();(-2000.0, -2000.0);
11:46:30:094;11:46:30:053;1448060547.53;(0.44719839096069336, 0.6903860092163085);68.5389404297;1.0;11:46:30:094;0;0;0.180645161290323;1;0;0;0;0;1;1;1;1;0;0;0;;0;0;();();(-2000.0, -2000.0);
11:46:30:111;11:46:30:053;1448060547.53;(0.44719839096069336, 0.6903860092163085);68.5389404297;1.0;11:46:30:111;0;11;0.148387096774194;1;0;0;0;0;1;1;1;1;0;0;0;;0;0;();();(-2000.0, -2000.0);
11:46:30:144;11:46:30:116;1448060547.56;(0.44602575302124026, 0.6857090844048395);68.2279205322;1.0;11:46:30:144;0;10;0.0999999999999999;1;0;0;0;0;1;1;1;1;0;0;0;;0;0;();();(-2000.0, -2000.0);
11:46:30:160;11:46:30:116;1448060547.56;(0.44602575302124026, 0.6857090844048395);68.2279205322;1.0;11:46:30:160;0;15;0.561290322580645;1;0;0;0;0;1;1;1;1;0;0;0;;0;0;();();(-2000.0, -2000.0);
11:46:30:177;11:46:30:116;1448060547.56;(0.44602575302124026, 0.6857090844048395);68.2279205322;1.0;11:46:30:177;0;10;0.406451612903226;1;0;0;0;0;1;1;1;1;0;0;0;;0;0;();();(-2000.0, -2000.0);
11:46:30:194;11:46:30:185;1448060547.63;(0.40569565296173093, 0.6521955913967556);29.335559845;0.809147045965;11:46:30:194;0;6;0.483870967741936;1;0;0;0;0;1;1;1;1;0;0;0;;0;0;();();(-2000.0, -2000.0);
11:46:30:210;11:46:30:185;1448060547.63;(0.40569565296173093, 0.6521955913967556);29.335559845;0.809147045965;11:46:30:210;0;5;0.538709677419355;1;0;0;0;0;1;1;1;1;0;0;0;;0;0;();();(-2000.0, -2000.0);
11:46:30:244;11:46:30:185;1448060547.63;(0.40569565296173093, 0.6521955913967556);29.335559845;0.809147045965;11:46:30:244;0;5;0.435483870967742;1;0;0;0;0;1;1;1;1;0;0;0;;0;0;();();(-2000.0, -2000.0);
11:46:30:261;11:46:30:185;1448060547.63;(0.40569565296173093, 0.6521955913967556);29.335559845;0.809147045965;11:46:30:261;0;11;0.52258064516129;1;0;0;0;0;1;1;1;1;0;0;0;;0;0;();();(-2000.0, -2000.0);
11:46:30:277;11:46:30:185;1448060547.63;(0.40569565296173093, 0.6521955913967556);29.335559845;0.809147045965;11:46:30:277;0;11;0.52258064516129;1;0;0;0;0;1;1;1;1;0;0;0;;0;0;();();(-2000.0, -2000.0);
11:46:30:294;11:46:30:185;1448060547.63;(0.40569565296173093, 0.6521955913967556);29.335559845;0.809147045965;11:46:30:294;0;11;0.52258064516129;1;0;0;0;0;1;1;1;1;0;0;0;;0;0;();();(-2000.0, -2000.0);
11:46:30:311;11:46:30:185;1448060547.63;(0.40569565296173093, 0.6521955913967556);29.335559845;0.809147045965;11:46:30:311;0;0;0.603225806451613;1;0;0;0;0;1;1;1;1;0;0;0;;0;0;();();(-2000.0, -2000.0);
11:46:30:344;11:46:30:317;1448060547.77;(0.43113107681274415, 0.6944999059041341);68.8858718872;1.0;11:46:30:344;0;15;0.332258064516129;1;0;0;0;0;1;1;1;1;0;0;0;;0;0;();();(-2000.0, -2000.0);
11:46:30:361;11:46:30:317;1448060547.77;(0.43113107681274415, 0.6944999059041341);68.8858718872;1.0;11:46:30:361;0;0;0.354838709677419;1;0;0;0;0;1;1;1;1;0;0;0;;0;0;();();(-2000.0, -2000.0);
11:46:30:378;11:46:30:317;1448060547.77;(0.43113107681274415, 0.6944999059041341);68.8858718872;1.0;11:46:30:378;0;15;0.161290322580645;1;0;0;0;0;1;1;1;1;0;0;0;;0;0;();();(-2000.0, -2000.0);
11:46:30:395;11:46:30:385;1448060547.86;(0.4317192792892456, 0.6966646830240886);69.9751968384;1.0;11:46:30:395;0;7;0.0935483870967739;1;0;0;0;0;1;1;1;1;0;0;0;;0;0;();();(-2000.0, -2000.0);
11:46:30:410;11:46:30:385;1448060547.86;(0.4317192792892456, 0.6966646830240886);69.9751968384;1.0;11:46:30:410;0;5;0.406451612903226;1;0;0;0;0;1;1;1;1;0;0;0;;0;0;();();(-2000.0, -2000.0);
11:46:30:444;11:46:30:385;1448060547.86;(0.4317192792892456, 0.6966646830240886);69.9751968384;1.0;11:46:30:444;0;5;0.506451612903226;1;0;0;0;0;1;1;1;1;0;0;0;;0;0;();();(-2000.0, -2000.0);
11:46:30:461;11:46:30:449;1448060547.93;(0.4325813055038452, 0.6970287958780925);70.5394058228;1.0;11:46:30:461;0;5;0.506451612903226;1;0;0;0;0;1;1;1;1;0;0;0;;0;0;();();(-2000.0, -2000.0);
11:46:30:478;11:46:30:449;1448060547.93;(0.4325813055038452, 0.6970287958780925);70.5394058228;1.0;11:46:30:478;0;5;0.506451612903226;1;0;0;0;0;1;1;1;1;0;0;0;;0;0;();();(-2000.0, -2000.0);
11:46:30:494;11:46:30:449;1448060547.93;(0.4325813055038452, 0.6970287958780925);70.5394058228;1.0;11:46:30:494;0;10;0.512903225806451;1;0;0;0;0;1;1;1;1;0;0;0;;0;0;();();(-2000.0, -2000.0);
11:46:30:511;11:46:30:449;1448060547.93;(0.4325813055038452, 0.6970287958780925);70.5394058228;1.0;11:46:30:511;0;0;0.470967741935484;1;0;0;0;0;1;1;1;1;0;0;0;;0;0;();();(-2000.0, -2000.0);
11:46:30:544;11:46:30:517;1448060547.99;(0.4330937623977661, 0.6974318398369683);70.6771316528;1.0;11:46:30:544;0;0;0.470967741935484;1;0;0;0;0;1;1;1;1;0;0;0;;0;0;();();(-2000.0, -2000.0);
11:46:30:572;11:46:30:517;1448060547.99;(0.4330937623977661, 0.6974318398369683);70.6771316528;1.0;11:46:30:572;0;15;0.512903225806451;1;0;0;0;0;1;1;1;1;2;0;0;;0;0;();();(-2000.0, -2000.0);
11:46:30:596;11:46:30:585;1448060548.06;(0.4334749460220337, 0.6974702411227756);70.8249816895;1.0;11:46:30:596;0;5;0.380645161290323;1;0;0;0;0;1;1;1;1;2;0;0;;0;0;();();(-2000.0, -2000.0);
11:46:30:599;11:46:30:585;1448060548.06;(0.4334749460220337, 0.6974702411227756);70.8249816895;1.0;11:46:30:599;0;5;0.380645161290323;1;0;0;0;0;1;1;1;1;2;0;0;;0;0;();();(-2000.0, -2000.0);
11:46:30:610;11:46:30:585;1448060548.06;(0.4334749460220337, 0.6974702411227756);70.8249816895;1.0;11:46:30:610;0;10;0.406451612903226;1;0;0;0;0;1;1;1;1;2;0;0;;0;0;();();(-2000.0, -2000.0);
11:46:30:644;11:46:30:585;1448060548.06;(0.4334749460220337, 0.6974702411227756);70.8249816895;1.0;11:46:30:644;0;15;0.690322580645161;1;0;0;0;0;1;1;1;1;2;0;0;;0;0;();();(-2000.0, -2000.0);
11:46:30:662;11:46:30:649;1448060548.13;(0.43362040519714357, 0.6975599712795681);70.9314575195;1.0;11:46:30:662;0;6;0.609677419354838;1;0;0;0;0;1;1;1;1;2;0;0;;0;0;();();(-2000.0, -2000.0);
11:46:30:678;11:46:30:649;1448060548.13;(0.43362040519714357, 0.6975599712795681);70.9314575195;1.0;11:46:30:678;0;11;0.758064516129032;1;0;0;0;0;1;1;1;1;2;0;0;;0;0;();();(-2000.0, -2000.0);
11:46:30:694;11:46:30:649;1448060548.13;(0.43362040519714357, 0.6975599712795681);70.9314575195;1.0;11:46:30:694;0;5;0.641935483870967;1;0;0;0;0;1;1;1;1;2;0;0;;0;0;();();(-2000.0, -2000.0);
11:46:30:711;11:46:30:649;1448060548.13;(0.43362040519714357, 0.6975599712795681);70.9314575195;1.0;11:46:30:711;0;10;0.72258064516129;1;0;0;0;0;1;1;1;1;2;0;0;;0;0;();();(-2000.0, -2000.0);
11:46:30:744;11:46:30:717;1448060548.19;(0.4334890365600586, 0.6977356592814128);71.4473114014;1.0;11:46:30:744;0;11;0.464516129032258;1;0;0;0;0;1;1;1;1;2;0;0;;0;0;();();(-2000.0, -2000.0);
11:46:30:761;11:46:30:717;1448060548.19;(0.4334890365600586, 0.6977356592814128);71.4473114014;1.0;11:46:30:761;0;6;0.435483870967742;1;0;0;0;0;1;1;1;1;2;0;0;;0;0;();();(-2000.0, -2000.0);
11:46:30:778;11:46:30:717;1448060548.19;(0.4334890365600586, 0.6977356592814128);71.4473114014;1.0;11:46:30:778;0;10;0.264516129032258;1;0;0;0;0;1;1;1;1;2;0;0;;0;0;();();(-2000.0, -2000.0);
11:46:30:794;11:46:30:782;1448060548.23;(0.4222480297088623, 0.6932026545206706);72.6259841919;0.902628909996;11:46:30:794;0;5;0.241935483870968;1;0;0;0;0;1;1;1;1;2;0;0;;0;0;();();(-2000.0, -2000.0);
11:46:30:811;11:46:30:782;1448060548.23;(0.4222480297088623, 0.6932026545206706);72.6259841919;0.902628909996;11:46:30:811;0;4;0.251612903225806;1;0;0;0;0;1;1;1;1;2;0;0;;0;0;();();(-2000.0, -2000.0);
11:46:30:844;11:46:30:782;1448060548.23;(0.4222480297088623, 0.6932026545206706);72.6259841919;0.902628909996;11:46:30:844;0;1;0.532258064516129;1;0;0;0;0;1;1;1;1;2;0;0;;0;0;();();(-2000.0, -2000.0);
11:46:30:861;11:46:30:852;1448060548.3;(0.4176337718963623, 0.6881884892781576);71.5308074951;1.0;11:46:30:861;0;0;0.603225806451613;1;0;0;0;0;1;1;1;1;2;0;0;;0;0;();();(-2000.0, -2000.0);
11:46:30:877;11:46:30:852;1448060548.3;(0.4176337718963623, 0.6881884892781576);71.5308074951;1.0;11:46:30:877;0;10;0.470967741935484;1;0;0;0;0;1;1;1;1;2;0;0;;0;0;();();(-2000.0, -2000.0);
11:46:30:894;11:46:30:852;1448060548.3;(0.4176337718963623, 0.6881884892781576);71.5308074951;1.0;11:46:30:894;0;15;0.641935483870967;1;0;0;0;0;1;1;1;1;2;0;0;;0;0;();();(-2000.0, -2000.0);
11:46:30:911;11:46:30:852;1448060548.3;(0.4176337718963623, 0.6881884892781576);71.5308074951;1.0;11:46:30:911;0;1;0.512903225806451;1;0;0;0;0;1;1;1;1;2;0;0;;0;0;();();(-2000.0, -2000.0);
11:46:30:944;11:46:30:918;1448060548.39;(0.4172684669494629, 0.6891241073608398);71.1085891724;1.0;11:46:30:944;0;10;0.306451612903226;1;0;0;0;0;1;1;1;1;2;0;0;;0;0;();();(-2000.0, -2000.0);
11:46:30:961;11:46:30:918;1448060548.39;(0.4172684669494629, 0.6891241073608398);71.1085891724;1.0;11:46:30:961;0;15;0.229032258064516;1;0;0;0;0;1;1;1;1;2;0;0;;0;0;();();(-2000.0, -2000.0);
11:46:30:978;11:46:30:918;1448060548.39;(0.4172684669494629, 0.6891241073608398);71.1085891724;1.0;11:46:30:978;0;11;0.0580645161290321;1;0;0;0;0;1;1;1;1;2;0;0;;0;0;();();(-2000.0, -2000.0);
11:46:30:994;11:46:30:981;1448060548.43;(0.4173004388809204, 0.689356189303928);71.2549285889;1.0;11:46:30:994;0;5;0.293548387096774;1;0;0;0;0;1;1;1;1;2;0;0;;0;0;();();(-2000.0, -2000.0);
11:46:31:011;11:46:30:981;1448060548.43;(0.4173004388809204, 0.689356189303928);71.2549285889;1.0;11:46:31:011;0;5;0.2;1;0;0;0;0;1;1;1;1;2;0;0;;0;0;();();(-2000.0, -2000.0);
11:46:31:045;11:46:30:981;1448060548.43;(0.4173004388809204, 0.689356189303928);71.2549285889;1.0;11:46:31:045;0;5;-0.00645161290322593;1;0;0;0;0;1;1;1;1;2;0;0;;0;0;();();(-2000.0, -2000.0);
11:46:31:061;11:46:30:981;1448060548.43;(0.4173004388809204, 0.689356189303928);71.2549285889;1.0;11:46:31:061;0;0;-0.0161290322580645;1;0;0;0;0;1;1;1;1;2;0;0;;0;0;();();(-2000.0, -2000.0);
11:46:31:078;11:46:31:063;1448060548.53;(0.4174638271331787, 0.6892335255940756);70.7460174561;1.0;11:46:31:078;0;5;0.0354838709677419;1;0;0;0;0;1;1;1;1;2;0;0;;0;0;();();(-2000.0, -2000.0);
11:46:31:095;11:46:31:063;1448060548.53;(0.4174638271331787, 0.6892335255940756);70.7460174561;1.0;11:46:31:095;0;10;-0.112903225806452;1;0;0;0;0;1;1;1;1;2;0;0;;0;0;();();(-2000.0, -2000.0);
11:46:31:111;11:46:31:063;1448060548.53;(0.4174638271331787, 0.6892335255940756);70.7460174561;1.0;11:46:31:111;0;5;1.16129032258065;1;0;0;0;0;1;1;1;1;2;0;0;;0;0;();();(-2000.0, -2000.0);
11:46:31:145;11:46:31:113;1448060548.56;(0.4172194957733154, 0.6896901024712456);70.1497268677;1.0;11:46:31:145;0;6;1.77741935483871;1;0;0;0;0;1;1;1;1;2;0;0;;0;0;();();(-2000.0, -2000.0);
11:46:31:162;11:46:31:113;1448060548.56;(0.4172194957733154, 0.6896901024712456);70.1497268677;1.0;11:46:31:162;0;11;1.79032258064516;1;0;0;0;0;1;1;1;1;2;0;0;;0;0;();();(-2000.0, -2000.0);
11:46:31:178;11:46:31:113;1448060548.56;(0.4172194957733154, 0.6896901024712456);70.1497268677;1.0;11:46:31:178;0;0;1.77741935483871;1;0;0;0;0;1;1;1;1;2;0;0;;0;0;();();(-2000.0, -2000.0);
11:46:31:194;11:46:31:181;1448060548.66;(0.41753158569335935, 0.689392810397678);69.6567993164;1.0;11:46:31:194;0;10;1.77741935483871;1;0;0;0;0;1;1;1;1;2;0;0;;0;0;();();(-2000.0, -2000.0);
11:46:31:211;11:46:31:181;1448060548.66;(0.41753158569335935, 0.689392810397678);69.6567993164;1.0;11:46:31:211;0;0;1.78064516129032;1;0;0;0;0;1;1;1;1;2;0;0;;0;0;();();(-2000.0, -2000.0);
11:46:31:245;11:46:31:181;1448060548.66;(0.41753158569335935, 0.689392810397678);69.6567993164;1.0;11:46:31:245;0;0;1.78064516129032;1;0;0;0;0;1;1;1;1;2;0;0;;0;0;();();(-2000.0, -2000.0);
11:46:31:261;11:46:31:249;1448060548.69;(0.41766583919525146, 0.6894146813286675);68.9245147705;1.0;11:46:31:261;0;10;1.76129032258065;1;0;0;0;0;1;1;1;1;2;0;0;;0;0;();();(-2000.0, -2000.0);
11:46:31:278;11:46:31:249;1448060548.69;(0.41766583919525146, 0.6894146813286675);68.9245147705;1.0;11:46:31:278;0;15;1.79032258064516;1;0;0;0;0;1;1;1;1;2;0;0;;0;0;();();(-2000.0, -2000.0);
11:46:31:295;11:46:31:249;1448060548.69;(0.41766583919525146, 0.6894146813286675);68.9245147705;1.0;11:46:31:295;0;10;1.78064516129032;1;0;0;0;0;1;1;1;1;2;0;0;;0;0;();();(-2000.0, -2000.0);
11:46:31:311;11:46:31:249;1448060548.69;(0.41766583919525146, 0.6894146813286675);68.9245147705;1.0;11:46:31:311;0;0;1.78064516129032;1;0;0;0;0;1;1;1;1;2;0;0;;0;0;();();(-2000.0, -2000.0);
11:46:31:344;11:46:31:313;1448060548.76;(0, 0);0;0;11:46:31:344;0;5;1.78064516129032;1;0;0;0;0;1;1;1;1;2;0;0;;0;0;();();(-2000.0, -2000.0);
11:46:31:362;11:46:31:313;1448060548.76;(0, 0);0;0;11:46:31:362;0;6;1.78064516129032;1;0;0;0;0;1;1;1;1;2;0;0;;0;0;();();(-2000.0, -2000.0);
11:46:31:378;11:46:31:313;1448060548.76;(0, 0);0;0;11:46:31:378;0;0;1.78064516129032;1;0;0;0;0;1;1;1;1;2;0;0;;0;0;();();(-2000.0, -2000.0);
11:46:31:394;11:46:31:381;1448060548.79;(0.31559364795684813, 0.5756499396430121);24.4794082642;0.78934273307;11:46:31:394;0;11;1.77741935483871;1;0;0;0;0;1;1;1;1;2;0;0;;0;0;();();(-2000.0, -2000.0);
11:46:31:411;11:46:31:381;1448060548.79;(0.31559364795684813, 0.5756499396430121);24.4794082642;0.78934273307;11:46:31:411;0;0;-1.5;1;0;0;0;0;1;1;1;1;2;0;0;;0;0;();();(-2000.0, -2000.0);
11:46:31:445;11:46:31:445;1448060548.83;(0.38366434574127195, 0.6415587955050999);24.6862621307;0.696236014082;11:46:31:445;0;11;1.77741935483871;1;0;0;0;0;1;1;1;1;2;0;0;;0;0;();();(-2000.0, -2000.0);
11:46:31:462;11:46:31:446;1448060548.91;(0.18456896543502807, 0.5772372351752387);22.6269168854;1.0;11:46:31:462;0;5;1.77741935483871;1;0;0;0;0;1;1;1;1;2;0;0;;0;0;();();(-2000.0, -2000.0);
11:46:31:479;11:46:31:446;1448060548.91;(0.18456896543502807, 0.5772372351752387);22.6269168854;1.0;11:46:31:479;0;11;1.79032258064516;1;0;0;0;0;1;1;1;1;2;0;0;;0;0;();();(-2000.0, -2000.0);
11:46:31:495;11:46:31:446;1448060548.91;(0.18456896543502807, 0.5772372351752387);22.6269168854;1.0;11:46:31:495;0;15;1.77741935483871;1;0;0;0;0;1;1;1;1;2;0;0;;0;0;();();(-2000.0, -2000.0);
11:46:31:512;11:46:31:446;1448060548.91;(0.18456896543502807, 0.5772372351752387);22.6269168854;1.0;11:46:31:512;0;15;1.77741935483871;1;0;0;0;0;1;1;1;1;2;0;0;;0;0;();();(-2000.0, -2000.0);
11:46:31:545;11:46:31:515;1448060548.99;(0.4199352741241455, 0.6850263807508681);66.182182312;1.0;11:46:31:545;0;11;1.77741935483871;1;0;0;0;0;1;1;1;1;2;0;0;;0;0;();();(-2000.0, -2000.0);
11:46:31:562;11:46:31:515;1448060548.99;(0.4199352741241455, 0.6850263807508681);66.182182312;1.0;11:46:31:562;0;5;1.78064516129032;1;0;0;0;0;1;1;1;1;2;0;0;;0;0;();();(-2000.0, -2000.0);
11:46:31:579;11:46:31:577;1448060549.03;(0.4205444812774658, 0.6856276830037435);66.1601028442;1.0;11:46:31:579;0;10;-1.5;1;0;0;0;0;1;1;1;1;2;0;0;;0;0;();();(-2000.0, -2000.0);
11:46:31:595;11:46:31:577;1448060549.03;(0.4205444812774658, 0.6856276830037435);66.1601028442;1.0;11:46:31:595;0;5;-1.5;1;0;0;0;0;1;1;1;1;2;0;0;;0;0;();();(-2000.0, -2000.0);
11:46:31:612;11:46:31:577;1448060549.03;(0.4205444812774658, 0.6856276830037435);66.1601028442;1.0;11:46:31:612;0;11;-1.5;1;0;0;0;0;1;1;1;1;2;0;0;;0;0;();();(-2000.0, -2000.0);
11:46:31:645;11:46:31:645;1448060549.09;(0.4207139015197754, 0.6862890667385525);66.6309967041;1.0;11:46:31:645;0;11;-1.5;1;0;0;0;0;1;1;1;1;2;0;0;;0;0;();();(-2000.0, -2000.0);
11:46:31:663;11:46:31:647;1448060549.13;(0.4210075616836548, 0.6863640679253472);66.8477172852;1.0;11:46:31:663;0;15;-1.5;1;0;0;0;0;1;1;1;1;2;0;0;;0;0;();();(-2000.0, -2000.0);
11:46:31:679;11:46:31:647;1448060549.13;(0.4210075616836548, 0.6863640679253472);66.8477172852;1.0;11:46:31:679;0;5;-1.5;1;0;0;0;0;1;1;1;1;2;0;0;;0;0;();();(-2000.0, -2000.0);
11:46:31:696;11:46:31:647;1448060549.13;(0.4210075616836548, 0.6863640679253472);66.8477172852;1.0;11:46:31:696;0;1;-1.5;1;0;0;0;0;1;1;1;1;2;0;0;;0;0;();();(-2000.0, -2000.0);
11:46:31:712;11:46:31:647;1448060549.13;(0.4210075616836548, 0.6863640679253472);66.8477172852;1.0;11:46:31:712;0;11;-1.5;1;0;0;0;0;1;1;1;1;2;0;0;;0;0;();();(-2000.0, -2000.0);
11:46:31:729;11:46:31:713;1448060549.16;(0.42100160121917723, 0.6863996081882053);66.8740158081;1.0;11:46:31:729;0;5;-1.5;1;0;0;0;0;1;1;1;1;2;0;0;;0;0;();();(-2000.0, -2000.0);
11:46:31:762;11:46:31:713;1448060549.16;(0.42100160121917723, 0.6863996081882053);66.8740158081;1.0;11:46:31:762;0;5;-1.5;1;0;0;0;0;1;1;1;1;2;0;0;;0;0;();();(-2000.0, -2000.0);
11:46:31:779;11:46:31:713;1448060549.16;(0.42100160121917723, 0.6863996081882053);66.8740158081;1.0;11:46:31:779;0;0;-1.5;1;0;0;0;0;1;1;1;1;2;0;0;;0;0;();();(-2000.0, -2000.0);
11:46:31:795;11:46:31:782;1448060549.26;(0.421211314201355, 0.685938114590115);67.8894271851;1.0;11:46:31:795;0;15;-1.5;1;0;0;0;0;1;1;1;1;2;0;0;;0;0;();();(-2000.0, -2000.0);
11:46:31:812;11:46:31:782;1448060549.26;(0.421211314201355, 0.685938114590115);67.8894271851;1.0;11:46:31:812;0;4;1.78064516129032;1;0;0;0;0;1;1;1;1;2;0;0;;0;0;();();(-2000.0, -2000.0);
11:46:31:845;11:46:31:844;1448060549.29;(0.42117292881011964, 0.6863854302300347);68.0501403809;1.0;11:46:31:845;0;0;1.78064516129032;1;0;0;0;0;1;1;1;1;2;0;0;;0;0;();();(-2000.0, -2000.0);
11:46:31:862;11:46:31:844;1448060549.29;(0.42117292881011964, 0.6863854302300347);68.0501403809;1.0;11:46:31:862;0;0;1.78064516129032;1;0;0;0;0;1;1;1;1;2;0;0;;0;0;();();(-2000.0, -2000.0);
11:46:31:879;11:46:31:844;1448060549.29;(0.42117292881011964, 0.6863854302300347);68.0501403809;1.0;11:46:31:879;0;5;1.78064516129032;1;0;0;0;0;1;1;1;1;2;0;0;;0;0;();();(-2000.0, -2000.0);
11:46:31:896;11:46:31:844;1448060549.29;(0.42117292881011964, 0.6863854302300347);68.0501403809;1.0;11:46:31:896;0;10;1.77741935483871;1;0;0;0;0;1;1;1;1;2;0;0;;0;0;();();(-2000.0, -2000.0);
11:46:31:912;11:46:31:909;1448060549.39;(0.41965475082397463, 0.6848453945583768);68.7835159302;0.84621599618;11:46:31:912;0;5;1.79032258064516;1;0;0;0;0;1;1;1;1;2;0;0;;0;0;();();(-2000.0, -2000.0);
11:46:31:929;11:46:31:909;1448060549.39;(0.41965475082397463, 0.6848453945583768);68.7835159302;0.84621599618;11:46:31:929;0;10;1.76129032258065;1;0;0;0;0;1;1;1;1;2;0;0;;0;0;();();(-2000.0, -2000.0);
11:46:31:962;11:46:31:909;1448060549.39;(0.41965475082397463, 0.6848453945583768);68.7835159302;0.84621599618;11:46:31:962;0;5;1.78064516129032;1;0;0;0;0;1;1;1;1;2;0;0;;0;0;();();(-2000.0, -2000.0);
11:46:31:979;11:46:31:977;1448060549.43;(0.41208829879760744, 0.6797294404771592);69.2838592529;1.0;11:46:31:979;0;0;1.79032258064516;1;0;0;0;0;1;1;1;1;2;0;0;;0;0;();();(-2000.0, -2000.0);
11:46:31:995;11:46:31:977;1448060549.43;(0.41208829879760744, 0.6797294404771592);69.2838592529;1.0;11:46:31:995;0;2;1.77741935483871;1;0;0;0;0;1;1;1;1;2;0;0;;0;0;();();(-2000.0, -2000.0);
11:46:32:012;11:46:31:977;1448060549.43;(0.41208829879760744, 0.6797294404771592);69.2838592529;1.0;11:46:32:012;0;15;-0.832258064516129;1;0;0;0;0;1;1;1;1;2;0;0;;0;0;();();(-2000.0, -2000.0);
11:46:32:029;11:46:31:977;1448060549.43;(0.41208829879760744, 0.6797294404771592);69.2838592529;1.0;11:46:32:029;0;11;1.78064516129032;1;0;0;0;0;1;1;1;1;2;0;0;;0;0;();();(-2000.0, -2000.0);
11:46:32:062;11:46:32:045;1448060549.53;(0.4113887548446655, 0.6805447472466363);67.2623291016;1.0;11:46:32:062;0;10;-1.5;1;0;0;0;0;1;1;1;1;2;0;0;;0;0;();();(-2000.0, -2000.0);
11:46:32:079;11:46:32:045;1448060549.53;(0.4113887548446655, 0.6805447472466363);67.2623291016;1.0;11:46:32:079;0;15;-0.403225806451613;1;0;0;0;0;1;1;1;1;2;0;0;;0;0;();();(-2000.0, -2000.0);
11:46:32:095;11:46:32:045;1448060549.53;(0.4113887548446655, 0.6805447472466363);67.2623291016;1.0;11:46:32:095;0;11;-0.490322580645161;1;0;0;0;0;1;1;1;1;2;0;0;;0;0;();();(-2000.0, -2000.0);
11:46:32:112;11:46:32:109;1448060549.56;(0.4111441135406494, 0.6809787750244141);66.1850357056;1.0;11:46:32:112;0;0;-1.5;1;0;0;0;0;1;1;1;1;2;0;0;;0;0;();();(-2000.0, -2000.0);
11:46:32:129;11:46:32:109;1448060549.56;(0.4111441135406494, 0.6809787750244141);66.1850357056;1.0;11:46:32:129;0;11;-1.5;1;0;0;0;0;1;1;1;1;2;0;0;;0;0;();();(-2000.0, -2000.0);
11:46:32:162;11:46:32:109;1448060549.56;(0.4111441135406494, 0.6809787750244141);66.1850357056;1.0;11:46:32:162;0;5;-1.5;1;0;0;0;0;1;1;1;1;2;0;0;;0;0;();();(-2000.0, -2000.0);
11:46:32:179;11:46:32:177;1448060549.63;(0.41112990379333497, 0.6814198599921333);64.8790435791;1.0;11:46:32:179;0;0;-1.5;1;0;0;0;0;1;1;1;1;2;0;0;;0;0;();();(-2000.0, -2000.0);
11:46:32:196;11:46:32:177;1448060549.63;(0.41112990379333497, 0.6814198599921333);64.8790435791;1.0;11:46:32:196;0;11;-1.5;1;0;0;0;0;1;1;1;1;2;0;0;;0;0;();();(-2000.0, -2000.0);
11:46:32:212;11:46:32:177;1448060549.63;(0.41112990379333497, 0.6814198599921333);64.8790435791;1.0;11:46:32:212;0;11;-1.5;1;0;0;0;0;1;1;1;1;2;0;0;;0;0;();();(-2000.0, -2000.0);
11:46:32:229;11:46:32:177;1448060549.63;(0.41112990379333497, 0.6814198599921333);64.8790435791;1.0;11:46:32:229;0;0;-1.5;1;0;0;0;0;1;1;1;1;2;0;0;;0;0;();();(-2000.0, -2000.0);
11:46:32:263;11:46:32:241;1448060549.73;(0.41130881309509276, 0.6817430920071073);63.7227630615;1.0;11:46:32:263;0;5;-1.5;1;0;0;0;0;1;1;1;1;2;0;0;;0;0;();();(-2000.0, -2000.0);
11:46:32:279;11:46:32:241;1448060549.73;(0.41130881309509276, 0.6817430920071073);63.7227630615;1.0;11:46:32:279;0;11;-1.5;1;0;0;0;0;1;1;1;1;2;0;0;;0;0;();();(-2000.0, -2000.0);
11:46:32:296;11:46:32:241;1448060549.73;(0.41130881309509276, 0.6817430920071073);63.7227630615;1.0;11:46:32:296;0;15;-1.5;1;0;0;0;0;1;1;1;1;2;0;0;;0;0;();();(-2000.0, -2000.0);
11:46:32:313;11:46:32:308;1448060549.76;(0.4269916534423828, 0.6824470731947156);62.6330375671;1.0;11:46:32:313;0;10;-1.5;1;0;0;0;0;1;1;1;1;2;0;0;;0;0;();();(-2000.0, -2000.0);
11:46:32:329;11:46:32:308;1448060549.76;(0.4269916534423828, 0.6824470731947156);62.6330375671;1.0;11:46:32:329;0;0;-1.5;1;0;0;0;0;1;1;1;1;2;0;0;;0;0;();();(-2000.0, -2000.0);
11:46:32:363;11:46:32:308;1448060549.76;(0.4269916534423828, 0.6824470731947156);62.6330375671;1.0;11:46:32:363;0;0;-1.5;1;0;0;0;0;1;1;1;1;2;0;0;;0;0;();();(-2000.0, -2000.0);
11:46:32:379;11:46:32:378;1448060549.86;(0.42741515636444094, 0.6838461558024089);61.7095756531;1.0;11:46:32:379;0;0;-1.5;1;0;0;0;0;1;1;1;1;2;0;0;;0;0;();();(-2000.0, -2000.0);
11:46:32:396;11:46:32:378;1448060549.86;(0.42741515636444094, 0.6838461558024089);61.7095756531;1.0;11:46:32:396;0;10;-1.5;1;0;0;0;0;1;1;1;1;2;0;0;;0;0;();();(-2000.0, -2000.0);
11:46:32:412;11:46:32:378;1448060549.86;(0.42741515636444094, 0.6838461558024089);61.7095756531;1.0;11:46:32:412;0;15;-1.5;1;0;0;0;0;1;1;1;1;2;0;0;;0;0;();();(-2000.0, -2000.0);
11:46:32:430;11:46:32:378;1448060549.86;(0.42741515636444094, 0.6838461558024089);61.7095756531;1.0;11:46:32:430;0;10;-1.5;1;0;0;0;0;1;1;1;1;2;0;0;;0;0;();();(-2000.0, -2000.0);
11:46:32:463;11:46:32:441;1448060549.89;(0.42750184535980223, 0.6840937508477105);61.7260055542;1.0;11:46:32:463;0;5;-1.5;1;0;0;0;0;1;1;1;1;2;0;0;;0;0;();();(-2000.0, -2000.0);
11:46:32:479;11:46:32:441;1448060549.89;(0.42750184535980223, 0.6840937508477105);61.7260055542;1.0;11:46:32:479;0;4;-1.5;1;0;0;0;0;1;1;1;1;2;0;0;;0;0;();();(-2000.0, -2000.0);
11:46:32:496;11:46:32:441;1448060549.89;(0.42750184535980223, 0.6840937508477105);61.7260055542;1.0;11:46:32:496;0;0;-1.5;1;0;0;0;0;1;1;1;1;2;0;0;;0;0;();();(-2000.0, -2000.0);
11:46:32:513;11:46:32:511;1448060549.99;(0.42776434421539306, 0.6846447414822049);61.5574188232;1.0;11:46:32:513;0;5;-1.5;1;0;0;0;0;1;1;1;1;2;0;0;;0;0;();();(-2000.0, -2000.0);
11:46:32:529;11:46:32:511;1448060549.99;(0.42776434421539306, 0.6846447414822049);61.5574188232;1.0;11:46:32:529;0;0;-1.5;1;0;0;0;0;1;1;1;1;2;0;0;;0;0;();();(-2000.0, -2000.0);
11:46:32:563;11:46:32:511;1448060549.99;(0.42776434421539306, 0.6846447414822049);61.5574188232;1.0;11:46:32:563;0;1;-0.880645161290323;1;0;0;0;0;1;1;1;1;2;0;0;;0;0;();();(-2000.0, -2000.0);
11:46:32:580;11:46:32:573;1448060550.03;(0.4276192903518677, 0.6842511071099175);61.5625839233;1.0;11:46:32:580;0;10;-0.406451612903226;1;0;0;0;0;1;1;1;1;2;0;0;;0;0;();();(-2000.0, -2000.0);
11:46:32:596;11:46:32:573;1448060550.03;(0.4276192903518677, 0.6842511071099175);61.5625839233;1.0;11:46:32:596;0;0;1.79032258064516;1;0;0;0;0;1;1;1;1;2;0;0;;0;0;();();(-2000.0, -2000.0);
11:46:32:613;11:46:32:573;1448060550.03;(0.4276192903518677, 0.6842511071099175);61.5625839233;1.0;11:46:32:613;0;5;1.77741935483871;1;0;0;0;0;1;1;1;1;2;0;0;;0;0;();();(-2000.0, -2000.0);
11:46:32:630;11:46:32:573;1448060550.03;(0.4276192903518677, 0.6842511071099175);61.5625839233;1.0;11:46:32:630;0;5;1.77741935483871;1;0;0;0;0;1;1;1;1;2;0;0;;0;0;();();(-2000.0, -2000.0);
11:46:32:663;11:46:32:641;1448060550.06;(0.42724180221557617, 0.6759472952948676);61.4754180908;1.0;11:46:32:663;0;11;1.78064516129032;1;0;0;0;0;1;1;1;1;2;0;0;;0;0;();();(-2000.0, -2000.0);
11:46:32:682;11:46:32:641;1448060550.06;(0.42724180221557617, 0.6759472952948676);61.4754180908;1.0;11:46:32:682;0;11;1.78064516129032;1;0;0;0;0;1;1;1;1;4;0;0;;0;0;();();(-2000.0, -2000.0);
11:46:32:696;11:46:32:641;1448060550.06;(0.42724180221557617, 0.6759472952948676);61.4754180908;1.0;11:46:32:696;0;5;1.77741935483871;1;0;0;0;0;1;1;1;1;4;0;0;;0;0;();();(-2000.0, -2000.0);
11:46:32:713;11:46:32:709;1448060550.09;(0.2963712215423584, 0.6390104505750869);33.6851806641;0.966099135025;11:46:32:713;0;15;1.78064516129032;1;0;0;0;0;1;1;1;1;4;0;0;;0;0;();();(-2000.0, -2000.0);
11:46:32:729;11:46:32:709;1448060550.09;(0.2963712215423584, 0.6390104505750869);33.6851806641;0.966099135025;11:46:32:729;0;11;1.78064516129032;1;0;0;0;0;1;1;1;1;4;0;0;;0;0;();();(-2000.0, -2000.0);
11:46:32:763;11:46:32:709;1448060550.09;(0.2963712215423584, 0.6390104505750869);33.6851806641;0.966099135025;11:46:32:763;0;11;1.20645161290323;1;0;0;0;0;1;1;1;1;4;0;0;;0;0;();();(-2000.0, -2000.0);
11:46:32:779;11:46:32:709;1448060550.09;(0.2963712215423584, 0.6390104505750869);33.6851806641;0.966099135025;11:46:32:779;0;5;-1.5;1;0;0;0;0;1;1;1;1;4;0;0;;0;0;();();(-2000.0, -2000.0);
11:46:32:796;11:46:32:709;1448060550.09;(0.2963712215423584, 0.6390104505750869);33.6851806641;0.966099135025;11:46:32:796;0;0;1.55483870967742;1;0;0;0;0;1;1;1;1;4;0;0;;0;0;();();(-2000.0, -2000.0);
11:46:32:812;11:46:32:709;1448060550.09;(0.2963712215423584, 0.6390104505750869);33.6851806641;0.966099135025;11:46:32:812;0;15;-0.716129032258065;1;0;0;0;0;1;1;1;1;4;0;0;;0;0;();();(-2000.0, -2000.0);
11:46:32:830;11:46:32:709;1448060550.09;(0.2963712215423584, 0.6390104505750869);33.6851806641;0.966099135025;11:46:32:830;0;11;-0.00967741935483879;1;0;0;0;0;1;1;1;1;4;0;0;;0;0;();();(-2000.0, -2000.0);
11:46:32:863;11:46:32:842;1448060550.3;(0.42361769676208494, 0.7001357184516059);63.1409797668;1.0;11:46:32:863;0;4;1.77741935483871;1;0;0;0;0;1;1;1;1;4;0;0;;0;0;();();(-2000.0, -2000.0);
11:46:32:879;11:46:32:842;1448060550.3;(0.42361769676208494, 0.7001357184516059);63.1409797668;1.0;11:46:32:879;0;9;-1.5;1;0;0;0;0;1;1;1;1;4;0;0;;0;0;();();(-2000.0, -2000.0);
11:46:32:896;11:46:32:842;1448060550.3;(0.42361769676208494, 0.7001357184516059);63.1409797668;1.0;11:46:32:896;0;10;-1.5;1;0;0;0;0;1;1;1;1;4;0;0;;0;0;();();(-2000.0, -2000.0);
11:46:32:913;11:46:32:905;1448060550.39;(0.42454488277435304, 0.7010606553819445);64.3407592773;1.0;11:46:32:913;0;0;1.78064516129032;1;0;0;0;0;1;1;1;1;4;0;0;;0;0;();();(-2000.0, -2000.0);
11:46:32:929;11:46:32:905;1448060550.39;(0.42454488277435304, 0.7010606553819445);64.3407592773;1.0;11:46:32:929;0;5;1.78064516129032;1;0;0;0;0;1;1;1;1;4;0;0;;0;0;();();(-2000.0, -2000.0);
11:46:32:963;11:46:32:905;1448060550.39;(0.42454488277435304, 0.7010606553819445);64.3407592773;1.0;11:46:32:963;0;10;1.78064516129032;1;0;0;0;0;1;1;1;1;4;0;0;;0;0;();();(-2000.0, -2000.0);
11:46:32:980;11:46:32:973;1448060550.43;(0.42444806098937987, 0.7009188969930014);64.7750701904;1.0;11:46:32:980;0;15;1.78064516129032;1;0;0;0;0;1;1;1;1;4;0;0;;0;0;();();(-2000.0, -2000.0);
11:46:32:996;11:46:32:973;1448060550.43;(0.42444806098937987, 0.7009188969930014);64.7750701904;1.0;11:46:32:996;0;15;1.78064516129032;1;0;0;0;0;1;1;1;1;4;0;0;;0;0;();();(-2000.0, -2000.0);
11:46:33:013;11:46:32:973;1448060550.43;(0.42444806098937987, 0.7009188969930014);64.7750701904;1.0;11:46:33:013;0;15;1.78064516129032;1;0;0;0;0;1;1;1;1;4;0;0;;0;0;();();(-2000.0, -2000.0);
11:46:33:030;11:46:32:973;1448060550.43;(0.42444806098937987, 0.7009188969930014);64.7750701904;1.0;11:46:33:030;0;15;1.78064516129032;1;0;0;0;0;1;1;1;1;4;0;0;;0;0;();();(-2000.0, -2000.0);
11:46:33:063;11:46:33:043;1448060550.53;(0.425018835067749, 0.7012081146240234);66.3654174805;1.0;11:46:33:063;0;10;0.251612903225806;1;0;0;0;0;1;1;1;1;4;0;0;;0;0;();();(-2000.0, -2000.0);
11:46:33:080;11:46:33:043;1448060550.53;(0.425018835067749, 0.7012081146240234);66.3654174805;1.0;11:46:33:080;0;10;-0.696774193548387;1;0;0;0;0;1;1;1;1;4;0;0;;0;0;();();(-2000.0, -2000.0);
11:46:33:096;11:46:33:043;1448060550.53;(0.425018835067749, 0.7012081146240234);66.3654174805;1.0;11:46:33:096;0;0;0.251612903225806;1;0;0;0;0;1;1;1;1;4;0;0;;0;0;();();(-2000.0, -2000.0);
11:46:33:113;11:46:33:106;1448060550.56;(0.4248143911361694, 0.7010956022474502);66.5769729614;1.0;11:46:33:113;0;10;-1.5;1;0;0;0;0;1;1;1;1;4;0;0;;0;0;();();(-2000.0, -2000.0);
11:46:33:130;11:46:33:106;1448060550.56;(0.4248143911361694, 0.7010956022474502);66.5769729614;1.0;11:46:33:130;0;15;-1.21290322580645;1;0;0;0;0;1;1;1;1;4;0;0;;0;0;();();(-2000.0, -2000.0);
11:46:33:163;11:46:33:106;1448060550.56;(0.4248143911361694, 0.7010956022474502);66.5769729614;1.0;11:46:33:163;0;0;-0.72258064516129;1;0;0;0;0;1;1;1;1;4;0;0;;0;0;();();(-2000.0, -2000.0);
11:46:33:180;11:46:33:173;1448060550.66;(0.42475926876068115, 0.7011181513468425);67.8105926514;1.0;11:46:33:180;0;10;-1.5;1;0;0;0;0;1;1;1;1;4;0;0;;0;0;();();(-2000.0, -2000.0);
11:46:33:197;11:46:33:173;1448060550.66;(0.42475926876068115, 0.7011181513468425);67.8105926514;1.0;11:46:33:197;0;0;-1.5;1;0;0;0;0;1;1;1;1;4;0;0;;0;0;();();(-2000.0, -2000.0);
11:46:33:213;11:46:33:173;1448060550.66;(0.42475926876068115, 0.7011181513468425);67.8105926514;1.0;11:46:33:213;0;10;-1.5;1;0;0;0;0;1;1;1;1;4;0;0;;0;0;();();(-2000.0, -2000.0);
11:46:33:230;11:46:33:173;1448060550.66;(0.42475926876068115, 0.7011181513468425);67.8105926514;1.0;11:46:33:230;0;0;-1.5;1;0;0;0;0;1;1;1;1;4;0;0;;0;0;();();(-2000.0, -2000.0);
11:46:33:263;11:46:33:237;1448060550.69;(0.42208702564239503, 0.6978125466240777);67.5795516968;1.0;11:46:33:263;0;15;-1.5;1;0;0;0;0;1;1;1;1;4;0;0;;0;0;();();(-2000.0, -2000.0);
11:46:33:280;11:46:33:237;1448060550.69;(0.42208702564239503, 0.6978125466240777);67.5795516968;1.0;11:46:33:280;0;10;-1.5;1;0;0;0;0;1;1;1;1;4;0;0;;0;0;();();(-2000.0, -2000.0);
11:46:33:296;11:46:33:237;1448060550.69;(0.42208702564239503, 0.6978125466240777);67.5795516968;1.0;11:46:33:296;0;0;-1.5;1;0;0;0;0;1;1;1;1;4;0;0;;0;0;();();(-2000.0, -2000.0);
11:46:33:313;11:46:33:311;1448060550.76;(0.40919058322906493, 0.6852635701497396);67.8191986084;1.0;11:46:33:313;0;4;-1.5;1;0;0;0;0;1;1;1;1;4;0;0;;0;0;();();(-2000.0, -2000.0);
11:46:33:330;11:46:33:311;1448060550.76;(0.40919058322906493, 0.6852635701497396);67.8191986084;1.0;11:46:33:330;0;10;-1.5;1;0;0;0;0;1;1;1;1;4;0;0;;0;0;();();(-2000.0, -2000.0);
11:46:33:363;11:46:33:311;1448060550.76;(0.40919058322906493, 0.6852635701497396);67.8191986084;1.0;11:46:33:363;0;10;-1.5;1;0;0;0;0;1;1;1;1;4;0;0;;0;0;();();(-2000.0, -2000.0);
11:46:33:380;11:46:33:373;1448060550.86;(0.40849144458770753, 0.6861579683091905);67.8483581543;1.0;11:46:33:380;0;10;-1.5;1;0;0;0;0;1;1;1;1;4;0;0;;0;0;();();(-2000.0, -2000.0);
11:46:33:396;11:46:33:373;1448060550.86;(0.40849144458770753, 0.6861579683091905);67.8483581543;1.0;11:46:33:396;0;6;-1.5;1;0;0;0;0;1;1;1;1;4;0;0;;0;0;();();(-2000.0, -2000.0);
11:46:33:413;11:46:33:373;1448060550.86;(0.40849144458770753, 0.6861579683091905);67.8483581543;1.0;11:46:33:413;0;5;-1.5;1;0;0;0;0;1;1;1;1;4;0;0;;0;0;();();(-2000.0, -2000.0);
11:46:33:430;11:46:33:373;1448060550.86;(0.40849144458770753, 0.6861579683091905);67.8483581543;1.0;11:46:33:430;0;10;1.77741935483871;1;0;0;0;0;1;1;1;1;4;0;0;;0;0;();();(-2000.0, -2000.0);
11:46:33:463;11:46:33:438;1448060550.89;(0.4086553335189819, 0.6861517588297525);67.4551010132;1.0;11:46:33:463;0;15;1.63548387096774;1;0;0;0;0;1;1;1;1;4;0;0;;0;0;();();(-2000.0, -2000.0);
11:46:33:480;11:46:33:438;1448060550.89;(0.4086553335189819, 0.6861517588297525);67.4551010132;1.0;11:46:33:480;0;5;1.20322580645161;1;0;0;0;0;1;1;1;1;4;0;0;;0;0;();();(-2000.0, -2000.0);
11:46:33:497;11:46:33:438;1448060550.89;(0.4086553335189819, 0.6861517588297525);67.4551010132;1.0;11:46:33:497;0;0;1.22903225806452;1;0;0;0;0;1;1;1;1;4;0;0;;0;0;();();(-2000.0, -2000.0);
11:46:33:514;11:46:33:506;1448060550.99;(0.40845954418182373, 0.6862406624688042);66.7843933105;1.0;11:46:33:514;0;5;1.78064516129032;1;0;0;0;0;1;1;1;1;4;0;0;;0;0;();();(-2000.0, -2000.0);
11:46:33:530;11:46:33:506;1448060550.99;(0.40845954418182373, 0.6862406624688042);66.7843933105;1.0;11:46:33:530;0;10;1.77741935483871;1;0;0;0;0;1;1;1;1;4;0;0;;0;0;();();(-2000.0, -2000.0);
11:46:33:563;11:46:33:506;1448060550.99;(0.40845954418182373, 0.6862406624688042);66.7843933105;1.0;11:46:33:563;0;5;1.78064516129032;1;0;0;0;0;1;1;1;1;4;0;0;;0;0;();();(-2000.0, -2000.0);
11:46:33:580;11:46:33:569;1448060551.03;(0.1494077682495117, 0.638792610168457);24.5507278442;1.0;11:46:33:580;0;0;1.78064516129032;1;0;0;0;0;1;1;1;1;4;0;0;;0;0;();();(-2000.0, -2000.0);
11:46:33:597;11:46:33:569;1448060551.03;(0.1494077682495117, 0.638792610168457);24.5507278442;1.0;11:46:33:597;0;4;1.78064516129032;1;0;0;0;0;1;1;1;1;4;0;0;;0;0;();();(-2000.0, -2000.0);
11:46:33:614;11:46:33:569;1448060551.03;(0.1494077682495117, 0.638792610168457);24.5507278442;1.0;11:46:33:614;0;15;1.78064516129032;1;0;0;0;0;1;1;1;1;4;0;0;;0;0;();();(-2000.0, -2000.0);
11:46:33:630;11:46:33:569;1448060551.03;(0.1494077682495117, 0.638792610168457);24.5507278442;1.0;11:46:33:630;0;11;1.78064516129032;1;0;0;0;0;1;1;1;1;4;0;0;;0;0;();();(-2000.0, -2000.0);
11:46:33:663;11:46:33:637;1448060551.06;(0.34796345233917236, 0.6795486874050565);66.5299224854;1.0;11:46:33:663;0;10;1.78064516129032;1;0;0;0;0;1;1;1;1;4;0;0;;0;0;();();(-2000.0, -2000.0);
11:46:33:680;11:46:33:637;1448060551.06;(0.34796345233917236, 0.6795486874050565);66.5299224854;1.0;11:46:33:680;0;5;1.76129032258065;1;0;0;0;0;1;1;1;1;4;0;0;;0;0;();();(-2000.0, -2000.0);
11:46:33:697;11:46:33:637;1448060551.06;(0.34796345233917236, 0.6795486874050565);66.5299224854;1.0;11:46:33:697;0;0;1.78064516129032;1;0;0;0;0;1;1;1;1;4;0;0;;0;0;();();(-2000.0, -2000.0);
11:46:33:713;11:46:33:705;1448060551.09;(0.6239851474761963, 0.44935743543836804);42.8279304504;0.600046813686;11:46:33:713;0;6;1.77741935483871;1;0;0;0;0;1;1;1;1;4;0;0;;0;0;();();(-2000.0, -2000.0);
11:46:33:730;11:46:33:705;1448060551.09;(0.6239851474761963, 0.44935743543836804);42.8279304504;0.600046813686;11:46:33:730;0;10;1.78064516129032;1;0;0;0;0;1;1;1;1;4;0;0;;0;0;();();(-2000.0, -2000.0);
11:46:33:763;11:46:33:705;1448060551.09;(0.6239851474761963, 0.44935743543836804);42.8279304504;0.600046813686;11:46:33:763;0;10;1.78064516129032;1;0;0;0;0;1;1;1;1;4;0;0;;0;0;();();(-2000.0, -2000.0);
11:46:33:780;11:46:33:769;1448060551.13;(0.3309757232666016, 0.6208551618787977);43.1393165588;0.747495814641;11:46:33:780;0;10;1.78064516129032;1;0;0;0;0;1;1;1;1;4;0;0;;0;0;();();(-2000.0, -2000.0);
11:46:33:797;11:46:33:769;1448060551.13;(0.3309757232666016, 0.6208551618787977);43.1393165588;0.747495814641;11:46:33:797;0;10;1.78064516129032;1;0;0;0;0;1;1;1;1;4;0;0;;0;0;();();(-2000.0, -2000.0);
11:46:33:814;11:46:33:769;1448060551.13;(0.3309757232666016, 0.6208551618787977);43.1393165588;0.747495814641;11:46:33:814;0;10;1.78064516129032;1;0;0;0;0;1;1;1;1;4;0;0;;0;0;();();(-2000.0, -2000.0);
11:46:33:831;11:46:33:769;1448060551.13;(0.3309757232666016, 0.6208551618787977);43.1393165588;0.747495814641;11:46:33:831;0;0;-1.5;1;0;0;0;0;1;1;1;1;4;0;0;;0;0;();();(-2000.0, -2000.0);
11:46:33:864;11:46:33:837;1448060551.31;(0.30021646022796633, 0.6587148242526584);62.4343414307;1.0;11:46:33:864;0;5;-1.5;1;0;0;0;0;1;1;1;1;4;0;0;;0;0;();();(-2000.0, -2000.0);
11:46:33:880;11:46:33:837;1448060551.31;(0.30021646022796633, 0.6587148242526584);62.4343414307;1.0;11:46:33:880;0;10;-1.5;1;0;0;0;0;1;1;1;1;4;0;0;;0;0;();();(-2000.0, -2000.0);
11:46:33:897;11:46:33:837;1448060551.31;(0.30021646022796633, 0.6587148242526584);62.4343414307;1.0;11:46:33:897;0;5;-1.5;1;0;0;0;0;1;1;1;1;4;0;0;;0;0;();();(-2000.0, -2000.0);
11:46:33:914;11:46:33:901;1448060551.36;(0.31674857139587403, 0.6648911370171441);61.2112884521;1.0;11:46:33:914;0;10;-1.5;1;0;0;0;0;1;1;1;1;4;0;0;;0;0;();();(-2000.0, -2000.0);
11:46:33:930;11:46:33:901;1448060551.36;(0.31674857139587403, 0.6648911370171441);61.2112884521;1.0;11:46:33:930;0;6;-1.5;1;0;0;0;0;1;1;1;1;4;0;0;;0;0;();();(-2000.0, -2000.0);
11:46:33:963;11:46:33:901;1448060551.36;(0.31674857139587403, 0.6648911370171441);61.2112884521;1.0;11:46:33:963;0;15;-1.5;1;0;0;0;0;1;1;1;1;4;0;0;;0;0;();();(-2000.0, -2000.0);
11:46:33:980;11:46:33:969;1448060551.43;(0.33137452602386475, 0.6676837921142578);60.5975723267;1.0;11:46:33:980;0;15;-1.5;1;0;0;0;0;1;1;1;1;4;0;0;;0;0;();();(-2000.0, -2000.0);
11:46:33:997;11:46:33:969;1448060551.43;(0.33137452602386475, 0.6676837921142578);60.5975723267;1.0;11:46:33:997;0;15;-1.5;1;0;0;0;0;1;1;1;1;4;0;0;;0;0;();();(-2000.0, -2000.0);
11:46:34:014;11:46:33:969;1448060551.43;(0.33137452602386475, 0.6676837921142578);60.5975723267;1.0;11:46:34:014;0;5;-1.5;1;0;0;0;0;1;1;1;1;4;0;0;;0;0;();();(-2000.0, -2000.0);
11:46:34:031;11:46:33:969;1448060551.43;(0.33137452602386475, 0.6676837921142578);60.5975723267;1.0;11:46:34:031;0;5;-1.5;1;0;0;0;0;1;1;1;1;4;0;0;;0;0;();();(-2000.0, -2000.0);
11:46:34:064;11:46:34:037;1448060551.49;(0.34351866245269774, 0.668279563056098);60.7354888916;1.0;11:46:34:064;0;15;-1.5;1;0;0;0;0;1;1;1;1;4;0;0;;0;0;();();(-2000.0, -2000.0);
11:46:34:081;11:46:34:037;1448060551.49;(0.34351866245269774, 0.668279563056098);60.7354888916;1.0;11:46:34:081;0;5;-1.5;1;0;0;0;0;1;1;1;1;4;0;0;;0;0;();();(-2000.0, -2000.0);
11:46:34:097;11:46:34:037;1448060551.49;(0.34351866245269774, 0.668279563056098);60.7354888916;1.0;11:46:34:097;0;0;1.79032258064516;1;0;0;0;0;1;1;1;1;4;0;0;;0;0;();();(-2000.0, -2000.0);
11:46:34:114;11:46:34:102;1448060551.56;(0.352123761177063, 0.6680518680148655);60.7776145935;1.0;11:46:34:114;0;5;-1.5;1;0;0;0;0;1;1;1;1;4;0;0;;0;0;();();(-2000.0, -2000.0);
11:46:34:130;11:46:34:102;1448060551.56;(0.352123761177063, 0.6680518680148655);60.7776145935;1.0;11:46:34:130;0;10;-1.5;1;0;0;0;0;1;1;1;1;4;0;0;;0;0;();();(-2000.0, -2000.0);
11:46:34:164;11:46:34:102;1448060551.56;(0.352123761177063, 0.6680518680148655);60.7776145935;1.0;11:46:34:164;0;15;-1.5;1;0;0;0;0;1;1;1;1;4;0;0;;0;0;();();(-2000.0, -2000.0);
11:46:34:181;11:46:34:171;1448060551.59;(0.356443452835083, 0.6678761164347331);60.7553672791;1.0;11:46:34:181;0;10;-1.5;1;0;0;0;0;1;1;1;1;4;0;0;;0;0;();();(-2000.0, -2000.0);
11:46:34:197;11:46:34:171;1448060551.59;(0.356443452835083, 0.6678761164347331);60.7553672791;1.0;11:46:34:197;0;11;-1.5;1;0;0;0;0;1;1;1;1;4;0;0;;0;0;();();(-2000.0, -2000.0);
11:46:34:214;11:46:34:171;1448060551.59;(0.356443452835083, 0.6678761164347331);60.7553672791;1.0;11:46:34:214;0;5;-1.5;1;0;0;0;0;1;1;1;1;4;0;0;;0;0;();();(-2000.0, -2000.0);
11:46:34:230;11:46:34:171;1448060551.59;(0.356443452835083, 0.6678761164347331);60.7553672791;1.0;11:46:34:230;0;12;-1.5;1;0;0;0;0;1;1;1;1;4;0;0;;0;0;();();(-2000.0, -2000.0);
11:46:34:264;11:46:34:234;1448060551.67;(0.3392289638519287, 0.6859152899848091);59.4210929871;1.0;11:46:34:264;0;11;-1.5;1;0;0;0;0;1;1;1;1;4;0;0;;0;0;();();(-2000.0, -2000.0);
11:46:34:280;11:46:34:234;1448060551.67;(0.3392289638519287, 0.6859152899848091);59.4210929871;1.0;11:46:34:280;0;5;-1.5;1;0;0;0;0;1;1;1;1;4;0;0;;0;0;();();(-2000.0, -2000.0);
11:46:34:297;11:46:34:234;1448060551.67;(0.3392289638519287, 0.6859152899848091);59.4210929871;1.0;11:46:34:297;0;5;-1.5;1;0;0;0;0;1;1;1;1;4;0;0;;0;0;();();(-2000.0, -2000.0);
11:46:34:314;11:46:34:301;1448060551.78;(0.3444506168365479, 0.6870713551839193);58.2198867798;0.844157793278;11:46:34:314;0;5;-1.5;1;0;0;0;0;1;1;1;1;4;0;0;;0;0;();();(-2000.0, -2000.0);
11:46:34:331;11:46:34:301;1448060551.78;(0.3444506168365479, 0.6870713551839193);58.2198867798;0.844157793278;11:46:34:331;0;5;-1.5;1;0;0;0;0;1;1;1;1;4;0;0;;0;0;();();(-2000.0, -2000.0);
11:46:34:364;11:46:34:301;1448060551.78;(0.3444506168365479, 0.6870713551839193);58.2198867798;0.844157793278;11:46:34:364;0;6;0.587096774193548;1;0;0;0;0;1;1;1;1;4;0;0;;0;0;();();(-2000.0, -2000.0);
11:46:34:380;11:46:34:366;1448060551.83;(0.3466317892074585, 0.6863537470499674);56.9896087646;0.893403942646;11:46:34:380;0;5;1.78064516129032;1;0;0;0;0;1;1;1;1;4;0;0;;0;0;();();(-2000.0, -2000.0);
11:46:34:397;11:46:34:366;1448060551.83;(0.3466317892074585, 0.6863537470499674);56.9896087646;0.893403942646;11:46:34:397;0;10;1.78064516129032;1;0;0;0;0;1;1;1;1;4;0;0;;0;0;();();(-2000.0, -2000.0);
11:46:34:414;11:46:34:366;1448060551.83;(0.3466317892074585, 0.6863537470499674);56.9896087646;0.893403942646;11:46:34:414;0;15;1.77741935483871;1;0;0;0;0;1;1;1;1;4;0;0;;0;0;();();(-2000.0, -2000.0);
11:46:34:431;11:46:34:366;1448060551.83;(0.3466317892074585, 0.6863537470499674);56.9896087646;0.893403942646;11:46:34:431;0;5;1.77741935483871;1;0;0;0;0;1;1;1;1;4;0;0;;0;0;();();(-2000.0, -2000.0);
11:46:34:464;11:46:34:433;1448060551.89;(0.3483648061752319, 0.6854855643378364);55.5137062073;0.94845907521;11:46:34:464;0;10;1.79032258064516;1;0;0;0;0;1;1;1;1;4;0;0;;0;0;();();(-2000.0, -2000.0);
11:46:34:480;11:46:34:433;1448060551.89;(0.3483648061752319, 0.6854855643378364);55.5137062073;0.94845907521;11:46:34:480;0;15;1.78064516129032;1;0;0;0;0;1;1;1;1;4;0;0;;0;0;();();(-2000.0, -2000.0);
11:46:34:497;11:46:34:433;1448060551.89;(0.3483648061752319, 0.6854855643378364);55.5137062073;0.94845907521;11:46:34:497;0;6;1.78064516129032;1;0;0;0;0;1;1;1;1;4;0;0;;0;0;();();(-2000.0, -2000.0);
11:46:34:514;11:46:34:501;1448060551.96;(0.3494132041931152, 0.6849908828735352);53.9302444458;1.0;11:46:34:514;0;10;0.861290322580645;1;0;0;0;0;1;1;1;1;4;0;0;;0;0;();();(-2000.0, -2000.0);
11:46:34:531;11:46:34:501;1448060551.96;(0.3494132041931152, 0.6849908828735352);53.9302444458;1.0;11:46:34:531;0;3;0.72258064516129;1;0;0;0;0;1;1;1;1;4;0;0;;0;0;();();(-2000.0, -2000.0);
11:46:34:564;11:46:34:501;1448060551.96;(0.3494132041931152, 0.6849908828735352);53.9302444458;1.0;11:46:34:564;0;5;0.461290322580645;1;0;0;0;0;1;1;1;1;4;0;0;;0;0;();();(-2000.0, -2000.0);
11:46:34:581;11:46:34:567;1448060552.03;(0.35011169910430906, 0.6848416010538737);52.9792633057;1.0;11:46:34:581;0;11;0.561290322580645;1;0;0;0;0;1;1;1;1;4;0;0;;0;0;();();(-2000.0, -2000.0);
11:46:34:597;11:46:34:567;1448060552.03;(0.35011169910430906, 0.6848416010538737);52.9792633057;1.0;11:46:34:597;0;5;-0.0161290322580645;1;0;0;0;0;1;1;1;1;4;0;0;;0;0;();();(-2000.0, -2000.0);
11:46:34:614;11:46:34:567;1448060552.03;(0.35011169910430906, 0.6848416010538737);52.9792633057;1.0;11:46:34:614;0;10;-0.261290322580645;1;0;0;0;0;1;1;1;1;4;0;0;;0;0;();();(-2000.0, -2000.0);
11:46:34:631;11:46:34:567;1448060552.03;(0.35011169910430906, 0.6848416010538737);52.9792633057;1.0;11:46:34:631;0;5;0.125806451612903;1;0;0;0;0;1;1;1;1;4;0;0;;0;0;();();(-2000.0, -2000.0);
11:46:34:664;11:46:34:650;1448060552.09;(0.3505690097808838, 0.6852901246812608);52.424697876;1.0;11:46:34:664;0;5;0.2;1;0;0;0;0;1;1;1;1;4;0;0;;0;0;();();(-2000.0, -2000.0);
11:46:34:680;11:46:34:650;1448060552.09;(0.3505690097808838, 0.6852901246812608);52.424697876;1.0;11:46:34:680;0;10;-1.31935483870968;1;0;0;0;0;1;1;1;1;4;0;0;;0;0;();();(-2000.0, -2000.0);
11:46:34:698;11:46:34:697;1448060552.13;(0.35243513584136965, 0.6825973510742187);52.1935119629;1.0;11:46:34:698;0;5;-0.945161290322581;1;0;0;0;0;1;1;1;1;4;0;0;;0;0;();();(-2000.0, -2000.0);
11:46:34:714;11:46:34:697;1448060552.13;(0.35243513584136965, 0.6825973510742187);52.1935119629;1.0;11:46:34:714;0;10;-1.24516129032258;1;0;0;0;0;1;1;1;1;4;0;0;;0;0;();();(-2000.0, -2000.0);
11:46:34:731;11:46:34:697;1448060552.13;(0.35243513584136965, 0.6825973510742187);52.1935119629;1.0;11:46:34:731;0;15;-0.161290322580645;1;0;0;0;0;1;1;1;1;4;0;0;;0;0;();();(-2000.0, -2000.0);
11:46:34:764;11:46:34:697;1448060552.13;(0.35243513584136965, 0.6825973510742187);52.1935119629;1.0;11:46:34:764;0;11;-0.106451612903226;1;0;0;0;0;1;1;1;1;4;0;0;;0;0;();();(-2000.0, -2000.0);
11:46:34:781;11:46:34:767;1448060552.23;(0.3662163972854614, 0.66565736134847);52.4687652588;1.0;11:46:34:781;0;10;1.78064516129032;1;0;0;0;0;1;1;1;1;4;0;0;;0;0;();();(-2000.0, -2000.0);
11:46:34:798;11:46:34:767;1448060552.23;(0.3662163972854614, 0.66565736134847);52.4687652588;1.0;11:46:34:798;0;15;1.78064516129032;1;0;0;0;0;1;1;1;1;4;0;0;;0;0;();();(-2000.0, -2000.0);
11:46:34:815;11:46:34:767;1448060552.23;(0.3662163972854614, 0.66565736134847);52.4687652588;1.0;11:46:34:815;0;6;1.76129032258065;1;0;0;0;0;1;1;1;1;4;0;0;;0;0;();();(-2000.0, -2000.0);
11:46:34:831;11:46:34:767;1448060552.23;(0.3662163972854614, 0.66565736134847);52.4687652588;1.0;11:46:34:831;0;0;1.78064516129032;1;0;0;0;0;1;1;1;1;4;0;0;;0;0;();();(-2000.0, -2000.0);
11:46:34:864;11:46:34:833;1448060552.29;(0.3654315948486328, 0.6666085561116537);52.4498672485;1.0;11:46:34:864;0;15;1.78064516129032;1;0;0;0;0;1;1;1;1;4;0;0;;0;0;();();(-2000.0, -2000.0);
11:46:34:881;11:46:34:833;1448060552.29;(0.3654315948486328, 0.6666085561116537);52.4498672485;1.0;11:46:34:881;0;6;1.78064516129032;1;0;0;0;0;1;1;1;1;4;0;0;;0;0;();();(-2000.0, -2000.0);
11:46:34:899;11:46:34:897;1448060552.36;(0.36457438468933107, 0.6670583724975586);51.8390007019;1.0;11:46:34:899;0;0;1.78064516129032;1;0;0;0;0;1;1;1;1;6;0;0;;0;0;();();(-2000.0, -2000.0);
11:46:34:915;11:46:34:897;1448060552.36;(0.36457438468933107, 0.6670583724975586);51.8390007019;1.0;11:46:34:915;0;5;1.77741935483871;1;0;0;0;0;1;1;1;1;6;0;0;;0;0;();();(-2000.0, -2000.0);
11:46:34:931;11:46:34:897;1448060552.36;(0.36457438468933107, 0.6670583724975586);51.8390007019;1.0;11:46:34:931;0;10;1.78064516129032;1;0;0;0;0;1;1;1;1;6;0;0;;0;0;();();(-2000.0, -2000.0);
11:46:34:964;11:46:34:897;1448060552.36;(0.36457438468933107, 0.6670583724975586);51.8390007019;1.0;11:46:34:964;0;10;1.78064516129032;1;0;0;0;0;1;1;1;1;6;0;0;;0;0;();();(-2000.0, -2000.0);
11:46:34:982;11:46:34:966;1448060552.43;(0.36413915157318116, 0.6675093120998806);51.7200737;1.0;11:46:34:982;0;10;1.78064516129032;1;0;0;0;0;1;1;1;1;6;0;0;;0;0;();();(-2000.0, -2000.0);
11:46:34:998;11:46:34:966;1448060552.43;(0.36413915157318116, 0.6675093120998806);51.7200737;1.0;11:46:34:998;0;5;1.05483870967742;1;0;0;0;0;1;1;1;1;6;0;0;;0;0;();();(-2000.0, -2000.0);
11:46:35:015;11:46:34:966;1448060552.43;(0.36413915157318116, 0.6675093120998806);51.7200737;1.0;11:46:35:015;0;10;0.561290322580645;1;0;0;0;0;1;1;1;1;6;0;0;;0;0;();();(-2000.0, -2000.0);
11:46:35:031;11:46:35:029;1448060552.49;(0.3631971597671509, 0.6677839914957682);51.4023017883;1.0;11:46:35:031;0;11;0.912903225806452;1;0;0;0;0;1;1;1;1;6;0;0;;0;0;();();(-2000.0, -2000.0);
11:46:35:064;11:46:35:029;1448060552.49;(0.3631971597671509, 0.6677839914957682);51.4023017883;1.0;11:46:35:064;0;11;0.354838709677419;1;0;0;0;0;1;1;1;1;6;0;0;;0;0;();();(-2000.0, -2000.0);
11:46:35:081;11:46:35:029;1448060552.49;(0.3631971597671509, 0.6677839914957682);51.4023017883;1.0;11:46:35:081;0;0;0.609677419354838;1;0;0;0;0;1;1;1;1;6;0;0;;0;0;();();(-2000.0, -2000.0);
11:46:35:099;11:46:35:097;1448060552.56;(0.3627943754196167, 0.667843500773112);51.0920906067;1.0;11:46:35:099;0;0;0.609677419354838;1;0;0;0;0;1;1;1;1;6;0;0;;0;0;();();(-2000.0, -2000.0);
11:46:35:114;11:46:35:097;1448060552.56;(0.3627943754196167, 0.667843500773112);51.0920906067;1.0;11:46:35:114;0;15;-0.67741935483871;1;0;0;0;0;1;1;1;1;6;0;0;;0;0;();();(-2000.0, -2000.0);
11:46:35:131;11:46:35:097;1448060552.56;(0.3627943754196167, 0.667843500773112);51.0920906067;1.0;11:46:35:131;0;10;0.34516129032258;1;0;0;0;0;1;1;1;1;6;0;0;;0;0;();();(-2000.0, -2000.0);
11:46:35:165;11:46:35:097;1448060552.56;(0.3627943754196167, 0.667843500773112);51.0920906067;1.0;11:46:35:165;0;5;1.18064516129032;1;0;0;0;0;1;1;1;1;6;0;0;;0;0;();();(-2000.0, -2000.0);
11:46:35:182;11:46:35:167;1448060552.63;(0.36236300468444826, 0.6680376264784071);50.5987281799;1.0;11:46:35:182;0;0;-0.261290322580645;1;0;0;0;0;1;1;1;1;6;0;0;;0;0;();();(-2000.0, -2000.0);
11:46:35:198;11:46:35:167;1448060552.63;(0.36236300468444826, 0.6680376264784071);50.5987281799;1.0;11:46:35:198;0;4;0.335483870967742;1;0;0;0;0;1;1;1;1;6;0;0;;0;0;();();(-2000.0, -2000.0);
11:46:35:215;11:46:35:167;1448060552.63;(0.36236300468444826, 0.6680376264784071);50.5987281799;1.0;11:46:35:215;0;6;0.241935483870968;1;0;0;0;0;1;1;1;1;6;0;0;;0;0;();();(-2000.0, -2000.0);
11:46:35:231;11:46:35:229;1448060552.69;(0.3625866174697876, 0.6682590484619141);50.6246566772;1.0;11:46:35:231;0;0;0.5;1;0;0;0;0;1;1;1;1;6;0;0;;0;0;();();(-2000.0, -2000.0);
11:46:35:264;11:46:35:229;1448060552.69;(0.3625866174697876, 0.6682590484619141);50.6246566772;1.0;11:46:35:264;0;5;1.70967741935484;1;0;0;0;0;1;1;1;1;6;0;0;;0;0;();();(-2000.0, -2000.0);
11:46:35:281;11:46:35:229;1448060552.69;(0.3625866174697876, 0.6682590484619141);50.6246566772;1.0;11:46:35:281;0;5;1.70967741935484;1;0;0;0;0;1;1;1;1;6;0;0;;0;0;();();(-2000.0, -2000.0);
11:46:35:298;11:46:35:297;1448060552.76;(0.36282689571380616, 0.6677815331353081);50.8337440491;1.0;11:46:35:298;0;5;0.625806451612903;1;0;0;0;0;1;1;1;1;6;0;0;;0;0;();();(-2000.0, -2000.0);
11:46:35:315;11:46:35:297;1448060552.76;(0.36282689571380616, 0.6677815331353081);50.8337440491;1.0;11:46:35:315;0;15;0.641935483870967;1;0;0;0;0;1;1;1;1;6;0;0;;0;0;();();(-2000.0, -2000.0);
11:46:35:332;11:46:35:297;1448060552.76;(0.36282689571380616, 0.6677815331353081);50.8337440491;1.0;11:46:35:332;0;5;0.793548387096774;1;0;0;0;0;1;1;1;1;6;0;0;;0;0;();();(-2000.0, -2000.0);
11:46:35:365;11:46:35:362;1448060552.83;(0.3628547668457031, 0.667685784233941);51.3616943359;1.0;11:46:35:365;0;6;-0.138709677419355;1;0;0;0;0;1;1;1;1;6;0;0;;0;0;();();(-2000.0, -2000.0);
11:46:35:382;11:46:35:362;1448060552.83;(0.3628547668457031, 0.667685784233941);51.3616943359;1.0;11:46:35:382;0;6;-0.138709677419355;1;0;0;0;0;1;1;1;1;6;0;0;;0;0;();();(-2000.0, -2000.0);
11:46:35:398;11:46:35:362;1448060552.83;(0.3628547668457031, 0.667685784233941);51.3616943359;1.0;11:46:35:398;0;15;-0.183870967741936;1;0;0;0;0;1;1;1;1;6;0;0;;0;0;();();(-2000.0, -2000.0);
11:46:35:415;11:46:35:362;1448060552.83;(0.3628547668457031, 0.667685784233941);51.3616943359;1.0;11:46:35:415;0;15;-0.183870967741936;1;0;0;0;0;1;1;1;1;6;0;0;;0;0;();();(-2000.0, -2000.0);
11:46:35:432;11:46:35:429;1448060552.89;(0.3627110242843628, 0.6678374396430122);51.921459198;1.0;11:46:35:432;0;15;-0.183870967741936;1;0;0;0;0;1;1;1;1;6;0;0;;0;0;();();(-2000.0, -2000.0);
11:46:35:465;11:46:35:429;1448060552.89;(0.3627110242843628, 0.6678374396430122);51.921459198;1.0;11:46:35:465;0;5;1.0741935483871;1;0;0;0;0;1;1;1;1;6;0;0;;0;0;();();(-2000.0, -2000.0);
11:46:35:481;11:46:35:429;1448060552.89;(0.3627110242843628, 0.6678374396430122);51.921459198;1.0;11:46:35:481;0;11;0.641935483870967;1;0;0;0;0;1;1;1;1;6;0;0;;0;0;();();(-2000.0, -2000.0);
11:46:35:499;11:46:35:496;1448060552.93;(0.3705639123916626, 0.6687812169392904);53.3132476807;1.0;11:46:35:499;0;0;0.109677419354838;1;0;0;0;0;1;1;1;1;6;0;0;;0;0;();();(-2000.0, -2000.0);
11:46:35:515;11:46:35:500;1448060552.96;(0.3775623083114624, 0.6688297907511394);52.4387130737;1.0;11:46:35:515;0;10;-0.148387096774194;1;0;0;0;0;1;1;1;1;6;0;0;;0;0;();();(-2000.0, -2000.0);
11:46:35:531;11:46:35:500;1448060552.96;(0.3775623083114624, 0.6688297907511394);52.4387130737;1.0;11:46:35:531;0;6;0.690322580645161;1;0;0;0;0;1;1;1;1;6;0;0;;0;0;();();(-2000.0, -2000.0);
11:46:35:565;11:46:35:563;1448060553.03;(0.3771947383880615, 0.6693614535861545);53.3653945923;1.0;11:46:35:565;0;15;-1.5;1;0;0;0;0;1;1;1;1;6;0;0;;0;0;();();(-2000.0, -2000.0);
11:46:35:581;11:46:35:563;1448060553.03;(0.3771947383880615, 0.6693614535861545);53.3653945923;1.0;11:46:35:581;0;15;-1.5;1;0;0;0;0;1;1;1;1;6;0;0;;0;0;();();(-2000.0, -2000.0);
11:46:35:599;11:46:35:563;1448060553.03;(0.3771947383880615, 0.6693614535861545);53.3653945923;1.0;11:46:35:599;0;15;-1.5;1;0;0;0;0;1;1;1;1;6;0;0;;0;0;();();(-2000.0, -2000.0);
11:46:35:615;11:46:35:563;1448060553.03;(0.3771947383880615, 0.6693614535861545);53.3653945923;1.0;11:46:35:615;0;5;-1.5;1;0;0;0;0;1;1;1;1;6;0;0;;0;0;();();(-2000.0, -2000.0);
11:46:35:631;11:46:35:629;1448060553.09;(0.37603321075439455, 0.6693356408013238);53.950176239;1.0;11:46:35:631;0;0;-1.5;1;0;0;0;0;1;1;1;1;6;0;0;;0;0;();();(-2000.0, -2000.0);
11:46:35:665;11:46:35:629;1448060553.09;(0.37603321075439455, 0.6693356408013238);53.950176239;1.0;11:46:35:665;0;15;1.10322580645161;1;0;0;0;0;1;1;1;1;6;0;0;;0;0;();();(-2000.0, -2000.0);
11:46:35:681;11:46:35:629;1448060553.09;(0.37603321075439455, 0.6693356408013238);53.950176239;1.0;11:46:35:681;0;6;-0.261290322580645;1;0;0;0;0;1;1;1;1;6;0;0;;0;0;();();(-2000.0, -2000.0);
11:46:35:699;11:46:35:692;1448060553.16;(0.3754154443740845, 0.6691349665323894);54.5142364502;1.0;11:46:35:699;0;15;-1.5;1;0;0;0;0;1;1;1;1;6;0;0;;0;0;();();(-2000.0, -2000.0);
11:46:35:715;11:46:35:692;1448060553.16;(0.3754154443740845, 0.6691349665323894);54.5142364502;1.0;11:46:35:715;0;11;-1.5;1;0;0;0;0;1;1;1;1;6;0;0;;0;0;();();(-2000.0, -2000.0);
11:46:35:732;11:46:35:692;1448060553.16;(0.3754154443740845, 0.6691349665323894);54.5142364502;1.0;11:46:35:732;0;10;-0.67741935483871;1;0;0;0;0;1;1;1;1;6;0;0;;0;0;();();(-2000.0, -2000.0);
11:46:35:749;11:46:35:692;1448060553.16;(0.3754154443740845, 0.6691349665323894);54.5142364502;1.0;11:46:35:749;0;15;-0.625806451612903;1;0;0;0;0;1;1;1;1;6;0;0;;0;0;();();(-2000.0, -2000.0);
11:46:35:782;11:46:35:761;1448060553.23;(0.3749858856201172, 0.668841807047526);54.5417633057;1.0;11:46:35:782;0;6;-1.5;1;0;0;0;0;1;1;1;1;6;0;0;;0;0;();();(-2000.0, -2000.0);
11:46:35:799;11:46:35:761;1448060553.23;(0.3749858856201172, 0.668841807047526);54.5417633057;1.0;11:46:35:799;0;11;-1.5;1;0;0;0;0;1;1;1;1;6;0;0;;0;0;();();(-2000.0, -2000.0);
11:46:35:816;11:46:35:761;1448060553.23;(0.3749858856201172, 0.668841807047526);54.5417633057;1.0;11:46:35:816;0;12;-1.5;1;0;0;0;0;1;1;1;1;6;0;0;;0;0;();();(-2000.0, -2000.0);
11:46:35:832;11:46:35:829;1448060553.29;(0.37478342056274416, 0.6688658396402996);54.85389328;1.0;11:46:35:832;0;10;-1.5;1;0;0;0;0;1;1;1;1;6;0;0;;0;0;();();(-2000.0, -2000.0);
11:46:35:849;11:46:35:829;1448060553.29;(0.37478342056274416, 0.6688658396402996);54.85389328;1.0;11:46:35:849;0;15;-1.5;1;0;0;0;0;1;1;1;1;6;0;0;;0;0;();();(-2000.0, -2000.0);
11:46:35:882;11:46:35:829;1448060553.29;(0.37478342056274416, 0.6688658396402996);54.85389328;1.0;11:46:35:882;0;11;-1.5;1;0;0;0;0;1;1;1;1;6;0;0;;0;0;();();(-2000.0, -2000.0);
11:46:35:900;11:46:35:893;1448060553.36;(0.37464725971221924, 0.6698499467637804);54.1183395386;1.0;11:46:35:900;0;5;-1.5;1;0;0;0;0;1;1;1;1;6;0;0;;0;0;();();(-2000.0, -2000.0);
11:46:35:916;11:46:35:893;1448060553.36;(0.37464725971221924, 0.6698499467637804);54.1183395386;1.0;11:46:35:916;0;0;-1.5;1;0;0;0;0;1;1;1;1;6;0;0;;0;0;();();(-2000.0, -2000.0);
11:46:35:933;11:46:35:893;1448060553.36;(0.37464725971221924, 0.6698499467637804);54.1183395386;1.0;11:46:35:933;0;11;-1.45161290322581;1;0;0;0;0;1;1;1;1;6;0;0;;0;0;();();(-2000.0, -2000.0);
11:46:35:949;11:46:35:893;1448060553.36;(0.37464725971221924, 0.6698499467637804);54.1183395386;1.0;11:46:35:949;0;0;-1.15161290322581;1;0;0;0;0;1;1;1;1;6;0;0;;0;0;();();(-2000.0, -2000.0);
11:46:35:982;11:46:35:961;1448060553.39;(0.365843391418457, 0.6660585827297635);54.5076179504;1.0;11:46:35:982;0;15;-0.67741935483871;1;0;0;0;0;1;1;1;1;6;0;0;;0;0;();();(-2000.0, -2000.0);
11:46:35:999;11:46:35:961;1448060553.39;(0.365843391418457, 0.6660585827297635);54.5076179504;1.0;11:46:35:999;0;10;-0.419354838709677;1;0;0;0;0;1;1;1;1;6;0;0;;0;0;();();(-2000.0, -2000.0);
11:46:36:015;11:46:35:961;1448060553.39;(0.365843391418457, 0.6660585827297635);54.5076179504;1.0;11:46:36:015;0;15;-0.0161290322580645;1;0;0;0;0;1;1;1;1;6;0;0;;0;0;();();(-2000.0, -2000.0);
11:46:36:032;11:46:36:025;1448060553.49;(0.14025260210037233, 0.6368981467352973);24.1509799957;0.901211283449;11:46:36:032;0;15;-0.0161290322580645;1;0;0;0;0;1;1;1;1;6;0;0;;0;0;();();(-2000.0, -2000.0);
11:46:36:049;11:46:36:025;1448060553.49;(0.14025260210037233, 0.6368981467352973);24.1509799957;0.901211283449;11:46:36:049;0;10;1.26129032258065;1;0;0;0;0;1;1;1;1;6;0;0;;0;0;();();(-2000.0, -2000.0);
11:46:36:083;11:46:36:025;1448060553.49;(0.14025260210037233, 0.6368981467352973);24.1509799957;0.901211283449;11:46:36:083;0;10;1.76129032258065;1;0;0;0;0;1;1;1;1;6;0;0;;0;0;();();(-2000.0, -2000.0);
11:46:36:100;11:46:36:094;1448060553.56;(0.13996849060058594, 0.6381338119506836);24.3217105865;0.856800409314;11:46:36:099;0;6;1.78064516129032;1;0;0;0;0;1;1;1;1;6;0;0;;0;0;();();(-2000.0, -2000.0);
11:46:36:115;11:46:36:094;1448060553.56;(0.13996849060058594, 0.6381338119506836);24.3217105865;0.856800409314;11:46:36:115;0;0;1.78064516129032;1;0;0;0;0;1;1;1;1;6;0;0;;0;0;();();(-2000.0, -2000.0);
11:46:36:132;11:46:36:094;1448060553.56;(0.13996849060058594, 0.6381338119506836);24.3217105865;0.856800409314;11:46:36:132;0;5;1.78064516129032;1;0;0;0;0;1;1;1;1;6;0;0;;0;0;();();(-2000.0, -2000.0);
11:46:36:149;11:46:36:094;1448060553.56;(0.13996849060058594, 0.6381338119506836);24.3217105865;0.856800409314;11:46:36:149;0;10;-1.5;1;0;0;0;0;1;1;1;1;6;0;0;;0;0;();();(-2000.0, -2000.0);
11:46:36:183;11:46:36:161;1448060553.63;(0.3623488187789917, 0.6617577658759224);56.9231796265;1.0;11:46:36:183;0;11;1.78064516129032;1;0;0;0;0;1;1;1;1;6;0;0;;0;0;();();(-2000.0, -2000.0);
11:46:36:199;11:46:36:161;1448060553.63;(0.3623488187789917, 0.6617577658759224);56.9231796265;1.0;11:46:36:199;0;0;1.78064516129032;1;0;0;0;0;1;1;1;1;6;0;0;;0;0;();();(-2000.0, -2000.0);
11:46:36:216;11:46:36:161;1448060553.63;(0.3623488187789917, 0.6617577658759224);56.9231796265;1.0;11:46:36:216;0;10;1.78064516129032;1;0;0;0;0;1;1;1;1;6;0;0;;0;0;();();(-2000.0, -2000.0);
11:46:36:233;11:46:36:161;1448060553.63;(0.3623488187789917, 0.6617577658759224);56.9231796265;1.0;11:46:36:233;0;15;0.354838709677419;1;0;0;0;0;1;1;1;1;6;0;0;;0;0;();();(-2000.0, -2000.0);
11:46:36:249;11:46:36:161;1448060553.63;(0.3623488187789917, 0.6617577658759224);56.9231796265;1.0;11:46:36:249;0;15;0.354838709677419;1;0;0;0;0;1;1;1;1;6;0;0;;0;0;();();(-2000.0, -2000.0);
11:46:36:283;11:46:36:161;1448060553.63;(0.3623488187789917, 0.6617577658759224);56.9231796265;1.0;11:46:36:283;0;5;-1.5;1;0;0;0;0;1;1;1;1;6;0;0;;0;0;();();(-2000.0, -2000.0);
11:46:36:300;11:46:36:293;1448060553.66;(0.21700186729431153, 0.5205974578857422);22.903295517;0.739110195297;11:46:36:300;0;5;-1.5;1;0;0;0;0;1;1;1;1;6;0;0;;0;0;();();(-2000.0, -2000.0);
11:46:36:315;11:46:36:293;1448060553.66;(0.21700186729431153, 0.5205974578857422);22.903295517;0.739110195297;11:46:36:315;0;10;-1.5;1;0;0;0;0;1;1;1;1;6;0;0;;0;0;();();(-2000.0, -2000.0);
11:46:36:333;11:46:36:293;1448060553.66;(0.21700186729431153, 0.5205974578857422);22.903295517;0.739110195297;11:46:36:333;0;15;-1.5;1;0;0;0;0;1;1;1;1;6;0;0;;0;0;();();(-2000.0, -2000.0);
11:46:36:349;11:46:36:293;1448060553.66;(0.21700186729431153, 0.5205974578857422);22.903295517;0.739110195297;11:46:36:349;0;5;-1.5;1;0;0;0;0;1;1;1;1;6;0;0;;0;0;();();(-2000.0, -2000.0);
11:46:36:383;11:46:36:357;1448060553.8;(0.35785956382751466, 0.670237922668457);57.7461128235;1.0;11:46:36:383;0;5;-1.5;1;0;0;0;0;1;1;1;1;6;0;0;;0;0;();();(-2000.0, -2000.0);
11:46:36:400;11:46:36:357;1448060553.8;(0.35785956382751466, 0.670237922668457);57.7461128235;1.0;11:46:36:400;0;15;-1.5;1;0;0;0;0;1;1;1;1;6;0;0;;0;0;();();(-2000.0, -2000.0);
11:46:36:415;11:46:36:357;1448060553.8;(0.35785956382751466, 0.670237922668457);57.7461128235;1.0;11:46:36:415;0;6;-1.5;1;0;0;0;0;1;1;1;1;6;0;0;;0;0;();();(-2000.0, -2000.0);
11:46:36:433;11:46:36:425;1448060553.86;(0.35206558704376223, 0.6584591971503364);59.6538238525;0.762900932901;11:46:36:433;0;0;-1.5;1;0;0;0;0;1;1;1;1;6;0;0;;0;0;();();(-2000.0, -2000.0);
11:46:36:449;11:46:36:425;1448060553.86;(0.35206558704376223, 0.6584591971503364);59.6538238525;0.762900932901;11:46:36:449;0;5;-1.42258064516129;1;0;0;0;0;1;1;1;1;6;0;0;;0;0;();();(-2000.0, -2000.0);
11:46:36:483;11:46:36:425;1448060553.86;(0.35206558704376223, 0.6584591971503364);59.6538238525;0.762900932901;11:46:36:483;0;5;-0.87741935483871;1;0;0;0;0;1;1;1;1;6;0;0;;0;0;();();(-2000.0, -2000.0);
11:46:36:499;11:46:36:493;1448060553.93;(0.34620563983917235, 0.5406391991509332);26.2407169342;0.788854217602;11:46:36:499;0;15;-0.87741935483871;1;0;0;0;0;1;1;1;1;6;0;0;;0;0;();();(-2000.0, -2000.0);
11:46:36:516;11:46:36:493;1448060553.93;(0.34620563983917235, 0.5406391991509332);26.2407169342;0.788854217602;11:46:36:516;0;5;-0.725806451612903;1;0;0;0;0;1;1;1;1;6;0;0;;0;0;();();(-2000.0, -2000.0);
11:46:36:533;11:46:36:493;1448060553.93;(0.34620563983917235, 0.5406391991509332);26.2407169342;0.788854217602;11:46:36:533;0;0;-0.651612903225806;1;0;0;0;0;1;1;1;1;6;0;0;;0;0;();();(-2000.0, -2000.0);
11:46:36:549;11:46:36:493;1448060553.93;(0.34620563983917235, 0.5406391991509332);26.2407169342;0.788854217602;11:46:36:549;0;5;-0.470967741935484;1;0;0;0;0;1;1;1;1;6;0;0;;0;0;();();(-2000.0, -2000.0);
11:46:36:583;11:46:36:493;1448060553.93;(0.34620563983917235, 0.5406391991509332);26.2407169342;0.788854217602;11:46:36:583;0;6;-0.341935483870968;1;0;0;0;0;1;1;1;1;6;0;0;;0;0;();();(-2000.0, -2000.0);
11:46:36:601;11:46:36:493;1448060553.93;(0.34620563983917235, 0.5406391991509332);26.2407169342;0.788854217602;11:46:36:601;0;11;-0.216129032258065;1;0;0;0;0;1;1;1;1;6;0;0;;0;0;();();(-2000.0, -2000.0);
11:46:36:616;11:46:36:493;1448060553.93;(0.34620563983917235, 0.5406391991509332);26.2407169342;0.788854217602;11:46:36:616;0;5;-0.312903225806452;1;0;0;0;0;1;1;1;1;6;0;0;;0;0;();();(-2000.0, -2000.0);
11:46:36:635;11:46:36:626;1448060553.96;(0.5209003925323487, 0.5965463002522786);35.6277122498;0.617052979782;11:46:36:635;0;10;-0.138709677419355;1;0;0;0;0;1;1;1;1;6;0;0;;0;0;();();(-2000.0, -2000.0);
11:46:36:650;11:46:36:626;1448060553.96;(0.5209003925323487, 0.5965463002522786);35.6277122498;0.617052979782;11:46:36:650;0;15;-0.096774193548387;1;0;0;0;0;1;1;1;1;6;0;0;;0;0;();();(-2000.0, -2000.0);
11:46:36:683;11:46:36:626;1448060553.96;(0.5209003925323487, 0.5965463002522786);35.6277122498;0.617052979782;11:46:36:683;0;0;0.138709677419355;1;0;0;0;0;1;1;1;1;6;0;0;;0;0;();();(-2000.0, -2000.0);
11:46:36:700;11:46:36:689;1448060554.1;(0, 0);0;0;11:46:36:700;0;10;1.0741935483871;1;0;0;0;0;1;1;1;1;6;0;0;;0;0;();();(-2000.0, -2000.0);
11:46:36:716;11:46:36:689;1448060554.1;(0, 0);0;0;11:46:36:716;0;0;1.78064516129032;1;0;0;0;0;1;1;1;1;6;0;0;;0;0;();();(-2000.0, -2000.0);
11:46:36:733;11:46:36:689;1448060554.1;(0, 0);0;0;11:46:36:733;0;0;1.78064516129032;1;0;0;0;0;1;1;1;1;6;0;0;;0;0;();();(-2000.0, -2000.0);
11:46:36:750;11:46:36:689;1448060554.1;(0, 0);0;0;11:46:36:750;0;0;-1.27096774193548;1;0;0;0;0;1;1;1;1;6;0;0;;0;0;();();(-2000.0, -2000.0);
11:46:36:783;11:46:36:689;1448060554.1;(0, 0);0;0;11:46:36:783;0;15;1.78064516129032;1;0;0;0;0;1;1;1;1;6;0;0;;0;0;();();(-2000.0, -2000.0);
11:46:36:799;11:46:36:689;1448060554.1;(0, 0);0;0;11:46:36:799;0;5;1.78064516129032;1;0;0;0;0;1;1;1;1;6;0;0;;0;0;();();(-2000.0, -2000.0);
11:46:36:816;11:46:36:689;1448060554.1;(0, 0);0;0;11:46:36:816;0;11;1.78064516129032;1;0;0;0;0;1;1;1;1;6;0;0;;0;0;();();(-2000.0, -2000.0);
11:46:36:833;11:46:36:825;1448060554.28;(0.3352570295333862, 0.5148534562852647);62.7874259949;0.900523668043;11:46:36:833;0;11;1.78064516129032;1;0;0;0;0;1;1;1;1;6;0;0;;0;0;();();(-2000.0, -2000.0);
11:46:36:849;11:46:36:825;1448060554.28;(0.3352570295333862, 0.5148534562852647);62.7874259949;0.900523668043;11:46:36:849;0;0;1.77741935483871;1;0;0;0;0;1;1;1;1;6;0;0;;0;0;();();(-2000.0, -2000.0);
11:46:36:883;11:46:36:825;1448060554.28;(0.3352570295333862, 0.5148534562852647);62.7874259949;0.900523668043;11:46:36:883;0;10;1.78064516129032;1;0;0;0;0;1;1;1;1;6;0;0;;0;0;();();(-2000.0, -2000.0);
11:46:36:900;11:46:36:890;1448060554.36;(0.3377065658569336, 0.5134600745307074);64.0086593628;0.935194368861;11:46:36:900;0;10;1.78064516129032;1;0;0;0;0;1;1;1;1;6;0;0;;0;0;();();(-2000.0, -2000.0);
11:46:36:917;11:46:36:890;1448060554.36;(0.3377065658569336, 0.5134600745307074);64.0086593628;0.935194368861;11:46:36:917;0;6;1.78064516129032;1;0;0;0;0;1;1;1;1;6;0;0;;0;0;();();(-2000.0, -2000.0);
11:46:36:933;11:46:36:890;1448060554.36;(0.3377065658569336, 0.5134600745307074);64.0086593628;0.935194368861;11:46:36:933;0;5;-1.5;1;0;0;0;0;1;1;1;1;6;0;0;;0;0;();();(-2000.0, -2000.0);
11:46:36:950;11:46:36:890;1448060554.36;(0.3377065658569336, 0.5134600745307074);64.0086593628;0.935194368861;11:46:36:950;0;10;-1.5;1;0;0;0;0;1;1;1;1;6;0;0;;0;0;();();(-2000.0, -2000.0);
11:46:36:983;11:46:36:957;1448060554.43;(0.33759765625, 0.5102143181694878);64.6187744141;0.908904250887;11:46:36:983;0;11;1.79032258064516;1;0;0;0;0;1;1;1;1;6;0;0;;0;0;();();(-2000.0, -2000.0);
11:46:37:000;11:46:36:957;1448060554.43;(0.33759765625, 0.5102143181694878);64.6187744141;0.908904250887;11:46:37:000;0;0;1.77741935483871;1;0;0;0;0;1;1;1;1;6;0;0;;0;0;();();(-2000.0, -2000.0);
11:46:37:017;11:46:36:957;1448060554.43;(0.33759765625, 0.5102143181694878);64.6187744141;0.908904250887;11:46:37:017;0;10;1.77741935483871;1;0;0;0;0;1;1;1;1;6;0;0;;0;0;();();(-2000.0, -2000.0);
11:46:37:033;11:46:37:021;1448060554.49;(0.33504257202148435, 0.5047837999131944);63.9927864075;0.967845962977;11:46:37:033;0;5;0.780645161290323;1;0;0;0;0;1;1;1;1;6;0;0;;0;0;();();(-2000.0, -2000.0);
11:46:37:050;11:46:37:021;1448060554.49;(0.33504257202148435, 0.5047837999131944);63.9927864075;0.967845962977;11:46:37:050;0;11;-1.5;1;0;0;0;0;1;1;1;1;6;0;0;;0;0;();();(-2000.0, -2000.0);
11:46:37:083;11:46:37:021;1448060554.49;(0.33504257202148435, 0.5047837999131944);63.9927864075;0.967845962977;11:46:37:083;0;11;1.77741935483871;1;0;0;0;0;1;1;1;1;6;0;0;;0;0;();();(-2000.0, -2000.0);
11:46:37:099;11:46:37:088;1448060554.53;(0.3333511114120483, 0.5015443589952258);63.5802650452;0.992114466301;11:46:37:099;0;0;1.77741935483871;1;0;0;0;0;1;1;1;1;6;0;0;;0;0;();();(-2000.0, -2000.0);
11:46:37:117;11:46:37:088;1448060554.53;(0.3333511114120483, 0.5015443589952258);63.5802650452;0.992114466301;11:46:37:117;0;10;1.78064516129032;1;0;0;0;0;1;1;1;1;6;0;0;;0;0;();();(-2000.0, -2000.0);
11:46:37:134;11:46:37:088;1448060554.53;(0.3333511114120483, 0.5015443589952258);63.5802650452;0.992114466301;11:46:37:134;0;0;1.79032258064516;1;0;0;0;0;1;1;1;1;6;0;0;;0;0;();();(-2000.0, -2000.0);
11:46:37:150;11:46:37:088;1448060554.53;(0.3333511114120483, 0.5015443589952258);63.5802650452;0.992114466301;11:46:37:150;0;11;1.78064516129032;1;0;0;0;0;1;1;1;1;6;0;0;;0;0;();();(-2000.0, -2000.0);
11:46:37:184;11:46:37:157;1448060554.63;(0.3248962163925171, 0.4933846791585287);60.9926757812;0.986060756611;11:46:37:184;0;10;-1.5;1;0;0;0;0;1;1;1;1;6;0;0;;0;0;();();(-2000.0, -2000.0);
11:46:37:200;11:46:37:157;1448060554.63;(0.3248962163925171, 0.4933846791585287);60.9926757812;0.986060756611;11:46:37:200;0;5;-1.5;1;0;0;0;0;1;1;1;1;6;0;0;;0;0;();();(-2000.0, -2000.0);
11:46:37:217;11:46:37:157;1448060554.63;(0.3248962163925171, 0.4933846791585287);60.9926757812;0.986060756611;11:46:37:217;0;6;-1.5;1;0;0;0;0;1;1;1;1;6;0;0;;0;0;();();(-2000.0, -2000.0);
11:46:37:233;11:46:37:221;1448060554.66;(0.3211297750473022, 0.48983493381076393);60.4033737183;0.991244971425;11:46:37:233;0;0;-1.5;1;0;0;0;0;1;1;1;1;6;0;0;;0;0;();();(-2000.0, -2000.0);
11:46:37:250;11:46:37:221;1448060554.66;(0.3211297750473022, 0.48983493381076393);60.4033737183;0.991244971425;11:46:37:250;0;5;-1.5;1;0;0;0;0;1;1;1;1;6;0;0;;0;0;();();(-2000.0, -2000.0);
11:46:37:284;11:46:37:221;1448060554.66;(0.3211297750473022, 0.48983493381076393);60.4033737183;0.991244971425;11:46:37:284;0;5;-1.5;1;0;0;0;0;1;1;1;1;6;0;0;;0;0;();();(-2000.0, -2000.0);
11:46:37:303;11:46:37:221;1448060554.66;(0.3211297750473022, 0.48983493381076393);60.4033737183;0.991244971425;11:46:37:303;0;8;-1.5;1;0;0;0;0;1;1;1;1;6;0;0;;0;0;();();(-2000.0, -2000.0);
11:46:37:317;11:46:37:221;1448060554.66;(0.3211297750473022, 0.48983493381076393);60.4033737183;0.991244971425;11:46:37:317;0;5;-1.5;1;0;0;0;0;1;1;1;1;6;0;0;;0;0;();();(-2000.0, -2000.0);
11:46:37:334;11:46:37:221;1448060554.66;(0.3211297750473022, 0.48983493381076393);60.4033737183;0.991244971425;11:46:37:334;0;10;-1.5;1;0;0;0;0;1;1;1;1;6;0;0;;0;0;();();(-2000.0, -2000.0);
11:46:37:350;11:46:37:221;1448060554.66;(0.3211297750473022, 0.48983493381076393);60.4033737183;0.991244971425;11:46:37:350;0;5;-1.5;1;0;0;0;0;1;1;1;1;6;0;0;;0;0;();();(-2000.0, -2000.0);
11:46:37:384;11:46:37:221;1448060554.66;(0.3211297750473022, 0.48983493381076393);60.4033737183;0.991244971425;11:46:37:384;0;11;-1.43870967741935;1;0;0;0;0;1;1;1;1;6;0;0;;0;0;();();(-2000.0, -2000.0);
11:46:37:400;11:46:37:221;1448060554.66;(0.3211297750473022, 0.48983493381076393);60.4033737183;0.991244971425;11:46:37:400;0;10;-1.5;1;0;0;0;0;1;1;1;1;6;0;0;;0;0;();();(-2000.0, -2000.0);
11:46:37:417;11:46:37:221;1448060554.66;(0.3211297750473022, 0.48983493381076393);60.4033737183;0.991244971425;11:46:37:417;0;15;-1.5;1;0;0;0;0;1;1;1;1;6;0;0;;0;0;();();(-2000.0, -2000.0);
11:46:37:434;11:46:37:421;1448060554.88;(0.43694634437561036, 0.6855066935221354);59.1334228516;1.0;11:46:37:434;0;10;-1.5;1;0;0;0;0;1;1;1;1;6;0;0;;0;0;();();(-2000.0, -2000.0);
11:46:37:450;11:46:37:421;1448060554.88;(0.43694634437561036, 0.6855066935221354);59.1334228516;1.0;11:46:37:450;0;0;1.76129032258065;1;0;0;0;0;1;1;1;1;6;0;0;;0;0;();();(-2000.0, -2000.0);
11:46:37:484;11:46:37:421;1448060554.88;(0.43694634437561036, 0.6855066935221354);59.1334228516;1.0;11:46:37:484;0;0;-1.5;1;0;0;0;0;1;1;1;1;6;0;0;;0;0;();();(-2000.0, -2000.0);
11:46:37:500;11:46:37:486;1448060554.93;(0.43885107040405275, 0.6907600190904406);59.6315383911;0.801034371489;11:46:37:500;0;10;1.79032258064516;1;0;0;0;0;1;1;1;1;6;0;0;;0;0;();();(-2000.0, -2000.0);
11:46:37:517;11:46:37:486;1448060554.93;(0.43885107040405275, 0.6907600190904406);59.6315383911;0.801034371489;11:46:37:517;0;5;1.77741935483871;1;0;0;0;0;1;1;1;1;6;0;0;;0;0;();();(-2000.0, -2000.0);
11:46:37:534;11:46:37:486;1448060554.93;(0.43885107040405275, 0.6907600190904406);59.6315383911;0.801034371489;11:46:37:534;0;0;1.78064516129032;1;0;0;0;0;1;1;1;1;6;0;0;;0;0;();();(-2000.0, -2000.0);
11:46:37:550;11:46:37:486;1448060554.93;(0.43885107040405275, 0.6907600190904406);59.6315383911;0.801034371489;11:46:37:550;0;10;1.78064516129032;1;0;0;0;0;1;1;1;1;6;0;0;;0;0;();();(-2000.0, -2000.0);
11:46:37:584;11:46:37:554;1448060555.03;(0.43235666751861573, 0.6932816611395942);60.7886390686;0.976197760078;11:46:37:584;0;10;1.77741935483871;1;0;0;0;0;1;1;1;1;6;0;0;;0;0;();();(-2000.0, -2000.0);
11:46:37:600;11:46:37:554;1448060555.03;(0.43235666751861573, 0.6932816611395942);60.7886390686;0.976197760078;11:46:37:600;0;5;1.78064516129032;1;0;0;0;0;1;1;1;1;6;0;0;;0;0;();();(-2000.0, -2000.0);
11:46:37:618;11:46:37:554;1448060555.03;(0.43235666751861573, 0.6932816611395942);60.7886390686;0.976197760078;11:46:37:618;0;11;-1.5;1;0;0;0;0;1;1;1;1;6;0;0;;0;0;();();(-2000.0, -2000.0);
11:46:37:634;11:46:37:621;1448060555.09;(0.4287771463394165, 0.6938397513495551);60.9016189575;0.883595392449;11:46:37:634;0;5;1.77741935483871;1;0;0;0;0;1;1;1;1;6;0;0;;0;0;();();(-2000.0, -2000.0);
11:46:37:651;11:46:37:621;1448060555.09;(0.4287771463394165, 0.6938397513495551);60.9016189575;0.883595392449;11:46:37:651;0;9;1.77741935483871;1;0;0;0;0;1;1;1;1;6;0;0;;0;0;();();(-2000.0, -2000.0);
11:46:37:684;11:46:37:621;1448060555.09;(0.4287771463394165, 0.6938397513495551);60.9016189575;0.883595392449;11:46:37:684;0;0;-1.5;1;0;0;0;0;1;1;1;1;6;0;0;;0;0;();();(-2000.0, -2000.0);
11:46:37:701;11:46:37:686;1448060555.16;(0.42591090202331544, 0.694240591261122);61.5308570862;0.997459415573;11:46:37:701;0;13;1.79032258064516;1;0;0;0;0;1;1;1;1;6;0;0;;0;0;();();(-2000.0, -2000.0);
11:46:37:717;11:46:37:686;1448060555.16;(0.42591090202331544, 0.694240591261122);61.5308570862;0.997459415573;11:46:37:717;0;5;1.48064516129032;1;0;0;0;0;1;1;1;1;6;0;0;;0;0;();();(-2000.0, -2000.0);
11:46:37:734;11:46:37:686;1448060555.16;(0.42591090202331544, 0.694240591261122);61.5308570862;0.997459415573;11:46:37:734;0;5;1.77741935483871;1;0;0;0;0;1;1;1;1;6;0;0;;0;0;();();(-2000.0, -2000.0);
11:46:37:751;11:46:37:686;1448060555.16;(0.42591090202331544, 0.694240591261122);61.5308570862;0.997459415573;11:46:37:751;0;10;1.78064516129032;1;0;0;0;0;1;1;1;1;6;0;0;;0;0;();();(-2000.0, -2000.0);
11:46:37:784;11:46:37:754;1448060555.23;(0.42367329597473147, 0.6951160430908203);62.1699523926;1.0;11:46:37:784;0;15;-1.5;1;0;0;0;0;1;1;1;1;6;0;0;;0;0;();();(-2000.0, -2000.0);
11:46:37:801;11:46:37:754;1448060555.23;(0.42367329597473147, 0.6951160430908203);62.1699523926;1.0;11:46:37:801;0;5;1.77741935483871;1;0;0;0;0;1;1;1;1;6;0;0;;0;0;();();(-2000.0, -2000.0);
11:46:37:817;11:46:37:754;1448060555.23;(0.42367329597473147, 0.6951160430908203);62.1699523926;1.0;11:46:37:817;0;10;1.78064516129032;1;0;0;0;0;1;1;1;1;6;0;0;;0;0;();();(-2000.0, -2000.0);
11:46:37:834;11:46:37:818;1448060555.29;(0.42129509449005126, 0.6959820641411676);62.652431488;1.0;11:46:37:834;0;0;-1.5;1;0;0;0;0;1;1;1;1;6;0;0;;0;0;();();(-2000.0, -2000.0);
11:46:37:851;11:46:37:818;1448060555.29;(0.42129509449005126, 0.6959820641411676);62.652431488;1.0;11:46:37:851;0;10;-1.5;1;0;0;0;0;1;1;1;1;6;0;0;;0;0;();();(-2000.0, -2000.0);
11:46:37:884;11:46:37:818;1448060555.29;(0.42129509449005126, 0.6959820641411676);62.652431488;1.0;11:46:37:884;0;11;-1.5;1;0;0;0;0;1;1;1;1;6;0;0;;0;0;();();(-2000.0, -2000.0);
11:46:37:900;11:46:37:886;1448060555.36;(0.41980600357055664, 0.6964022954305014);63.4124221802;1.0;11:46:37:900;0;15;1.78064516129032;1;0;0;0;0;1;1;1;1;6;0;0;;0;0;();();(-2000.0, -2000.0);
11:46:37:917;11:46:37:886;1448060555.36;(0.41980600357055664, 0.6964022954305014);63.4124221802;1.0;11:46:37:917;0;10;1.78064516129032;1;0;0;0;0;1;1;1;1;6;0;0;;0;0;();();(-2000.0, -2000.0);
11:46:37:933;11:46:37:886;1448060555.36;(0.41980600357055664, 0.6964022954305014);63.4124221802;1.0;11:46:37:933;0;0;1.78064516129032;1;0;0;0;0;1;1;1;1;6;0;0;;0;0;();();(-2000.0, -2000.0);
11:46:37:951;11:46:37:886;1448060555.36;(0.41980600357055664, 0.6964022954305014);63.4124221802;1.0;11:46:37:951;0;0;1.78064516129032;1;0;0;0;0;1;1;1;1;6;0;0;;0;0;();();(-2000.0, -2000.0);
11:46:37:984;11:46:37:962;1448060555.43;(0.4197234630584717, 0.6963527891370985);64.5715408325;1.0;11:46:37:984;0;5;1.78064516129032;1;0;0;0;0;1;1;1;1;6;0;0;;0;0;();();(-2000.0, -2000.0);
11:46:38:001;11:46:37:962;1448060555.43;(0.4197234630584717, 0.6963527891370985);64.5715408325;1.0;11:46:38:001;0;0;-1.5;1;0;0;0;0;1;1;1;1;6;0;0;;0;0;();();(-2000.0, -2000.0);
11:46:38:018;11:46:38:017;1448060555.46;(0.41720631122589114, 0.6898863686455621);63.8403892517;1.0;11:46:38:018;0;5;-1.5;1;0;0;0;0;1;1;1;1;6;0;0;;0;0;();();(-2000.0, -2000.0);
11:46:38:034;11:46:38:017;1448060555.46;(0.41720631122589114, 0.6898863686455621);63.8403892517;1.0;11:46:38:034;0;0;-1.5;1;0;0;0;0;1;1;1;1;6;0;0;;0;0;();();(-2000.0, -2000.0);
11:46:38:051;11:46:38:017;1448060555.46;(0.41720631122589114, 0.6898863686455621);63.8403892517;1.0;11:46:38:051;0;5;-1.5;1;0;0;0;0;1;1;1;1;6;0;0;;0;0;();();(-2000.0, -2000.0);
11:46:38:084;11:46:38:017;1448060555.46;(0.41720631122589114, 0.6898863686455621);63.8403892517;1.0;11:46:38:084;0;4;-1.5;1;0;0;0;0;1;1;1;1;6;0;0;;0;0;();();(-2000.0, -2000.0);
11:46:38:101;11:46:38:085;1448060555.49;(0.3964908838272095, 0.6367296430799696);46.045085907;0.671453375323;11:46:38:101;0;11;-1.5;1;0;0;0;0;1;1;1;1;6;0;0;;0;0;();();(-2000.0, -2000.0);
11:46:38:118;11:46:38:085;1448060555.49;(0.3964908838272095, 0.6367296430799696);46.045085907;0.671453375323;11:46:38:118;0;5;-1.5;1;0;0;0;0;1;1;1;1;6;0;0;;0;0;();();(-2000.0, -2000.0);
11:46:38:134;11:46:38:085;1448060555.49;(0.3964908838272095, 0.6367296430799696);46.045085907;0.671453375323;11:46:38:134;0;5;-1.5;1;0;0;0;0;1;1;1;1;6;0;0;;0;0;();();(-2000.0, -2000.0);
11:46:38:151;11:46:38:085;1448060555.49;(0.3964908838272095, 0.6367296430799696);46.045085907;0.671453375323;11:46:38:151;0;0;-1.5;1;0;0;0;0;1;1;1;1;6;0;0;;0;0;();();(-2000.0, -2000.0);
11:46:38:184;11:46:38:085;1448060555.49;(0.3964908838272095, 0.6367296430799696);46.045085907;0.671453375323;11:46:38:184;0;6;-1.5;1;0;0;0;0;1;1;1;1;6;0;0;;0;0;();();(-2000.0, -2000.0);
11:46:38:200;11:46:38:085;1448060555.49;(0.3964908838272095, 0.6367296430799696);46.045085907;0.671453375323;11:46:38:200;0;10;-1.5;1;0;0;0;0;1;1;1;1;6;0;0;;0;0;();();(-2000.0, -2000.0);
11:46:38:218;11:46:38:085;1448060555.49;(0.3964908838272095, 0.6367296430799696);46.045085907;0.671453375323;11:46:38:218;0;10;-1.5;1;0;0;0;0;1;1;1;1;6;0;0;;0;0;();();(-2000.0, -2000.0);
11:46:38:234;11:46:38:218;1448060555.67;(0.33484318256378176, 0.5881071302625869);18.5610370636;1.0;11:46:38:234;0;0;-1.5;1;0;0;0;0;1;1;1;1;6;0;0;;0;0;();();(-2000.0, -2000.0);
11:46:38:250;11:46:38:218;1448060555.67;(0.33484318256378176, 0.5881071302625869);18.5610370636;1.0;11:46:38:250;0;0;-1.5;1;0;0;0;0;1;1;1;1;6;0;0;;0;0;();();(-2000.0, -2000.0);
11:46:38:284;11:46:38:218;1448060555.67;(0.33484318256378176, 0.5881071302625869);18.5610370636;1.0;11:46:38:284;0;0;-1.5;1;0;0;0;0;1;1;1;1;6;0;0;;0;0;();();(-2000.0, -2000.0);
11:46:38:301;11:46:38:285;1448060555.71;(0, 0);0;0;11:46:38:301;0;5;-1.5;1;0;0;0;0;1;1;1;1;6;0;0;;0;0;();();(-2000.0, -2000.0);
11:46:38:318;11:46:38:285;1448060555.71;(0, 0);0;0;11:46:38:318;0;5;-1.5;1;0;0;0;0;1;1;1;1;6;0;0;;0;0;();();(-2000.0, -2000.0);
11:46:38:334;11:46:38:285;1448060555.71;(0, 0);0;0;11:46:38:334;0;5;-1.5;1;0;0;0;0;1;1;1;1;6;0;0;;0;0;();();(-2000.0, -2000.0);
11:46:38:351;11:46:38:349;1448060555.82;(0.30703914165496826, 0.5825220743815105);25.180480957;0.972556073107;11:46:38:351;0;0;-1.5;1;0;0;0;0;1;1;1;1;6;0;0;;0;0;();();(-2000.0, -2000.0);
11:46:38:384;11:46:38:349;1448060555.82;(0.30703914165496826, 0.5825220743815105);25.180480957;0.972556073107;11:46:38:384;0;15;-0.551612903225806;1;0;0;0;0;1;1;1;1;6;0;0;;0;0;();();(-2000.0, -2000.0);
11:46:38:402;11:46:38:349;1448060555.82;(0.30703914165496826, 0.5825220743815105);25.180480957;0.972556073107;11:46:38:402;0;12;-0.964516129032258;1;0;0;0;0;1;1;1;1;6;0;0;;0;0;();();(-2000.0, -2000.0);
11:46:38:419;11:46:38:349;1448060555.82;(0.30703914165496826, 0.5825220743815105);25.180480957;0.972556073107;11:46:38:419;0;15;-0.7;1;0;0;0;0;1;1;1;1;6;0;0;;0;0;();();(-2000.0, -2000.0);
11:46:38:435;11:46:38:349;1448060555.82;(0.30703914165496826, 0.5825220743815105);25.180480957;0.972556073107;11:46:38:435;0;5;-1.5;1;0;0;0;0;1;1;1;1;6;0;0;;0;0;();();(-2000.0, -2000.0);
11:46:38:451;11:46:38:349;1448060555.82;(0.30703914165496826, 0.5825220743815105);25.180480957;0.972556073107;11:46:38:451;0;10;-1.5;1;0;0;0;0;1;1;1;1;6;0;0;;0;0;();();(-2000.0, -2000.0);
11:46:38:485;11:46:38:349;1448060555.82;(0.30703914165496826, 0.5825220743815105);25.180480957;0.972556073107;11:46:38:485;0;0;0.0709677419354837;1;0;0;0;0;1;1;1;1;6;0;0;;0;0;();();(-2000.0, -2000.0);
11:46:38:501;11:46:38:349;1448060555.82;(0.30703914165496826, 0.5825220743815105);25.180480957;0.972556073107;11:46:38:501;0;0;0.0709677419354837;1;0;0;0;0;1;1;1;1;6;0;0;;0;0;();();(-2000.0, -2000.0);
11:46:38:519;11:46:38:349;1448060555.82;(0.30703914165496826, 0.5825220743815105);25.180480957;0.972556073107;11:46:38:519;0;6;0.170967741935484;1;0;0;0;0;1;1;1;1;6;0;0;;0;0;();();(-2000.0, -2000.0);
11:46:38:534;11:46:38:349;1448060555.82;(0.30703914165496826, 0.5825220743815105);25.180480957;0.972556073107;11:46:38:534;0;15;0.212903225806452;1;0;0;0;0;1;1;1;1;6;0;0;;0;0;();();(-2000.0, -2000.0);
11:46:38:551;11:46:38:549;1448060556.01;(0.3607671022415161, 0.48300323486328123);71.7020111084;0.887168219154;11:46:38:551;0;15;0.461290322580645;1;0;0;0;0;1;1;1;1;6;0;0;;0;0;();();(-2000.0, -2000.0);
11:46:38:585;11:46:38:549;1448060556.01;(0.3607671022415161, 0.48300323486328123);71.7020111084;0.887168219154;11:46:38:585;0;15;1.78064516129032;1;0;0;0;0;1;1;1;1;6;0;0;;0;0;();();(-2000.0, -2000.0);
11:46:38:601;11:46:38:549;1448060556.01;(0.3607671022415161, 0.48300323486328123);71.7020111084;0.887168219154;11:46:38:601;0;5;1.78064516129032;1;0;0;0;0;1;1;1;1;6;0;0;;0;0;();();(-2000.0, -2000.0);
11:46:38:619;11:46:38:617;1448060556.06;(0.36526052951812743, 0.4897849612765842);71.1005706787;0.975215374818;11:46:38:618;0;10;1.78064516129032;1;0;0;0;0;1;1;1;1;6;0;0;;0;0;();();(-2000.0, -2000.0);
11:46:38:635;11:46:38:617;1448060556.06;(0.36526052951812743, 0.4897849612765842);71.1005706787;0.975215374818;11:46:38:635;0;0;1.77741935483871;1;0;0;0;0;1;1;1;1;6;0;0;;0;0;();();(-2000.0, -2000.0);
11:46:38:651;11:46:38:617;1448060556.06;(0.36526052951812743, 0.4897849612765842);71.1005706787;0.975215374818;11:46:38:651;0;11;1.78064516129032;1;0;0;0;0;1;1;1;1;6;0;0;;0;0;();();(-2000.0, -2000.0);
11:46:38:685;11:46:38:681;1448060556.14;(0.3683756351470947, 0.4919869740804036);72.1437454224;0.937599836289;11:46:38:685;0;11;1.77741935483871;1;0;0;0;0;1;1;1;1;6;0;0;;0;0;();();(-2000.0, -2000.0);
11:46:38:701;11:46:38:681;1448060556.14;(0.3683756351470947, 0.4919869740804036);72.1437454224;0.937599836289;11:46:38:701;0;15;1.78064516129032;1;0;0;0;0;1;1;1;1;6;0;0;;0;0;();();(-2000.0, -2000.0);
11:46:38:717;11:46:38:681;1448060556.14;(0.3683756351470947, 0.4919869740804036);72.1437454224;0.937599836289;11:46:38:717;0;10;1.78064516129032;1;0;0;0;0;1;1;1;1;6;0;0;;0;0;();();(-2000.0, -2000.0);
11:46:38:735;11:46:38:681;1448060556.14;(0.3683756351470947, 0.4919869740804036);72.1437454224;0.937599836289;11:46:38:735;0;0;1.77741935483871;1;0;0;0;0;1;1;1;1;6;0;0;;0;0;();();(-2000.0, -2000.0);
11:46:38:751;11:46:38:749;1448060556.23;(0.3698629379272461, 0.4914373609754774);72.2796859741;1.0;11:46:38:751;0;5;1.77741935483871;1;0;0;0;0;1;1;1;1;6;0;0;;0;0;();();(-2000.0, -2000.0);
11:46:38:785;11:46:38:749;1448060556.23;(0.3698629379272461, 0.4914373609754774);72.2796859741;1.0;11:46:38:785;0;5;1.78064516129032;1;0;0;0;0;1;1;1;1;6;0;0;;0;0;();();(-2000.0, -2000.0);
11:46:38:802;11:46:38:749;1448060556.23;(0.3698629379272461, 0.4914373609754774);72.2796859741;1.0;11:46:38:802;0;5;1.78064516129032;1;0;0;0;0;1;1;1;1;6;0;0;;0;0;();();(-2000.0, -2000.0);
11:46:38:819;11:46:38:813;1448060556.29;(0.36958489418029783, 0.48980166117350266);72.377532959;1.0;11:46:38:819;0;6;1.78064516129032;1;0;0;0;0;1;1;1;1;6;0;0;;0;0;();();(-2000.0, -2000.0);
11:46:38:834;11:46:38:813;1448060556.29;(0.36958489418029783, 0.48980166117350266);72.377532959;1.0;11:46:38:834;0;10;1.78064516129032;1;0;0;0;0;1;1;1;1;6;0;0;;0;0;();();(-2000.0, -2000.0);
11:46:38:851;11:46:38:813;1448060556.29;(0.36958489418029783, 0.48980166117350266);72.377532959;1.0;11:46:38:851;0;5;1.77741935483871;1;0;0;0;0;1;1;1;1;6;0;0;;0;0;();();(-2000.0, -2000.0);
11:46:38:885;11:46:38:882;1448060556.33;(0.3579663515090942, 0.4879939609103733);73.8350524902;0.932407676011;11:46:38:885;0;10;1.78064516129032;1;0;0;0;0;1;1;1;1;6;0;0;;0;0;();();(-2000.0, -2000.0);
11:46:38:902;11:46:38:882;1448060556.33;(0.3579663515090942, 0.4879939609103733);73.8350524902;0.932407676011;11:46:38:902;0;10;1.78064516129032;1;0;0;0;0;1;1;1;1;6;0;0;;0;0;();();(-2000.0, -2000.0);
11:46:38:919;11:46:38:882;1448060556.33;(0.3579663515090942, 0.4879939609103733);73.8350524902;0.932407676011;11:46:38:919;0;5;1.79032258064516;1;0;0;0;0;1;1;1;1;6;0;0;;0;0;();();(-2000.0, -2000.0);
11:46:38:934;11:46:38:882;1448060556.33;(0.3579663515090942, 0.4879939609103733);73.8350524902;0.932407676011;11:46:38:934;0;10;1.78064516129032;1;0;0;0;0;1;1;1;1;6;0;0;;0;0;();();(-2000.0, -2000.0);
11:46:38:952;11:46:38:950;1448060556.43;(0.3539480686187744, 0.48739314609103734);72.3064193726;1.0;11:46:38:952;0;5;1.77741935483871;1;0;0;0;0;1;1;1;1;6;0;0;;0;0;();();(-2000.0, -2000.0);
11:46:38:969;11:46:38:950;1448060556.43;(0.3539480686187744, 0.48739314609103734);72.3064193726;1.0;11:46:38:969;0;11;1.79032258064516;1;0;0;0;0;1;1;1;1;6;0;0;;0;0;();();(-2000.0, -2000.0);
11:46:39:001;11:46:38:950;1448060556.43;(0.3539480686187744, 0.48739314609103734);72.3064193726;1.0;11:46:39:001;0;5;1.77741935483871;1;0;0;0;0;1;1;1;1;6;0;0;;0;0;();();(-2000.0, -2000.0);
11:46:39:018;11:46:39:013;1448060556.49;(0.3539972066879272, 0.4843637254503038);72.1173477173;1.0;11:46:39:018;0;0;1.78064516129032;1;0;0;0;0;1;1;1;1;6;0;0;;0;0;();();(-2000.0, -2000.0);
11:46:39:035;11:46:39:013;1448060556.49;(0.3539972066879272, 0.4843637254503038);72.1173477173;1.0;11:46:39:035;0;10;1.78064516129032;1;0;0;0;0;1;1;1;1;6;0;0;;0;0;();();(-2000.0, -2000.0);
11:46:39:051;11:46:39:013;1448060556.49;(0.3539972066879272, 0.4843637254503038);72.1173477173;1.0;11:46:39:051;0;0;1.78064516129032;1;0;0;0;0;1;1;1;1;6;0;0;;0;0;();();(-2000.0, -2000.0);
11:46:39:084;11:46:39:081;1448060556.53;(0.354306960105896, 0.4832332611083985);72.0009078979;1.0;11:46:39:084;0;15;1.78064516129032;1;0;0;0;0;1;1;1;1;6;0;0;;0;0;();();(-2000.0, -2000.0);
11:46:39:102;11:46:39:086;1448060556.56;(0.35459516048431394, 0.48148553636338975);71.9436264038;0.982590526736;11:46:39:102;0;5;1.76129032258065;1;0;0;0;0;1;1;1;1;6;0;0;;0;0;();();(-2000.0, -2000.0);
11:46:39:118;11:46:39:086;1448060556.56;(0.35459516048431394, 0.48148553636338975);71.9436264038;0.982590526736;11:46:39:118;0;0;1.77741935483871;1;0;0;0;0;1;1;1;1;6;0;0;;0;0;();();(-2000.0, -2000.0);
11:46:39:134;11:46:39:086;1448060556.56;(0.35459516048431394, 0.48148553636338975);71.9436264038;0.982590526736;11:46:39:134;0;11;1.77741935483871;1;0;0;0;0;1;1;1;1;6;0;0;;0;0;();();(-2000.0, -2000.0);
11:46:39:152;11:46:39:145;1448060556.63;(0.3542093992233276, 0.47824181450737846);71.7712020874;0.977072928793;11:46:39:152;0;0;-1.5;1;0;0;0;0;1;1;1;1;6;0;0;;0;0;();();(-2000.0, -2000.0);
11:46:39:168;11:46:39:145;1448060556.63;(0.3542093992233276, 0.47824181450737846);71.7712020874;0.977072928793;11:46:39:168;0;5;-1.5;1;0;0;0;0;1;1;1;1;6;0;0;;0;0;();();(-2000.0, -2000.0);
11:46:39:202;11:46:39:145;1448060556.63;(0.3542093992233276, 0.47824181450737846);71.7712020874;0.977072928793;11:46:39:202;0;15;1.77741935483871;1;0;0;0;0;1;1;1;1;6;0;0;;0;0;();();(-2000.0, -2000.0);
11:46:39:218;11:46:39:213;1448060556.66;(0.3541818141937256, 0.4769149356418185);71.4960098267;0.939193147121;11:46:39:218;0;15;1.77741935483871;1;0;0;0;0;1;1;1;1;6;0;0;;0;0;();();(-2000.0, -2000.0);
