%Timestamp,timestamp_write;timestamp_gotpupil;eyetrackertime;norm_pos;diameter;confidence;timestamp_gotbitdata;CRC;SEQ;AnalogOutp1;AnalogOutp2;AnalogOutp3;AnalogOutp4;AnalogOutp5;AnalogOutp6;DigitalOutp1;DigitalOutp2;igitalOutp3;DigitalOutp4;nplanes;lastaction;lastactiondetails;lastactionairplanenumber;positivescore;negativescore;collidedairplanenumbers;targetpositions;collision_point
04:35:39:660;1448034697.7;(0.650736951828003, 0.6187632242838541);66.1458740234;1.0;;;;;;;;;;;;;;0;0;0;;0;0;();();(0.0, 0.0);
04:35:39:665;1448034697.7;(0.650736951828003, 0.6187632242838541);66.1458740234;1.0;;;;;;;;;;;;;;0;0;0;;0;0;();();(-2000.0, -2000.0);
04:35:39:666;1448034697.7;(0.650736951828003, 0.6187632242838541);66.1458740234;1.0;;;;;;;;;;;;;;0;0;0;;0;0;();();(-2000.0, -2000.0);
04:35:39:668;1448034697.7;(0.650736951828003, 0.6187632242838541);66.1458740234;1.0;;;;;;;;;;;;;;0;0;0;;0;0;();();(-2000.0, -2000.0);
04:35:39:670;1448034697.7;(0.650736951828003, 0.6187632242838541);66.1458740234;1.0;;;;;;;;;;;;;;0;0;0;;0;0;();();(-2000.0, -2000.0);
04:35:39:672;1448034697.7;(0.650736951828003, 0.6187632242838541);66.1458740234;1.0;;;;;;;;;;;;;;0;0;0;;0;0;();();(-2000.0, -2000.0);
04:35:39:674;1448034697.7;(0.650736951828003, 0.6187632242838541);66.1458740234;1.0;;;;;;;;;;;;;;0;0;0;;0;0;();();(-2000.0, -2000.0);
04:35:39:675;1448034697.7;(0.650736951828003, 0.6187632242838541);66.1458740234;1.0;;;;;;;;;;;;;;0;0;0;;0;0;();();(-2000.0, -2000.0);
04:35:39:677;1448034697.7;(0.650736951828003, 0.6187632242838541);66.1458740234;1.0;;;;;;;;;;;;;;0;0;0;;0;0;();();(-2000.0, -2000.0);
04:35:39:679;1448034697.7;(0.650736951828003, 0.6187632242838541);66.1458740234;1.0;;;;;;;;;;;;;;0;0;0;;0;0;();();(-2000.0, -2000.0);
04:35:39:681;1448034697.7;(0.650736951828003, 0.6187632242838541);66.1458740234;1.0;;;;;;;;;;;;;;0;0;0;;0;0;();();(-2000.0, -2000.0);
04:35:39:683;1448034697.7;(0.650736951828003, 0.6187632242838541);66.1458740234;1.0;;;;;;;;;;;;;;0;0;0;;0;0;();();(-2000.0, -2000.0);
04:35:39:684;1448034697.7;(0.650736951828003, 0.6187632242838541);66.1458740234;1.0;;;;;;;;;;;;;;0;0;0;;0;0;();();(-2000.0, -2000.0);
04:35:39:686;1448034697.7;(0.650736951828003, 0.6187632242838541);66.1458740234;1.0;;;;;;;;;;;;;;0;0;0;;0;0;();();(-2000.0, -2000.0);
04:35:39:688;1448034697.7;(0.650736951828003, 0.6187632242838541);66.1458740234;1.0;;;;;;;;;;;;;;0;0;0;;0;0;();();(-2000.0, -2000.0);
04:35:39:690;1448034697.7;(0.650736951828003, 0.6187632242838541);66.1458740234;1.0;;;;;;;;;;;;;;0;0;0;;0;0;();();(-2000.0, -2000.0);
04:35:39:703;1448034697.7;(0.650736951828003, 0.6187632242838541);66.1458740234;1.0;;;;;;;;;;;;;;0;0;0;;0;0;();();(-2000.0, -2000.0);
04:35:39:709;04:35:39:705;1448034697.73;(0.6567549705505371, 0.6099886152479383);65.2591934204;1.0;;;;;;;;;;;;;;0;0;0;;0;0;();();(-2000.0, -2000.0);
04:35:39:720;04:35:39:705;1448034697.73;(0.6567549705505371, 0.6099886152479383);65.2591934204;1.0;;;;;;;;;;;;;;0;0;0;;0;0;();();(-2000.0, -2000.0);
04:35:39:736;04:35:39:705;1448034697.73;(0.6567549705505371, 0.6099886152479383);65.2591934204;1.0;;;;;;;;;;;;;;0;0;0;;0;0;();();(-2000.0, -2000.0);
04:35:39:752;04:35:39:748;1448034697.8;(0.656090497970581, 0.6106886969672309);65.2393264771;1.0;;;;;;;;;;;;;;0;0;0;;0;0;();();(-2000.0, -2000.0);
04:35:39:769;04:35:39:748;1448034697.8;(0.656090497970581, 0.6106886969672309);65.2393264771;1.0;;;;;;;;;;;;;;0;0;0;;0;0;();();(-2000.0, -2000.0);
04:35:39:804;04:35:39:789;1448034697.87;(0.6558764457702637, 0.6120878007676867);65.67578125;1.0;;;;;;;;;;;;;;0;0;0;;0;0;();();(-2000.0, -2000.0);
04:35:39:819;04:35:39:789;1448034697.87;(0.6558764457702637, 0.6120878007676867);65.67578125;1.0;;;;;;;;;;;;;;0;0;0;;0;0;();();(-2000.0, -2000.0);
04:35:39:836;04:35:39:832;1448034697.9;(0.6559559345245362, 0.612633302476671);65.7880554199;1.0;;;;;;;;;;;;;;0;0;0;;0;0;();();(-2000.0, -2000.0);
04:35:39:852;04:35:39:832;1448034697.9;(0.6559559345245362, 0.612633302476671);65.7880554199;1.0;;;;;;;;;;;;;;0;0;0;;0;0;();();(-2000.0, -2000.0);
04:35:39:869;04:35:39:832;1448034697.9;(0.6559559345245362, 0.612633302476671);65.7880554199;1.0;;;;;;;;;;;;;;0;0;0;;0;0;();();(-2000.0, -2000.0);
04:35:39:902;04:35:39:872;1448034697.93;(0.6559546947479248, 0.6128077189127604);66.0982589722;1.0;;;;;;;;;;;;;;0;0;0;;0;0;();();(-2000.0, -2000.0);
04:35:39:920;04:35:39:912;1448034697.97;(0.6559796333312988, 0.6139125400119357);66.2741317749;1.0;;;;;;;;;;;;;;0;0;0;;0;0;();();(-2000.0, -2000.0);
04:35:39:935;04:35:39:912;1448034697.97;(0.6559796333312988, 0.6139125400119357);66.2741317749;1.0;;;;;;;;;;;;;;0;0;0;;0;0;();();(-2000.0, -2000.0);
04:35:39:952;04:35:39:912;1448034697.97;(0.6559796333312988, 0.6139125400119357);66.2741317749;1.0;;;;;;;;;;;;;;0;0;0;;0;0;();();(-2000.0, -2000.0);
04:35:39:969;04:35:39:956;1448034698.03;(0.6557027339935303, 0.6146397908528646);66.6810836792;1.0;;;;;;;;;;;;;;0;0;0;;0;0;();();(-2000.0, -2000.0);
04:35:40:002;04:35:39:956;1448034698.03;(0.6557027339935303, 0.6146397908528646);66.6810836792;1.0;;;;;;;;;;;;;;0;0;0;;0;0;();();(-2000.0, -2000.0);
04:35:40:019;04:35:39:956;1448034698.03;(0.6557027339935303, 0.6146397908528646);66.6810836792;1.0;;;;;;;;;;;;;;0;0;0;;0;0;();();(-2000.0, -2000.0);
04:35:40:035;04:35:39:956;1448034698.03;(0.6557027339935303, 0.6146397908528646);66.6810836792;1.0;;;;;;;;;;;;;;0;0;0;;0;0;();();(-2000.0, -2000.0);
04:35:40:052;04:35:40:036;1448034698.07;(0.6380140781402588, 0.6608757442898221);73.0008163452;0.637459041038;;;;;;;;;;;;;;0;0;0;;0;0;();();(-2000.0, -2000.0);
04:35:40:069;04:35:40:036;1448034698.07;(0.6380140781402588, 0.6608757442898221);73.0008163452;0.637459041038;;;;;;;;;;;;;;0;0;0;;0;0;();();(-2000.0, -2000.0);
04:35:40:101;04:35:40:080;1448034698.11;(0.640816593170166, 0.6690880669487846);68.4391860962;1.0;;;;;;;;;;;;;;0;0;0;;0;0;();();(-2000.0, -2000.0);
04:35:40:118;04:35:40:080;1448034698.11;(0.640816593170166, 0.6690880669487846);68.4391860962;1.0;;;;;;;;;;;;;;0;0;0;;0;0;();();(-2000.0, -2000.0);
04:35:40:135;04:35:40:122;1448034698.2;(0.6412363529205323, 0.6694622039794922);69.5772476196;1.0;;;;;;;;;;;;;;0;0;0;;0;0;();();(-2000.0, -2000.0);
04:35:40:151;04:35:40:122;1448034698.2;(0.6412363529205323, 0.6694622039794922);69.5772476196;1.0;;;;;;;;;;;;;;0;0;0;;0;0;();();(-2000.0, -2000.0);
04:35:40:168;04:35:40:166;1448034698.23;(0.6410539627075196, 0.6681533813476562);69.6137008667;1.0;;;;;;;;;;;;;;0;0;0;;0;0;();();(-2000.0, -2000.0);
04:35:40:201;04:35:40:166;1448034698.23;(0.6410539627075196, 0.6681533813476562);69.6137008667;1.0;;;;;;;;;;;;;;0;0;0;;0;0;();();(-2000.0, -2000.0);
04:35:40:218;04:35:40:166;1448034698.23;(0.6410539627075196, 0.6681533813476562);69.6137008667;1.0;;;;;;;;;;;;;;0;0;0;;0;0;();();(-2000.0, -2000.0);
04:35:40:234;04:35:40:166;1448034698.23;(0.6410539627075196, 0.6681533813476562);69.6137008667;1.0;;;;;;;;;;;;;;0;0;0;;0;0;();();(-2000.0, -2000.0);
04:35:40:250;04:35:40:166;1448034698.23;(0.6410539627075196, 0.6681533813476562);69.6137008667;1.0;;;;;;;;;;;;;;0;0;0;;0;0;();();(-2000.0, -2000.0);
04:35:40:284;04:35:40:166;1448034698.23;(0.6410539627075196, 0.6681533813476562);69.6137008667;1.0;;;;;;;;;;;;;;0;0;0;;0;0;();();(-2000.0, -2000.0);
04:35:40:300;04:35:40:289;1448034698.33;(0.635360860824585, 0.5863069746229383);67.751411438;0.987373560814;;;;;;;;;;;;;;0;0;0;;0;0;();();(-2000.0, -2000.0);
04:35:40:316;04:35:40:289;1448034698.33;(0.635360860824585, 0.5863069746229383);67.751411438;0.987373560814;;;;;;;;;;;;;;0;0;0;;0;0;();();(-2000.0, -2000.0);
04:35:40:334;04:35:40:329;1448034698.37;(0.6352540493011475, 0.5868054707845052);68.0285644531;0.937506209258;;;;;;;;;;;;;;0;0;0;;0;0;();();(-2000.0, -2000.0);
04:35:40:350;04:35:40:329;1448034698.37;(0.6352540493011475, 0.5868054707845052);68.0285644531;0.937506209258;;;;;;;;;;;;;;0;0;0;;0;0;();();(-2000.0, -2000.0);
04:35:40:383;04:35:40:368;1448034698.43;(0.6348411560058593, 0.5881663852267796);67.5302276611;1.0;;;;;;;;;;;;;;0;0;0;;0;0;();();(-2000.0, -2000.0);
04:35:40:399;04:35:40:368;1448034698.43;(0.6348411560058593, 0.5881663852267796);67.5302276611;1.0;;;;;;;;;;;;;;0;0;0;;0;0;();();(-2000.0, -2000.0);
04:35:40:417;04:35:40:368;1448034698.43;(0.6348411560058593, 0.5881663852267796);67.5302276611;1.0;;;;;;;;;;;;;;0;0;0;;0;0;();();(-2000.0, -2000.0);
04:35:40:432;04:35:40:417;1448034698.47;(0.6347902297973633, 0.5888650682237413);67.8405761719;1.0;;;;;;;;;;;;;;0;0;0;;0;0;();();(-2000.0, -2000.0);
04:35:40:449;04:35:40:417;1448034698.47;(0.6347902297973633, 0.5888650682237413);67.8405761719;1.0;;;;;;;;;;;;;;0;0;0;;0;0;();();(-2000.0, -2000.0);
04:35:40:482;04:35:40:454;1448034698.5;(0.6345181465148926, 0.5897528330485027);67.6748123169;1.0;;;;;;;;;;;;;;0;0;0;;0;0;();();(-2000.0, -2000.0);
04:35:40:499;04:35:40:493;1448034698.57;(0.634483814239502, 0.5904500325520834);67.5149307251;1.0;;;;;;;;;;;;;;0;0;0;;0;0;();();(-2000.0, -2000.0);
04:35:40:516;04:35:40:493;1448034698.57;(0.634483814239502, 0.5904500325520834);67.5149307251;1.0;;;;;;;;;;;;;;0;0;0;;0;0;();();(-2000.0, -2000.0);
04:35:40:532;04:35:40:493;1448034698.57;(0.634483814239502, 0.5904500325520834);67.5149307251;1.0;;;;;;;;;;;;;;0;0;0;;0;0;();();(-2000.0, -2000.0);
04:35:40:549;04:35:40:493;1448034698.57;(0.634483814239502, 0.5904500325520834);67.5149307251;1.0;;;;;;;;;;;;;;0;0;0;;0;0;();();(-2000.0, -2000.0);
04:35:40:582;04:35:40:493;1448034698.57;(0.634483814239502, 0.5904500325520834);67.5149307251;1.0;;;;;;;;;;;;;;0;0;0;;0;0;();();(-2000.0, -2000.0);
04:35:40:598;04:35:40:493;1448034698.57;(0.634483814239502, 0.5904500325520834);67.5149307251;1.0;;;;;;;;;;;;;;0;0;0;;0;0;();();(-2000.0, -2000.0);
04:35:40:615;04:35:40:493;1448034698.57;(0.634483814239502, 0.5904500325520834);67.5149307251;1.0;;;;;;;;;;;;;;0;0;0;;0;0;();();(-2000.0, -2000.0);
04:35:40:631;04:35:40:493;1448034698.57;(0.634483814239502, 0.5904500325520834);67.5149307251;1.0;;;;;;;;;;;;;;0;0;0;;0;0;();();(-2000.0, -2000.0);
04:35:40:649;04:35:40:493;1448034698.57;(0.634483814239502, 0.5904500325520834);67.5149307251;1.0;;;;;;;;;;;;;;0;0;0;;0;0;();();(-2000.0, -2000.0);
04:35:40:682;04:35:40:662;1448034698.6;(0.6447021007537842, 0.5767301347520617);67.3157730103;0.758208713407;;;;;;;;;;;;;;0;0;0;;0;0;();();(-2000.0, -2000.0);
04:35:40:697;04:35:40:662;1448034698.6;(0.6447021007537842, 0.5767301347520617);67.3157730103;0.758208713407;;;;;;;;;;;;;;0;0;0;;0;0;();();(-2000.0, -2000.0);
04:35:40:714;04:35:40:662;1448034698.6;(0.6447021007537842, 0.5767301347520617);67.3157730103;0.758208713407;;;;;;;;;;;;;;0;0;0;;0;0;();();(-2000.0, -2000.0);
04:35:40:731;04:35:40:662;1448034698.6;(0.6447021007537842, 0.5767301347520617);67.3157730103;0.758208713407;;;;;;;;;;;;;;0;0;0;;0;0;();();(-2000.0, -2000.0);
04:35:40:748;04:35:40:662;1448034698.6;(0.6447021007537842, 0.5767301347520617);67.3157730103;0.758208713407;;;;;;;;;;;;;;0;0;0;;0;0;();();(-2000.0, -2000.0);
04:35:40:781;04:35:40:662;1448034698.6;(0.6447021007537842, 0.5767301347520617);67.3157730103;0.758208713407;;;;;;;;;;;;;;0;0;0;;0;0;();();(-2000.0, -2000.0);
04:35:40:798;04:35:40:662;1448034698.6;(0.6447021007537842, 0.5767301347520617);67.3157730103;0.758208713407;;;;;;;;;;;;;;0;0;0;;0;0;();();(-2000.0, -2000.0);
04:35:40:814;04:35:40:662;1448034698.6;(0.6447021007537842, 0.5767301347520617);67.3157730103;0.758208713407;;;;;;;;;;;;;;0;0;0;;0;0;();();(-2000.0, -2000.0);
04:35:40:830;04:35:40:662;1448034698.6;(0.6447021007537842, 0.5767301347520617);67.3157730103;0.758208713407;;;;;;;;;;;;;;0;0;0;;0;0;();();(-2000.0, -2000.0);
04:35:40:848;04:35:40:662;1448034698.6;(0.6447021007537842, 0.5767301347520617);67.3157730103;0.758208713407;;;;;;;;;;;;;;0;0;0;;0;0;();();(-2000.0, -2000.0);
04:35:40:881;04:35:40:869;1448034698.93;(0.6477065086364746, 0.5808407253689236);65.2975997925;1.0;;;;;;;;;;;;;;0;0;0;;0;0;();();(-2000.0, -2000.0);
04:35:40:897;04:35:40:869;1448034698.93;(0.6477065086364746, 0.5808407253689236);65.2975997925;1.0;;;;;;;;;;;;;;0;0;0;;0;0;();();(-2000.0, -2000.0);
04:35:40:913;04:35:40:908;1448034698.97;(0.6474809169769287, 0.5826043870713975);65.3958206177;1.0;;;;;;;;;;;;;;0;0;0;;0;0;();();(-2000.0, -2000.0);
04:35:40:930;04:35:40:908;1448034698.97;(0.6474809169769287, 0.5826043870713975);65.3958206177;1.0;;;;;;;;;;;;;;0;0;0;;0;0;();();(-2000.0, -2000.0);
04:35:40:963;04:35:40:952;1448034699.0;(0.3415528774261475, 0.6810980055067275);23.162815094;0.941897160739;;;;;;;;;;;;;;0;0;0;;0;0;();();(-2000.0, -2000.0);
04:35:40:980;04:35:40:952;1448034699.0;(0.3415528774261475, 0.6810980055067275);23.162815094;0.941897160739;;;;;;;;;;;;;;0;0;0;;0;0;();();(-2000.0, -2000.0);
04:35:40:997;04:35:40:992;1448034699.03;(0.6270918369293212, 0.6043037838406033);66.3051757812;1.0;;;;;;;;;;;;;;0;0;0;;0;0;();();(-2000.0, -2000.0);
04:35:41:012;04:35:40:992;1448034699.03;(0.6270918369293212, 0.6043037838406033);66.3051757812;1.0;;;;;;;;;;;;;;0;0;0;;0;0;();();(-2000.0, -2000.0);
04:35:41:029;04:35:40:992;1448034699.03;(0.6270918369293212, 0.6043037838406033);66.3051757812;1.0;;;;;;;;;;;;;;0;0;0;;0;0;();();(-2000.0, -2000.0);
04:35:41:062;04:35:41:036;1448034699.1;(0.6271560192108154, 0.60634396870931);66.408996582;1.0;;;;;;;;;;;;;;0;0;0;;0;0;();();(-2000.0, -2000.0);
04:35:41:079;04:35:41:076;1448034699.13;(0.6272449970245362, 0.6071161482069227);66.5688400269;1.0;;;;;;;;;;;;;;0;0;0;;0;0;();();(-2000.0, -2000.0);
04:35:41:096;04:35:41:076;1448034699.13;(0.6272449970245362, 0.6071161482069227);66.5688400269;1.0;;;;;;;;;;;;;;0;0;0;;0;0;();();(-2000.0, -2000.0);
04:35:41:112;04:35:41:076;1448034699.13;(0.6272449970245362, 0.6071161482069227);66.5688400269;1.0;;;;;;;;;;;;;;0;0;0;;0;0;();();(-2000.0, -2000.0);
04:35:41:129;04:35:41:116;1448034699.17;(0.6274088859558106, 0.6076873779296875);67.116104126;1.0;;;;;;;;;;;;;;0;0;0;;0;0;();();(-2000.0, -2000.0);
04:35:41:162;04:35:41:156;1448034699.2;(0.627406120300293, 0.6091743045383029);67.5587310791;1.0;;;;;;;;;;;;;;0;0;0;;0;0;();();(-2000.0, -2000.0);
04:35:41:179;04:35:41:156;1448034699.2;(0.627406120300293, 0.6091743045383029);67.5587310791;1.0;;;;;;;;;;;;;;0;0;0;;0;0;();();(-2000.0, -2000.0);
04:35:41:195;04:35:41:156;1448034699.2;(0.627406120300293, 0.6091743045383029);67.5587310791;1.0;;;;;;;;;;;;;;0;0;0;;0;0;();();(-2000.0, -2000.0);
04:35:41:211;04:35:41:201;1448034699.27;(0.627979850769043, 0.6110197279188367);67.3675765991;1.0;;;;;;;;;;;;;;0;0;0;;0;0;();();(-2000.0, -2000.0);
04:35:41:228;04:35:41:201;1448034699.27;(0.627979850769043, 0.6110197279188367);67.3675765991;1.0;;;;;;;;;;;;;;0;0;0;;0;0;();();(-2000.0, -2000.0);
04:35:41:261;04:35:41:241;1448034699.3;(0.6280787467956543, 0.6111655341254341);67.3276824951;1.0;;;;;;;;;;;;;;0;0;0;;0;0;();();(-2000.0, -2000.0);
04:35:41:278;04:35:41:241;1448034699.3;(0.6280787467956543, 0.6111655341254341);67.3276824951;1.0;;;;;;;;;;;;;;0;0;0;;0;0;();();(-2000.0, -2000.0);
04:35:41:294;04:35:41:241;1448034699.3;(0.6280787467956543, 0.6111655341254341);67.3276824951;1.0;;;;;;;;;;;;;;0;0;0;;0;0;();();(-2000.0, -2000.0);
04:35:41:311;04:35:41:241;1448034699.3;(0.6280787467956543, 0.6111655341254341);67.3276824951;1.0;;;;;;;;;;;;;;0;0;0;;0;0;();();(-2000.0, -2000.0);
04:35:41:328;04:35:41:241;1448034699.3;(0.6280787467956543, 0.6111655341254341);67.3276824951;1.0;;;;;;;;;;;;;;0;0;0;;0;0;();();(-2000.0, -2000.0);
04:35:41:361;04:35:41:241;1448034699.3;(0.6280787467956543, 0.6111655341254341);67.3276824951;1.0;;;;;;;;;;;;;;0;0;0;;0;0;();();(-2000.0, -2000.0);
04:35:41:378;04:35:41:241;1448034699.3;(0.6280787467956543, 0.6111655341254341);67.3276824951;1.0;;;;;;;;;;;;;;0;0;0;;0;0;();();(-2000.0, -2000.0);
04:35:41:393;04:35:41:241;1448034699.3;(0.6280787467956543, 0.6111655341254341);67.3276824951;1.0;;;;;;;;;;;;;;0;0;0;;0;0;();();(-2000.0, -2000.0);
04:35:41:411;04:35:41:409;1448034699.33;(0.4743549346923828, 0.8190459145439996);26.2770881653;0.859944140181;;;;;;;;;;;;;;0;0;0;;0;0;();();(-2000.0, -2000.0);
04:35:41:443;04:35:41:409;1448034699.33;(0.4743549346923828, 0.8190459145439996);26.2770881653;0.859944140181;;;;;;;;;;;;;;0;0;0;;0;0;();();(-2000.0, -2000.0);
04:35:41:460;04:35:41:450;1448034699.51;(0.6072252273559571, 0.6341673109266492);67.2100524902;1.0;;;;;;;;;;;;;;0;0;0;;0;0;();();(-2000.0, -2000.0);
04:35:41:477;04:35:41:450;1448034699.51;(0.6072252273559571, 0.6341673109266492);67.2100524902;1.0;;;;;;;;;;;;;;0;0;0;;0;0;();();(-2000.0, -2000.0);
04:35:41:493;04:35:41:489;1448034699.53;(0.6068362712860107, 0.6348720126681857);66.9474258423;1.0;;;;;;;;;;;;;;0;0;0;;0;0;();();(-2000.0, -2000.0);
04:35:41:509;04:35:41:489;1448034699.53;(0.6068362712860107, 0.6348720126681857);66.9474258423;1.0;;;;;;;;;;;;;;0;0;0;;0;0;();();(-2000.0, -2000.0);
04:35:41:542;04:35:41:533;1448034699.6;(0.6072687149047852, 0.6360308329264324);66.8274536133;1.0;;;;;;;;;;;;;;0;0;0;;0;0;();();(-2000.0, -2000.0);
04:35:41:560;04:35:41:533;1448034699.6;(0.6072687149047852, 0.6360308329264324);66.8274536133;1.0;;;;;;;;;;;;;;0;0;0;;0;0;();();(-2000.0, -2000.0);
04:35:41:576;04:35:41:533;1448034699.6;(0.6072687149047852, 0.6360308329264324);66.8274536133;1.0;;;;;;;;;;;;;;0;0;0;;0;0;();();(-2000.0, -2000.0);
04:35:41:593;04:35:41:533;1448034699.6;(0.6072687149047852, 0.6360308329264324);66.8274536133;1.0;;;;;;;;;;;;;;0;0;0;;0;0;();();(-2000.0, -2000.0);
04:35:41:609;04:35:41:533;1448034699.6;(0.6072687149047852, 0.6360308329264324);66.8274536133;1.0;;;;;;;;;;;;;;0;0;0;;0;0;();();(-2000.0, -2000.0);
04:35:41:642;04:35:41:612;1448034699.67;(0.6075202465057373, 0.6377037048339844);67.061706543;1.0;;;;;;;;;;;;;;0;0;0;;0;0;();();(-2000.0, -2000.0);
04:35:41:659;04:35:41:657;1448034699.7;(0.6075565814971924, 0.6384410858154297);67.023109436;1.0;;;;;;;;;;;;;;0;0;0;;0;0;();();(-2000.0, -2000.0);
04:35:41:675;04:35:41:657;1448034699.7;(0.6075565814971924, 0.6384410858154297);67.023109436;1.0;;;;;;;;;;;;;;0;0;0;;0;0;();();(-2000.0, -2000.0);
04:35:41:692;04:35:41:657;1448034699.7;(0.6075565814971924, 0.6384410858154297);67.023109436;1.0;;;;;;;;;;;;;;0;0;0;;0;0;();();(-2000.0, -2000.0);
04:35:41:709;04:35:41:657;1448034699.7;(0.6075565814971924, 0.6384410858154297);67.023109436;1.0;;;;;;;;;;;;;;0;0;0;;0;0;();();(-2000.0, -2000.0);
04:35:41:741;04:35:41:657;1448034699.7;(0.6075565814971924, 0.6384410858154297);67.023109436;1.0;;;;;;;;;;;;;;0;0;0;;0;0;();();(-2000.0, -2000.0);
04:35:41:759;04:35:41:657;1448034699.7;(0.6075565814971924, 0.6384410858154297);67.023109436;1.0;;;;;;;;;;;;;;0;0;0;;0;0;();();(-2000.0, -2000.0);
04:35:41:774;04:35:41:657;1448034699.7;(0.6075565814971924, 0.6384410858154297);67.023109436;1.0;;;;;;;;;;;;;;0;0;0;;0;0;();();(-2000.0, -2000.0);
04:35:41:791;04:35:41:657;1448034699.7;(0.6075565814971924, 0.6384410858154297);67.023109436;1.0;;;;;;;;;;;;;;0;0;0;;0;0;();();(-2000.0, -2000.0);
04:35:41:808;04:35:41:798;1448034699.73;(0.6042355537414551, 0.6408470577663845);67.484413147;1.0;;;;;;;;;;;;;;0;0;0;;0;0;();();(-2000.0, -2000.0);
04:35:41:841;04:35:41:821;1448034699.9;(0.6044981002807617, 0.6431969960530599);67.2576904297;1.0;;;;;;;;;;;;;;0;0;0;;0;0;();();(-2000.0, -2000.0);
04:35:41:858;04:35:41:821;1448034699.9;(0.6044981002807617, 0.6431969960530599);67.2576904297;1.0;;;;;;;;;;;;;;0;0;0;;0;0;();();(-2000.0, -2000.0);
04:35:41:874;04:35:41:865;1448034699.93;(0.6043671131134033, 0.6438988791571723);67.0219650269;1.0;;;;;;;;;;;;;;0;0;0;;0;0;();();(-2000.0, -2000.0);
04:35:41:890;04:35:41:865;1448034699.93;(0.6043671131134033, 0.6438988791571723);67.0219650269;1.0;;;;;;;;;;;;;;0;0;0;;0;0;();();(-2000.0, -2000.0);
04:35:41:907;04:35:41:905;1448034699.97;(0.6046399593353271, 0.6441397137112088);67.0848846436;1.0;;;;;;;;;;;;;;0;0;0;;0;0;();();(-2000.0, -2000.0);
04:35:41:940;04:35:41:905;1448034699.97;(0.6046399593353271, 0.6441397137112088);67.0848846436;1.0;;;;;;;;;;;;;;0;0;0;;0;0;();();(-2000.0, -2000.0);
04:35:41:957;04:35:41:944;1448034700.0;(0.6045092582702637, 0.644577874077691);67.2179794312;1.0;;;;;;;;;;;;;;0;0;0;;0;0;();();(-2000.0, -2000.0);
04:35:41:973;04:35:41:944;1448034700.0;(0.6045092582702637, 0.644577874077691);67.2179794312;1.0;;;;;;;;;;;;;;0;0;0;;0;0;();();(-2000.0, -2000.0);
04:35:41:990;04:35:41:988;1448034700.03;(0.6048720836639404, 0.6450728946261935);67.2998046875;1.0;;;;;;;;;;;;;;0;0;0;;0;0;();();(-2000.0, -2000.0);
04:35:42:022;04:35:41:988;1448034700.03;(0.6048720836639404, 0.6450728946261935);67.2998046875;1.0;;;;;;;;;;;;;;0;0;0;;0;0;();();(-2000.0, -2000.0);
04:35:42:040;04:35:42:040;1448034700.1;(0.6048271656036377, 0.645672607421875);67.6412582397;1.0;;;;;;;;;;;;;;0;0;0;;0;0;();();(-2000.0, -2000.0);
04:35:42:057;04:35:42:040;1448034700.1;(0.6048271656036377, 0.645672607421875);67.6412582397;1.0;;;;;;;;;;;;;;0;0;0;;0;0;();();(-2000.0, -2000.0);
04:35:42:074;04:35:42:040;1448034700.1;(0.6048271656036377, 0.645672607421875);67.6412582397;1.0;;;;;;;;;;;;;;0;0;0;;0;0;();();(-2000.0, -2000.0);
04:35:42:090;04:35:42:075;1448034700.13;(0.6046583175659179, 0.6461006376478406);67.451423645;1.0;;;;;;;;;;;;;;0;0;0;;0;0;();();(-2000.0, -2000.0);
04:35:42:122;04:35:42:119;1448034700.17;(0.6045007705688477, 0.6464016596476236);67.5618362427;1.0;;;;;;;;;;;;;;0;0;0;;0;0;();();(-2000.0, -2000.0);
04:35:42:139;04:35:42:119;1448034700.17;(0.6045007705688477, 0.6464016596476236);67.5618362427;1.0;;;;;;;;;;;;;;0;0;0;;0;0;();();(-2000.0, -2000.0);
04:35:42:156;04:35:42:119;1448034700.17;(0.6045007705688477, 0.6464016596476236);67.5618362427;1.0;;;;;;;;;;;;;;0;0;0;;0;0;();();(-2000.0, -2000.0);
04:35:42:172;04:35:42:119;1448034700.17;(0.6045007705688477, 0.6464016596476236);67.5618362427;1.0;;;;;;;;;;;;;;0;0;0;;0;0;();();(-2000.0, -2000.0);
04:35:42:188;04:35:42:119;1448034700.17;(0.6045007705688477, 0.6464016596476236);67.5618362427;1.0;;;;;;;;;;;;;;0;0;0;;0;0;();();(-2000.0, -2000.0);
04:35:42:222;04:35:42:119;1448034700.17;(0.6045007705688477, 0.6464016596476236);67.5618362427;1.0;;;;;;;;;;;;;;0;0;0;;0;0;();();(-2000.0, -2000.0);
04:35:42:239;04:35:42:119;1448034700.17;(0.6045007705688477, 0.6464016596476236);67.5618362427;1.0;;;;;;;;;;;;;;0;0;0;;0;0;();();(-2000.0, -2000.0);
04:35:42:255;04:35:42:119;1448034700.17;(0.6045007705688477, 0.6464016596476236);67.5618362427;1.0;;;;;;;;;;;;;;0;0;0;;0;0;();();(-2000.0, -2000.0);
04:35:42:272;04:35:42:119;1448034700.17;(0.6045007705688477, 0.6464016596476236);67.5618362427;1.0;;;;;;;;;;;;;;0;0;0;;0;0;();();(-2000.0, -2000.0);
04:35:42:288;04:35:42:119;1448034700.17;(0.6045007705688477, 0.6464016596476236);67.5618362427;1.0;;;;;;;;;;;;;;0;0;0;;0;0;();();(-2000.0, -2000.0);
04:35:42:322;04:35:42:321;1448034700.38;(0.7658782005310059, 0.900826178656684);22.6102561951;0.952969099443;;;;;;;;;;;;;;0;0;0;;0;0;();();(-2000.0, -2000.0);
04:35:42:337;04:35:42:321;1448034700.38;(0.7658782005310059, 0.900826178656684);22.6102561951;0.952969099443;;;;;;;;;;;;;;0;0;0;;0;0;();();(-2000.0, -2000.0);
04:35:42:354;04:35:42:321;1448034700.38;(0.7658782005310059, 0.900826178656684);22.6102561951;0.952969099443;;;;;;;;;;;;;;0;0;0;;0;0;();();(-2000.0, -2000.0);
04:35:42:371;04:35:42:361;1448034700.43;(0.7655761241912842, 0.9002685864766439);23.1741065979;0.943454165913;;;;;;;;;;;;;;0;0;0;;0;0;();();(-2000.0, -2000.0);
04:35:42:388;04:35:42:361;1448034700.43;(0.7655761241912842, 0.9002685864766439);23.1741065979;0.943454165913;;;;;;;;;;;;;;0;0;0;;0;0;();();(-2000.0, -2000.0);
04:35:42:420;04:35:42:400;1448034700.47;(0.7653526306152344, 0.8996389389038086);24.7076396942;0.896763453924;;;;;;;;;;;;;;0;0;0;;0;0;();();(-2000.0, -2000.0);
04:35:42:437;04:35:42:400;1448034700.47;(0.7653526306152344, 0.8996389389038086);24.7076396942;0.896763453924;;;;;;;;;;;;;;0;0;0;;0;0;();();(-2000.0, -2000.0);
04:35:42:454;04:35:42:445;1448034700.5;(0.7655474185943604, 0.9017353057861328);25.5716056824;0.873834121156;;;;;;;;;;;;;;0;0;0;;0;0;();();(-2000.0, -2000.0);
04:35:42:470;04:35:42:445;1448034700.5;(0.7655474185943604, 0.9017353057861328);25.5716056824;0.873834121156;;;;;;;;;;;;;;0;0;0;;0;0;();();(-2000.0, -2000.0);
04:35:42:504;04:35:42:445;1448034700.5;(0.7655474185943604, 0.9017353057861328);25.5716056824;0.873834121156;;;;;;;;;;;;;;0;0;0;;0;0;();();(-2000.0, -2000.0);
04:35:42:520;04:35:42:445;1448034700.5;(0.7655474185943604, 0.9017353057861328);25.5716056824;0.873834121156;;;;;;;;;;;;;;0;0;0;;0;0;();();(-2000.0, -2000.0);
04:35:42:536;04:35:42:445;1448034700.5;(0.7655474185943604, 0.9017353057861328);25.5716056824;0.873834121156;;;;;;;;;;;;;;0;0;0;;0;0;();();(-2000.0, -2000.0);
04:35:42:553;04:35:42:445;1448034700.5;(0.7655474185943604, 0.9017353057861328);25.5716056824;0.873834121156;;;;;;;;;;;;;;0;0;0;;0;0;();();(-2000.0, -2000.0);
04:35:42:570;04:35:42:445;1448034700.5;(0.7655474185943604, 0.9017353057861328);25.5716056824;0.873834121156;;;;;;;;;;;;;;0;0;0;;0;0;();();(-2000.0, -2000.0);
04:35:42:603;04:35:42:445;1448034700.5;(0.7655474185943604, 0.9017353057861328);25.5716056824;0.873834121156;;;;;;;;;;;;;;0;0;0;;0;0;();();(-2000.0, -2000.0);
04:35:42:620;04:35:42:445;1448034700.5;(0.7655474185943604, 0.9017353057861328);25.5716056824;0.873834121156;;;;;;;;;;;;;;0;0;0;;0;0;();();(-2000.0, -2000.0);
04:35:42:636;04:35:42:445;1448034700.5;(0.7655474185943604, 0.9017353057861328);25.5716056824;0.873834121156;;;;;;;;;;;;;;0;0;0;;0;0;();();(-2000.0, -2000.0);
04:35:42:653;04:35:42:445;1448034700.5;(0.7655474185943604, 0.9017353057861328);25.5716056824;0.873834121156;;;;;;;;;;;;;;0;0;0;;0;0;();();(-2000.0, -2000.0);
04:35:42:669;04:35:42:445;1448034700.5;(0.7655474185943604, 0.9017353057861328);25.5716056824;0.873834121156;;;;;;;;;;;;;;0;0;0;;0;0;();();(-2000.0, -2000.0);
04:35:42:703;04:35:42:445;1448034700.5;(0.7655474185943604, 0.9017353057861328);25.5716056824;0.873834121156;;;;;;;;;;;;;;0;0;0;;0;0;();();(-2000.0, -2000.0);
04:35:42:719;04:35:42:703;1448034700.75;(0.3470799684524536, 0.7275959650675456);27.2299518585;0.87449921126;;;;;;;;;;;;;;0;0;0;;0;0;();();(-2000.0, -2000.0);
04:35:42:735;04:35:42:703;1448034700.75;(0.3470799684524536, 0.7275959650675456);27.2299518585;0.87449921126;;;;;;;;;;;;;;0;0;0;;0;0;();();(-2000.0, -2000.0);
04:35:42:752;04:35:42:739;1448034700.8;(0.34813461303710935, 0.727958721584744);27.7255249023;0.924580227894;;;;;;;;;;;;;;0;0;0;;0;0;();();(-2000.0, -2000.0);
04:35:42:769;04:35:42:739;1448034700.8;(0.34813461303710935, 0.727958721584744);27.7255249023;0.924580227894;;;;;;;;;;;;;;0;0;0;;0;0;();();(-2000.0, -2000.0);
04:35:42:801;04:35:42:776;1448034700.83;(0.3476765871047974, 0.7282618840535482);27.6507511139;0.99636773376;;;;;;;;;;;;;;0;0;0;;0;0;();();(-2000.0, -2000.0);
04:35:42:819;04:35:42:816;1448034700.87;(0.34794039726257325, 0.7287041558159721);28.6998500824;0.999392017639;;;;;;;;;;;;;;0;0;0;;0;0;();();(-2000.0, -2000.0);
04:35:42:836;04:35:42:816;1448034700.87;(0.34794039726257325, 0.7287041558159721);28.6998500824;0.999392017639;;;;;;;;;;;;;;0;0;0;;0;0;();();(-2000.0, -2000.0);
04:35:42:852;04:35:42:816;1448034700.87;(0.34794039726257325, 0.7287041558159721);28.6998500824;0.999392017639;;;;;;;;;;;;;;0;0;0;;0;0;();();(-2000.0, -2000.0);
04:35:42:868;04:35:42:860;1448034700.93;(0.3482311725616455, 0.7303369522094727);28.6753520966;0.939251127204;;;;;;;;;;;;;;0;0;0;;0;0;();();(-2000.0, -2000.0);
04:35:42:901;04:35:42:901;1448034700.97;(0.3488080739974976, 0.7307058970133464);28.7038078308;0.829526858783;;;;;;;;;;;;;;0;0;0;;0;0;();();(-2000.0, -2000.0);
04:35:42:918;04:35:42:901;1448034700.97;(0.3488080739974976, 0.7307058970133464);28.7038078308;0.829526858783;;;;;;;;;;;;;;0;0;0;;0;0;();();(-2000.0, -2000.0);
04:35:42:935;04:35:42:901;1448034700.97;(0.3488080739974976, 0.7307058970133464);28.7038078308;0.829526858783;;;;;;;;;;;;;;0;0;0;;0;0;();();(-2000.0, -2000.0);
04:35:42:950;04:35:42:940;1448034701.0;(0.3479566812515259, 0.7317564434475369);29.0583000183;0.875165494393;;;;;;;;;;;;;;0;0;0;;0;0;();();(-2000.0, -2000.0);
04:35:42:967;04:35:42:940;1448034701.0;(0.3479566812515259, 0.7317564434475369);29.0583000183;0.875165494393;;;;;;;;;;;;;;0;0;0;;0;0;();();(-2000.0, -2000.0);
04:35:43:015;04:35:42:985;1448034701.03;(0.34783058166503905, 0.7322985543145073);29.0626010895;0.910788197932;;;;;;;;;;;;;;2;0;0;;0;0;();();(-2000.0, -2000.0);
04:35:43:026;04:35:43:024;1448034701.07;(0.34754581451416017, 0.7317461649576823);28.3860569;0.89888069325;;;;;;;;;;;;;;2;0;0;;0;0;();();(-2000.0, -2000.0);
04:35:43:042;04:35:43:024;1448034701.07;(0.34754581451416017, 0.7317461649576823);28.3860569;0.89888069325;;;;;;;;;;;;;;2;0;0;;0;0;();();(-2000.0, -2000.0);
04:35:43:059;04:35:43:024;1448034701.07;(0.34754581451416017, 0.7317461649576823);28.3860569;0.89888069325;;;;;;;;;;;;;;2;0;0;;0;0;();();(-2000.0, -2000.0);
04:35:43:076;04:35:43:064;1448034701.1;(0.6058073997497558, 0.6529128816392686);68.3737335205;1.0;;;;;;;;;;;;;;2;0;0;;0;0;();();(-2000.0, -2000.0);
04:35:43:093;04:35:43:064;1448034701.1;(0.6058073997497558, 0.6529128816392686);68.3737335205;1.0;;;;;;;;;;;;;;2;0;0;;0;0;();();(-2000.0, -2000.0);
04:35:43:108;04:35:43:064;1448034701.1;(0.6058073997497558, 0.6529128816392686);68.3737335205;1.0;;;;;;;;;;;;;;2;0;0;;0;0;();();(-2000.0, -2000.0);
04:35:43:141;04:35:43:121;1448034701.17;(0.6058077335357666, 0.6549165725708008);68.8626022339;1.0;;;;;;;;;;;;;;2;0;0;;0;0;();();(-2000.0, -2000.0);
04:35:43:159;04:35:43:148;1448034701.2;(0.6057298660278321, 0.6561012268066406);68.8894195557;1.0;;;;;;;;;;;;;;2;0;0;;0;0;();();(-2000.0, -2000.0);
04:35:43:174;04:35:43:148;1448034701.2;(0.6057298660278321, 0.6561012268066406);68.8894195557;1.0;;;;;;;;;;;;;;2;0;0;;0;0;();();(-2000.0, -2000.0);
04:35:43:191;04:35:43:190;1448034701.27;(0.606000566482544, 0.6576381471421984);68.9408569336;1.0;;;;;;;;;;;;;;2;0;0;;0;0;();();(-2000.0, -2000.0);
04:35:43:208;04:35:43:190;1448034701.27;(0.606000566482544, 0.6576381471421984);68.9408569336;1.0;;;;;;;;;;;;;;2;0;0;;0;0;();();(-2000.0, -2000.0);
04:35:43:241;04:35:43:232;1448034701.3;(0.6058273792266846, 0.6582718319363065);69.6526412964;1.0;;;;;;;;;;;;;;2;0;0;;0;0;();();(-2000.0, -2000.0);
04:35:43:258;04:35:43:232;1448034701.3;(0.6058273792266846, 0.6582718319363065);69.6526412964;1.0;;;;;;;;;;;;;;2;0;0;;0;0;();();(-2000.0, -2000.0);
04:35:43:274;04:35:43:272;1448034701.33;(0.6055349826812744, 0.6584442350599501);69.4964752197;1.0;;;;;;;;;;;;;;2;0;0;;0;0;();();(-2000.0, -2000.0);
04:35:43:291;04:35:43:272;1448034701.33;(0.6055349826812744, 0.6584442350599501);69.4964752197;1.0;;;;;;;;;;;;;;2;0;0;;0;0;();();(-2000.0, -2000.0);
04:35:43:308;04:35:43:272;1448034701.33;(0.6055349826812744, 0.6584442350599501);69.4964752197;1.0;;;;;;;;;;;;;;2;0;0;;0;0;();();(-2000.0, -2000.0);
04:35:43:340;04:35:43:317;1448034701.37;(0.6051129341125489, 0.6587748845418294);68.9963989258;1.0;;;;;;;;;;;;;;2;0;0;;0;0;();();(-2000.0, -2000.0);
04:35:43:357;04:35:43:357;1448034701.43;(0.603688383102417, 0.6595670700073242);69.8673629761;1.0;;;;;;;;;;;;;;2;0;0;;0;0;();();(-2000.0, -2000.0);
04:35:43:374;04:35:43:357;1448034701.43;(0.603688383102417, 0.6595670700073242);69.8673629761;1.0;;;;;;;;;;;;;;2;0;0;;0;0;();();(-2000.0, -2000.0);
04:35:43:391;04:35:43:357;1448034701.43;(0.603688383102417, 0.6595670700073242);69.8673629761;1.0;;;;;;;;;;;;;;2;0;0;;0;0;();();(-2000.0, -2000.0);
04:35:43:408;04:35:43:357;1448034701.43;(0.603688383102417, 0.6595670700073242);69.8673629761;1.0;;;;;;;;;;;;;;2;0;0;;0;0;();();(-2000.0, -2000.0);
04:35:43:439;04:35:43:357;1448034701.43;(0.603688383102417, 0.6595670700073242);69.8673629761;1.0;;;;;;;;;;;;;;2;0;0;;0;0;();();(-2000.0, -2000.0);
04:35:43:456;04:35:43:440;1448034701.47;(0.610377836227417, 0.6806930118136936);68.8463134766;0.715591036579;;;;;;;;;;;;;;2;0;0;;0;0;();();(-2000.0, -2000.0);
04:35:43:473;04:35:43:440;1448034701.47;(0.610377836227417, 0.6806930118136936);68.8463134766;0.715591036579;;;;;;;;;;;;;;2;0;0;;0;0;();();(-2000.0, -2000.0);
04:35:43:490;04:35:43:480;1448034701.52;(0.6212996959686279, 0.6922446144951715);68.7991409302;1.0;;;;;;;;;;;;;;2;0;0;;0;0;();();(-2000.0, -2000.0);
04:35:43:522;04:35:43:480;1448034701.52;(0.6212996959686279, 0.6922446144951715);68.7991409302;1.0;;;;;;;;;;;;;;2;0;0;;0;0;();();(-2000.0, -2000.0);
04:35:43:539;04:35:43:523;1448034701.6;(0.6201794624328614, 0.6903139962090385);69.4876861572;1.0;;;;;;;;;;;;;;2;0;0;;0;0;();();(-2000.0, -2000.0);
04:35:43:557;04:35:43:523;1448034701.6;(0.6201794624328614, 0.6903139962090385);69.4876861572;1.0;;;;;;;;;;;;;;2;0;0;;0;0;();();(-2000.0, -2000.0);
04:35:43:572;04:35:43:523;1448034701.6;(0.6201794624328614, 0.6903139962090385);69.4876861572;1.0;;;;;;;;;;;;;;2;0;0;;0;0;();();(-2000.0, -2000.0);
04:35:43:589;04:35:43:523;1448034701.6;(0.6201794624328614, 0.6903139962090385);69.4876861572;1.0;;;;;;;;;;;;;;2;0;0;;0;0;();();(-2000.0, -2000.0);
04:35:43:622;04:35:43:523;1448034701.6;(0.6201794624328614, 0.6903139962090385);69.4876861572;1.0;;;;;;;;;;;;;;2;0;0;;0;0;();();(-2000.0, -2000.0);
04:35:43:639;04:35:43:523;1448034701.6;(0.6201794624328614, 0.6903139962090385);69.4876861572;1.0;;;;;;;;;;;;;;2;0;0;;0;0;();();(-2000.0, -2000.0);
04:35:43:655;04:35:43:648;1448034701.71;(0.34860682487487793, 0.7726361168755426);30.6537532806;0.868604056723;;;;;;;;;;;;;;2;0;0;;0;0;();();(-2000.0, -2000.0);
04:35:43:672;04:35:43:648;1448034701.71;(0.34860682487487793, 0.7726361168755426);30.6537532806;0.868604056723;;;;;;;;;;;;;;2;0;0;;0;0;();();(-2000.0, -2000.0);
04:35:43:688;04:35:43:648;1448034701.71;(0.34860682487487793, 0.7726361168755426);30.6537532806;0.868604056723;;;;;;;;;;;;;;2;0;0;;0;0;();();(-2000.0, -2000.0);
04:35:43:722;04:35:43:688;1448034701.73;(0.6251810550689697, 0.6384128994411893);69.6666870117;0.965317340025;;;;;;;;;;;;;;2;0;0;;0;0;();();(-2000.0, -2000.0);
04:35:43:738;04:35:43:734;1448034701.8;(0.6235799312591552, 0.6391700744628906);70.5589904785;1.0;;;;;;;;;;;;;;2;0;0;;0;0;();();(-2000.0, -2000.0);
04:35:43:755;04:35:43:734;1448034701.8;(0.6235799312591552, 0.6391700744628906);70.5589904785;1.0;;;;;;;;;;;;;;2;0;0;;0;0;();();(-2000.0, -2000.0);
04:35:43:771;04:35:43:734;1448034701.8;(0.6235799312591552, 0.6391700744628906);70.5589904785;1.0;;;;;;;;;;;;;;2;0;0;;0;0;();();(-2000.0, -2000.0);
04:35:43:788;04:35:43:784;1448034701.83;(0.6232654094696045, 0.6399714575873481);70.3460464478;1.0;;;;;;;;;;;;;;2;0;0;;0;0;();();(-2000.0, -2000.0);
04:35:43:821;04:35:43:812;1448034701.87;(0.6226979255676269, 0.6411280737982856);70.4176483154;1.0;;;;;;;;;;;;;;2;0;0;;0;0;();();(-2000.0, -2000.0);
04:35:43:838;04:35:43:812;1448034701.87;(0.6226979255676269, 0.6411280737982856);70.4176483154;1.0;;;;;;;;;;;;;;2;0;0;;0;0;();();(-2000.0, -2000.0);
04:35:43:854;04:35:43:852;1448034701.9;(0.6221055507659912, 0.6423806720309787);70.5978012085;1.0;;;;;;;;;;;;;;2;0;0;;0;0;();();(-2000.0, -2000.0);
04:35:43:871;04:35:43:852;1448034701.9;(0.6221055507659912, 0.6423806720309787);70.5978012085;1.0;;;;;;;;;;;;;;2;0;0;;0;0;();();(-2000.0, -2000.0);
04:35:43:887;04:35:43:852;1448034701.9;(0.6221055507659912, 0.6423806720309787);70.5978012085;1.0;;;;;;;;;;;;;;2;0;0;;0;0;();();(-2000.0, -2000.0);
04:35:43:920;04:35:43:852;1448034701.9;(0.6221055507659912, 0.6423806720309787);70.5978012085;1.0;;;;;;;;;;;;;;2;0;0;;0;0;();();(-2000.0, -2000.0);
04:35:43:937;04:35:43:852;1448034701.9;(0.6221055507659912, 0.6423806720309787);70.5978012085;1.0;;;;;;;;;;;;;;2;0;0;;0;0;();();(-2000.0, -2000.0);
04:35:43:953;04:35:43:852;1448034701.9;(0.6221055507659912, 0.6423806720309787);70.5978012085;1.0;;;;;;;;;;;;;;2;0;0;;0;0;();();(-2000.0, -2000.0);
04:35:43:970;04:35:43:852;1448034701.9;(0.6221055507659912, 0.6423806720309787);70.5978012085;1.0;;;;;;;;;;;;;;2;0;0;;0;0;();();(-2000.0, -2000.0);
04:35:44:002;04:35:43:981;1448034702.05;(0.6158046245574951, 0.6449146058824327);71.8853988647;1.0;;;;;;;;;;;;;;2;0;0;;0;0;();();(-2000.0, -2000.0);
04:35:44:020;04:35:43:981;1448034702.05;(0.6158046245574951, 0.6449146058824327);71.8853988647;1.0;;;;;;;;;;;;;;2;0;0;;0;0;();();(-2000.0, -2000.0);
04:35:44:036;04:35:44:021;1448034702.07;(0.6157875061035156, 0.6452829784817166);71.8770980835;1.0;;;;;;;;;;;;;;2;0;0;;0;0;();();(-2000.0, -2000.0);
04:35:44:053;04:35:44:021;1448034702.07;(0.6157875061035156, 0.6452829784817166);71.8770980835;1.0;;;;;;;;;;;;;;2;0;0;;0;0;();();(-2000.0, -2000.0);
04:35:44:069;04:35:44:021;1448034702.07;(0.6157875061035156, 0.6452829784817166);71.8770980835;1.0;;;;;;;;;;;;;;2;0;0;;0;0;();();(-2000.0, -2000.0);
04:35:44:102;04:35:44:021;1448034702.07;(0.6157875061035156, 0.6452829784817166);71.8770980835;1.0;;;;;;;;;;;;;;2;0;0;;0;0;();();(-2000.0, -2000.0);
04:35:44:119;04:35:44:104;1448034702.1;(0.6068626880645752, 0.6504887686835394);72.4228820801;0.651103039057;;;;;;;;;;;;;;2;0;0;;0;0;();();(-2000.0, -2000.0);
04:35:44:135;04:35:44:104;1448034702.1;(0.6068626880645752, 0.6504887686835394);72.4228820801;0.651103039057;;;;;;;;;;;;;;2;0;0;;0;0;();();(-2000.0, -2000.0);
04:35:44:152;04:35:44:104;1448034702.1;(0.6068626880645752, 0.6504887686835394);72.4228820801;0.651103039057;;;;;;;;;;;;;;2;0;0;;0;0;();();(-2000.0, -2000.0);
04:35:44:169;04:35:44:104;1448034702.1;(0.6068626880645752, 0.6504887686835394);72.4228820801;0.651103039057;;;;;;;;;;;;;;2;0;0;;0;0;();();(-2000.0, -2000.0);
04:35:44:201;04:35:44:104;1448034702.1;(0.6068626880645752, 0.6504887686835394);72.4228820801;0.651103039057;;;;;;;;;;;;;;2;0;0;;0;0;();();(-2000.0, -2000.0);
04:35:44:219;04:35:44:104;1448034702.1;(0.6068626880645752, 0.6504887686835394);72.4228820801;0.651103039057;;;;;;;;;;;;;;2;0;0;;0;0;();();(-2000.0, -2000.0);
04:35:44:236;04:35:44:104;1448034702.1;(0.6068626880645752, 0.6504887686835394);72.4228820801;0.651103039057;;;;;;;;;;;;;;2;0;0;;0;0;();();(-2000.0, -2000.0);
04:35:44:251;04:35:44:104;1448034702.1;(0.6068626880645752, 0.6504887686835394);72.4228820801;0.651103039057;;;;;;;;;;;;;;2;0;0;;0;0;();();(-2000.0, -2000.0);
04:35:44:268;04:35:44:104;1448034702.1;(0.6068626880645752, 0.6504887686835394);72.4228820801;0.651103039057;;;;;;;;;;;;;;2;0;0;;0;0;();();(-2000.0, -2000.0);
04:35:44:301;04:35:44:268;1448034702.19;(0.6022216320037842, 0.6537157270643446);72.1851425171;1.0;;;;;;;;;;;;;;2;0;0;;0;0;();();(-2000.0, -2000.0);
04:35:44:318;04:35:44:311;1448034702.37;(0.6035594463348388, 0.6521562152438694);73.2810592651;1.0;;;;;;;;;;;;;;2;0;0;;0;0;();();(-2000.0, -2000.0);
04:35:44:335;04:35:44:311;1448034702.37;(0.6035594463348388, 0.6521562152438694);73.2810592651;1.0;;;;;;;;;;;;;;2;0;0;;0;0;();();(-2000.0, -2000.0);
04:35:44:351;04:35:44:311;1448034702.37;(0.6035594463348388, 0.6521562152438694);73.2810592651;1.0;;;;;;;;;;;;;;2;0;0;;0;0;();();(-2000.0, -2000.0);
04:35:44:368;04:35:44:352;1448034702.4;(0.603604507446289, 0.6519481870863173);73.0537948608;1.0;;;;;;;;;;;;;;2;0;0;;0;0;();();(-2000.0, -2000.0);
04:35:44:400;04:35:44:352;1448034702.4;(0.603604507446289, 0.6519481870863173);73.0537948608;1.0;;;;;;;;;;;;;;2;0;0;;0;0;();();(-2000.0, -2000.0);
04:35:44:417;04:35:44:352;1448034702.4;(0.603604507446289, 0.6519481870863173);73.0537948608;1.0;;;;;;;;;;;;;;2;0;0;;0;0;();();(-2000.0, -2000.0);
04:35:44:433;04:35:44:352;1448034702.4;(0.603604507446289, 0.6519481870863173);73.0537948608;1.0;;;;;;;;;;;;;;2;0;0;;0;0;();();(-2000.0, -2000.0);
04:35:44:450;04:35:44:443;1448034702.43;(0.6014036178588867, 0.6522323608398437);72.269821167;0.882416865761;;;;;;;;;;;;;;2;0;0;;0;0;();();(-2000.0, -2000.0);
04:35:44:467;04:35:44:443;1448034702.43;(0.6014036178588867, 0.6522323608398437);72.269821167;0.882416865761;;;;;;;;;;;;;;2;0;0;;0;0;();();(-2000.0, -2000.0);
04:35:44:500;04:35:44:477;1448034702.5;(0.5923864841461182, 0.6555639690823025);73.2316436768;0.964530669049;;;;;;;;;;;;;;2;0;0;;0;0;();();(-2000.0, -2000.0);
04:35:44:517;04:35:44:517;1448034702.57;(0.5931196212768555, 0.6552040312025282);73.5684890747;1.0;;;;;;;;;;;;;;2;0;0;;0;0;();();(-2000.0, -2000.0);
04:35:44:534;04:35:44:517;1448034702.57;(0.5931196212768555, 0.6552040312025282);73.5684890747;1.0;;;;;;;;;;;;;;2;0;0;;0;0;();();(-2000.0, -2000.0);
04:35:44:550;04:35:44:517;1448034702.57;(0.5931196212768555, 0.6552040312025282);73.5684890747;1.0;;;;;;;;;;;;;;2;0;0;;0;0;();();(-2000.0, -2000.0);
04:35:44:583;04:35:44:563;1448034702.63;(0.5947579383850098, 0.6541474024454752);73.8458251953;1.0;;;;;;;;;;;;;;2;0;0;;0;0;();();(-2000.0, -2000.0);
04:35:44:600;04:35:44:563;1448034702.63;(0.5947579383850098, 0.6541474024454752);73.8458251953;1.0;;;;;;;;;;;;;;2;0;0;;0;0;();();(-2000.0, -2000.0);
04:35:44:616;04:35:44:600;1448034702.67;(0.5955223083496094, 0.6538272433810763);73.6943664551;1.0;;;;;;;;;;;;;;2;0;0;;0;0;();();(-2000.0, -2000.0);
04:35:44:633;04:35:44:600;1448034702.67;(0.5955223083496094, 0.6538272433810763);73.6943664551;1.0;;;;;;;;;;;;;;2;0;0;;0;0;();();(-2000.0, -2000.0);
04:35:44:650;04:35:44:600;1448034702.67;(0.5955223083496094, 0.6538272433810763);73.6943664551;1.0;;;;;;;;;;;;;;2;0;0;;0;0;();();(-2000.0, -2000.0);
04:35:44:682;04:35:44:653;1448034702.7;(0.5960552215576171, 0.6532739851209852);73.790687561;1.0;;;;;;;;;;;;;;2;0;0;;0;0;();();(-2000.0, -2000.0);
04:35:44:699;04:35:44:685;1448034702.73;(0.5966994285583496, 0.652509519788954);73.4482040405;1.0;;;;;;;;;;;;;;2;0;0;;0;0;();();(-2000.0, -2000.0);
04:35:44:715;04:35:44:685;1448034702.73;(0.5966994285583496, 0.652509519788954);73.4482040405;1.0;;;;;;;;;;;;;;2;0;0;;0;0;();();(-2000.0, -2000.0);
04:35:44:732;04:35:44:725;1448034702.8;(0.5969258785247803, 0.6528997209337022);72.7709503174;1.0;;;;;;;;;;;;;;2;0;0;;0;0;();();(-2000.0, -2000.0);
04:35:44:749;04:35:44:725;1448034702.8;(0.5969258785247803, 0.6528997209337022);72.7709503174;1.0;;;;;;;;;;;;;;2;0;0;;0;0;();();(-2000.0, -2000.0);
04:35:44:782;04:35:44:769;1448034702.83;(0.5970179080963135, 0.6524563683403863);72.6544723511;1.0;;;;;;;;;;;;;;2;0;0;;0;0;();();(-2000.0, -2000.0);
04:35:44:798;04:35:44:769;1448034702.83;(0.5970179080963135, 0.6524563683403863);72.6544723511;1.0;;;;;;;;;;;;;;2;0;0;;0;0;();();(-2000.0, -2000.0);
04:35:44:815;04:35:44:809;1448034702.87;(0.5973830223083496, 0.6530396567450629);72.1029510498;1.0;;;;;;;;;;;;;;2;0;0;;0;0;();();(-2000.0, -2000.0);
04:35:44:832;04:35:44:809;1448034702.87;(0.5973830223083496, 0.6530396567450629);72.1029510498;1.0;;;;;;;;;;;;;;2;0;0;;0;0;();();(-2000.0, -2000.0);
04:35:44:849;04:35:44:809;1448034702.87;(0.5973830223083496, 0.6530396567450629);72.1029510498;1.0;;;;;;;;;;;;;;2;0;0;;0;0;();();(-2000.0, -2000.0);
04:35:44:881;04:35:44:849;1448034702.9;(0.5974753379821778, 0.6524096171061198);72.7384262085;1.0;;;;;;;;;;;;;;2;0;0;;0;0;();();(-2000.0, -2000.0);
04:35:44:898;04:35:44:892;1448034702.97;(0.598470401763916, 0.6526208665635851);71.9175186157;1.0;;;;;;;;;;;;;;2;0;0;;0;0;();();(-2000.0, -2000.0);
04:35:44:914;04:35:44:892;1448034702.97;(0.598470401763916, 0.6526208665635851);71.9175186157;1.0;;;;;;;;;;;;;;2;0;0;;0;0;();();(-2000.0, -2000.0);
04:35:44:931;04:35:44:892;1448034702.97;(0.598470401763916, 0.6526208665635851);71.9175186157;1.0;;;;;;;;;;;;;;2;0;0;;0;0;();();(-2000.0, -2000.0);
04:35:44:948;04:35:44:933;1448034703.0;(0.5990158081054687, 0.6527853859795465);71.7903137207;1.0;;;;;;;;;;;;;;2;0;0;;0;0;();();(-2000.0, -2000.0);
04:35:44:981;04:35:44:973;1448034703.03;(0.5977968215942383, 0.6539778391520182);71.9572143555;0.803513238765;;;;;;;;;;;;;;2;0;0;;0;0;();();(-2000.0, -2000.0);
04:35:44:998;04:35:44:973;1448034703.03;(0.5977968215942383, 0.6539778391520182);71.9572143555;0.803513238765;;;;;;;;;;;;;;2;0;0;;0;0;();();(-2000.0, -2000.0);
04:35:45:013;04:35:44:973;1448034703.03;(0.5977968215942383, 0.6539778391520182);71.9572143555;0.803513238765;;;;;;;;;;;;;;2;0;0;;0;0;();();(-2000.0, -2000.0);
04:35:45:030;04:35:44:973;1448034703.03;(0.5977968215942383, 0.6539778391520182);71.9572143555;0.803513238765;;;;;;;;;;;;;;2;0;0;;0;0;();();(-2000.0, -2000.0);
04:35:45:064;04:35:44:973;1448034703.03;(0.5977968215942383, 0.6539778391520182);71.9572143555;0.803513238765;;;;;;;;;;;;;;2;0;0;;0;0;();();(-2000.0, -2000.0);
04:35:45:080;04:35:44:973;1448034703.03;(0.5977968215942383, 0.6539778391520182);71.9572143555;0.803513238765;;;;;;;;;;;;;;2;0;0;;0;0;();();(-2000.0, -2000.0);
04:35:45:096;04:35:44:973;1448034703.03;(0.5977968215942383, 0.6539778391520182);71.9572143555;0.803513238765;;;;;;;;;;;;;;2;0;0;;0;0;();();(-2000.0, -2000.0);
04:35:45:114;04:35:44:973;1448034703.03;(0.5977968215942383, 0.6539778391520182);71.9572143555;0.803513238765;;;;;;;;;;;;;;2;0;0;;0;0;();();(-2000.0, -2000.0);
04:35:45:130;04:35:44:973;1448034703.03;(0.5977968215942383, 0.6539778391520182);71.9572143555;0.803513238765;;;;;;;;;;;;;;2;0;0;;0;0;();();(-2000.0, -2000.0);
04:35:45:162;04:35:45:142;1448034703.07;(0.5908925056457519, 0.6466750462849935);158.498123169;0.644819270814;;;;;;;;;;;;;;2;0;0;;0;0;();();(-2000.0, -2000.0);
04:35:45:179;04:35:45:142;1448034703.07;(0.5908925056457519, 0.6466750462849935);158.498123169;0.644819270814;;;;;;;;;;;;;;2;0;0;;0;0;();();(-2000.0, -2000.0);
04:35:45:197;04:35:45:195;1448034703.24;(0.5987106323242187, 0.65806032816569);71.356010437;0.936377059672;;;;;;;;;;;;;;2;0;0;;0;0;();();(-2000.0, -2000.0);
04:35:45:212;04:35:45:195;1448034703.24;(0.5987106323242187, 0.65806032816569);71.356010437;0.936377059672;;;;;;;;;;;;;;2;0;0;;0;0;();();(-2000.0, -2000.0);
04:35:45:229;04:35:45:224;1448034703.3;(0.5991944313049317, 0.6587275822957357);71.3776855469;1.0;;;;;;;;;;;;;;2;0;0;;0;0;();();(-2000.0, -2000.0);
04:35:45:261;04:35:45:224;1448034703.3;(0.5991944313049317, 0.6587275822957357);71.3776855469;1.0;;;;;;;;;;;;;;2;0;0;;0;0;();();(-2000.0, -2000.0);
04:35:45:279;04:35:45:224;1448034703.3;(0.5991944313049317, 0.6587275822957357);71.3776855469;1.0;;;;;;;;;;;;;;2;0;0;;0;0;();();(-2000.0, -2000.0);
04:35:45:295;04:35:45:224;1448034703.3;(0.5991944313049317, 0.6587275822957357);71.3776855469;1.0;;;;;;;;;;;;;;2;0;0;;0;0;();();(-2000.0, -2000.0);
04:35:45:312;04:35:45:304;1448034703.37;(0.600069522857666, 0.6592554516262479);71.1179733276;1.0;;;;;;;;;;;;;;2;0;0;;0;0;();();(-2000.0, -2000.0);
04:35:45:328;04:35:45:304;1448034703.37;(0.600069522857666, 0.6592554516262479);71.1179733276;1.0;;;;;;;;;;;;;;2;0;0;;0;0;();();(-2000.0, -2000.0);
04:35:45:362;04:35:45:348;1448034703.4;(0.34722707271575926, 0.7676791297064887);29.0579490662;0.791351773646;;;;;;;;;;;;;;2;0;0;;0;0;();();(-2000.0, -2000.0);
04:35:45:379;04:35:45:348;1448034703.4;(0.34722707271575926, 0.7676791297064887);29.0579490662;0.791351773646;;;;;;;;;;;;;;2;0;0;;0;0;();();(-2000.0, -2000.0);
04:35:45:395;04:35:45:348;1448034703.4;(0.34722707271575926, 0.7676791297064887);29.0579490662;0.791351773646;;;;;;;;;;;;;;2;0;0;;0;0;();();(-2000.0, -2000.0);
04:35:45:411;04:35:45:348;1448034703.4;(0.34722707271575926, 0.7676791297064887);29.0579490662;0.791351773646;;;;;;;;;;;;;;2;0;0;;0;0;();();(-2000.0, -2000.0);
04:35:45:428;04:35:45:348;1448034703.4;(0.34722707271575926, 0.7676791297064887);29.0579490662;0.791351773646;;;;;;;;;;;;;;2;0;0;;0;0;();();(-2000.0, -2000.0);
04:35:45:461;04:35:45:348;1448034703.4;(0.34722707271575926, 0.7676791297064887);29.0579490662;0.791351773646;;;;;;;;;;;;;;2;0;0;;0;0;();();(-2000.0, -2000.0);
04:35:45:478;04:35:45:348;1448034703.4;(0.34722707271575926, 0.7676791297064887);29.0579490662;0.791351773646;;;;;;;;;;;;;;2;0;0;;0;0;();();(-2000.0, -2000.0);
04:35:45:495;04:35:45:348;1448034703.4;(0.34722707271575926, 0.7676791297064887);29.0579490662;0.791351773646;;;;;;;;;;;;;;2;0;0;;0;0;();();(-2000.0, -2000.0);
04:35:45:511;04:35:45:348;1448034703.4;(0.34722707271575926, 0.7676791297064887);29.0579490662;0.791351773646;;;;;;;;;;;;;;2;0;0;;0;0;();();(-2000.0, -2000.0);
04:35:45:528;04:35:45:512;1448034703.43;(0.5935396671295166, 0.6633415646023221);71.4719238281;1.0;;;;;;;;;;;;;;2;0;0;;0;0;();();(-2000.0, -2000.0);
04:35:45:560;04:35:45:557;1448034703.61;(0.5955065250396728, 0.6630537245008681);71.7246322632;1.0;;;;;;;;;;;;;;2;0;0;;0;0;();();(-2000.0, -2000.0);
04:35:45:577;04:35:45:557;1448034703.61;(0.5955065250396728, 0.6630537245008681);71.7246322632;1.0;;;;;;;;;;;;;;2;0;0;;0;0;();();(-2000.0, -2000.0);
04:35:45:593;04:35:45:557;1448034703.61;(0.5955065250396728, 0.6630537245008681);71.7246322632;1.0;;;;;;;;;;;;;;2;0;0;;0;0;();();(-2000.0, -2000.0);
04:35:45:610;04:35:45:596;1448034703.63;(0.5960641384124756, 0.6635949664645725);72.0182800293;1.0;;;;;;;;;;;;;;2;0;0;;0;0;();();(-2000.0, -2000.0);
04:35:45:643;04:35:45:636;1448034703.7;(0.596742582321167, 0.6637672636244032);71.7838439941;1.0;;;;;;;;;;;;;;2;0;0;;0;0;();();(-2000.0, -2000.0);
04:35:45:660;04:35:45:636;1448034703.7;(0.596742582321167, 0.6637672636244032);71.7838439941;1.0;;;;;;;;;;;;;;2;0;0;;0;0;();();(-2000.0, -2000.0);
04:35:45:676;04:35:45:636;1448034703.7;(0.596742582321167, 0.6637672636244032);71.7838439941;1.0;;;;;;;;;;;;;;2;0;0;;0;0;();();(-2000.0, -2000.0);
04:35:45:694;04:35:45:680;1448034703.73;(0.5970868110656739, 0.6641477372911242);71.6806030273;1.0;;;;;;;;;;;;;;2;0;0;;0;0;();();(-2000.0, -2000.0);
04:35:45:711;04:35:45:680;1448034703.73;(0.5970868110656739, 0.6641477372911242);71.6806030273;1.0;;;;;;;;;;;;;;2;0;0;;0;0;();();(-2000.0, -2000.0);
04:35:45:743;04:35:45:722;1448034703.8;(0.5977058410644531, 0.6650626712375217);71.3487319946;1.0;;;;;;;;;;;;;;2;0;0;;0;0;();();(-2000.0, -2000.0);
04:35:45:759;04:35:45:722;1448034703.8;(0.5977058410644531, 0.6650626712375217);71.3487319946;1.0;;;;;;;;;;;;;;2;0;0;;0;0;();();(-2000.0, -2000.0);
04:35:45:776;04:35:45:760;1448034703.83;(0.5978562831878662, 0.6649361080593533);71.2641525269;1.0;;;;;;;;;;;;;;2;0;0;;0;0;();();(-2000.0, -2000.0);
04:35:45:792;04:35:45:760;1448034703.83;(0.5978562831878662, 0.6649361080593533);71.2641525269;1.0;;;;;;;;;;;;;;2;0;0;;0;0;();();(-2000.0, -2000.0);
04:35:45:809;04:35:45:805;1448034703.87;(0.5981040954589844, 0.6647382524278429);70.9929122925;1.0;;;;;;;;;;;;;;2;0;0;;0;0;();();(-2000.0, -2000.0);
04:35:45:842;04:35:45:805;1448034703.87;(0.5981040954589844, 0.6647382524278429);70.9929122925;1.0;;;;;;;;;;;;;;2;0;0;;0;0;();();(-2000.0, -2000.0);
04:35:45:859;04:35:45:844;1448034703.9;(0.5981107711791992, 0.6649175220065646);70.8538970947;1.0;;;;;;;;;;;;;;2;0;0;;0;0;();();(-2000.0, -2000.0);
04:35:45:876;04:35:45:844;1448034703.9;(0.5981107711791992, 0.6649175220065646);70.8538970947;1.0;;;;;;;;;;;;;;2;0;0;;0;0;();();(-2000.0, -2000.0);
04:35:45:891;04:35:45:888;1448034703.93;(0.5981749534606934, 0.6649203194512261);70.4712295532;1.0;;;;;;;;;;;;;;2;0;0;;0;0;();();(-2000.0, -2000.0);
04:35:45:908;04:35:45:888;1448034703.93;(0.5981749534606934, 0.6649203194512261);70.4712295532;1.0;;;;;;;;;;;;;;2;0;0;;0;0;();();(-2000.0, -2000.0);
04:35:45:941;04:35:45:930;1448034704.0;(0.5987717151641846, 0.6654449039035373);70.4383544922;1.0;;;;;;;;;;;;;;2;0;0;;0;0;();();(-2000.0, -2000.0);
04:35:45:958;04:35:45:930;1448034704.0;(0.5987717151641846, 0.6654449039035373);70.4383544922;1.0;;;;;;;;;;;;;;2;0;0;;0;0;();();(-2000.0, -2000.0);
04:35:45:975;04:35:45:969;1448034704.03;(0.598924970626831, 0.6655798594156901);69.8705368042;1.0;;;;;;;;;;;;;;2;0;0;;0;0;();();(-2000.0, -2000.0);
04:35:45:991;04:35:45:969;1448034704.03;(0.598924970626831, 0.6655798594156901);69.8705368042;1.0;;;;;;;;;;;;;;2;0;0;;0;0;();();(-2000.0, -2000.0);
04:35:46:008;04:35:45:969;1448034704.03;(0.598924970626831, 0.6655798594156901);69.8705368042;1.0;;;;;;;;;;;;;;2;0;0;;0;0;();();(-2000.0, -2000.0);
04:35:46:040;04:35:46:012;1448034704.07;(0.3474785804748535, 0.7686398612128363);30.91588974;0.707897201969;;;;;;;;;;;;;;2;0;0;;0;0;();();(-2000.0, -2000.0);
04:35:46:058;04:35:46:012;1448034704.07;(0.3474785804748535, 0.7686398612128363);30.91588974;0.707897201969;;;;;;;;;;;;;;2;0;0;;0;0;();();(-2000.0, -2000.0);
04:35:46:074;04:35:46:012;1448034704.07;(0.3474785804748535, 0.7686398612128363);30.91588974;0.707897201969;;;;;;;;;;;;;;2;0;0;;0;0;();();(-2000.0, -2000.0);
04:35:46:091;04:35:46:012;1448034704.07;(0.3474785804748535, 0.7686398612128363);30.91588974;0.707897201969;;;;;;;;;;;;;;2;0;0;;0;0;();();(-2000.0, -2000.0);
04:35:46:107;04:35:46:012;1448034704.07;(0.3474785804748535, 0.7686398612128363);30.91588974;0.707897201969;;;;;;;;;;;;;;2;0;0;;0;0;();();(-2000.0, -2000.0);
04:35:46:140;04:35:46:137;1448034704.1;(0.6112701416015625, 0.6470392439100477);153.677459717;0.604266090999;;;;;;;;;;;;;;2;0;0;;0;0;();();(-2000.0, -2000.0);
04:35:46:157;04:35:46:137;1448034704.1;(0.6112701416015625, 0.6470392439100477);153.677459717;0.604266090999;;;;;;;;;;;;;;2;0;0;;0;0;();();(-2000.0, -2000.0);
04:35:46:174;04:35:46:137;1448034704.1;(0.6112701416015625, 0.6470392439100477);153.677459717;0.604266090999;;;;;;;;;;;;;;2;0;0;;0;0;();();(-2000.0, -2000.0);
04:35:46:190;04:35:46:177;1448034704.23;(0.6129023551940918, 0.6555833180745443);69.7706375122;1.0;;;;;;;;;;;;;;2;0;0;;0;0;();();(-2000.0, -2000.0);
04:35:46:223;04:35:46:217;1448034704.27;(0.6129218578338623, 0.6561787923177083);69.8212814331;1.0;;;;;;;;;;;;;;2;0;0;;0;0;();();(-2000.0, -2000.0);
04:35:46:241;04:35:46:217;1448034704.27;(0.6129218578338623, 0.6561787923177083);69.8212814331;1.0;;;;;;;;;;;;;;2;0;0;;0;0;();();(-2000.0, -2000.0);
04:35:46:256;04:35:46:217;1448034704.27;(0.6129218578338623, 0.6561787923177083);69.8212814331;1.0;;;;;;;;;;;;;;2;0;0;;0;0;();();(-2000.0, -2000.0);
04:35:46:274;04:35:46:260;1448034704.3;(0.6127428531646728, 0.6562438752916124);70.2770233154;1.0;;;;;;;;;;;;;;2;0;0;;0;0;();();(-2000.0, -2000.0);
04:35:46:290;04:35:46:260;1448034704.3;(0.6127428531646728, 0.6562438752916124);70.2770233154;1.0;;;;;;;;;;;;;;2;0;0;;0;0;();();(-2000.0, -2000.0);
04:35:46:322;04:35:46:301;1448034704.37;(0.6129305362701416, 0.6557599597507053);69.7443389893;1.0;;;;;;;;;;;;;;2;0;0;;0;0;();();(-2000.0, -2000.0);
04:35:46:339;04:35:46:301;1448034704.37;(0.6129305362701416, 0.6557599597507053);69.7443389893;1.0;;;;;;;;;;;;;;2;0;0;;0;0;();();(-2000.0, -2000.0);
04:35:46:355;04:35:46:344;1448034704.4;(0.6127801418304444, 0.6553752263387045);70.0885772705;1.0;;;;;;;;;;;;;;2;0;0;;0;0;();();(-2000.0, -2000.0);
04:35:46:372;04:35:46:344;1448034704.4;(0.6127801418304444, 0.6553752263387045);70.0885772705;1.0;;;;;;;;;;;;;;2;0;0;;0;0;();();(-2000.0, -2000.0);
04:35:46:389;04:35:46:384;1448034704.43;(0.6125327587127686, 0.6550740983751084);70.0265350342;1.0;;;;;;;;;;;;;;2;0;0;;0;0;();();(-2000.0, -2000.0);
04:35:46:422;04:35:46:384;1448034704.43;(0.6125327587127686, 0.6550740983751084);70.0265350342;1.0;;;;;;;;;;;;;;2;0;0;;0;0;();();(-2000.0, -2000.0);
04:35:46:439;04:35:46:424;1448034704.47;(0.612680196762085, 0.6545720418294271);70.1177978516;1.0;;;;;;;;;;;;;;2;0;0;;0;0;();();(-2000.0, -2000.0);
04:35:46:455;04:35:46:424;1448034704.47;(0.612680196762085, 0.6545720418294271);70.1177978516;1.0;;;;;;;;;;;;;;2;0;0;;0;0;();();(-2000.0, -2000.0);
04:35:46:472;04:35:46:469;1448034704.53;(0, 0);0;0;;;;;;;;;;;;;;2;0;0;;0;0;();();(-2000.0, -2000.0);
04:35:46:488;04:35:46:469;1448034704.53;(0, 0);0;0;;;;;;;;;;;;;;2;0;0;;0;0;();();(-2000.0, -2000.0);
04:35:46:521;04:35:46:509;1448034704.57;(0.44344363212585447, 0.5924288007948133);21.6933364868;0.88194450547;;;;;;;;;;;;;;2;0;0;;0;0;();();(-2000.0, -2000.0);
04:35:46:538;04:35:46:509;1448034704.57;(0.44344363212585447, 0.5924288007948133);21.6933364868;0.88194450547;;;;;;;;;;;;;;2;0;0;;0;0;();();(-2000.0, -2000.0);
04:35:46:554;04:35:46:509;1448034704.57;(0.44344363212585447, 0.5924288007948133);21.6933364868;0.88194450547;;;;;;;;;;;;;;2;0;0;;0;0;();();(-2000.0, -2000.0);
04:35:46:571;04:35:46:509;1448034704.57;(0.44344363212585447, 0.5924288007948133);21.6933364868;0.88194450547;;;;;;;;;;;;;;2;0;0;;0;0;();();(-2000.0, -2000.0);
04:35:46:588;04:35:46:509;1448034704.57;(0.44344363212585447, 0.5924288007948133);21.6933364868;0.88194450547;;;;;;;;;;;;;;2;0;0;;0;0;();();(-2000.0, -2000.0);
04:35:46:620;04:35:46:596;1448034704.6;(0.6165747165679931, 0.6639294730292427);66.6902313232;0.664469886624;;;;;;;;;;;;;;2;0;0;;0;0;();();(-2000.0, -2000.0);
04:35:46:638;04:35:46:596;1448034704.6;(0.6165747165679931, 0.6639294730292427);66.6902313232;0.664469886624;;;;;;;;;;;;;;2;0;0;;0;0;();();(-2000.0, -2000.0);
04:35:46:653;04:35:46:596;1448034704.6;(0.6165747165679931, 0.6639294730292427);66.6902313232;0.664469886624;;;;;;;;;;;;;;2;0;0;;0;0;();();(-2000.0, -2000.0);
04:35:46:670;04:35:46:596;1448034704.6;(0.6165747165679931, 0.6639294730292427);66.6902313232;0.664469886624;;;;;;;;;;;;;;2;0;0;;0;0;();();(-2000.0, -2000.0);
04:35:46:703;04:35:46:679;1448034704.64;(0.6165940284729003, 0.6558945126003689);69.7916488647;0.995313553597;;;;;;;;;;;;;;2;0;0;;0;0;();();(-2000.0, -2000.0);
04:35:46:720;04:35:46:679;1448034704.64;(0.6165940284729003, 0.6558945126003689);69.7916488647;0.995313553597;;;;;;;;;;;;;;2;0;0;;0;0;();();(-2000.0, -2000.0);
04:35:46:737;04:35:46:679;1448034704.64;(0.6165940284729003, 0.6558945126003689);69.7916488647;0.995313553597;;;;;;;;;;;;;;2;0;0;;0;0;();();(-2000.0, -2000.0);
04:35:46:753;04:35:46:679;1448034704.64;(0.6165940284729003, 0.6558945126003689);69.7916488647;0.995313553597;;;;;;;;;;;;;;2;0;0;;0;0;();();(-2000.0, -2000.0);
04:35:46:770;04:35:46:679;1448034704.64;(0.6165940284729003, 0.6558945126003689);69.7916488647;0.995313553597;;;;;;;;;;;;;;2;0;0;;0;0;();();(-2000.0, -2000.0);
04:35:46:803;04:35:46:679;1448034704.64;(0.6165940284729003, 0.6558945126003689);69.7916488647;0.995313553597;;;;;;;;;;;;;;2;0;0;;0;0;();();(-2000.0, -2000.0);
04:35:46:819;04:35:46:679;1448034704.64;(0.6165940284729003, 0.6558945126003689);69.7916488647;0.995313553597;;;;;;;;;;;;;;2;0;0;;0;0;();();(-2000.0, -2000.0);
04:35:46:836;04:35:46:679;1448034704.64;(0.6165940284729003, 0.6558945126003689);69.7916488647;0.995313553597;;;;;;;;;;;;;;2;0;0;;0;0;();();(-2000.0, -2000.0);
04:35:46:852;04:35:46:679;1448034704.64;(0.6165940284729003, 0.6558945126003689);69.7916488647;0.995313553597;;;;;;;;;;;;;;2;0;0;;0;0;();();(-2000.0, -2000.0);
04:35:46:869;04:35:46:679;1448034704.64;(0.6165940284729003, 0.6558945126003689);69.7916488647;0.995313553597;;;;;;;;;;;;;;2;0;0;;0;0;();();(-2000.0, -2000.0);
04:35:46:902;04:35:46:884;1448034704.94;(0.6188342094421386, 0.6532356686062283);70.4978408813;1.0;;;;;;;;;;;;;;2;0;0;;0;0;();();(-2000.0, -2000.0);
04:35:46:919;04:35:46:884;1448034704.94;(0.6188342094421386, 0.6532356686062283);70.4978408813;1.0;;;;;;;;;;;;;;2;0;0;;0;0;();();(-2000.0, -2000.0);
04:35:46:935;04:35:46:927;1448034705.0;(0.6187570571899415, 0.653507571750217);69.9398498535;1.0;;;;;;;;;;;;;;2;0;0;;0;0;();();(-2000.0, -2000.0);
04:35:46:952;04:35:46:927;1448034705.0;(0.6187570571899415, 0.653507571750217);69.9398498535;1.0;;;;;;;;;;;;;;2;0;0;;0;0;();();(-2000.0, -2000.0);
04:35:46:968;04:35:46:964;1448034705.03;(0.618855333328247, 0.653822241889106);69.8985900879;1.0;;;;;;;;;;;;;;2;0;0;;0;0;();();(-2000.0, -2000.0);
04:35:47:001;04:35:46:964;1448034705.03;(0.618855333328247, 0.653822241889106);69.8985900879;1.0;;;;;;;;;;;;;;2;0;0;;0;0;();();(-2000.0, -2000.0);
04:35:47:018;04:35:47:009;1448034705.07;(0.6190856456756592, 0.6536700354682075);69.3376312256;1.0;;;;;;;;;;;;;;2;0;0;;0;0;();();(-2000.0, -2000.0);
04:35:47:034;04:35:47:009;1448034705.07;(0.6190856456756592, 0.6536700354682075);69.3376312256;1.0;;;;;;;;;;;;;;2;0;0;;0;0;();();(-2000.0, -2000.0);
04:35:47:051;04:35:47:050;1448034705.1;(0.6190255165100098, 0.6543941709730361);68.9532852173;1.0;;;;;;;;;;;;;;2;0;0;;0;0;();();(-2000.0, -2000.0);
04:35:47:068;04:35:47:050;1448034705.1;(0.6190255165100098, 0.6543941709730361);68.9532852173;1.0;;;;;;;;;;;;;;2;0;0;;0;0;();();(-2000.0, -2000.0);
04:35:47:101;04:35:47:089;1448034705.13;(0.34774816036224365, 0.7571183522542317);29.9958591461;0.656988861007;;;;;;;;;;;;;;2;0;0;;0;0;();();(-2000.0, -2000.0);
04:35:47:118;04:35:47:089;1448034705.13;(0.34774816036224365, 0.7571183522542317);29.9958591461;0.656988861007;;;;;;;;;;;;;;2;0;0;;0;0;();();(-2000.0, -2000.0);
04:35:47:134;04:35:47:089;1448034705.13;(0.34774816036224365, 0.7571183522542317);29.9958591461;0.656988861007;;;;;;;;;;;;;;2;0;0;;0;0;();();(-2000.0, -2000.0);
04:35:47:150;04:35:47:089;1448034705.13;(0.34774816036224365, 0.7571183522542317);29.9958591461;0.656988861007;;;;;;;;;;;;;;2;0;0;;0;0;();();(-2000.0, -2000.0);
04:35:47:167;04:35:47:089;1448034705.13;(0.34774816036224365, 0.7571183522542317);29.9958591461;0.656988861007;;;;;;;;;;;;;;2;0;0;;0;0;();();(-2000.0, -2000.0);
04:35:47:200;04:35:47:173;1448034705.23;(0.6153666973114014, 0.6560440911187067);66.9244384766;0.981356372218;;;;;;;;;;;;;;2;0;0;;0;0;();();(-2000.0, -2000.0);
04:35:47:217;04:35:47:173;1448034705.23;(0.6153666973114014, 0.6560440911187067);66.9244384766;0.981356372218;;;;;;;;;;;;;;2;0;0;;0;0;();();(-2000.0, -2000.0);
04:35:47:234;04:35:47:219;1448034705.27;(0.6155762672424316, 0.6555876202053494);66.6129760742;1.0;;;;;;;;;;;;;;2;0;0;;0;0;();();(-2000.0, -2000.0);
04:35:47:250;04:35:47:219;1448034705.27;(0.6155762672424316, 0.6555876202053494);66.6129760742;1.0;;;;;;;;;;;;;;2;0;0;;0;0;();();(-2000.0, -2000.0);
04:35:47:283;04:35:47:257;1448034705.33;(0.6156033039093017, 0.6557473288642035);66.1914672852;1.0;;;;;;;;;;;;;;2;0;0;;0;0;();();(-2000.0, -2000.0);
04:35:47:300;04:35:47:297;1448034705.37;(0.615514612197876, 0.6552509095933703);65.980178833;1.0;;;;;;;;;;;;;;2;0;0;;0;0;();();(-2000.0, -2000.0);
04:35:47:316;04:35:47:297;1448034705.37;(0.615514612197876, 0.6552509095933703);65.980178833;1.0;;;;;;;;;;;;;;2;0;0;;0;0;();();(-2000.0, -2000.0);
04:35:47:333;04:35:47:297;1448034705.37;(0.615514612197876, 0.6552509095933703);65.980178833;1.0;;;;;;;;;;;;;;2;0;0;;0;0;();();(-2000.0, -2000.0);
04:35:47:349;04:35:47:337;1448034705.4;(0.6155962467193603, 0.6555988947550455);65.9990844727;1.0;;;;;;;;;;;;;;2;0;0;;0;0;();();(-2000.0, -2000.0);
04:35:47:383;04:35:47:381;1448034705.43;(0.6156936645507812, 0.656071917215983);66.2277297974;1.0;;;;;;;;;;;;;;2;0;0;;0;0;();();(-2000.0, -2000.0);
04:35:47:399;04:35:47:381;1448034705.43;(0.6156936645507812, 0.656071917215983);66.2277297974;1.0;;;;;;;;;;;;;;2;0;0;;0;0;();();(-2000.0, -2000.0);
04:35:47:415;04:35:47:381;1448034705.43;(0.6156936645507812, 0.656071917215983);66.2277297974;1.0;;;;;;;;;;;;;;2;0;0;;0;0;();();(-2000.0, -2000.0);
04:35:47:432;04:35:47:421;1448034705.47;(0.6160050392150879, 0.6562021043565538);66.1140594482;1.0;;;;;;;;;;;;;;2;0;0;;0;0;();();(-2000.0, -2000.0);
04:35:47:448;04:35:47:421;1448034705.47;(0.6160050392150879, 0.6562021043565538);66.1140594482;1.0;;;;;;;;;;;;;;2;0;0;;0;0;();();(-2000.0, -2000.0);
04:35:47:483;04:35:47:465;1448034705.53;(0.615678358078003, 0.6553711573282878);66.5105895996;1.0;;;;;;;;;;;;;;2;0;0;;0;0;();();(-2000.0, -2000.0);
04:35:47:499;04:35:47:465;1448034705.53;(0.615678358078003, 0.6553711573282878);66.5105895996;1.0;;;;;;;;;;;;;;2;0;0;;0;0;();();(-2000.0, -2000.0);
04:35:47:515;04:35:47:505;1448034705.57;(0.6157090187072753, 0.6554061889648437);66.8110733032;1.0;;;;;;;;;;;;;;2;0;0;;0;0;();();(-2000.0, -2000.0);
04:35:47:532;04:35:47:505;1448034705.57;(0.6157090187072753, 0.6554061889648437);66.8110733032;1.0;;;;;;;;;;;;;;2;0;0;;0;0;();();(-2000.0, -2000.0);
04:35:47:548;04:35:47:544;1448034705.6;(0.615425443649292, 0.65504150390625);66.8638153076;1.0;;;;;;;;;;;;;;2;0;0;;0;0;();();(-2000.0, -2000.0);
04:35:47:581;04:35:47:544;1448034705.6;(0.615425443649292, 0.65504150390625);66.8638153076;1.0;;;;;;;;;;;;;;2;0;0;;0;0;();();(-2000.0, -2000.0);
04:35:47:598;04:35:47:589;1448034705.67;(0.6153242111206054, 0.6547959221733941);67.7012634277;1.0;;;;;;;;;;;;;;2;0;0;;0;0;();();(-2000.0, -2000.0);
04:35:47:615;04:35:47:589;1448034705.67;(0.6153242111206054, 0.6547959221733941);67.7012634277;1.0;;;;;;;;;;;;;;2;0;0;;0;0;();();(-2000.0, -2000.0);
04:35:47:631;04:35:47:628;1448034705.7;(0.6147102832794189, 0.6543287701076932);67.2575836182;1.0;;;;;;;;;;;;;;2;0;0;;0;0;();();(-2000.0, -2000.0);
04:35:47:648;04:35:47:628;1448034705.7;(0.6147102832794189, 0.6543287701076932);67.2575836182;1.0;;;;;;;;;;;;;;2;0;0;;0;0;();();(-2000.0, -2000.0);
04:35:47:681;04:35:47:669;1448034705.73;(0.3462406396865845, 0.75774597591824);28.5718269348;0.698661437302;;;;;;;;;;;;;;2;0;0;;0;0;();();(-2000.0, -2000.0);
04:35:47:697;04:35:47:669;1448034705.73;(0.3462406396865845, 0.75774597591824);28.5718269348;0.698661437302;;;;;;;;;;;;;;2;0;0;;0;0;();();(-2000.0, -2000.0);
04:35:47:713;04:35:47:712;1448034705.77;(0.6033088684082031, 0.6586435317993165);68.2671508789;1.0;;;;;;;;;;;;;;2;0;0;;0;0;();();(-2000.0, -2000.0);
04:35:47:730;04:35:47:712;1448034705.77;(0.6033088684082031, 0.6586435317993165);68.2671508789;1.0;;;;;;;;;;;;;;2;0;0;;0;0;();();(-2000.0, -2000.0);
04:35:47:747;04:35:47:712;1448034705.77;(0.6033088684082031, 0.6586435317993165);68.2671508789;1.0;;;;;;;;;;;;;;2;0;0;;0;0;();();(-2000.0, -2000.0);
04:35:47:780;04:35:47:753;1448034705.8;(0.6032230377197265, 0.659006839328342);68.8354873657;1.0;;;;;;;;;;;;;;2;0;0;;0;0;();();(-2000.0, -2000.0);
04:35:47:797;04:35:47:793;1448034705.83;(0.6028317451477051, 0.6591826544867622);69.0595016479;1.0;;;;;;;;;;;;;;2;0;0;;0;0;();();(-2000.0, -2000.0);
04:35:47:814;04:35:47:793;1448034705.83;(0.6028317451477051, 0.6591826544867622);69.0595016479;1.0;;;;;;;;;;;;;;2;0;0;;0;0;();();(-2000.0, -2000.0);
04:35:47:831;04:35:47:793;1448034705.83;(0.6028317451477051, 0.6591826544867622);69.0595016479;1.0;;;;;;;;;;;;;;2;0;0;;0;0;();();(-2000.0, -2000.0);
04:35:47:863;04:35:47:837;1448034705.9;(0.6023392677307129, 0.6582916259765625);69.4293365479;1.0;;;;;;;;;;;;;;2;0;0;;0;0;();();(-2000.0, -2000.0);
04:35:47:879;04:35:47:877;1448034705.93;(0.6024354934692383, 0.6572273254394532);69.8627090454;1.0;;;;;;;;;;;;;;2;0;0;;0;0;();();(-2000.0, -2000.0);
04:35:47:896;04:35:47:877;1448034705.93;(0.6024354934692383, 0.6572273254394532);69.8627090454;1.0;;;;;;;;;;;;;;2;0;0;;0;0;();();(-2000.0, -2000.0);
04:35:47:913;04:35:47:877;1448034705.93;(0.6024354934692383, 0.6572273254394532);69.8627090454;1.0;;;;;;;;;;;;;;2;0;0;;0;0;();();(-2000.0, -2000.0);
04:35:47:930;04:35:47:877;1448034705.93;(0.6024354934692383, 0.6572273254394532);69.8627090454;1.0;;;;;;;;;;;;;;2;0;0;;0;0;();();(-2000.0, -2000.0);
04:35:47:963;04:35:47:931;1448034705.97;(0.6027072429656982, 0.6568287743462456);70.001449585;1.0;;;;;;;;;;;;;;2;0;0;;0;0;();();(-2000.0, -2000.0);
04:35:47:979;04:35:47:931;1448034705.97;(0.6027072429656982, 0.6568287743462456);70.001449585;1.0;;;;;;;;;;;;;;2;0;0;;0;0;();();(-2000.0, -2000.0);
04:35:47:995;04:35:47:931;1448034705.97;(0.6027072429656982, 0.6568287743462456);70.001449585;1.0;;;;;;;;;;;;;;2;0;0;;0;0;();();(-2000.0, -2000.0);
04:35:48:012;04:35:47:931;1448034705.97;(0.6027072429656982, 0.6568287743462456);70.001449585;1.0;;;;;;;;;;;;;;2;0;0;;0;0;();();(-2000.0, -2000.0);
04:35:48:028;04:35:47:931;1448034705.97;(0.6027072429656982, 0.6568287743462456);70.001449585;1.0;;;;;;;;;;;;;;2;0;0;;0;0;();();(-2000.0, -2000.0);
04:35:48:062;04:35:48:044;1448034706.0;(0.7958909034729004, 0.4777129279242621);43.5748634338;0.672850116652;;;;;;;;;;;;;;2;0;0;;0;0;();();(-2000.0, -2000.0);
04:35:48:079;04:35:48:044;1448034706.0;(0.7958909034729004, 0.4777129279242621);43.5748634338;0.672850116652;;;;;;;;;;;;;;2;0;0;;0;0;();();(-2000.0, -2000.0);
04:35:48:095;04:35:48:044;1448034706.0;(0.7958909034729004, 0.4777129279242621);43.5748634338;0.672850116652;;;;;;;;;;;;;;2;0;0;;0;0;();();(-2000.0, -2000.0);
04:35:48:112;04:35:48:044;1448034706.0;(0.7958909034729004, 0.4777129279242621);43.5748634338;0.672850116652;;;;;;;;;;;;;;2;0;0;;0;0;();();(-2000.0, -2000.0);
04:35:48:129;04:35:48:044;1448034706.0;(0.7958909034729004, 0.4777129279242621);43.5748634338;0.672850116652;;;;;;;;;;;;;;2;0;0;;0;0;();();(-2000.0, -2000.0);
04:35:48:161;04:35:48:149;1448034706.11;(0.6176352500915527, 0.7058998319837781);151.81968689;0.680534730116;;;;;;;;;;;;;;2;0;0;;0;0;();();(-2000.0, -2000.0);
04:35:48:177;04:35:48:169;1448034706.21;(0.3442821502685547, 0.7871160083346896);18.3032970428;0.990923712948;;;;;;;;;;;;;;2;0;0;;0;0;();();(-2000.0, -2000.0);
04:35:48:194;04:35:48:169;1448034706.21;(0.3442821502685547, 0.7871160083346896);18.3032970428;0.990923712948;;;;;;;;;;;;;;2;0;0;;0;0;();();(-2000.0, -2000.0);
04:35:48:212;04:35:48:209;1448034706.23;(0.6135746955871582, 0.7204320483737522);71.7108459473;0.987609402738;;;;;;;;;;;;;;2;0;0;;0;0;();();(-2000.0, -2000.0);
04:35:48:228;04:35:48:209;1448034706.23;(0.6135746955871582, 0.7204320483737522);71.7108459473;0.987609402738;;;;;;;;;;;;;;2;0;0;;0;0;();();(-2000.0, -2000.0);
04:35:48:261;04:35:48:253;1448034706.29;(0.6139569282531738, 0.7160286585489909);70.8882827759;1.0;;;;;;;;;;;;;;2;0;0;;0;0;();();(-2000.0, -2000.0);
04:35:48:278;04:35:48:253;1448034706.29;(0.6139569282531738, 0.7160286585489909);70.8882827759;1.0;;;;;;;;;;;;;;2;0;0;;0;0;();();(-2000.0, -2000.0);
04:35:48:295;04:35:48:293;1448034706.34;(0.615272855758667, 0.7100198533799913);70.1070785522;0.868828573231;;;;;;;;;;;;;;2;0;0;;0;0;();();(-2000.0, -2000.0);
04:35:48:311;04:35:48:293;1448034706.34;(0.615272855758667, 0.7100198533799913);70.1070785522;0.868828573231;;;;;;;;;;;;;;2;0;0;;0;0;();();(-2000.0, -2000.0);
04:35:48:333;04:35:48:332;1448034706.37;(0.6152573585510254, 0.7074874877929688);69.4269256592;1.0;;;;;;;;;;;;;;4;0;0;;0;0;();();(-2000.0, -2000.0);
04:35:48:360;04:35:48:332;1448034706.37;(0.6152573585510254, 0.7074874877929688);69.4269256592;1.0;;;;;;;;;;;;;;4;0;0;;0;0;();();(-2000.0, -2000.0);
04:35:48:377;04:35:48:332;1448034706.37;(0.6152573585510254, 0.7074874877929688);69.4269256592;1.0;;;;;;;;;;;;;;4;0;0;;0;0;();();(-2000.0, -2000.0);
04:35:48:393;04:35:48:386;1448034706.43;(0.6148412227630615, 0.7045792685614691);69.9198684692;0.983666909199;;;;;;;;;;;;;;4;0;0;;0;0;();();(-2000.0, -2000.0);
04:35:48:410;04:35:48:386;1448034706.43;(0.6148412227630615, 0.7045792685614691);69.9198684692;0.983666909199;;;;;;;;;;;;;;4;0;0;;0;0;();();(-2000.0, -2000.0);
04:35:48:443;04:35:48:421;1448034706.47;(0.6148903846740723, 0.7027561399671767);69.6312484741;1.0;;;;;;;;;;;;;;4;0;0;;0;0;();();(-2000.0, -2000.0);
04:35:48:460;04:35:48:457;1448034706.53;(0.6164108276367187, 0.7004394107394748);70.3244781494;1.0;;;;;;;;;;;;;;4;0;0;;0;0;();();(-2000.0, -2000.0);
04:35:48:476;04:35:48:457;1448034706.53;(0.6164108276367187, 0.7004394107394748);70.3244781494;1.0;;;;;;;;;;;;;;4;0;0;;0;0;();();(-2000.0, -2000.0);
04:35:48:493;04:35:48:457;1448034706.53;(0.6164108276367187, 0.7004394107394748);70.3244781494;1.0;;;;;;;;;;;;;;4;0;0;;0;0;();();(-2000.0, -2000.0);
04:35:48:509;04:35:48:500;1448034706.57;(0.6169066429138184, 0.7000279108683268);70.4107666016;1.0;;;;;;;;;;;;;;4;0;0;;0;0;();();(-2000.0, -2000.0);
04:35:48:542;04:35:48:541;1448034706.6;(0.6172278881072998, 0.7007463455200196);70.3794784546;1.0;;;;;;;;;;;;;;4;0;0;;0;0;();();(-2000.0, -2000.0);
04:35:48:559;04:35:48:541;1448034706.6;(0.6172278881072998, 0.7007463455200196);70.3794784546;1.0;;;;;;;;;;;;;;4;0;0;;0;0;();();(-2000.0, -2000.0);
04:35:48:576;04:35:48:541;1448034706.6;(0.6172278881072998, 0.7007463455200196);70.3794784546;1.0;;;;;;;;;;;;;;4;0;0;;0;0;();();(-2000.0, -2000.0);
04:35:48:592;04:35:48:585;1448034706.63;(0.6177226543426514, 0.7004385206434462);70.6332855225;1.0;;;;;;;;;;;;;;4;0;0;;0;0;();();(-2000.0, -2000.0);
04:35:48:608;04:35:48:585;1448034706.63;(0.6177226543426514, 0.7004385206434462);70.6332855225;1.0;;;;;;;;;;;;;;4;0;0;;0;0;();();(-2000.0, -2000.0);
04:35:48:642;04:35:48:626;1448034706.7;(0.6184305667877197, 0.7009949578179253);70.0876541138;1.0;;;;;;;;;;;;;;4;0;0;;0;0;();();(-2000.0, -2000.0);
04:35:48:658;04:35:48:626;1448034706.7;(0.6184305667877197, 0.7009949578179253);70.0876541138;1.0;;;;;;;;;;;;;;4;0;0;;0;0;();();(-2000.0, -2000.0);
04:35:48:675;04:35:48:664;1448034706.73;(0.6186208248138427, 0.7021782769097222);70.6205215454;1.0;;;;;;;;;;;;;;4;0;0;;0;0;();();(-2000.0, -2000.0);
04:35:48:692;04:35:48:664;1448034706.73;(0.6186208248138427, 0.7021782769097222);70.6205215454;1.0;;;;;;;;;;;;;;4;0;0;;0;0;();();(-2000.0, -2000.0);
04:35:48:708;04:35:48:664;1448034706.73;(0.6186208248138427, 0.7021782769097222);70.6205215454;1.0;;;;;;;;;;;;;;4;0;0;;0;0;();();(-2000.0, -2000.0);
04:35:48:741;04:35:48:708;1448034706.77;(0.6184325695037842, 0.702480337354872);70.7027511597;1.0;;;;;;;;;;;;;;4;0;0;;0;0;();();(-2000.0, -2000.0);
04:35:48:758;04:35:48:757;1448034706.8;(0.6182919502258301, 0.7024665408664279);70.9274978638;1.0;;;;;;;;;;;;;;4;0;0;;0;0;();();(-2000.0, -2000.0);
04:35:48:775;04:35:48:757;1448034706.8;(0.6182919502258301, 0.7024665408664279);70.9274978638;1.0;;;;;;;;;;;;;;4;0;0;;0;0;();();(-2000.0, -2000.0);
04:35:48:791;04:35:48:789;1448034706.83;(0.618507194519043, 0.7021348741319444);71.080116272;1.0;;;;;;;;;;;;;;4;0;0;;0;0;();();(-2000.0, -2000.0);
04:35:48:807;04:35:48:793;1448034706.87;(0.6184538841247559, 0.7022775650024414);71.0506515503;1.0;;;;;;;;;;;;;;4;0;0;;0;0;();();(-2000.0, -2000.0);
04:35:48:841;04:35:48:833;1448034706.9;(0.6186501026153565, 0.7024035135904948);71.5076065063;1.0;;;;;;;;;;;;;;4;0;0;;0;0;();();(-2000.0, -2000.0);
04:35:48:858;04:35:48:833;1448034706.9;(0.6186501026153565, 0.7024035135904948);71.5076065063;1.0;;;;;;;;;;;;;;4;0;0;;0;0;();();(-2000.0, -2000.0);
04:35:48:874;04:35:48:872;1448034706.93;(0.6188261032104492, 0.7021980285644531);71.3173446655;1.0;;;;;;;;;;;;;;4;0;0;;0;0;();();(-2000.0, -2000.0);
04:35:48:890;04:35:48:872;1448034706.93;(0.6188261032104492, 0.7021980285644531);71.3173446655;1.0;;;;;;;;;;;;;;4;0;0;;0;0;();();(-2000.0, -2000.0);
04:35:48:908;04:35:48:872;1448034706.93;(0.6188261032104492, 0.7021980285644531);71.3173446655;1.0;;;;;;;;;;;;;;4;0;0;;0;0;();();(-2000.0, -2000.0);
04:35:48:940;04:35:48:913;1448034706.97;(0.6195258617401123, 0.7018984688652886);71.6620178223;1.0;;;;;;;;;;;;;;4;0;0;;0;0;();();(-2000.0, -2000.0);
04:35:48:957;04:35:48:913;1448034706.97;(0.6195258617401123, 0.7018984688652886);71.6620178223;1.0;;;;;;;;;;;;;;4;0;0;;0;0;();();(-2000.0, -2000.0);
04:35:48:973;04:35:48:964;1448034707.03;(0.619620418548584, 0.7018519507514106);71.1992797852;1.0;;;;;;;;;;;;;;4;0;0;;0;0;();();(-2000.0, -2000.0);
