%Timestamp,timestamp_write;timestamp_gotpupil;eyetrackertime;norm_pos;diameter;confidence;timestamp_gotbitdata;CRC;SEQ;AnalogOutp1;AnalogOutp2;AnalogOutp3;AnalogOutp4;AnalogOutp5;AnalogOutp6;DigitalOutp1;DigitalOutp2;igitalOutp3;DigitalOutp4;nplanes;lastaction;lastactiondetails;lastactionairplanenumber;positivescore;negativescore;collidedairplanenumbers;targetpositions;collision_point
04:30:07:382;1448034365.42;(0.5517704963684082, 0.6984385808308919);65.1399078369;1.0;;;;;;;;;;;;;;0;0;0;;0;0;();();(0.0, 0.0);
04:30:07:386;1448034365.42;(0.5517704963684082, 0.6984385808308919);65.1399078369;1.0;;;;;;;;;;;;;;0;0;0;;0;0;();();(-2000.0, -2000.0);
04:30:07:387;1448034365.42;(0.5517704963684082, 0.6984385808308919);65.1399078369;1.0;;;;;;;;;;;;;;0;0;0;;0;0;();();(-2000.0, -2000.0);
04:30:07:388;1448034365.42;(0.5517704963684082, 0.6984385808308919);65.1399078369;1.0;;;;;;;;;;;;;;0;0;0;;0;0;();();(-2000.0, -2000.0);
04:30:07:388;1448034365.42;(0.5517704963684082, 0.6984385808308919);65.1399078369;1.0;;;;;;;;;;;;;;0;0;0;;0;0;();();(-2000.0, -2000.0);
04:30:07:388;1448034365.42;(0.5517704963684082, 0.6984385808308919);65.1399078369;1.0;;;;;;;;;;;;;;0;0;0;;0;0;();();(-2000.0, -2000.0);
04:30:07:388;1448034365.42;(0.5517704963684082, 0.6984385808308919);65.1399078369;1.0;;;;;;;;;;;;;;0;0;0;;0;0;();();(-2000.0, -2000.0);
04:30:07:388;1448034365.42;(0.5517704963684082, 0.6984385808308919);65.1399078369;1.0;;;;;;;;;;;;;;0;0;0;;0;0;();();(-2000.0, -2000.0);
04:30:07:389;1448034365.42;(0.5517704963684082, 0.6984385808308919);65.1399078369;1.0;;;;;;;;;;;;;;0;0;0;;0;0;();();(-2000.0, -2000.0);
04:30:07:389;1448034365.42;(0.5517704963684082, 0.6984385808308919);65.1399078369;1.0;;;;;;;;;;;;;;0;0;0;;0;0;();();(-2000.0, -2000.0);
04:30:07:389;1448034365.42;(0.5517704963684082, 0.6984385808308919);65.1399078369;1.0;;;;;;;;;;;;;;0;0;0;;0;0;();();(-2000.0, -2000.0);
04:30:07:389;1448034365.42;(0.5517704963684082, 0.6984385808308919);65.1399078369;1.0;;;;;;;;;;;;;;0;0;0;;0;0;();();(-2000.0, -2000.0);
04:30:07:389;1448034365.42;(0.5517704963684082, 0.6984385808308919);65.1399078369;1.0;;;;;;;;;;;;;;0;0;0;;0;0;();();(-2000.0, -2000.0);
04:30:07:390;1448034365.42;(0.5517704963684082, 0.6984385808308919);65.1399078369;1.0;;;;;;;;;;;;;;0;0;0;;0;0;();();(-2000.0, -2000.0);
04:30:07:390;1448034365.42;(0.5517704963684082, 0.6984385808308919);65.1399078369;1.0;;;;;;;;;;;;;;0;0;0;;0;0;();();(-2000.0, -2000.0);
04:30:07:390;1448034365.42;(0.5517704963684082, 0.6984385808308919);65.1399078369;1.0;;;;;;;;;;;;;;0;0;0;;0;0;();();(-2000.0, -2000.0);
04:30:07:391;1448034365.42;(0.5517704963684082, 0.6984385808308919);65.1399078369;1.0;;;;;;;;;;;;;;0;0;0;;0;0;();();(-2000.0, -2000.0);
04:30:07:405;1448034365.42;(0.5517704963684082, 0.6984385808308919);65.1399078369;1.0;;;;;;;;;;;;;;0;0;0;;0;0;();();(-2000.0, -2000.0);
04:30:07:421;1448034365.42;(0.5517704963684082, 0.6984385808308919);65.1399078369;1.0;;;;;;;;;;;;;;0;0;0;;0;0;();();(-2000.0, -2000.0);
04:30:07:455;04:30:07:435;1448034365.49;(0.550865888595581, 0.698138682047526);65.910949707;1.0;;;;;;;;;;;;;;0;0;0;;0;0;();();(-2000.0, -2000.0);
04:30:07:471;04:30:07:435;1448034365.49;(0.550865888595581, 0.698138682047526);65.910949707;1.0;;;;;;;;;;;;;;0;0;0;;0;0;();();(-2000.0, -2000.0);
04:30:07:488;04:30:07:435;1448034365.49;(0.550865888595581, 0.698138682047526);65.910949707;1.0;;;;;;;;;;;;;;0;0;0;;0;0;();();(-2000.0, -2000.0);
04:30:07:504;04:30:07:504;1448034365.55;(0.5502043247222901, 0.6980050828721789);67.0513076782;1.0;;;;;;;;;;;;;;0;0;0;;0;0;();();(-2000.0, -2000.0);
04:30:07:522;04:30:07:504;1448034365.55;(0.5502043247222901, 0.6980050828721789);67.0513076782;1.0;;;;;;;;;;;;;;0;0;0;;0;0;();();(-2000.0, -2000.0);
04:30:07:555;04:30:07:504;1448034365.55;(0.5502043247222901, 0.6980050828721789);67.0513076782;1.0;;;;;;;;;;;;;;0;0;0;;0;0;();();(-2000.0, -2000.0);
04:30:07:572;04:30:07:571;1448034365.62;(0.5495274543762207, 0.6981854968600802);67.5597000122;1.0;;;;;;;;;;;;;;0;0;0;;0;0;();();(-2000.0, -2000.0);
04:30:07:589;04:30:07:571;1448034365.62;(0.5495274543762207, 0.6981854968600802);67.5597000122;1.0;;;;;;;;;;;;;;0;0;0;;0;0;();();(-2000.0, -2000.0);
04:30:07:604;04:30:07:571;1448034365.62;(0.5495274543762207, 0.6981854968600802);67.5597000122;1.0;;;;;;;;;;;;;;0;0;0;;0;0;();();(-2000.0, -2000.0);
04:30:07:623;04:30:07:571;1448034365.62;(0.5495274543762207, 0.6981854968600802);67.5597000122;1.0;;;;;;;;;;;;;;0;0;0;;0;0;();();(-2000.0, -2000.0);
04:30:07:655;04:30:07:635;1448034365.69;(0.5488318920135498, 0.6984789742363824);68.2069854736;1.0;;;;;;;;;;;;;;0;0;0;;0;0;();();(-2000.0, -2000.0);
04:30:07:672;04:30:07:635;1448034365.69;(0.5488318920135498, 0.6984789742363824);68.2069854736;1.0;;;;;;;;;;;;;;0;0;0;;0;0;();();(-2000.0, -2000.0);
04:30:07:689;04:30:07:635;1448034365.69;(0.5488318920135498, 0.6984789742363824);68.2069854736;1.0;;;;;;;;;;;;;;0;0;0;;0;0;();();(-2000.0, -2000.0);
04:30:07:705;04:30:07:702;1448034365.72;(0.5483652114868164, 0.6989483939276802);68.4279174805;1.0;;;;;;;;;;;;;;0;0;0;;0;0;();();(-2000.0, -2000.0);
04:30:07:722;04:30:07:702;1448034365.72;(0.5483652114868164, 0.6989483939276802);68.4279174805;1.0;;;;;;;;;;;;;;0;0;0;;0;0;();();(-2000.0, -2000.0);
04:30:07:755;04:30:07:702;1448034365.72;(0.5483652114868164, 0.6989483939276802);68.4279174805;1.0;;;;;;;;;;;;;;0;0;0;;0;0;();();(-2000.0, -2000.0);
04:30:07:772;04:30:07:702;1448034365.72;(0.5483652114868164, 0.6989483939276802);68.4279174805;1.0;;;;;;;;;;;;;;0;0;0;;0;0;();();(-2000.0, -2000.0);
04:30:07:788;04:30:07:702;1448034365.72;(0.5483652114868164, 0.6989483939276802);68.4279174805;1.0;;;;;;;;;;;;;;0;0;0;;0;0;();();(-2000.0, -2000.0);
04:30:07:805;04:30:07:702;1448034365.72;(0.5483652114868164, 0.6989483939276802);68.4279174805;1.0;;;;;;;;;;;;;;0;0;0;;0;0;();();(-2000.0, -2000.0);
04:30:07:821;04:30:07:702;1448034365.72;(0.5483652114868164, 0.6989483939276802);68.4279174805;1.0;;;;;;;;;;;;;;0;0;0;;0;0;();();(-2000.0, -2000.0);
04:30:07:856;04:30:07:834;1448034365.89;(0.5759418487548829, 0.6740683873494466);69.9075775146;1.0;;;;;;;;;;;;;;0;0;0;;0;0;();();(-2000.0, -2000.0);
04:30:07:872;04:30:07:834;1448034365.89;(0.5759418487548829, 0.6740683873494466);69.9075775146;1.0;;;;;;;;;;;;;;0;0;0;;0;0;();();(-2000.0, -2000.0);
04:30:07:889;04:30:07:834;1448034365.89;(0.5759418487548829, 0.6740683873494466);69.9075775146;1.0;;;;;;;;;;;;;;0;0;0;;0;0;();();(-2000.0, -2000.0);
04:30:07:905;04:30:07:834;1448034365.89;(0.5759418487548829, 0.6740683873494466);69.9075775146;1.0;;;;;;;;;;;;;;0;0;0;;0;0;();();(-2000.0, -2000.0);
04:30:07:922;04:30:07:834;1448034365.89;(0.5759418487548829, 0.6740683873494466);69.9075775146;1.0;;;;;;;;;;;;;;0;0;0;;0;0;();();(-2000.0, -2000.0);
04:30:07:955;04:30:07:834;1448034365.89;(0.5759418487548829, 0.6740683873494466);69.9075775146;1.0;;;;;;;;;;;;;;0;0;0;;0;0;();();(-2000.0, -2000.0);
04:30:07:972;04:30:07:834;1448034365.89;(0.5759418487548829, 0.6740683873494466);69.9075775146;1.0;;;;;;;;;;;;;;0;0;0;;0;0;();();(-2000.0, -2000.0);
04:30:07:989;04:30:07:834;1448034365.89;(0.5759418487548829, 0.6740683873494466);69.9075775146;1.0;;;;;;;;;;;;;;0;0;0;;0;0;();();(-2000.0, -2000.0);
04:30:08:005;04:30:07:834;1448034365.89;(0.5759418487548829, 0.6740683873494466);69.9075775146;1.0;;;;;;;;;;;;;;0;0;0;;0;0;();();(-2000.0, -2000.0);
04:30:08:022;04:30:07:834;1448034365.89;(0.5759418487548829, 0.6740683873494466);69.9075775146;1.0;;;;;;;;;;;;;;0;0;0;;0;0;();();(-2000.0, -2000.0);
04:30:08:055;04:30:08:034;1448034365.92;(0.5717074394226074, 0.67730286916097);70.006980896;1.0;;;;;;;;;;;;;;0;0;0;;0;0;();();(-2000.0, -2000.0);
04:30:08:072;04:30:08:034;1448034365.92;(0.5717074394226074, 0.67730286916097);70.006980896;1.0;;;;;;;;;;;;;;0;0;0;;0;0;();();(-2000.0, -2000.0);
04:30:08:089;04:30:08:034;1448034365.92;(0.5717074394226074, 0.67730286916097);70.006980896;1.0;;;;;;;;;;;;;;0;0;0;;0;0;();();(-2000.0, -2000.0);
04:30:08:105;04:30:08:034;1448034365.92;(0.5717074394226074, 0.67730286916097);70.006980896;1.0;;;;;;;;;;;;;;0;0;0;;0;0;();();(-2000.0, -2000.0);
04:30:08:122;04:30:08:034;1448034365.92;(0.5717074394226074, 0.67730286916097);70.006980896;1.0;;;;;;;;;;;;;;0;0;0;;0;0;();();(-2000.0, -2000.0);
04:30:08:155;04:30:08:034;1448034365.92;(0.5717074394226074, 0.67730286916097);70.006980896;1.0;;;;;;;;;;;;;;0;0;0;;0;0;();();(-2000.0, -2000.0);
04:30:08:172;04:30:08:165;1448034366.06;(0.4702962875366211, 0.6086579216851129);39.0617980957;0.601558140151;;;;;;;;;;;;;;0;0;0;;0;0;();();(-2000.0, -2000.0);
04:30:08:189;04:30:08:165;1448034366.06;(0.4702962875366211, 0.6086579216851129);39.0617980957;0.601558140151;;;;;;;;;;;;;;0;0;0;;0;0;();();(-2000.0, -2000.0);
04:30:08:206;04:30:08:165;1448034366.06;(0.4702962875366211, 0.6086579216851129);39.0617980957;0.601558140151;;;;;;;;;;;;;;0;0;0;;0;0;();();(-2000.0, -2000.0);
04:30:08:222;04:30:08:165;1448034366.06;(0.4702962875366211, 0.6086579216851129);39.0617980957;0.601558140151;;;;;;;;;;;;;;0;0;0;;0;0;();();(-2000.0, -2000.0);
04:30:08:256;04:30:08:235;1448034366.28;(0.6489845275878906, 0.6197585211859808);65.9788665771;1.0;;;;;;;;;;;;;;0;0;0;;0;0;();();(-2000.0, -2000.0);
04:30:08:272;04:30:08:235;1448034366.28;(0.6489845275878906, 0.6197585211859808);65.9788665771;1.0;;;;;;;;;;;;;;0;0;0;;0;0;();();(-2000.0, -2000.0);
04:30:08:289;04:30:08:235;1448034366.28;(0.6489845275878906, 0.6197585211859808);65.9788665771;1.0;;;;;;;;;;;;;;0;0;0;;0;0;();();(-2000.0, -2000.0);
04:30:08:306;04:30:08:298;1448034366.34;(0.4756901741027832, 0.8205095926920573);24.7384967804;0.806664878525;;;;;;;;;;;;;;0;0;0;;0;0;();();(-2000.0, -2000.0);
04:30:08:322;04:30:08:298;1448034366.34;(0.4756901741027832, 0.8205095926920573);24.7384967804;0.806664878525;;;;;;;;;;;;;;0;0;0;;0;0;();();(-2000.0, -2000.0);
04:30:08:356;04:30:08:298;1448034366.34;(0.4756901741027832, 0.8205095926920573);24.7384967804;0.806664878525;;;;;;;;;;;;;;0;0;0;;0;0;();();(-2000.0, -2000.0);
04:30:08:372;04:30:08:298;1448034366.34;(0.4756901741027832, 0.8205095926920573);24.7384967804;0.806664878525;;;;;;;;;;;;;;0;0;0;;0;0;();();(-2000.0, -2000.0);
04:30:08:389;04:30:08:376;1448034366.39;(0.6184051036834717, 0.6392890930175781);66.0778045654;0.976947084947;;;;;;;;;;;;;;0;0;0;;0;0;();();(-2000.0, -2000.0);
04:30:08:406;04:30:08:376;1448034366.39;(0.6184051036834717, 0.6392890930175781);66.0778045654;0.976947084947;;;;;;;;;;;;;;0;0;0;;0;0;();();(-2000.0, -2000.0);
04:30:08:422;04:30:08:376;1448034366.39;(0.6184051036834717, 0.6392890930175781);66.0778045654;0.976947084947;;;;;;;;;;;;;;0;0;0;;0;0;();();(-2000.0, -2000.0);
04:30:08:456;04:30:08:376;1448034366.39;(0.6184051036834717, 0.6392890930175781);66.0778045654;0.976947084947;;;;;;;;;;;;;;0;0;0;;0;0;();();(-2000.0, -2000.0);
04:30:08:473;04:30:08:376;1448034366.39;(0.6184051036834717, 0.6392890930175781);66.0778045654;0.976947084947;;;;;;;;;;;;;;0;0;0;;0;0;();();(-2000.0, -2000.0);
04:30:08:489;04:30:08:376;1448034366.39;(0.6184051036834717, 0.6392890930175781);66.0778045654;0.976947084947;;;;;;;;;;;;;;0;0;0;;0;0;();();(-2000.0, -2000.0);
04:30:08:506;04:30:08:376;1448034366.39;(0.6184051036834717, 0.6392890930175781);66.0778045654;0.976947084947;;;;;;;;;;;;;;0;0;0;;0;0;();();(-2000.0, -2000.0);
04:30:08:522;04:30:08:376;1448034366.39;(0.6184051036834717, 0.6392890930175781);66.0778045654;0.976947084947;;;;;;;;;;;;;;0;0;0;;0;0;();();(-2000.0, -2000.0);
04:30:08:556;04:30:08:376;1448034366.39;(0.6184051036834717, 0.6392890930175781);66.0778045654;0.976947084947;;;;;;;;;;;;;;0;0;0;;0;0;();();(-2000.0, -2000.0);
04:30:08:573;04:30:08:568;1448034366.62;(0.3374115228652954, 0.763180160522461);25.7552127838;0.909619612564;;;;;;;;;;;;;;0;0;0;;0;0;();();(-2000.0, -2000.0);
04:30:08:589;04:30:08:568;1448034366.62;(0.3374115228652954, 0.763180160522461);25.7552127838;0.909619612564;;;;;;;;;;;;;;0;0;0;;0;0;();();(-2000.0, -2000.0);
04:30:08:606;04:30:08:568;1448034366.62;(0.3374115228652954, 0.763180160522461);25.7552127838;0.909619612564;;;;;;;;;;;;;;0;0;0;;0;0;();();(-2000.0, -2000.0);
04:30:08:623;04:30:08:568;1448034366.62;(0.3374115228652954, 0.763180160522461);25.7552127838;0.909619612564;;;;;;;;;;;;;;0;0;0;;0;0;();();(-2000.0, -2000.0);
04:30:08:656;04:30:08:630;1448034366.69;(0.33837404251098635, 0.7741937425401475);24.2998809814;1.0;;;;;;;;;;;;;;0;0;0;;0;0;();();(-2000.0, -2000.0);
04:30:08:672;04:30:08:630;1448034366.69;(0.33837404251098635, 0.7741937425401475);24.2998809814;1.0;;;;;;;;;;;;;;0;0;0;;0;0;();();(-2000.0, -2000.0);
04:30:08:689;04:30:08:630;1448034366.69;(0.33837404251098635, 0.7741937425401475);24.2998809814;1.0;;;;;;;;;;;;;;0;0;0;;0;0;();();(-2000.0, -2000.0);
04:30:08:706;04:30:08:699;1448034366.75;(0.34030258655548096, 0.7772555669148763);27.1730651855;0.830911978304;;;;;;;;;;;;;;0;0;0;;0;0;();();(-2000.0, -2000.0);
04:30:08:723;04:30:08:699;1448034366.75;(0.34030258655548096, 0.7772555669148763);27.1730651855;0.830911978304;;;;;;;;;;;;;;0;0;0;;0;0;();();(-2000.0, -2000.0);
04:30:08:757;04:30:08:699;1448034366.75;(0.34030258655548096, 0.7772555669148763);27.1730651855;0.830911978304;;;;;;;;;;;;;;0;0;0;;0;0;();();(-2000.0, -2000.0);
04:30:08:773;04:30:08:765;1448034366.82;(0.6005771160125732, 0.6591046439276802);71.178894043;0.814620219026;;;;;;;;;;;;;;0;0;0;;0;0;();();(-2000.0, -2000.0);
04:30:08:790;04:30:08:765;1448034366.82;(0.6005771160125732, 0.6591046439276802);71.178894043;0.814620219026;;;;;;;;;;;;;;0;0;0;;0;0;();();(-2000.0, -2000.0);
04:30:08:806;04:30:08:765;1448034366.82;(0.6005771160125732, 0.6591046439276802);71.178894043;0.814620219026;;;;;;;;;;;;;;0;0;0;;0;0;();();(-2000.0, -2000.0);
04:30:08:823;04:30:08:765;1448034366.82;(0.6005771160125732, 0.6591046439276802);71.178894043;0.814620219026;;;;;;;;;;;;;;0;0;0;;0;0;();();(-2000.0, -2000.0);
04:30:08:857;04:30:08:830;1448034366.85;(0.3379401683807373, 0.7862661997477214);31.062505722;0.708608919216;;;;;;;;;;;;;;0;0;0;;0;0;();();(-2000.0, -2000.0);
04:30:08:873;04:30:08:830;1448034366.85;(0.3379401683807373, 0.7862661997477214);31.062505722;0.708608919216;;;;;;;;;;;;;;0;0;0;;0;0;();();(-2000.0, -2000.0);
04:30:08:890;04:30:08:830;1448034366.85;(0.3379401683807373, 0.7862661997477214);31.062505722;0.708608919216;;;;;;;;;;;;;;0;0;0;;0;0;();();(-2000.0, -2000.0);
04:30:08:906;04:30:08:901;1448034366.89;(0.49280881881713867, 0.8926352288987901);19.7555503845;0.630982318547;;;;;;;;;;;;;;0;0;0;;0;0;();();(-2000.0, -2000.0);
04:30:08:923;04:30:08:901;1448034366.89;(0.49280881881713867, 0.8926352288987901);19.7555503845;0.630982318547;;;;;;;;;;;;;;0;0;0;;0;0;();();(-2000.0, -2000.0);
04:30:08:940;04:30:08:901;1448034366.89;(0.49280881881713867, 0.8926352288987901);19.7555503845;0.630982318547;;;;;;;;;;;;;;0;0;0;;0;0;();();(-2000.0, -2000.0);
04:30:08:973;04:30:08:972;1448034367.02;(0.3398340463638306, 0.7845090866088867);26.1838035583;0.964660941887;;;;;;;;;;;;;;0;0;0;;0;0;();();(-2000.0, -2000.0);
04:30:08:990;04:30:08:972;1448034367.02;(0.3398340463638306, 0.7845090866088867);26.1838035583;0.964660941887;;;;;;;;;;;;;;0;0;0;;0;0;();();(-2000.0, -2000.0);
04:30:09:007;04:30:08:972;1448034367.02;(0.3398340463638306, 0.7845090866088867);26.1838035583;0.964660941887;;;;;;;;;;;;;;0;0;0;;0;0;();();(-2000.0, -2000.0);
04:30:09:023;04:30:08:972;1448034367.02;(0.3398340463638306, 0.7845090866088867);26.1838035583;0.964660941887;;;;;;;;;;;;;;0;0;0;;0;0;();();(-2000.0, -2000.0);
04:30:09:057;04:30:09:032;1448034367.09;(0.5908990859985351, 0.6697786543104384);67.3023681641;1.0;;;;;;;;;;;;;;0;0;0;;0;0;();();(-2000.0, -2000.0);
04:30:09:073;04:30:09:032;1448034367.09;(0.5908990859985351, 0.6697786543104384);67.3023681641;1.0;;;;;;;;;;;;;;0;0;0;;0;0;();();(-2000.0, -2000.0);
04:30:09:089;04:30:09:032;1448034367.09;(0.5908990859985351, 0.6697786543104384);67.3023681641;1.0;;;;;;;;;;;;;;0;0;0;;0;0;();();(-2000.0, -2000.0);
04:30:09:106;04:30:09:094;1448034367.12;(0.5945268154144288, 0.6701158311631945);67.2308349609;0.972973121705;;;;;;;;;;;;;;0;0;0;;0;0;();();(-2000.0, -2000.0);
04:30:09:123;04:30:09:094;1448034367.12;(0.5945268154144288, 0.6701158311631945);67.2308349609;0.972973121705;;;;;;;;;;;;;;0;0;0;;0;0;();();(-2000.0, -2000.0);
04:30:09:156;04:30:09:094;1448034367.12;(0.5945268154144288, 0.6701158311631945);67.2308349609;0.972973121705;;;;;;;;;;;;;;0;0;0;;0;0;();();(-2000.0, -2000.0);
04:30:09:173;04:30:09:169;1448034367.22;(0.6034687519073486, 0.6708443323771158);66.3464279175;1.0;;;;;;;;;;;;;;0;0;0;;0;0;();();(-2000.0, -2000.0);
04:30:09:190;04:30:09:169;1448034367.22;(0.6034687519073486, 0.6708443323771158);66.3464279175;1.0;;;;;;;;;;;;;;0;0;0;;0;0;();();(-2000.0, -2000.0);
04:30:09:206;04:30:09:169;1448034367.22;(0.6034687519073486, 0.6708443323771158);66.3464279175;1.0;;;;;;;;;;;;;;0;0;0;;0;0;();();(-2000.0, -2000.0);
04:30:09:223;04:30:09:169;1448034367.22;(0.6034687519073486, 0.6708443323771158);66.3464279175;1.0;;;;;;;;;;;;;;0;0;0;;0;0;();();(-2000.0, -2000.0);
04:30:09:240;04:30:09:230;1448034367.29;(0.5799211978912353, 0.6894930733574761);66.3044662476;1.0;;;;;;;;;;;;;;0;0;0;;0;0;();();(-2000.0, -2000.0);
04:30:09:273;04:30:09:230;1448034367.29;(0.5799211978912353, 0.6894930733574761);66.3044662476;1.0;;;;;;;;;;;;;;0;0;0;;0;0;();();(-2000.0, -2000.0);
04:30:09:290;04:30:09:230;1448034367.29;(0.5799211978912353, 0.6894930733574761);66.3044662476;1.0;;;;;;;;;;;;;;0;0;0;;0;0;();();(-2000.0, -2000.0);
04:30:09:307;04:30:09:295;1448034367.35;(0.581926965713501, 0.6904629389444987);66.9414978027;0.859818474882;;;;;;;;;;;;;;0;0;0;;0;0;();();(-2000.0, -2000.0);
04:30:09:323;04:30:09:295;1448034367.35;(0.581926965713501, 0.6904629389444987);66.9414978027;0.859818474882;;;;;;;;;;;;;;0;0;0;;0;0;();();(-2000.0, -2000.0);
04:30:09:357;04:30:09:295;1448034367.35;(0.581926965713501, 0.6904629389444987);66.9414978027;0.859818474882;;;;;;;;;;;;;;0;0;0;;0;0;();();(-2000.0, -2000.0);
04:30:09:374;04:30:09:362;1448034367.42;(0.5865908145904541, 0.6921845965915256);66.6630477905;0.944854147484;;;;;;;;;;;;;;0;0;0;;0;0;();();(-2000.0, -2000.0);
04:30:09:390;04:30:09:362;1448034367.42;(0.5865908145904541, 0.6921845965915256);66.6630477905;0.944854147484;;;;;;;;;;;;;;0;0;0;;0;0;();();(-2000.0, -2000.0);
04:30:09:407;04:30:09:362;1448034367.42;(0.5865908145904541, 0.6921845965915256);66.6630477905;0.944854147484;;;;;;;;;;;;;;0;0;0;;0;0;();();(-2000.0, -2000.0);
04:30:09:423;04:30:09:362;1448034367.42;(0.5865908145904541, 0.6921845965915256);66.6630477905;0.944854147484;;;;;;;;;;;;;;0;0;0;;0;0;();();(-2000.0, -2000.0);
04:30:09:440;04:30:09:426;1448034367.49;(0.5906615734100342, 0.688831901550293);66.0759887695;0.970069299084;;;;;;;;;;;;;;0;0;0;;0;0;();();(-2000.0, -2000.0);
04:30:09:473;04:30:09:426;1448034367.49;(0.5906615734100342, 0.688831901550293);66.0759887695;0.970069299084;;;;;;;;;;;;;;0;0;0;;0;0;();();(-2000.0, -2000.0);
04:30:09:490;04:30:09:426;1448034367.49;(0.5906615734100342, 0.688831901550293);66.0759887695;0.970069299084;;;;;;;;;;;;;;0;0;0;;0;0;();();(-2000.0, -2000.0);
04:30:09:507;04:30:09:494;1448034367.55;(0.5922205448150635, 0.6888523313734267);66.645866394;1.0;;;;;;;;;;;;;;0;0;0;;0;0;();();(-2000.0, -2000.0);
04:30:09:523;04:30:09:494;1448034367.55;(0.5922205448150635, 0.6888523313734267);66.645866394;1.0;;;;;;;;;;;;;;0;0;0;;0;0;();();(-2000.0, -2000.0);
04:30:09:540;04:30:09:494;1448034367.55;(0.5922205448150635, 0.6888523313734267);66.645866394;1.0;;;;;;;;;;;;;;0;0;0;;0;0;();();(-2000.0, -2000.0);
04:30:09:574;04:30:09:558;1448034367.62;(0.5942137241363525, 0.6885025236341689);65.9458312988;1.0;;;;;;;;;;;;;;0;0;0;;0;0;();();(-2000.0, -2000.0);
04:30:09:590;04:30:09:558;1448034367.62;(0.5942137241363525, 0.6885025236341689);65.9458312988;1.0;;;;;;;;;;;;;;0;0;0;;0;0;();();(-2000.0, -2000.0);
04:30:09:607;04:30:09:558;1448034367.62;(0.5942137241363525, 0.6885025236341689);65.9458312988;1.0;;;;;;;;;;;;;;0;0;0;;0;0;();();(-2000.0, -2000.0);
04:30:09:623;04:30:09:558;1448034367.62;(0.5942137241363525, 0.6885025236341689);65.9458312988;1.0;;;;;;;;;;;;;;0;0;0;;0;0;();();(-2000.0, -2000.0);
04:30:09:640;04:30:09:558;1448034367.62;(0.5942137241363525, 0.6885025236341689);65.9458312988;1.0;;;;;;;;;;;;;;0;0;0;;0;0;();();(-2000.0, -2000.0);
04:30:09:673;04:30:09:645;1448034367.69;(0.5957808017730712, 0.6888454225328233);66.1098403931;1.0;;;;;;;;;;;;;;0;0;0;;0;0;();();(-2000.0, -2000.0);
04:30:09:690;04:30:09:645;1448034367.69;(0.5957808017730712, 0.6888454225328233);66.1098403931;1.0;;;;;;;;;;;;;;0;0;0;;0;0;();();(-2000.0, -2000.0);
04:30:09:707;04:30:09:705;1448034367.75;(0.5972387790679932, 0.6886814117431641);67.1909866333;1.0;;;;;;;;;;;;;;0;0;0;;0;0;();();(-2000.0, -2000.0);
04:30:09:724;04:30:09:705;1448034367.75;(0.5972387790679932, 0.6886814117431641);67.1909866333;1.0;;;;;;;;;;;;;;0;0;0;;0;0;();();(-2000.0, -2000.0);
04:30:09:740;04:30:09:705;1448034367.75;(0.5972387790679932, 0.6886814117431641);67.1909866333;1.0;;;;;;;;;;;;;;0;0;0;;0;0;();();(-2000.0, -2000.0);
04:30:09:773;04:30:09:758;1448034367.82;(0.5990665435791016, 0.6876516766018338);67.7232208252;1.0;;;;;;;;;;;;;;0;0;0;;0;0;();();(-2000.0, -2000.0);
04:30:09:790;04:30:09:758;1448034367.82;(0.5990665435791016, 0.6876516766018338);67.7232208252;1.0;;;;;;;;;;;;;;0;0;0;;0;0;();();(-2000.0, -2000.0);
04:30:09:807;04:30:09:758;1448034367.82;(0.5990665435791016, 0.6876516766018338);67.7232208252;1.0;;;;;;;;;;;;;;0;0;0;;0;0;();();(-2000.0, -2000.0);
04:30:09:824;04:30:09:758;1448034367.82;(0.5990665435791016, 0.6876516766018338);67.7232208252;1.0;;;;;;;;;;;;;;0;0;0;;0;0;();();(-2000.0, -2000.0);
04:30:09:841;04:30:09:758;1448034367.82;(0.5990665435791016, 0.6876516766018338);67.7232208252;1.0;;;;;;;;;;;;;;0;0;0;;0;0;();();(-2000.0, -2000.0);
04:30:09:874;04:30:09:758;1448034367.82;(0.5990665435791016, 0.6876516766018338);67.7232208252;1.0;;;;;;;;;;;;;;0;0;0;;0;0;();();(-2000.0, -2000.0);
04:30:09:890;04:30:09:890;1448034367.85;(0.6234866142272949, 0.9027435196770562);30.2221050262;0.768874195412;;;;;;;;;;;;;;0;0;0;;0;0;();();(-2000.0, -2000.0);
04:30:09:907;04:30:09:890;1448034367.85;(0.6234866142272949, 0.9027435196770562);30.2221050262;0.768874195412;;;;;;;;;;;;;;0;0;0;;0;0;();();(-2000.0, -2000.0);
04:30:09:924;04:30:09:890;1448034367.85;(0.6234866142272949, 0.9027435196770562);30.2221050262;0.768874195412;;;;;;;;;;;;;;0;0;0;;0;0;();();(-2000.0, -2000.0);
04:30:09:940;04:30:09:890;1448034367.85;(0.6234866142272949, 0.9027435196770562);30.2221050262;0.768874195412;;;;;;;;;;;;;;0;0;0;;0;0;();();(-2000.0, -2000.0);
04:30:09:974;04:30:09:960;1448034368.02;(0.5769381999969483, 0.6991912206013997);68.210647583;1.0;;;;;;;;;;;;;;0;0;0;;0;0;();();(-2000.0, -2000.0);
04:30:09:991;04:30:09:960;1448034368.02;(0.5769381999969483, 0.6991912206013997);68.210647583;1.0;;;;;;;;;;;;;;0;0;0;;0;0;();();(-2000.0, -2000.0);
04:30:10:007;04:30:09:960;1448034368.02;(0.5769381999969483, 0.6991912206013997);68.210647583;1.0;;;;;;;;;;;;;;0;0;0;;0;0;();();(-2000.0, -2000.0);
04:30:10:024;04:30:09:960;1448034368.02;(0.5769381999969483, 0.6991912206013997);68.210647583;1.0;;;;;;;;;;;;;;0;0;0;;0;0;();();(-2000.0, -2000.0);
04:30:10:041;04:30:10:026;1448034368.09;(0.5788634300231934, 0.6975140041775174);68.7341308594;0.999245547013;;;;;;;;;;;;;;0;0;0;;0;0;();();(-2000.0, -2000.0);
04:30:10:074;04:30:10:026;1448034368.09;(0.5788634300231934, 0.6975140041775174);68.7341308594;0.999245547013;;;;;;;;;;;;;;0;0;0;;0;0;();();(-2000.0, -2000.0);
04:30:10:090;04:30:10:090;1448034368.12;(0.5799609661102295, 0.6973479164971246);68.21434021;1.0;;;;;;;;;;;;;;0;0;0;;0;0;();();(-2000.0, -2000.0);
04:30:10:107;04:30:10:090;1448034368.15;(0.580737829208374, 0.6968417061699761);68.0448608398;1.0;;;;;;;;;;;;;;0;0;0;;0;0;();();(-2000.0, -2000.0);
04:30:10:124;04:30:10:090;1448034368.15;(0.580737829208374, 0.6968417061699761);68.0448608398;1.0;;;;;;;;;;;;;;0;0;0;;0;0;();();(-2000.0, -2000.0);
04:30:10:140;04:30:10:090;1448034368.15;(0.580737829208374, 0.6968417061699761);68.0448608398;1.0;;;;;;;;;;;;;;0;0;0;;0;0;();();(-2000.0, -2000.0);
04:30:10:174;04:30:10:158;1448034368.22;(0.5825244903564453, 0.696135245429145);67.9890594482;0.991470261109;;;;;;;;;;;;;;0;0;0;;0;0;();();(-2000.0, -2000.0);
04:30:10:190;04:30:10:158;1448034368.22;(0.5825244903564453, 0.696135245429145);67.9890594482;0.991470261109;;;;;;;;;;;;;;0;0;0;;0;0;();();(-2000.0, -2000.0);
04:30:10:207;04:30:10:158;1448034368.22;(0.5825244903564453, 0.696135245429145);67.9890594482;0.991470261109;;;;;;;;;;;;;;0;0;0;;0;0;();();(-2000.0, -2000.0);
04:30:10:224;04:30:10:158;1448034368.22;(0.5825244903564453, 0.696135245429145);67.9890594482;0.991470261109;;;;;;;;;;;;;;0;0;0;;0;0;();();(-2000.0, -2000.0);
04:30:10:241;04:30:10:158;1448034368.22;(0.5825244903564453, 0.696135245429145);67.9890594482;0.991470261109;;;;;;;;;;;;;;0;0;0;;0;0;();();(-2000.0, -2000.0);
04:30:10:274;04:30:10:158;1448034368.22;(0.5825244903564453, 0.696135245429145);67.9890594482;0.991470261109;;;;;;;;;;;;;;0;0;0;;0;0;();();(-2000.0, -2000.0);
04:30:10:291;04:30:10:290;1448034368.25;(0.5741461277008056, 0.6934299257066514);68.979019165;0.848415034964;;;;;;;;;;;;;;0;0;0;;0;0;();();(-2000.0, -2000.0);
04:30:10:308;04:30:10:290;1448034368.25;(0.5741461277008056, 0.6934299257066514);68.979019165;0.848415034964;;;;;;;;;;;;;;0;0;0;;0;0;();();(-2000.0, -2000.0);
04:30:10:324;04:30:10:290;1448034368.25;(0.5741461277008056, 0.6934299257066514);68.979019165;0.848415034964;;;;;;;;;;;;;;0;0;0;;0;0;();();(-2000.0, -2000.0);
04:30:10:341;04:30:10:290;1448034368.25;(0.5741461277008056, 0.6934299257066514);68.979019165;0.848415034964;;;;;;;;;;;;;;0;0;0;;0;0;();();(-2000.0, -2000.0);
04:30:10:374;04:30:10:358;1448034368.37;(0.5644354820251465, 0.6898478402031792);66.3977279663;0.89702852667;;;;;;;;;;;;;;0;0;0;;0;0;();();(-2000.0, -2000.0);
04:30:10:391;04:30:10:358;1448034368.37;(0.5644354820251465, 0.6898478402031792);66.3977279663;0.89702852667;;;;;;;;;;;;;;0;0;0;;0;0;();();(-2000.0, -2000.0);
04:30:10:408;04:30:10:358;1448034368.37;(0.5644354820251465, 0.6898478402031792);66.3977279663;0.89702852667;;;;;;;;;;;;;;0;0;0;;0;0;();();(-2000.0, -2000.0);
04:30:10:425;04:30:10:422;1448034368.48;(0.5676339626312256, 0.6889054616292318);67.2008056641;0.973733400112;;;;;;;;;;;;;;0;0;0;;0;0;();();(-2000.0, -2000.0);
04:30:10:441;04:30:10:422;1448034368.48;(0.5676339626312256, 0.6889054616292318);67.2008056641;0.973733400112;;;;;;;;;;;;;;0;0;0;;0;0;();();(-2000.0, -2000.0);
04:30:10:474;04:30:10:422;1448034368.48;(0.5676339626312256, 0.6889054616292318);67.2008056641;0.973733400112;;;;;;;;;;;;;;0;0;0;;0;0;();();(-2000.0, -2000.0);
04:30:10:491;04:30:10:490;1448034368.55;(0.5695914268493653, 0.6884483125474719);65.9481201172;0.970657485919;;;;;;;;;;;;;;0;0;0;;0;0;();();(-2000.0, -2000.0);
04:30:10:507;04:30:10:490;1448034368.55;(0.5695914268493653, 0.6884483125474719);65.9481201172;0.970657485919;;;;;;;;;;;;;;0;0;0;;0;0;();();(-2000.0, -2000.0);
04:30:10:524;04:30:10:490;1448034368.55;(0.5695914268493653, 0.6884483125474719);65.9481201172;0.970657485919;;;;;;;;;;;;;;0;0;0;;0;0;();();(-2000.0, -2000.0);
04:30:10:541;04:30:10:490;1448034368.55;(0.5695914268493653, 0.6884483125474719);65.9481201172;0.970657485919;;;;;;;;;;;;;;0;0;0;;0;0;();();(-2000.0, -2000.0);
04:30:10:575;04:30:10:554;1448034368.62;(0.5705789566040039, 0.6890453974405925);64.5686264038;1.0;;;;;;;;;;;;;;0;0;0;;0;0;();();(-2000.0, -2000.0);
04:30:10:591;04:30:10:554;1448034368.62;(0.5705789566040039, 0.6890453974405925);64.5686264038;1.0;;;;;;;;;;;;;;0;0;0;;0;0;();();(-2000.0, -2000.0);
04:30:10:607;04:30:10:554;1448034368.62;(0.5705789566040039, 0.6890453974405925);64.5686264038;1.0;;;;;;;;;;;;;;0;0;0;;0;0;();();(-2000.0, -2000.0);
04:30:10:624;04:30:10:623;1448034368.69;(0.3402109622955322, 0.8186182234022352);31.9900722504;0.845630014331;;;;;;;;;;;;;;0;0;0;;0;0;();();(-2000.0, -2000.0);
04:30:10:641;04:30:10:623;1448034368.69;(0.3402109622955322, 0.8186182234022352);31.9900722504;0.845630014331;;;;;;;;;;;;;;0;0;0;;0;0;();();(-2000.0, -2000.0);
04:30:10:674;04:30:10:623;1448034368.69;(0.3402109622955322, 0.8186182234022352);31.9900722504;0.845630014331;;;;;;;;;;;;;;0;0;0;;0;0;();();(-2000.0, -2000.0);
04:30:10:692;04:30:10:691;1448034368.75;(0.6188910961151123, 0.6677235073513454);62.0786705017;1.0;;;;;;;;;;;;;;0;0;0;;0;0;();();(-2000.0, -2000.0);
04:30:10:708;04:30:10:691;1448034368.75;(0.6188910961151123, 0.6677235073513454);62.0786705017;1.0;;;;;;;;;;;;;;0;0;0;;0;0;();();(-2000.0, -2000.0);
04:30:10:725;04:30:10:691;1448034368.75;(0.6188910961151123, 0.6677235073513454);62.0786705017;1.0;;;;;;;;;;;;;;0;0;0;;0;0;();();(-2000.0, -2000.0);
04:30:10:742;04:30:10:691;1448034368.75;(0.6188910961151123, 0.6677235073513454);62.0786705017;1.0;;;;;;;;;;;;;;0;0;0;;0;0;();();(-2000.0, -2000.0);
04:30:10:774;04:30:10:754;1448034368.82;(0.6179423332214355, 0.6691047456529405);61.4950752258;1.0;;;;;;;;;;;;;;0;0;0;;0;0;();();(-2000.0, -2000.0);
04:30:10:791;04:30:10:754;1448034368.82;(0.6179423332214355, 0.6691047456529405);61.4950752258;1.0;;;;;;;;;;;;;;0;0;0;;0;0;();();(-2000.0, -2000.0);
04:30:10:808;04:30:10:754;1448034368.82;(0.6179423332214355, 0.6691047456529405);61.4950752258;1.0;;;;;;;;;;;;;;0;0;0;;0;0;();();(-2000.0, -2000.0);
04:30:10:824;04:30:10:823;1448034368.89;(0.6166016578674316, 0.6707269456651476);61.7394561768;1.0;;;;;;;;;;;;;;0;0;0;;0;0;();();(-2000.0, -2000.0);
04:30:10:841;04:30:10:823;1448034368.89;(0.6166016578674316, 0.6707269456651476);61.7394561768;1.0;;;;;;;;;;;;;;0;0;0;;0;0;();();(-2000.0, -2000.0);
04:30:10:874;04:30:10:823;1448034368.89;(0.6166016578674316, 0.6707269456651476);61.7394561768;1.0;;;;;;;;;;;;;;0;0;0;;0;0;();();(-2000.0, -2000.0);
04:30:10:891;04:30:10:886;1448034368.95;(0.6148459434509277, 0.6717597961425781);62.1384468079;1.0;;;;;;;;;;;;;;0;0;0;;0;0;();();(-2000.0, -2000.0);
04:30:10:908;04:30:10:886;1448034368.95;(0.6148459434509277, 0.6717597961425781);62.1384468079;1.0;;;;;;;;;;;;;;0;0;0;;0;0;();();(-2000.0, -2000.0);
04:30:10:924;04:30:10:886;1448034368.95;(0.6148459434509277, 0.6717597961425781);62.1384468079;1.0;;;;;;;;;;;;;;0;0;0;;0;0;();();(-2000.0, -2000.0);
04:30:10:941;04:30:10:886;1448034368.95;(0.6148459434509277, 0.6717597961425781);62.1384468079;1.0;;;;;;;;;;;;;;0;0;0;;0;0;();();(-2000.0, -2000.0);
04:30:10:974;04:30:10:955;1448034369.02;(0.631916618347168, 0.6488675223456488);62.2788848877;1.0;;;;;;;;;;;;;;0;0;0;;0;0;();();(-2000.0, -2000.0);
04:30:10:991;04:30:10:955;1448034369.02;(0.631916618347168, 0.6488675223456488);62.2788848877;1.0;;;;;;;;;;;;;;0;0;0;;0;0;();();(-2000.0, -2000.0);
04:30:11:008;04:30:10:955;1448034369.02;(0.631916618347168, 0.6488675223456488);62.2788848877;1.0;;;;;;;;;;;;;;0;0;0;;0;0;();();(-2000.0, -2000.0);
04:30:11:025;04:30:11:023;1448034369.09;(0.6309037208557129, 0.6489686118231879);60.7275428772;1.0;;;;;;;;;;;;;;0;0;0;;0;0;();();(-2000.0, -2000.0);
04:30:11:041;04:30:11:023;1448034369.09;(0.6309037208557129, 0.6489686118231879);60.7275428772;1.0;;;;;;;;;;;;;;0;0;0;;0;0;();();(-2000.0, -2000.0);
04:30:11:075;04:30:11:023;1448034369.09;(0.6309037208557129, 0.6489686118231879);60.7275428772;1.0;;;;;;;;;;;;;;0;0;0;;0;0;();();(-2000.0, -2000.0);
04:30:11:091;04:30:11:086;1448034369.15;(0.6291487216949463, 0.6506876839531792);60.9340171814;1.0;;;;;;;;;;;;;;0;0;0;;0;0;();();(-2000.0, -2000.0);
04:30:11:108;04:30:11:086;1448034369.15;(0.6291487216949463, 0.6506876839531792);60.9340171814;1.0;;;;;;;;;;;;;;0;0;0;;0;0;();();(-2000.0, -2000.0);
04:30:11:125;04:30:11:086;1448034369.15;(0.6291487216949463, 0.6506876839531792);60.9340171814;1.0;;;;;;;;;;;;;;0;0;0;;0;0;();();(-2000.0, -2000.0);
04:30:11:142;04:30:11:086;1448034369.15;(0.6291487216949463, 0.6506876839531792);60.9340171814;1.0;;;;;;;;;;;;;;0;0;0;;0;0;();();(-2000.0, -2000.0);
04:30:11:175;04:30:11:158;1448034369.22;(0.6236124992370605, 0.6493121041191949);59.1305122375;0.811010346395;;;;;;;;;;;;;;0;0;0;;0;0;();();(-2000.0, -2000.0);
04:30:11:191;04:30:11:158;1448034369.22;(0.6236124992370605, 0.6493121041191949);59.1305122375;0.811010346395;;;;;;;;;;;;;;0;0;0;;0;0;();();(-2000.0, -2000.0);
04:30:11:208;04:30:11:158;1448034369.22;(0.6236124992370605, 0.6493121041191949);59.1305122375;0.811010346395;;;;;;;;;;;;;;0;0;0;;0;0;();();(-2000.0, -2000.0);
04:30:11:224;04:30:11:217;1448034369.25;(0, 0);0;0;;;;;;;;;;;;;;0;0;0;;0;0;();();(-2000.0, -2000.0);
04:30:11:242;04:30:11:217;1448034369.25;(0, 0);0;0;;;;;;;;;;;;;;0;0;0;;0;0;();();(-2000.0, -2000.0);
04:30:11:275;04:30:11:217;1448034369.25;(0, 0);0;0;;;;;;;;;;;;;;0;0;0;;0;0;();();(-2000.0, -2000.0);
04:30:11:292;04:30:11:288;1448034369.35;(0.6327349662780761, 0.6722176869710286);61.5114212036;1.0;;;;;;;;;;;;;;0;0;0;;0;0;();();(-2000.0, -2000.0);
04:30:11:308;04:30:11:288;1448034369.35;(0.6327349662780761, 0.6722176869710286);61.5114212036;1.0;;;;;;;;;;;;;;0;0;0;;0;0;();();(-2000.0, -2000.0);
04:30:11:325;04:30:11:288;1448034369.35;(0.6327349662780761, 0.6722176869710286);61.5114212036;1.0;;;;;;;;;;;;;;0;0;0;;0;0;();();(-2000.0, -2000.0);
04:30:11:342;04:30:11:288;1448034369.35;(0.6327349662780761, 0.6722176869710286);61.5114212036;1.0;;;;;;;;;;;;;;0;0;0;;0;0;();();(-2000.0, -2000.0);
04:30:11:375;04:30:11:354;1448034369.42;(0.6312413215637207, 0.6730661392211914);62.0100631714;0.968757059139;;;;;;;;;;;;;;0;0;0;;0;0;();();(-2000.0, -2000.0);
04:30:11:391;04:30:11:354;1448034369.42;(0.6312413215637207, 0.6730661392211914);62.0100631714;0.968757059139;;;;;;;;;;;;;;0;0;0;;0;0;();();(-2000.0, -2000.0);
04:30:11:408;04:30:11:354;1448034369.42;(0.6312413215637207, 0.6730661392211914);62.0100631714;0.968757059139;;;;;;;;;;;;;;0;0;0;;0;0;();();(-2000.0, -2000.0);
04:30:11:425;04:30:11:417;1448034369.45;(0.6287211418151856, 0.6740065044826932);62.7697868347;1.0;;;;;;;;;;;;;;0;0;0;;0;0;();();(-2000.0, -2000.0);
04:30:11:441;04:30:11:417;1448034369.45;(0.6287211418151856, 0.6740065044826932);62.7697868347;1.0;;;;;;;;;;;;;;0;0;0;;0;0;();();(-2000.0, -2000.0);
04:30:11:475;04:30:11:417;1448034369.45;(0.6287211418151856, 0.6740065044826932);62.7697868347;1.0;;;;;;;;;;;;;;0;0;0;;0;0;();();(-2000.0, -2000.0);
04:30:11:491;04:30:11:486;1448034369.52;(0.627116584777832, 0.6747731314765082);64.5511932373;0.848105418893;;;;;;;;;;;;;;0;0;0;;0;0;();();(-2000.0, -2000.0);
04:30:11:509;04:30:11:486;1448034369.52;(0.627116584777832, 0.6747731314765082);64.5511932373;0.848105418893;;;;;;;;;;;;;;0;0;0;;0;0;();();(-2000.0, -2000.0);
04:30:11:525;04:30:11:486;1448034369.52;(0.627116584777832, 0.6747731314765082);64.5511932373;0.848105418893;;;;;;;;;;;;;;0;0;0;;0;0;();();(-2000.0, -2000.0);
04:30:11:542;04:30:11:486;1448034369.52;(0.627116584777832, 0.6747731314765082);64.5511932373;0.848105418893;;;;;;;;;;;;;;0;0;0;;0;0;();();(-2000.0, -2000.0);
04:30:11:575;04:30:11:550;1448034369.59;(0.6322201251983642, 0.6776869667900933);64.1843261719;1.0;;;;;;;;;;;;;;0;0;0;;0;0;();();(-2000.0, -2000.0);
04:30:11:592;04:30:11:550;1448034369.59;(0.6322201251983642, 0.6776869667900933);64.1843261719;1.0;;;;;;;;;;;;;;0;0;0;;0;0;();();(-2000.0, -2000.0);
04:30:11:608;04:30:11:550;1448034369.59;(0.6322201251983642, 0.6776869667900933);64.1843261719;1.0;;;;;;;;;;;;;;0;0;0;;0;0;();();(-2000.0, -2000.0);
04:30:11:625;04:30:11:550;1448034369.59;(0.6322201251983642, 0.6776869667900933);64.1843261719;1.0;;;;;;;;;;;;;;0;0;0;;0;0;();();(-2000.0, -2000.0);
04:30:11:642;04:30:11:627;1448034369.62;(0.6293810844421387, 0.6785766389634874);65.2702255249;1.0;;;;;;;;;;;;;;0;0;0;;0;0;();();(-2000.0, -2000.0);
04:30:11:675;04:30:11:627;1448034369.62;(0.6293810844421387, 0.6785766389634874);65.2702255249;1.0;;;;;;;;;;;;;;0;0;0;;0;0;();();(-2000.0, -2000.0);
04:30:11:692;04:30:11:627;1448034369.62;(0.6293810844421387, 0.6785766389634874);65.2702255249;1.0;;;;;;;;;;;;;;0;0;0;;0;0;();();(-2000.0, -2000.0);
04:30:11:709;04:30:11:697;1448034369.75;(0.6219497203826905, 0.6806289248996311);66.0842666626;0.848997624008;;;;;;;;;;;;;;0;0;0;;0;0;();();(-2000.0, -2000.0);
04:30:11:726;04:30:11:697;1448034369.75;(0.6219497203826905, 0.6806289248996311);66.0842666626;0.848997624008;;;;;;;;;;;;;;0;0;0;;0;0;();();(-2000.0, -2000.0);
04:30:11:742;04:30:11:697;1448034369.75;(0.6219497203826905, 0.6806289248996311);66.0842666626;0.848997624008;;;;;;;;;;;;;;0;0;0;;0;0;();();(-2000.0, -2000.0);
04:30:11:775;04:30:11:750;1448034369.82;(0.6199289321899414, 0.6809792412651909);66.6955413818;0.961430303412;;;;;;;;;;;;;;0;0;0;;0;0;();();(-2000.0, -2000.0);
04:30:11:792;04:30:11:750;1448034369.82;(0.6199289321899414, 0.6809792412651909);66.6955413818;0.961430303412;;;;;;;;;;;;;;0;0;0;;0;0;();();(-2000.0, -2000.0);
04:30:11:809;04:30:11:750;1448034369.82;(0.6199289321899414, 0.6809792412651909);66.6955413818;0.961430303412;;;;;;;;;;;;;;0;0;0;;0;0;();();(-2000.0, -2000.0);
04:30:11:825;04:30:11:819;1448034369.89;(0.6181710243225098, 0.6809932284884983);68.3253326416;0.912254406597;;;;;;;;;;;;;;0;0;0;;0;0;();();(-2000.0, -2000.0);
04:30:11:843;04:30:11:819;1448034369.89;(0.6181710243225098, 0.6809932284884983);68.3253326416;0.912254406597;;;;;;;;;;;;;;0;0;0;;0;0;();();(-2000.0, -2000.0);
04:30:11:875;04:30:11:819;1448034369.89;(0.6181710243225098, 0.6809932284884983);68.3253326416;0.912254406597;;;;;;;;;;;;;;0;0;0;;0;0;();();(-2000.0, -2000.0);
04:30:11:892;04:30:11:882;1448034369.92;(0.6174901008605957, 0.6807117038302951);68.8661346436;1.0;;;;;;;;;;;;;;0;0;0;;0;0;();();(-2000.0, -2000.0);
04:30:11:909;04:30:11:882;1448034369.92;(0.6174901008605957, 0.6807117038302951);68.8661346436;1.0;;;;;;;;;;;;;;0;0;0;;0;0;();();(-2000.0, -2000.0);
04:30:11:925;04:30:11:882;1448034369.92;(0.6174901008605957, 0.6807117038302951);68.8661346436;1.0;;;;;;;;;;;;;;0;0;0;;0;0;();();(-2000.0, -2000.0);
04:30:11:942;04:30:11:882;1448034369.92;(0.6174901008605957, 0.6807117038302951);68.8661346436;1.0;;;;;;;;;;;;;;0;0;0;;0;0;();();(-2000.0, -2000.0);
04:30:11:976;04:30:11:882;1448034369.92;(0.6174901008605957, 0.6807117038302951);68.8661346436;1.0;;;;;;;;;;;;;;0;0;0;;0;0;();();(-2000.0, -2000.0);
04:30:11:993;04:30:11:882;1448034369.92;(0.6174901008605957, 0.6807117038302951);68.8661346436;1.0;;;;;;;;;;;;;;0;0;0;;0;0;();();(-2000.0, -2000.0);
04:30:12:009;04:30:11:882;1448034369.92;(0.6174901008605957, 0.6807117038302951);68.8661346436;1.0;;;;;;;;;;;;;;0;0;0;;0;0;();();(-2000.0, -2000.0);
04:30:12:026;04:30:12:018;1448034369.95;(0.614890193939209, 0.6812249501546224);70.2864990234;0.973077735948;;;;;;;;;;;;;;0;0;0;;0;0;();();(-2000.0, -2000.0);
04:30:12:042;04:30:12:018;1448034369.95;(0.614890193939209, 0.6812249501546224);70.2864990234;0.973077735948;;;;;;;;;;;;;;0;0;0;;0;0;();();(-2000.0, -2000.0);
04:30:12:075;04:30:12:018;1448034369.95;(0.614890193939209, 0.6812249501546224);70.2864990234;0.973077735948;;;;;;;;;;;;;;0;0;0;;0;0;();();(-2000.0, -2000.0);
04:30:12:092;04:30:12:083;1448034370.15;(0.5809932708740234, 0.6970251295301649);71.6419525146;0.912610163102;;;;;;;;;;;;;;0;0;0;;0;0;();();(-2000.0, -2000.0);
04:30:12:109;04:30:12:083;1448034370.15;(0.5809932708740234, 0.6970251295301649);71.6419525146;0.912610163102;;;;;;;;;;;;;;0;0;0;;0;0;();();(-2000.0, -2000.0);
04:30:12:125;04:30:12:083;1448034370.15;(0.5809932708740234, 0.6970251295301649);71.6419525146;0.912610163102;;;;;;;;;;;;;;0;0;0;;0;0;();();(-2000.0, -2000.0);
04:30:12:143;04:30:12:083;1448034370.15;(0.5809932708740234, 0.6970251295301649);71.6419525146;0.912610163102;;;;;;;;;;;;;;0;0;0;;0;0;();();(-2000.0, -2000.0);
04:30:12:176;04:30:12:152;1448034370.19;(0.5835195541381836, 0.6967819849650065);71.6339950562;0.940077171047;;;;;;;;;;;;;;0;0;0;;0;0;();();(-2000.0, -2000.0);
04:30:12:192;04:30:12:152;1448034370.19;(0.5835195541381836, 0.6967819849650065);71.6339950562;0.940077171047;;;;;;;;;;;;;;0;0;0;;0;0;();();(-2000.0, -2000.0);
04:30:12:209;04:30:12:152;1448034370.19;(0.5835195541381836, 0.6967819849650065);71.6339950562;0.940077171047;;;;;;;;;;;;;;0;0;0;;0;0;();();(-2000.0, -2000.0);
04:30:12:226;04:30:12:214;1448034370.25;(0.3431249141693115, 0.8186951107449002);30.2981243134;0.650417108406;;;;;;;;;;;;;;0;0;0;;0;0;();();(-2000.0, -2000.0);
04:30:12:243;04:30:12:214;1448034370.25;(0.3431249141693115, 0.8186951107449002);30.2981243134;0.650417108406;;;;;;;;;;;;;;0;0;0;;0;0;();();(-2000.0, -2000.0);
04:30:12:275;04:30:12:214;1448034370.25;(0.3431249141693115, 0.8186951107449002);30.2981243134;0.650417108406;;;;;;;;;;;;;;0;0;0;;0;0;();();(-2000.0, -2000.0);
04:30:12:292;04:30:12:284;1448034370.35;(0.25019254684448244, 0.7161143408881294);39.2550888062;0.93021658969;;;;;;;;;;;;;;0;0;0;;0;0;();();(-2000.0, -2000.0);
04:30:12:309;04:30:12:284;1448034370.35;(0.25019254684448244, 0.7161143408881294);39.2550888062;0.93021658969;;;;;;;;;;;;;;0;0;0;;0;0;();();(-2000.0, -2000.0);
04:30:12:325;04:30:12:284;1448034370.35;(0.25019254684448244, 0.7161143408881294);39.2550888062;0.93021658969;;;;;;;;;;;;;;0;0;0;;0;0;();();(-2000.0, -2000.0);
04:30:12:342;04:30:12:284;1448034370.35;(0.25019254684448244, 0.7161143408881294);39.2550888062;0.93021658969;;;;;;;;;;;;;;0;0;0;;0;0;();();(-2000.0, -2000.0);
04:30:12:376;04:30:12:349;1448034370.42;(0.2501725673675537, 0.7172368579440647);38.3494262695;0.900396107043;;;;;;;;;;;;;;0;0;0;;0;0;();();(-2000.0, -2000.0);
04:30:12:393;04:30:12:349;1448034370.42;(0.2501725673675537, 0.7172368579440647);38.3494262695;0.900396107043;;;;;;;;;;;;;;0;0;0;;0;0;();();(-2000.0, -2000.0);
04:30:12:409;04:30:12:349;1448034370.42;(0.2501725673675537, 0.7172368579440647);38.3494262695;0.900396107043;;;;;;;;;;;;;;0;0;0;;0;0;();();(-2000.0, -2000.0);
04:30:12:426;04:30:12:415;1448034370.49;(0.25041177272796633, 0.7188768598768447);37.5993804932;0.857549393251;;;;;;;;;;;;;;0;0;0;;0;0;();();(-2000.0, -2000.0);
04:30:12:443;04:30:12:415;1448034370.49;(0.25041177272796633, 0.7188768598768447);37.5993804932;0.857549393251;;;;;;;;;;;;;;0;0;0;;0;0;();();(-2000.0, -2000.0);
04:30:12:476;04:30:12:415;1448034370.49;(0.25041177272796633, 0.7188768598768447);37.5993804932;0.857549393251;;;;;;;;;;;;;;0;0;0;;0;0;();();(-2000.0, -2000.0);
04:30:12:492;04:30:12:482;1448034370.52;(0.25059525966644286, 0.7192166010538736);37.4755516052;0.909381397599;;;;;;;;;;;;;;0;0;0;;0;0;();();(-2000.0, -2000.0);
04:30:12:509;04:30:12:482;1448034370.52;(0.25059525966644286, 0.7192166010538736);37.4755516052;0.909381397599;;;;;;;;;;;;;;0;0;0;;0;0;();();(-2000.0, -2000.0);
04:30:12:527;04:30:12:482;1448034370.52;(0.25059525966644286, 0.7192166010538736);37.4755516052;0.909381397599;;;;;;;;;;;;;;0;0;0;;0;0;();();(-2000.0, -2000.0);
04:30:12:542;04:30:12:482;1448034370.52;(0.25059525966644286, 0.7192166010538736);37.4755516052;0.909381397599;;;;;;;;;;;;;;0;0;0;;0;0;();();(-2000.0, -2000.0);
04:30:12:560;04:30:12:547;1448034370.62;(0.5432121753692627, 0.6906707339816623);71.9987869263;1.0;;;;;;;;;;;;;;0;0;0;;0;0;();();(-2000.0, -2000.0);
04:30:12:592;04:30:12:547;1448034370.62;(0.5432121753692627, 0.6906707339816623);71.9987869263;1.0;;;;;;;;;;;;;;0;0;0;;0;0;();();(-2000.0, -2000.0);
04:30:12:610;04:30:12:547;1448034370.62;(0.5432121753692627, 0.6906707339816623);71.9987869263;1.0;;;;;;;;;;;;;;0;0;0;;0;0;();();(-2000.0, -2000.0);
04:30:12:627;04:30:12:617;1448034370.69;(0.5434605598449707, 0.6908962885538736);71.1242294312;1.0;;;;;;;;;;;;;;0;0;0;;0;0;();();(-2000.0, -2000.0);
04:30:12:643;04:30:12:617;1448034370.69;(0.5434605598449707, 0.6908962885538736);71.1242294312;1.0;;;;;;;;;;;;;;0;0;0;;0;0;();();(-2000.0, -2000.0);
04:30:12:660;04:30:12:617;1448034370.69;(0.5434605598449707, 0.6908962885538736);71.1242294312;1.0;;;;;;;;;;;;;;0;0;0;;0;0;();();(-2000.0, -2000.0);
04:30:12:693;04:30:12:680;1448034370.75;(0.5427638053894043, 0.6914871003892686);70.6623764038;1.0;;;;;;;;;;;;;;0;0;0;;0;0;();();(-2000.0, -2000.0);
04:30:12:710;04:30:12:680;1448034370.75;(0.5427638053894043, 0.6914871003892686);70.6623764038;1.0;;;;;;;;;;;;;;0;0;0;;0;0;();();(-2000.0, -2000.0);
04:30:12:726;04:30:12:680;1448034370.75;(0.5427638053894043, 0.6914871003892686);70.6623764038;1.0;;;;;;;;;;;;;;0;0;0;;0;0;();();(-2000.0, -2000.0);
04:30:12:742;04:30:12:680;1448034370.75;(0.5427638053894043, 0.6914871003892686);70.6623764038;1.0;;;;;;;;;;;;;;0;0;0;;0;0;();();(-2000.0, -2000.0);
04:30:12:777;04:30:12:745;1448034370.79;(0.5425620079040527, 0.6916867150200738);70.4800643921;1.0;;;;;;;;;;;;;;0;0;0;;0;0;();();(-2000.0, -2000.0);
04:30:12:793;04:30:12:745;1448034370.79;(0.5425620079040527, 0.6916867150200738);70.4800643921;1.0;;;;;;;;;;;;;;0;0;0;;0;0;();();(-2000.0, -2000.0);
04:30:12:810;04:30:12:745;1448034370.79;(0.5425620079040527, 0.6916867150200738);70.4800643921;1.0;;;;;;;;;;;;;;0;0;0;;0;0;();();(-2000.0, -2000.0);
04:30:12:826;04:30:12:814;1448034370.82;(0, 0);0;0;;;;;;;;;;;;;;0;0;0;;0;0;();();(-2000.0, -2000.0);
04:30:12:843;04:30:12:814;1448034370.82;(0, 0);0;0;;;;;;;;;;;;;;0;0;0;;0;0;();();(-2000.0, -2000.0);
04:30:12:860;04:30:12:814;1448034370.82;(0, 0);0;0;;;;;;;;;;;;;;0;0;0;;0;0;();();(-2000.0, -2000.0);
04:30:12:893;04:30:12:814;1448034370.82;(0, 0);0;0;;;;;;;;;;;;;;0;0;0;;0;0;();();(-2000.0, -2000.0);
04:30:12:910;04:30:12:814;1448034370.82;(0, 0);0;0;;;;;;;;;;;;;;0;0;0;;0;0;();();(-2000.0, -2000.0);
04:30:12:926;04:30:12:814;1448034370.82;(0, 0);0;0;;;;;;;;;;;;;;0;0;0;;0;0;();();(-2000.0, -2000.0);
04:30:12:944;04:30:12:814;1448034370.82;(0, 0);0;0;;;;;;;;;;;;;;0;0;0;;0;0;();();(-2000.0, -2000.0);
04:30:12:977;04:30:12:946;1448034370.85;(0.5986003875732422, 0.6833492279052734);69.8679504395;1.0;;;;;;;;;;;;;;0;0;0;;0;0;();();(-2000.0, -2000.0);
04:30:13:004;04:30:12:946;1448034370.85;(0.5986003875732422, 0.6833492279052734);69.8679504395;1.0;;;;;;;;;;;;;;2;0;0;;0;0;();();(-2000.0, -2000.0);
04:30:13:026;04:30:13:010;1448034371.09;(0.589733362197876, 0.6891668955485026);70.7219924927;0.939964810777;;;;;;;;;;;;;;2;0;0;;0;0;();();(-2000.0, -2000.0);
04:30:13:027;04:30:13:010;1448034371.09;(0.589733362197876, 0.6891668955485026);70.7219924927;0.939964810777;;;;;;;;;;;;;;2;0;0;;0;0;();();(-2000.0, -2000.0);
04:30:13:043;04:30:13:010;1448034371.09;(0.589733362197876, 0.6891668955485026);70.7219924927;0.939964810777;;;;;;;;;;;;;;2;0;0;;0;0;();();(-2000.0, -2000.0);
04:30:13:060;04:30:13:010;1448034371.09;(0.589733362197876, 0.6891668955485026);70.7219924927;0.939964810777;;;;;;;;;;;;;;2;0;0;;0;0;();();(-2000.0, -2000.0);
04:30:13:093;04:30:13:078;1448034371.15;(0.587296438217163, 0.6900517993503147);70.3160324097;1.0;;;;;;;;;;;;;;2;0;0;;0;0;();();(-2000.0, -2000.0);
04:30:13:110;04:30:13:078;1448034371.15;(0.587296438217163, 0.6900517993503147);70.3160324097;1.0;;;;;;;;;;;;;;2;0;0;;0;0;();();(-2000.0, -2000.0);
04:30:13:127;04:30:13:078;1448034371.15;(0.587296438217163, 0.6900517993503147);70.3160324097;1.0;;;;;;;;;;;;;;2;0;0;;0;0;();();(-2000.0, -2000.0);
04:30:13:144;04:30:13:078;1448034371.15;(0.587296438217163, 0.6900517993503147);70.3160324097;1.0;;;;;;;;;;;;;;2;0;0;;0;0;();();(-2000.0, -2000.0);
04:30:13:160;04:30:13:146;1448034371.18;(0.34222404956817626, 0.848497560289171);36.4249420166;0.753485706539;;;;;;;;;;;;;;2;0;0;;0;0;();();(-2000.0, -2000.0);
04:30:13:193;04:30:13:146;1448034371.18;(0.34222404956817626, 0.848497560289171);36.4249420166;0.753485706539;;;;;;;;;;;;;;2;0;0;;0;0;();();(-2000.0, -2000.0);
04:30:13:210;04:30:13:210;1448034371.25;(0.3443573236465454, 0.8481259557935927);38.147769928;0.637163691959;;;;;;;;;;;;;;2;0;0;;0;0;();();(-2000.0, -2000.0);
04:30:13:227;04:30:13:210;1448034371.25;(0.3443573236465454, 0.8481259557935927);38.147769928;0.637163691959;;;;;;;;;;;;;;2;0;0;;0;0;();();(-2000.0, -2000.0);
04:30:13:244;04:30:13:210;1448034371.25;(0.3443573236465454, 0.8481259557935927);38.147769928;0.637163691959;;;;;;;;;;;;;;2;0;0;;0;0;();();(-2000.0, -2000.0);
04:30:13:260;04:30:13:210;1448034371.25;(0.3443573236465454, 0.8481259557935927);38.147769928;0.637163691959;;;;;;;;;;;;;;2;0;0;;0;0;();();(-2000.0, -2000.0);
04:30:13:294;04:30:13:210;1448034371.25;(0.3443573236465454, 0.8481259557935927);38.147769928;0.637163691959;;;;;;;;;;;;;;2;0;0;;0;0;();();(-2000.0, -2000.0);
04:30:13:310;04:30:13:210;1448034371.25;(0.3443573236465454, 0.8481259557935927);38.147769928;0.637163691959;;;;;;;;;;;;;;2;0;0;;0;0;();();(-2000.0, -2000.0);
04:30:13:327;04:30:13:210;1448034371.25;(0.3443573236465454, 0.8481259557935927);38.147769928;0.637163691959;;;;;;;;;;;;;;2;0;0;;0;0;();();(-2000.0, -2000.0);
04:30:13:344;04:30:13:342;1448034371.28;(0.6149641513824463, 0.673480584886339);69.9433670044;1.0;;;;;;;;;;;;;;2;0;0;;0;0;();();(-2000.0, -2000.0);
04:30:13:361;04:30:13:342;1448034371.28;(0.6149641513824463, 0.673480584886339);69.9433670044;1.0;;;;;;;;;;;;;;2;0;0;;0;0;();();(-2000.0, -2000.0);
04:30:13:393;04:30:13:342;1448034371.28;(0.6149641513824463, 0.673480584886339);69.9433670044;1.0;;;;;;;;;;;;;;2;0;0;;0;0;();();(-2000.0, -2000.0);
04:30:13:411;04:30:13:409;1448034371.37;(0.611711835861206, 0.674751345316569);70.0787887573;1.0;;;;;;;;;;;;;;2;0;0;;0;0;();();(-2000.0, -2000.0);
04:30:13:426;04:30:13:409;1448034371.37;(0.611711835861206, 0.674751345316569);70.0787887573;1.0;;;;;;;;;;;;;;2;0;0;;0;0;();();(-2000.0, -2000.0);
04:30:13:444;04:30:13:409;1448034371.37;(0.611711835861206, 0.674751345316569);70.0787887573;1.0;;;;;;;;;;;;;;2;0;0;;0;0;();();(-2000.0, -2000.0);
04:30:13:460;04:30:13:409;1448034371.37;(0.611711835861206, 0.674751345316569);70.0787887573;1.0;;;;;;;;;;;;;;2;0;0;;0;0;();();(-2000.0, -2000.0);
04:30:13:493;04:30:13:483;1448034371.52;(0.6602405071258545, 0.6007839626736111);69.2892227173;1.0;;;;;;;;;;;;;;2;0;0;;0;0;();();(-2000.0, -2000.0);
04:30:13:511;04:30:13:483;1448034371.52;(0.6602405071258545, 0.6007839626736111);69.2892227173;1.0;;;;;;;;;;;;;;2;0;0;;0;0;();();(-2000.0, -2000.0);
04:30:13:526;04:30:13:483;1448034371.52;(0.6602405071258545, 0.6007839626736111);69.2892227173;1.0;;;;;;;;;;;;;;2;0;0;;0;0;();();(-2000.0, -2000.0);
04:30:13:543;04:30:13:542;1448034371.59;(0.6535254955291748, 0.6078818427191841);69.1518630981;0.941835103909;;;;;;;;;;;;;;2;0;0;;0;0;();();(-2000.0, -2000.0);
04:30:13:560;04:30:13:542;1448034371.59;(0.6535254955291748, 0.6078818427191841);69.1518630981;0.941835103909;;;;;;;;;;;;;;2;0;0;;0;0;();();(-2000.0, -2000.0);
04:30:13:593;04:30:13:542;1448034371.59;(0.6535254955291748, 0.6078818427191841);69.1518630981;0.941835103909;;;;;;;;;;;;;;2;0;0;;0;0;();();(-2000.0, -2000.0);
04:30:13:612;04:30:13:610;1448034371.65;(0.6585994243621827, 0.6003221299913195);69.6516036987;1.0;;;;;;;;;;;;;;2;0;0;;0;0;();();(-2000.0, -2000.0);
04:30:13:627;04:30:13:610;1448034371.65;(0.6585994243621827, 0.6003221299913195);69.6516036987;1.0;;;;;;;;;;;;;;2;0;0;;0;0;();();(-2000.0, -2000.0);
04:30:13:644;04:30:13:610;1448034371.65;(0.6585994243621827, 0.6003221299913195);69.6516036987;1.0;;;;;;;;;;;;;;2;0;0;;0;0;();();(-2000.0, -2000.0);
04:30:13:660;04:30:13:610;1448034371.65;(0.6585994243621827, 0.6003221299913195);69.6516036987;1.0;;;;;;;;;;;;;;2;0;0;;0;0;();();(-2000.0, -2000.0);
04:30:13:694;04:30:13:674;1448034371.69;(0.6550812721252441, 0.6034327612982856);69.5025787354;1.0;;;;;;;;;;;;;;2;0;0;;0;0;();();(-2000.0, -2000.0);
04:30:13:711;04:30:13:674;1448034371.69;(0.6550812721252441, 0.6034327612982856);69.5025787354;1.0;;;;;;;;;;;;;;2;0;0;;0;0;();();(-2000.0, -2000.0);
04:30:13:727;04:30:13:674;1448034371.69;(0.6550812721252441, 0.6034327612982856);69.5025787354;1.0;;;;;;;;;;;;;;2;0;0;;0;0;();();(-2000.0, -2000.0);
04:30:13:743;04:30:13:743;1448034371.79;(0.6460130691528321, 0.6132764180501302);69.3302230835;1.0;;;;;;;;;;;;;;2;0;0;;0;0;();();(-2000.0, -2000.0);
04:30:13:761;04:30:13:743;1448034371.79;(0.6460130691528321, 0.6132764180501302);69.3302230835;1.0;;;;;;;;;;;;;;2;0;0;;0;0;();();(-2000.0, -2000.0);
04:30:13:794;04:30:13:743;1448034371.79;(0.6460130691528321, 0.6132764180501302);69.3302230835;1.0;;;;;;;;;;;;;;2;0;0;;0;0;();();(-2000.0, -2000.0);
04:30:13:811;04:30:13:810;1448034371.82;(0.6433080196380615, 0.6159947713216145);69.5735015869;1.0;;;;;;;;;;;;;;2;0;0;;0;0;();();(-2000.0, -2000.0);
04:30:13:827;04:30:13:810;1448034371.82;(0.6433080196380615, 0.6159947713216145);69.5735015869;1.0;;;;;;;;;;;;;;2;0;0;;0;0;();();(-2000.0, -2000.0);
04:30:13:844;04:30:13:810;1448034371.82;(0.6433080196380615, 0.6159947713216145);69.5735015869;1.0;;;;;;;;;;;;;;2;0;0;;0;0;();();(-2000.0, -2000.0);
04:30:13:860;04:30:13:810;1448034371.82;(0.6433080196380615, 0.6159947713216145);69.5735015869;1.0;;;;;;;;;;;;;;2;0;0;;0;0;();();(-2000.0, -2000.0);
04:30:13:894;04:30:13:810;1448034371.82;(0.6433080196380615, 0.6159947713216145);69.5735015869;1.0;;;;;;;;;;;;;;2;0;0;;0;0;();();(-2000.0, -2000.0);
04:30:13:910;04:30:13:810;1448034371.82;(0.6433080196380615, 0.6159947713216145);69.5735015869;1.0;;;;;;;;;;;;;;2;0;0;;0;0;();();(-2000.0, -2000.0);
04:30:13:927;04:30:13:810;1448034371.82;(0.6433080196380615, 0.6159947713216145);69.5735015869;1.0;;;;;;;;;;;;;;2;0;0;;0;0;();();(-2000.0, -2000.0);
04:30:13:944;04:30:13:942;1448034371.98;(0.6378337383270264, 0.6241008758544921);69.010925293;1.0;;;;;;;;;;;;;;2;0;0;;0;0;();();(-2000.0, -2000.0);
04:30:13:961;04:30:13:942;1448034371.98;(0.6378337383270264, 0.6241008758544921);69.010925293;1.0;;;;;;;;;;;;;;2;0;0;;0;0;();();(-2000.0, -2000.0);
04:30:13:994;04:30:13:942;1448034371.98;(0.6378337383270264, 0.6241008758544921);69.010925293;1.0;;;;;;;;;;;;;;2;0;0;;0;0;();();(-2000.0, -2000.0);
04:30:14:011;04:30:14:007;1448034372.08;(0.6371500968933106, 0.6286802927652995);68.8065185547;0.96894370996;;;;;;;;;;;;;;2;0;0;;0;0;();();(-2000.0, -2000.0);
04:30:14:027;04:30:14:007;1448034372.08;(0.6371500968933106, 0.6286802927652995);68.8065185547;0.96894370996;;;;;;;;;;;;;;2;0;0;;0;0;();();(-2000.0, -2000.0);
04:30:14:044;04:30:14:007;1448034372.08;(0.6371500968933106, 0.6286802927652995);68.8065185547;0.96894370996;;;;;;;;;;;;;;2;0;0;;0;0;();();(-2000.0, -2000.0);
04:30:14:061;04:30:14:007;1448034372.08;(0.6371500968933106, 0.6286802927652995);68.8065185547;0.96894370996;;;;;;;;;;;;;;2;0;0;;0;0;();();(-2000.0, -2000.0);
04:30:14:095;04:30:14:075;1448034372.12;(0.6393064498901367, 0.6318370395236546);68.8902740479;0.987553463272;;;;;;;;;;;;;;2;0;0;;0;0;();();(-2000.0, -2000.0);
04:30:14:111;04:30:14:075;1448034372.12;(0.6393064498901367, 0.6318370395236546);68.8902740479;0.987553463272;;;;;;;;;;;;;;2;0;0;;0;0;();();(-2000.0, -2000.0);
04:30:14:128;04:30:14:075;1448034372.12;(0.6393064498901367, 0.6318370395236546);68.8902740479;0.987553463272;;;;;;;;;;;;;;2;0;0;;0;0;();();(-2000.0, -2000.0);
04:30:14:145;04:30:14:143;1448034372.18;(0.7272246360778809, 0.3460258060031467);35.6812171936;0.632885987158;;;;;;;;;;;;;;2;0;0;;0;0;();();(-2000.0, -2000.0);
04:30:14:161;04:30:14:143;1448034372.18;(0.7272246360778809, 0.3460258060031467);35.6812171936;0.632885987158;;;;;;;;;;;;;;2;0;0;;0;0;();();(-2000.0, -2000.0);
04:30:14:194;04:30:14:143;1448034372.18;(0.7272246360778809, 0.3460258060031467);35.6812171936;0.632885987158;;;;;;;;;;;;;;2;0;0;;0;0;();();(-2000.0, -2000.0);
04:30:14:211;04:30:14:206;1448034372.25;(0, 0);0;0;;;;;;;;;;;;;;2;0;0;;0;0;();();(-2000.0, -2000.0);
04:30:14:227;04:30:14:206;1448034372.25;(0, 0);0;0;;;;;;;;;;;;;;2;0;0;;0;0;();();(-2000.0, -2000.0);
04:30:14:244;04:30:14:206;1448034372.25;(0, 0);0;0;;;;;;;;;;;;;;2;0;0;;0;0;();();(-2000.0, -2000.0);
04:30:14:260;04:30:14:206;1448034372.25;(0, 0);0;0;;;;;;;;;;;;;;2;0;0;;0;0;();();(-2000.0, -2000.0);
04:30:14:294;04:30:14:275;1448034372.32;(0.5006896018981933, 0.5720887078179253);40.0023384094;0.719567206761;;;;;;;;;;;;;;2;0;0;;0;0;();();(-2000.0, -2000.0);
04:30:14:311;04:30:14:275;1448034372.32;(0.5006896018981933, 0.5720887078179253);40.0023384094;0.719567206761;;;;;;;;;;;;;;2;0;0;;0;0;();();(-2000.0, -2000.0);
04:30:14:327;04:30:14:275;1448034372.32;(0.5006896018981933, 0.5720887078179253);40.0023384094;0.719567206761;;;;;;;;;;;;;;2;0;0;;0;0;();();(-2000.0, -2000.0);
04:30:14:344;04:30:14:338;1448034372.35;(0.5043811798095703, 0.6008355458577475);44.5206451416;0.736689168694;;;;;;;;;;;;;;2;0;0;;0;0;();();(-2000.0, -2000.0);
04:30:14:361;04:30:14:338;1448034372.35;(0.5043811798095703, 0.6008355458577475);44.5206451416;0.736689168694;;;;;;;;;;;;;;2;0;0;;0;0;();();(-2000.0, -2000.0);
04:30:14:394;04:30:14:338;1448034372.35;(0.5043811798095703, 0.6008355458577475);44.5206451416;0.736689168694;;;;;;;;;;;;;;2;0;0;;0;0;();();(-2000.0, -2000.0);
04:30:14:411;04:30:14:406;1448034372.46;(0, 0);0;0;;;;;;;;;;;;;;2;0;0;;0;0;();();(-2000.0, -2000.0);
04:30:14:428;04:30:14:406;1448034372.46;(0, 0);0;0;;;;;;;;;;;;;;2;0;0;;0;0;();();(-2000.0, -2000.0);
04:30:14:444;04:30:14:406;1448034372.46;(0, 0);0;0;;;;;;;;;;;;;;2;0;0;;0;0;();();(-2000.0, -2000.0);
04:30:14:462;04:30:14:406;1448034372.46;(0, 0);0;0;;;;;;;;;;;;;;2;0;0;;0;0;();();(-2000.0, -2000.0);
04:30:14:494;04:30:14:474;1448034372.52;(0.5292206287384034, 0.696765242682563);18.7554016113;1.0;;;;;;;;;;;;;;2;0;0;;0;0;();();(-2000.0, -2000.0);
04:30:14:510;04:30:14:474;1448034372.52;(0.5292206287384034, 0.696765242682563);18.7554016113;1.0;;;;;;;;;;;;;;2;0;0;;0;0;();();(-2000.0, -2000.0);
04:30:14:527;04:30:14:474;1448034372.52;(0.5292206287384034, 0.696765242682563);18.7554016113;1.0;;;;;;;;;;;;;;2;0;0;;0;0;();();(-2000.0, -2000.0);
04:30:14:544;04:30:14:474;1448034372.52;(0.5292206287384034, 0.696765242682563);18.7554016113;1.0;;;;;;;;;;;;;;2;0;0;;0;0;();();(-2000.0, -2000.0);
04:30:14:561;04:30:14:474;1448034372.52;(0.5292206287384034, 0.696765242682563);18.7554016113;1.0;;;;;;;;;;;;;;2;0;0;;0;0;();();(-2000.0, -2000.0);
04:30:14:594;04:30:14:474;1448034372.52;(0.5292206287384034, 0.696765242682563);18.7554016113;1.0;;;;;;;;;;;;;;2;0;0;;0;0;();();(-2000.0, -2000.0);
04:30:14:611;04:30:14:606;1448034372.67;(0.5796959877014161, 0.5768273247612847);68.2802734375;1.0;;;;;;;;;;;;;;2;0;0;;0;0;();();(-2000.0, -2000.0);
04:30:14:628;04:30:14:606;1448034372.67;(0.5796959877014161, 0.5768273247612847);68.2802734375;1.0;;;;;;;;;;;;;;2;0;0;;0;0;();();(-2000.0, -2000.0);
04:30:14:644;04:30:14:606;1448034372.67;(0.5796959877014161, 0.5768273247612847);68.2802734375;1.0;;;;;;;;;;;;;;2;0;0;;0;0;();();(-2000.0, -2000.0);
04:30:14:662;04:30:14:606;1448034372.67;(0.5796959877014161, 0.5768273247612847);68.2802734375;1.0;;;;;;;;;;;;;;2;0;0;;0;0;();();(-2000.0, -2000.0);
04:30:14:695;04:30:14:670;1448034372.69;(0.5804032325744629, 0.5770388709174262);68.5304870605;1.0;;;;;;;;;;;;;;2;0;0;;0;0;();();(-2000.0, -2000.0);
04:30:14:712;04:30:14:670;1448034372.69;(0.5804032325744629, 0.5770388709174262);68.5304870605;1.0;;;;;;;;;;;;;;2;0;0;;0;0;();();(-2000.0, -2000.0);
04:30:14:728;04:30:14:670;1448034372.69;(0.5804032325744629, 0.5770388709174262);68.5304870605;1.0;;;;;;;;;;;;;;2;0;0;;0;0;();();(-2000.0, -2000.0);
04:30:14:745;04:30:14:739;1448034372.78;(0.5750465869903565, 0.5825877719455295);69.150100708;1.0;;;;;;;;;;;;;;2;0;0;;0;0;();();(-2000.0, -2000.0);
04:30:14:762;04:30:14:739;1448034372.78;(0.5750465869903565, 0.5825877719455295);69.150100708;1.0;;;;;;;;;;;;;;2;0;0;;0;0;();();(-2000.0, -2000.0);
04:30:14:794;04:30:14:739;1448034372.78;(0.5750465869903565, 0.5825877719455295);69.150100708;1.0;;;;;;;;;;;;;;2;0;0;;0;0;();();(-2000.0, -2000.0);
04:30:14:812;04:30:14:807;1448034372.88;(0.5736400127410889, 0.5839032491048177);69.4393310547;1.0;;;;;;;;;;;;;;2;0;0;;0;0;();();(-2000.0, -2000.0);
04:30:14:828;04:30:14:807;1448034372.88;(0.5736400127410889, 0.5839032491048177);69.4393310547;1.0;;;;;;;;;;;;;;2;0;0;;0;0;();();(-2000.0, -2000.0);
04:30:14:845;04:30:14:807;1448034372.88;(0.5736400127410889, 0.5839032491048177);69.4393310547;1.0;;;;;;;;;;;;;;2;0;0;;0;0;();();(-2000.0, -2000.0);
04:30:14:862;04:30:14:807;1448034372.88;(0.5736400127410889, 0.5839032491048177);69.4393310547;1.0;;;;;;;;;;;;;;2;0;0;;0;0;();();(-2000.0, -2000.0);
04:30:14:895;04:30:14:870;1448034372.95;(0.5719431400299072, 0.5853809780544705);70.0577774048;1.0;;;;;;;;;;;;;;2;0;0;;0;0;();();(-2000.0, -2000.0);
04:30:14:911;04:30:14:870;1448034372.95;(0.5719431400299072, 0.5853809780544705);70.0577774048;1.0;;;;;;;;;;;;;;2;0;0;;0;0;();();(-2000.0, -2000.0);
04:30:14:928;04:30:14:870;1448034372.95;(0.5719431400299072, 0.5853809780544705);70.0577774048;1.0;;;;;;;;;;;;;;2;0;0;;0;0;();();(-2000.0, -2000.0);
04:30:14:945;04:30:14:939;1448034372.98;(0.5711120128631592, 0.5856274922688802);70.2332458496;1.0;;;;;;;;;;;;;;2;0;0;;0;0;();();(-2000.0, -2000.0);
04:30:14:961;04:30:14:939;1448034372.98;(0.5711120128631592, 0.5856274922688802);70.2332458496;1.0;;;;;;;;;;;;;;2;0;0;;0;0;();();(-2000.0, -2000.0);
04:30:14:995;04:30:14:939;1448034372.98;(0.5711120128631592, 0.5856274922688802);70.2332458496;1.0;;;;;;;;;;;;;;2;0;0;;0;0;();();(-2000.0, -2000.0);
04:30:15:012;04:30:15:003;1448034373.02;(0.6859947681427002, 0.7728366427951389);33.39320755;0.660853615543;;;;;;;;;;;;;;2;0;0;;0;0;();();(-2000.0, -2000.0);
04:30:15:029;04:30:15:003;1448034373.02;(0.6859947681427002, 0.7728366427951389);33.39320755;0.660853615543;;;;;;;;;;;;;;2;0;0;;0;0;();();(-2000.0, -2000.0);
04:30:15:044;04:30:15:003;1448034373.02;(0.6859947681427002, 0.7728366427951389);33.39320755;0.660853615543;;;;;;;;;;;;;;2;0;0;;0;0;();();(-2000.0, -2000.0);
04:30:15:062;04:30:15:003;1448034373.02;(0.6859947681427002, 0.7728366427951389);33.39320755;0.660853615543;;;;;;;;;;;;;;2;0;0;;0;0;();();(-2000.0, -2000.0);
04:30:15:095;04:30:15:071;1448034373.11;(0.6134490966796875, 0.5677089691162109);69.1280670166;0.916554277746;;;;;;;;;;;;;;2;0;0;;0;0;();();(-2000.0, -2000.0);
04:30:15:112;04:30:15:071;1448034373.11;(0.6134490966796875, 0.5677089691162109);69.1280670166;0.916554277746;;;;;;;;;;;;;;2;0;0;;0;0;();();(-2000.0, -2000.0);
04:30:15:129;04:30:15:071;1448034373.11;(0.6134490966796875, 0.5677089691162109);69.1280670166;0.916554277746;;;;;;;;;;;;;;2;0;0;;0;0;();();(-2000.0, -2000.0);
04:30:15:145;04:30:15:134;1448034373.19;(0.6063293933868408, 0.5734561920166016);69.7411727905;1.0;;;;;;;;;;;;;;2;0;0;;0;0;();();(-2000.0, -2000.0);
04:30:15:161;04:30:15:134;1448034373.19;(0.6063293933868408, 0.5734561920166016);69.7411727905;1.0;;;;;;;;;;;;;;2;0;0;;0;0;();();(-2000.0, -2000.0);
04:30:15:195;04:30:15:134;1448034373.19;(0.6063293933868408, 0.5734561920166016);69.7411727905;1.0;;;;;;;;;;;;;;2;0;0;;0;0;();();(-2000.0, -2000.0);
04:30:15:212;04:30:15:202;1448034373.25;(0.6016209125518799, 0.5742341783311632);69.9211654663;1.0;;;;;;;;;;;;;;2;0;0;;0;0;();();(-2000.0, -2000.0);
04:30:15:228;04:30:15:202;1448034373.25;(0.6016209125518799, 0.5742341783311632);69.9211654663;1.0;;;;;;;;;;;;;;2;0;0;;0;0;();();(-2000.0, -2000.0);
04:30:15:245;04:30:15:202;1448034373.25;(0.6016209125518799, 0.5742341783311632);69.9211654663;1.0;;;;;;;;;;;;;;2;0;0;;0;0;();();(-2000.0, -2000.0);
04:30:15:262;04:30:15:202;1448034373.25;(0.6016209125518799, 0.5742341783311632);69.9211654663;1.0;;;;;;;;;;;;;;2;0;0;;0;0;();();(-2000.0, -2000.0);
04:30:15:295;04:30:15:270;1448034373.33;(0.4691123962402344, 0.7465486738416884);21.2952041626;1.0;;;;;;;;;;;;;;2;0;0;;0;0;();();(-2000.0, -2000.0);
04:30:15:312;04:30:15:270;1448034373.33;(0.4691123962402344, 0.7465486738416884);21.2952041626;1.0;;;;;;;;;;;;;;2;0;0;;0;0;();();(-2000.0, -2000.0);
04:30:15:329;04:30:15:270;1448034373.33;(0.4691123962402344, 0.7465486738416884);21.2952041626;1.0;;;;;;;;;;;;;;2;0;0;;0;0;();();(-2000.0, -2000.0);
04:30:15:345;04:30:15:334;1448034373.38;(0.4689063549041748, 0.749089346991645);22.0661830902;0.805401432537;;;;;;;;;;;;;;2;0;0;;0;0;();();(-2000.0, -2000.0);
04:30:15:362;04:30:15:334;1448034373.38;(0.4689063549041748, 0.749089346991645);22.0661830902;0.805401432537;;;;;;;;;;;;;;2;0;0;;0;0;();();(-2000.0, -2000.0);
04:30:15:395;04:30:15:334;1448034373.38;(0.4689063549041748, 0.749089346991645);22.0661830902;0.805401432537;;;;;;;;;;;;;;2;0;0;;0;0;();();(-2000.0, -2000.0);
04:30:15:412;04:30:15:403;1448034373.45;(0.4683672904968262, 0.7508764055040147);22.7755622864;0.835784937169;;;;;;;;;;;;;;2;0;0;;0;0;();();(-2000.0, -2000.0);
04:30:15:429;04:30:15:403;1448034373.45;(0.4683672904968262, 0.7508764055040147);22.7755622864;0.835784937169;;;;;;;;;;;;;;2;0;0;;0;0;();();(-2000.0, -2000.0);
04:30:15:446;04:30:15:403;1448034373.45;(0.4683672904968262, 0.7508764055040147);22.7755622864;0.835784937169;;;;;;;;;;;;;;2;0;0;;0;0;();();(-2000.0, -2000.0);
04:30:15:462;04:30:15:403;1448034373.45;(0.4683672904968262, 0.7508764055040147);22.7755622864;0.835784937169;;;;;;;;;;;;;;2;0;0;;0;0;();();(-2000.0, -2000.0);
04:30:15:495;04:30:15:466;1448034373.48;(0.5915117740631104, 0.5837757110595703);70.9290466309;0.971117054755;;;;;;;;;;;;;;2;0;0;;0;0;();();(-2000.0, -2000.0);
04:30:15:512;04:30:15:466;1448034373.48;(0.5915117740631104, 0.5837757110595703);70.9290466309;0.971117054755;;;;;;;;;;;;;;2;0;0;;0;0;();();(-2000.0, -2000.0);
04:30:15:529;04:30:15:466;1448034373.48;(0.5915117740631104, 0.5837757110595703);70.9290466309;0.971117054755;;;;;;;;;;;;;;2;0;0;;0;0;();();(-2000.0, -2000.0);
04:30:15:546;04:30:15:535;1448034373.58;(0.592271375656128, 0.5786746554904514);71.2523574829;1.0;;;;;;;;;;;;;;2;0;0;;0;0;();();(-2000.0, -2000.0);
04:30:15:563;04:30:15:535;1448034373.58;(0.592271375656128, 0.5786746554904514);71.2523574829;1.0;;;;;;;;;;;;;;2;0;0;;0;0;();();(-2000.0, -2000.0);
04:30:15:595;04:30:15:535;1448034373.58;(0.592271375656128, 0.5786746554904514);71.2523574829;1.0;;;;;;;;;;;;;;2;0;0;;0;0;();();(-2000.0, -2000.0);
04:30:15:612;04:30:15:603;1448034373.65;(0.5913971900939942, 0.5769691891140408);70.9915084839;0.996926530172;;;;;;;;;;;;;;2;0;0;;0;0;();();(-2000.0, -2000.0);
04:30:15:629;04:30:15:603;1448034373.65;(0.5913971900939942, 0.5769691891140408);70.9915084839;0.996926530172;;;;;;;;;;;;;;2;0;0;;0;0;();();(-2000.0, -2000.0);
04:30:15:646;04:30:15:603;1448034373.65;(0.5913971900939942, 0.5769691891140408);70.9915084839;0.996926530172;;;;;;;;;;;;;;2;0;0;;0;0;();();(-2000.0, -2000.0);
04:30:15:662;04:30:15:603;1448034373.65;(0.5913971900939942, 0.5769691891140408);70.9915084839;0.996926530172;;;;;;;;;;;;;;2;0;0;;0;0;();();(-2000.0, -2000.0);
04:30:15:696;04:30:15:667;1448034373.72;(0.5899255752563477, 0.5753383636474609);71.2424468994;0.931597856541;;;;;;;;;;;;;;2;0;0;;0;0;();();(-2000.0, -2000.0);
04:30:15:712;04:30:15:667;1448034373.72;(0.5899255752563477, 0.5753383636474609);71.2424468994;0.931597856541;;;;;;;;;;;;;;2;0;0;;0;0;();();(-2000.0, -2000.0);
04:30:15:729;04:30:15:667;1448034373.72;(0.5899255752563477, 0.5753383636474609);71.2424468994;0.931597856541;;;;;;;;;;;;;;2;0;0;;0;0;();();(-2000.0, -2000.0);
04:30:15:744;04:30:15:734;1448034373.78;(0.5883616924285888, 0.574191665649414);71.4897613525;0.872329256019;;;;;;;;;;;;;;2;0;0;;0;0;();();(-2000.0, -2000.0);
04:30:15:762;04:30:15:734;1448034373.78;(0.5883616924285888, 0.574191665649414);71.4897613525;0.872329256019;;;;;;;;;;;;;;2;0;0;;0;0;();();(-2000.0, -2000.0);
04:30:15:796;04:30:15:734;1448034373.78;(0.5883616924285888, 0.574191665649414);71.4897613525;0.872329256019;;;;;;;;;;;;;;2;0;0;;0;0;();();(-2000.0, -2000.0);
04:30:15:812;04:30:15:734;1448034373.78;(0.5883616924285888, 0.574191665649414);71.4897613525;0.872329256019;;;;;;;;;;;;;;2;0;0;;0;0;();();(-2000.0, -2000.0);
04:30:15:829;04:30:15:734;1448034373.78;(0.5883616924285888, 0.574191665649414);71.4897613525;0.872329256019;;;;;;;;;;;;;;2;0;0;;0;0;();();(-2000.0, -2000.0);
04:30:15:846;04:30:15:734;1448034373.78;(0.5883616924285888, 0.574191665649414);71.4897613525;0.872329256019;;;;;;;;;;;;;;2;0;0;;0;0;();();(-2000.0, -2000.0);
04:30:15:862;04:30:15:734;1448034373.78;(0.5883616924285888, 0.574191665649414);71.4897613525;0.872329256019;;;;;;;;;;;;;;2;0;0;;0;0;();();(-2000.0, -2000.0);
04:30:15:880;04:30:15:866;1448034373.82;(0.5916659832000732, 0.5708067999945747);77.1898193359;0.827409367598;;;;;;;;;;;;;;2;0;0;;0;0;();();(-2000.0, -2000.0);
04:30:15:912;04:30:15:866;1448034373.82;(0.5916659832000732, 0.5708067999945747);77.1898193359;0.827409367598;;;;;;;;;;;;;;2;0;0;;0;0;();();(-2000.0, -2000.0);
04:30:15:929;04:30:15:866;1448034373.82;(0.5916659832000732, 0.5708067999945747);77.1898193359;0.827409367598;;;;;;;;;;;;;;2;0;0;;0;0;();();(-2000.0, -2000.0);
04:30:15:946;04:30:15:943;1448034373.98;(0.5977638244628907, 0.5675318823920357);72.0320358276;1.0;;;;;;;;;;;;;;2;0;0;;0;0;();();(-2000.0, -2000.0);
04:30:15:962;04:30:15:943;1448034373.98;(0.5977638244628907, 0.5675318823920357);72.0320358276;1.0;;;;;;;;;;;;;;2;0;0;;0;0;();();(-2000.0, -2000.0);
04:30:15:996;04:30:15:943;1448034373.98;(0.5977638244628907, 0.5675318823920357);72.0320358276;1.0;;;;;;;;;;;;;;2;0;0;;0;0;();();(-2000.0, -2000.0);
04:30:16:013;04:30:16:011;1448034374.05;(0.5966253280639648, 0.5675113677978516);72.3684921265;1.0;;;;;;;;;;;;;;2;0;0;;0;0;();();(-2000.0, -2000.0);
04:30:16:029;04:30:16:011;1448034374.05;(0.5966253280639648, 0.5675113677978516);72.3684921265;1.0;;;;;;;;;;;;;;2;0;0;;0;0;();();(-2000.0, -2000.0);
04:30:16:045;04:30:16:011;1448034374.05;(0.5966253280639648, 0.5675113677978516);72.3684921265;1.0;;;;;;;;;;;;;;2;0;0;;0;0;();();(-2000.0, -2000.0);
04:30:16:062;04:30:16:011;1448034374.05;(0.5966253280639648, 0.5675113677978516);72.3684921265;1.0;;;;;;;;;;;;;;2;0;0;;0;0;();();(-2000.0, -2000.0);
04:30:16:096;04:30:16:067;1448034374.12;(0.590916633605957, 0.5680657704671224);73.0196609497;0.950515529638;;;;;;;;;;;;;;2;0;0;;0;0;();();(-2000.0, -2000.0);
04:30:16:113;04:30:16:067;1448034374.12;(0.590916633605957, 0.5680657704671224);73.0196609497;0.950515529638;;;;;;;;;;;;;;2;0;0;;0;0;();();(-2000.0, -2000.0);
04:30:16:129;04:30:16:067;1448034374.12;(0.590916633605957, 0.5680657704671224);73.0196609497;0.950515529638;;;;;;;;;;;;;;2;0;0;;0;0;();();(-2000.0, -2000.0);
04:30:16:146;04:30:16:130;1448034374.15;(0.5893936634063721, 0.5661612616644965);73.1229629517;0.974101085173;;;;;;;;;;;;;;2;0;0;;0;0;();();(-2000.0, -2000.0);
04:30:16:163;04:30:16:130;1448034374.15;(0.5893936634063721, 0.5661612616644965);73.1229629517;0.974101085173;;;;;;;;;;;;;;2;0;0;;0;0;();();(-2000.0, -2000.0);
04:30:16:196;04:30:16:130;1448034374.15;(0.5893936634063721, 0.5661612616644965);73.1229629517;0.974101085173;;;;;;;;;;;;;;2;0;0;;0;0;();();(-2000.0, -2000.0);
04:30:16:212;04:30:16:198;1448034374.18;(0.5856163024902343, 0.5589875962999131);73.3794021606;0.995025266907;;;;;;;;;;;;;;2;0;0;;0;0;();();(-2000.0, -2000.0);
04:30:16:229;04:30:16:198;1448034374.18;(0.5856163024902343, 0.5589875962999131);73.3794021606;0.995025266907;;;;;;;;;;;;;;2;0;0;;0;0;();();(-2000.0, -2000.0);
04:30:16:246;04:30:16:198;1448034374.18;(0.5856163024902343, 0.5589875962999131);73.3794021606;0.995025266907;;;;;;;;;;;;;;2;0;0;;0;0;();();(-2000.0, -2000.0);
04:30:16:263;04:30:16:198;1448034374.18;(0.5856163024902343, 0.5589875962999131);73.3794021606;0.995025266907;;;;;;;;;;;;;;2;0;0;;0;0;();();(-2000.0, -2000.0);
04:30:16:297;04:30:16:198;1448034374.18;(0.5856163024902343, 0.5589875962999131);73.3794021606;0.995025266907;;;;;;;;;;;;;;2;0;0;;0;0;();();(-2000.0, -2000.0);
04:30:16:313;04:30:16:198;1448034374.18;(0.5856163024902343, 0.5589875962999131);73.3794021606;0.995025266907;;;;;;;;;;;;;;2;0;0;;0;0;();();(-2000.0, -2000.0);
04:30:16:329;04:30:16:198;1448034374.18;(0.5856163024902343, 0.5589875962999131);73.3794021606;0.995025266907;;;;;;;;;;;;;;2;0;0;;0;0;();();(-2000.0, -2000.0);
04:30:16:346;04:30:16:333;1448034374.22;(0.5829244136810303, 0.5470143636067708);80.2697906494;0.898098635533;;;;;;;;;;;;;;2;0;0;;0;0;();();(-2000.0, -2000.0);
04:30:16:362;04:30:16:333;1448034374.22;(0.5829244136810303, 0.5470143636067708);80.2697906494;0.898098635533;;;;;;;;;;;;;;2;0;0;;0;0;();();(-2000.0, -2000.0);
04:30:16:396;04:30:16:333;1448034374.22;(0.5829244136810303, 0.5470143636067708);80.2697906494;0.898098635533;;;;;;;;;;;;;;2;0;0;;0;0;();();(-2000.0, -2000.0);
04:30:16:413;04:30:16:398;1448034374.41;(0.6472696304321289, 0.6631684197319878);74.6905441284;0.814693770221;;;;;;;;;;;;;;2;0;0;;0;0;();();(-2000.0, -2000.0);
04:30:16:430;04:30:16:398;1448034374.41;(0.6472696304321289, 0.6631684197319878);74.6905441284;0.814693770221;;;;;;;;;;;;;;2;0;0;;0;0;();();(-2000.0, -2000.0);
04:30:16:446;04:30:16:398;1448034374.41;(0.6472696304321289, 0.6631684197319878);74.6905441284;0.814693770221;;;;;;;;;;;;;;2;0;0;;0;0;();();(-2000.0, -2000.0);
04:30:16:463;04:30:16:462;1448034374.43;(0.640343713760376, 0.6579607433742947);72.8323287964;1.0;;;;;;;;;;;;;;2;0;0;;0;0;();();(-2000.0, -2000.0);
04:30:16:480;04:30:16:462;1448034374.43;(0.640343713760376, 0.6579607433742947);72.8323287964;1.0;;;;;;;;;;;;;;2;0;0;;0;0;();();(-2000.0, -2000.0);
04:30:16:513;04:30:16:462;1448034374.43;(0.640343713760376, 0.6579607433742947);72.8323287964;1.0;;;;;;;;;;;;;;2;0;0;;0;0;();();(-2000.0, -2000.0);
04:30:16:529;04:30:16:462;1448034374.43;(0.640343713760376, 0.6579607433742947);72.8323287964;1.0;;;;;;;;;;;;;;2;0;0;;0;0;();();(-2000.0, -2000.0);
04:30:16:546;04:30:16:530;1448034374.53;(0.6204104900360108, 0.6609964370727539);73.2967453003;0.967105631103;;;;;;;;;;;;;;2;0;0;;0;0;();();(-2000.0, -2000.0);
04:30:16:566;04:30:16:530;1448034374.53;(0.6204104900360108, 0.6609964370727539);73.2967453003;0.967105631103;;;;;;;;;;;;;;4;0;0;;0;0;();();(-2000.0, -2000.0);
04:30:16:580;04:30:16:530;1448034374.53;(0.6204104900360108, 0.6609964370727539);73.2967453003;0.967105631103;;;;;;;;;;;;;;4;0;0;;0;0;();();(-2000.0, -2000.0);
04:30:16:613;04:30:16:599;1448034374.66;(0.3416693449020386, 0.7764689551459418);24.0225334167;0.783149066023;;;;;;;;;;;;;;4;0;0;;0;0;();();(-2000.0, -2000.0);
04:30:16:630;04:30:16:599;1448034374.66;(0.3416693449020386, 0.7764689551459418);24.0225334167;0.783149066023;;;;;;;;;;;;;;4;0;0;;0;0;();();(-2000.0, -2000.0);
04:30:16:647;04:30:16:599;1448034374.66;(0.3416693449020386, 0.7764689551459418);24.0225334167;0.783149066023;;;;;;;;;;;;;;4;0;0;;0;0;();();(-2000.0, -2000.0);
04:30:16:664;04:30:16:599;1448034374.66;(0.3416693449020386, 0.7764689551459418);24.0225334167;0.783149066023;;;;;;;;;;;;;;4;0;0;;0;0;();();(-2000.0, -2000.0);
04:30:16:681;04:30:16:665;1448034374.72;(0.5979971885681152, 0.6470646752251519);70.8156433105;1.0;;;;;;;;;;;;;;4;0;0;;0;0;();();(-2000.0, -2000.0);
04:30:16:713;04:30:16:665;1448034374.72;(0.5979971885681152, 0.6470646752251519);70.8156433105;1.0;;;;;;;;;;;;;;4;0;0;;0;0;();();(-2000.0, -2000.0);
04:30:16:729;04:30:16:665;1448034374.72;(0.5979971885681152, 0.6470646752251519);70.8156433105;1.0;;;;;;;;;;;;;;4;0;0;;0;0;();();(-2000.0, -2000.0);
04:30:16:746;04:30:16:730;1448034374.78;(0.5981220722198486, 0.648821661207411);70.2197570801;1.0;;;;;;;;;;;;;;4;0;0;;0;0;();();(-2000.0, -2000.0);
04:30:16:763;04:30:16:730;1448034374.78;(0.5981220722198486, 0.648821661207411);70.2197570801;1.0;;;;;;;;;;;;;;4;0;0;;0;0;();();(-2000.0, -2000.0);
04:30:16:780;04:30:16:730;1448034374.78;(0.5981220722198486, 0.648821661207411);70.2197570801;1.0;;;;;;;;;;;;;;4;0;0;;0;0;();();(-2000.0, -2000.0);
04:30:16:813;04:30:16:794;1448034374.82;(0.23326551914215088, 0.9249321354760064);18.5278930664;0.97402107183;;;;;;;;;;;;;;4;0;0;;0;0;();();(-2000.0, -2000.0);
04:30:16:829;04:30:16:794;1448034374.82;(0.23326551914215088, 0.9249321354760064);18.5278930664;0.97402107183;;;;;;;;;;;;;;4;0;0;;0;0;();();(-2000.0, -2000.0);
04:30:16:846;04:30:16:794;1448034374.82;(0.23326551914215088, 0.9249321354760064);18.5278930664;0.97402107183;;;;;;;;;;;;;;4;0;0;;0;0;();();(-2000.0, -2000.0);
04:30:16:864;04:30:16:794;1448034374.82;(0.23326551914215088, 0.9249321354760064);18.5278930664;0.97402107183;;;;;;;;;;;;;;4;0;0;;0;0;();();(-2000.0, -2000.0);
04:30:16:880;04:30:16:794;1448034374.82;(0.23326551914215088, 0.9249321354760064);18.5278930664;0.97402107183;;;;;;;;;;;;;;4;0;0;;0;0;();();(-2000.0, -2000.0);
04:30:16:913;04:30:16:794;1448034374.82;(0.23326551914215088, 0.9249321354760064);18.5278930664;0.97402107183;;;;;;;;;;;;;;4;0;0;;0;0;();();(-2000.0, -2000.0);
04:30:16:930;04:30:16:930;1448034374.95;(0.33922710418701174, 0.7904952579074436);29.672952652;0.816527481658;;;;;;;;;;;;;;4;0;0;;0;0;();();(-2000.0, -2000.0);
04:30:16:947;04:30:16:930;1448034374.95;(0.33922710418701174, 0.7904952579074436);29.672952652;0.816527481658;;;;;;;;;;;;;;4;0;0;;0;0;();();(-2000.0, -2000.0);
04:30:16:963;04:30:16:930;1448034374.95;(0.33922710418701174, 0.7904952579074436);29.672952652;0.816527481658;;;;;;;;;;;;;;4;0;0;;0;0;();();(-2000.0, -2000.0);
04:30:16:980;04:30:16:930;1448034374.95;(0.33922710418701174, 0.7904952579074436);29.672952652;0.816527481658;;;;;;;;;;;;;;4;0;0;;0;0;();();(-2000.0, -2000.0);
04:30:17:014;04:30:16:930;1448034374.95;(0.33922710418701174, 0.7904952579074436);29.672952652;0.816527481658;;;;;;;;;;;;;;4;0;0;;0;0;();();(-2000.0, -2000.0);
04:30:17:030;04:30:16:930;1448034374.95;(0.33922710418701174, 0.7904952579074436);29.672952652;0.816527481658;;;;;;;;;;;;;;4;0;0;;0;0;();();(-2000.0, -2000.0);
04:30:17:047;04:30:16:930;1448034374.95;(0.33922710418701174, 0.7904952579074436);29.672952652;0.816527481658;;;;;;;;;;;;;;4;0;0;;0;0;();();(-2000.0, -2000.0);
04:30:17:064;04:30:17:062;1448034374.97;(0.6031235694885254, 0.6463767581515842);71.4815979004;1.0;;;;;;;;;;;;;;4;0;0;;0;0;();();(-2000.0, -2000.0);
04:30:17:080;04:30:17:062;1448034374.97;(0.6031235694885254, 0.6463767581515842);71.4815979004;1.0;;;;;;;;;;;;;;4;0;0;;0;0;();();(-2000.0, -2000.0);
04:30:17:115;04:30:17:062;1448034374.97;(0.6031235694885254, 0.6463767581515842);71.4815979004;1.0;;;;;;;;;;;;;;4;0;0;;0;0;();();(-2000.0, -2000.0);
04:30:17:130;04:30:17:062;1448034374.97;(0.6031235694885254, 0.6463767581515842);71.4815979004;1.0;;;;;;;;;;;;;;4;0;0;;0;0;();();(-2000.0, -2000.0);
04:30:17:147;04:30:17:140;1448034375.18;(0.6094816207885743, 0.634449217054579);71.246673584;1.0;;;;;;;;;;;;;;4;0;0;;0;0;();();(-2000.0, -2000.0);
04:30:17:163;04:30:17:140;1448034375.18;(0.6094816207885743, 0.634449217054579);71.246673584;1.0;;;;;;;;;;;;;;4;0;0;;0;0;();();(-2000.0, -2000.0);
04:30:17:181;04:30:17:140;1448034375.18;(0.6094816207885743, 0.634449217054579);71.246673584;1.0;;;;;;;;;;;;;;4;0;0;;0;0;();();(-2000.0, -2000.0);
04:30:17:214;04:30:17:194;1448034375.25;(0.6107288360595703, 0.6334400177001953);70.4507980347;1.0;;;;;;;;;;;;;;4;0;0;;0;0;();();(-2000.0, -2000.0);
04:30:17:230;04:30:17:194;1448034375.25;(0.6107288360595703, 0.6334400177001953);70.4507980347;1.0;;;;;;;;;;;;;;4;0;0;;0;0;();();(-2000.0, -2000.0);
04:30:17:247;04:30:17:194;1448034375.25;(0.6107288360595703, 0.6334400177001953);70.4507980347;1.0;;;;;;;;;;;;;;4;0;0;;0;0;();();(-2000.0, -2000.0);
04:30:17:264;04:30:17:263;1448034375.32;(0.6116481304168702, 0.6332870907253689);70.9993133545;1.0;;;;;;;;;;;;;;4;0;0;;0;0;();();(-2000.0, -2000.0);
04:30:17:281;04:30:17:263;1448034375.32;(0.6116481304168702, 0.6332870907253689);70.9993133545;1.0;;;;;;;;;;;;;;4;0;0;;0;0;();();(-2000.0, -2000.0);
04:30:17:313;04:30:17:263;1448034375.32;(0.6116481304168702, 0.6332870907253689);70.9993133545;1.0;;;;;;;;;;;;;;4;0;0;;0;0;();();(-2000.0, -2000.0);
04:30:17:331;04:30:17:326;1448034375.38;(0, 0);0;0;;;;;;;;;;;;;;4;0;0;;0;0;();();(-2000.0, -2000.0);
04:30:17:347;04:30:17:326;1448034375.38;(0, 0);0;0;;;;;;;;;;;;;;4;0;0;;0;0;();();(-2000.0, -2000.0);
04:30:17:364;04:30:17:326;1448034375.38;(0, 0);0;0;;;;;;;;;;;;;;4;0;0;;0;0;();();(-2000.0, -2000.0);
04:30:17:381;04:30:17:326;1448034375.38;(0, 0);0;0;;;;;;;;;;;;;;4;0;0;;0;0;();();(-2000.0, -2000.0);
04:30:17:414;04:30:17:394;1448034375.46;(0.6180438041687012, 0.6424331876966689);70.7678985596;1.0;;;;;;;;;;;;;;4;0;0;;0;0;();();(-2000.0, -2000.0);
04:30:17:430;04:30:17:394;1448034375.46;(0.6180438041687012, 0.6424331876966689);70.7678985596;1.0;;;;;;;;;;;;;;4;0;0;;0;0;();();(-2000.0, -2000.0);
04:30:17:448;04:30:17:394;1448034375.46;(0.6180438041687012, 0.6424331876966689);70.7678985596;1.0;;;;;;;;;;;;;;4;0;0;;0;0;();();(-2000.0, -2000.0);
04:30:17:464;04:30:17:460;1448034375.52;(0.6170681953430176, 0.6430617014567057);70.5702133179;1.0;;;;;;;;;;;;;;4;0;0;;0;0;();();(-2000.0, -2000.0);
04:30:17:481;04:30:17:460;1448034375.52;(0.6170681953430176, 0.6430617014567057);70.5702133179;1.0;;;;;;;;;;;;;;4;0;0;;0;0;();();(-2000.0, -2000.0);
04:30:17:514;04:30:17:460;1448034375.52;(0.6170681953430176, 0.6430617014567057);70.5702133179;1.0;;;;;;;;;;;;;;4;0;0;;0;0;();();(-2000.0, -2000.0);
04:30:17:530;04:30:17:526;1448034375.58;(0.6167710781097412, 0.642784923977322);70.5527420044;1.0;;;;;;;;;;;;;;4;0;0;;0;0;();();(-2000.0, -2000.0);
04:30:17:548;04:30:17:526;1448034375.58;(0.6167710781097412, 0.642784923977322);70.5527420044;1.0;;;;;;;;;;;;;;4;0;0;;0;0;();();(-2000.0, -2000.0);
04:30:17:564;04:30:17:526;1448034375.58;(0.6167710781097412, 0.642784923977322);70.5527420044;1.0;;;;;;;;;;;;;;4;0;0;;0;0;();();(-2000.0, -2000.0);
04:30:17:581;04:30:17:526;1448034375.58;(0.6167710781097412, 0.642784923977322);70.5527420044;1.0;;;;;;;;;;;;;;4;0;0;;0;0;();();(-2000.0, -2000.0);
04:30:17:612;04:30:17:594;1448034375.65;(0.6172096729278564, 0.6425448523627387);71.0545043945;1.0;;;;;;;;;;;;;;4;0;0;;0;0;();();(-2000.0, -2000.0);
04:30:17:631;04:30:17:594;1448034375.65;(0.6172096729278564, 0.6425448523627387);71.0545043945;1.0;;;;;;;;;;;;;;4;0;0;;0;0;();();(-2000.0, -2000.0);
04:30:17:647;04:30:17:594;1448034375.65;(0.6172096729278564, 0.6425448523627387);71.0545043945;1.0;;;;;;;;;;;;;;4;0;0;;0;0;();();(-2000.0, -2000.0);
04:30:17:664;04:30:17:659;1448034375.72;(0.6168361663818359, 0.642275619506836);70.9838180542;1.0;;;;;;;;;;;;;;4;0;0;;0;0;();();(-2000.0, -2000.0);
04:30:17:680;04:30:17:659;1448034375.72;(0.6168361663818359, 0.642275619506836);70.9838180542;1.0;;;;;;;;;;;;;;4;0;0;;0;0;();();(-2000.0, -2000.0);
04:30:17:714;04:30:17:659;1448034375.72;(0.6168361663818359, 0.642275619506836);70.9838180542;1.0;;;;;;;;;;;;;;4;0;0;;0;0;();();(-2000.0, -2000.0);
04:30:17:731;04:30:17:659;1448034375.72;(0.6168361663818359, 0.642275619506836);70.9838180542;1.0;;;;;;;;;;;;;;4;0;0;;0;0;();();(-2000.0, -2000.0);
04:30:17:747;04:30:17:738;1448034375.78;(0.6110673427581788, 0.6301651000976562);71.8503417969;0.928122142576;;;;;;;;;;;;;;4;0;0;;0;0;();();(-2000.0, -2000.0);
04:30:17:764;04:30:17:738;1448034375.78;(0.6110673427581788, 0.6301651000976562);71.8503417969;0.928122142576;;;;;;;;;;;;;;4;0;0;;0;0;();();(-2000.0, -2000.0);
04:30:17:781;04:30:17:738;1448034375.78;(0.6110673427581788, 0.6301651000976562);71.8503417969;0.928122142576;;;;;;;;;;;;;;4;0;0;;0;0;();();(-2000.0, -2000.0);
04:30:17:814;04:30:17:790;1448034375.85;(0.6101000785827637, 0.6315398322211372);72.0055465698;1.0;;;;;;;;;;;;;;4;0;0;;0;0;();();(-2000.0, -2000.0);
04:30:17:830;04:30:17:790;1448034375.85;(0.6101000785827637, 0.6315398322211372);72.0055465698;1.0;;;;;;;;;;;;;;4;0;0;;0;0;();();(-2000.0, -2000.0);
04:30:17:848;04:30:17:790;1448034375.85;(0.6101000785827637, 0.6315398322211372);72.0055465698;1.0;;;;;;;;;;;;;;4;0;0;;0;0;();();(-2000.0, -2000.0);
04:30:17:864;04:30:17:790;1448034375.85;(0.6101000785827637, 0.6315398322211372);72.0055465698;1.0;;;;;;;;;;;;;;4;0;0;;0;0;();();(-2000.0, -2000.0);
04:30:17:881;04:30:17:873;1448034375.92;(0.6098785877227784, 0.6332771301269531);72.4993515015;1.0;;;;;;;;;;;;;;4;0;0;;0;0;();();(-2000.0, -2000.0);
04:30:17:914;04:30:17:873;1448034375.92;(0.6098785877227784, 0.6332771301269531);72.4993515015;1.0;;;;;;;;;;;;;;4;0;0;;0;0;();();(-2000.0, -2000.0);
04:30:17:931;04:30:17:927;1448034375.98;(0.6101202964782715, 0.635414081149631);73.1653442383;1.0;;;;;;;;;;;;;;4;0;0;;0;0;();();(-2000.0, -2000.0);
04:30:17:948;04:30:17:927;1448034375.98;(0.6101202964782715, 0.635414081149631);73.1653442383;1.0;;;;;;;;;;;;;;4;0;0;;0;0;();();(-2000.0, -2000.0);
04:30:17:965;04:30:17:927;1448034375.98;(0.6101202964782715, 0.635414081149631);73.1653442383;1.0;;;;;;;;;;;;;;4;0;0;;0;0;();();(-2000.0, -2000.0);
04:30:17:981;04:30:17:927;1448034375.98;(0.6101202964782715, 0.635414081149631);73.1653442383;1.0;;;;;;;;;;;;;;4;0;0;;0;0;();();(-2000.0, -2000.0);
04:30:18:014;04:30:17:992;1448034376.05;(0.610067081451416, 0.6376197391086155);73.5175628662;1.0;;;;;;;;;;;;;;4;0;0;;0;0;();();(-2000.0, -2000.0);
04:30:18:031;04:30:17:992;1448034376.05;(0.610067081451416, 0.6376197391086155);73.5175628662;1.0;;;;;;;;;;;;;;4;0;0;;0;0;();();(-2000.0, -2000.0);
04:30:18:048;04:30:17:992;1448034376.05;(0.610067081451416, 0.6376197391086155);73.5175628662;1.0;;;;;;;;;;;;;;4;0;0;;0;0;();();(-2000.0, -2000.0);
04:30:18:064;04:30:17:992;1448034376.05;(0.610067081451416, 0.6376197391086155);73.5175628662;1.0;;;;;;;;;;;;;;4;0;0;;0;0;();();(-2000.0, -2000.0);
04:30:18:081;04:30:17:992;1448034376.05;(0.610067081451416, 0.6376197391086155);73.5175628662;1.0;;;;;;;;;;;;;;4;0;0;;0;0;();();(-2000.0, -2000.0);
04:30:18:114;04:30:18:082;1448034376.08;(0.6089158058166504, 0.6418080223931206);73.3371429443;0.939799080227;;;;;;;;;;;;;;4;0;0;;0;0;();();(-2000.0, -2000.0);
04:30:18:131;04:30:18:123;1448034376.18;(0.6087341785430909, 0.6422542995876737);73.9981994629;1.0;;;;;;;;;;;;;;4;0;0;;0;0;();();(-2000.0, -2000.0);
04:30:18:148;04:30:18:123;1448034376.18;(0.6087341785430909, 0.6422542995876737);73.9981994629;1.0;;;;;;;;;;;;;;4;0;0;;0;0;();();(-2000.0, -2000.0);
04:30:18:165;04:30:18:123;1448034376.18;(0.6087341785430909, 0.6422542995876737);73.9981994629;1.0;;;;;;;;;;;;;;4;0;0;;0;0;();();(-2000.0, -2000.0);
04:30:18:181;04:30:18:123;1448034376.18;(0.6087341785430909, 0.6422542995876737);73.9981994629;1.0;;;;;;;;;;;;;;4;0;0;;0;0;();();(-2000.0, -2000.0);
04:30:18:214;04:30:18:190;1448034376.25;(0.6086298942565918, 0.6428302341037326);74.3586196899;1.0;;;;;;;;;;;;;;4;0;0;;0;0;();();(-2000.0, -2000.0);
04:30:18:231;04:30:18:190;1448034376.25;(0.6086298942565918, 0.6428302341037326);74.3586196899;1.0;;;;;;;;;;;;;;4;0;0;;0;0;();();(-2000.0, -2000.0);
04:30:18:247;04:30:18:190;1448034376.25;(0.6086298942565918, 0.6428302341037326);74.3586196899;1.0;;;;;;;;;;;;;;4;0;0;;0;0;();();(-2000.0, -2000.0);
04:30:18:265;04:30:18:255;1448034376.32;(0.6089669704437256, 0.6434005525377062);74.3559265137;1.0;;;;;;;;;;;;;;4;0;0;;0;0;();();(-2000.0, -2000.0);
04:30:18:281;04:30:18:255;1448034376.32;(0.6089669704437256, 0.6434005525377062);74.3559265137;1.0;;;;;;;;;;;;;;4;0;0;;0;0;();();(-2000.0, -2000.0);
04:30:18:314;04:30:18:255;1448034376.32;(0.6089669704437256, 0.6434005525377062);74.3559265137;1.0;;;;;;;;;;;;;;4;0;0;;0;0;();();(-2000.0, -2000.0);
04:30:18:331;04:30:18:255;1448034376.32;(0.6089669704437256, 0.6434005525377062);74.3559265137;1.0;;;;;;;;;;;;;;4;0;0;;0;0;();();(-2000.0, -2000.0);
04:30:18:348;04:30:18:255;1448034376.32;(0.6089669704437256, 0.6434005525377062);74.3559265137;1.0;;;;;;;;;;;;;;4;0;0;;0;0;();();(-2000.0, -2000.0);
04:30:18:364;04:30:18:255;1448034376.32;(0.6089669704437256, 0.6434005525377062);74.3559265137;1.0;;;;;;;;;;;;;;4;0;0;;0;0;();();(-2000.0, -2000.0);
04:30:18:381;04:30:18:371;1448034376.38;(0.6087378978729248, 0.6433246188693577);74.5070037842;1.0;;;;;;;;;;;;;;4;0;0;;0;0;();();(-2000.0, -2000.0);
04:30:18:414;04:30:18:391;1448034376.45;(0.608811902999878, 0.6437268786960177);74.7783355713;1.0;;;;;;;;;;;;;;4;0;0;;0;0;();();(-2000.0, -2000.0);
04:30:18:431;04:30:18:391;1448034376.45;(0.608811902999878, 0.6437268786960177);74.7783355713;1.0;;;;;;;;;;;;;;4;0;0;;0;0;();();(-2000.0, -2000.0);
04:30:18:449;04:30:18:391;1448034376.45;(0.608811902999878, 0.6437268786960177);74.7783355713;1.0;;;;;;;;;;;;;;4;0;0;;0;0;();();(-2000.0, -2000.0);
04:30:18:463;04:30:18:455;1448034376.52;(0.6086020946502686, 0.6453445858425564);74.7744903564;1.0;;;;;;;;;;;;;;4;1;3;53;0;0;();();(-2000.0, -2000.0);
04:30:18:481;04:30:18:455;1448034376.52;(0.6086020946502686, 0.6453445858425564);74.7744903564;1.0;;;;;;;;;;;;;;4;0;0;;0;0;();();(-2000.0, -2000.0);
04:30:18:515;04:30:18:455;1448034376.52;(0.6086020946502686, 0.6453445858425564);74.7744903564;1.0;;;;;;;;;;;;;;4;0;0;;0;0;();();(-2000.0, -2000.0);
04:30:18:531;04:30:18:522;1448034376.58;(0.6091396808624268, 0.6460984124077691);74.8594818115;1.0;;;;;;;;;;;;;;4;0;0;;0;0;();();(-2000.0, -2000.0);
04:30:18:548;04:30:18:522;1448034376.58;(0.6091396808624268, 0.6460984124077691);74.8594818115;1.0;;;;;;;;;;;;;;4;0;0;;0;0;();();(-2000.0, -2000.0);
04:30:18:565;04:30:18:522;1448034376.58;(0.6091396808624268, 0.6460984124077691);74.8594818115;1.0;;;;;;;;;;;;;;4;0;0;;0;0;();();(-2000.0, -2000.0);
04:30:18:581;04:30:18:522;1448034376.58;(0.6091396808624268, 0.6460984124077691);74.8594818115;1.0;;;;;;;;;;;;;;4;0;0;;0;0;();();(-2000.0, -2000.0);
04:30:18:614;04:30:18:522;1448034376.58;(0.6091396808624268, 0.6460984124077691);74.8594818115;1.0;;;;;;;;;;;;;;4;0;0;;0;0;();();(-2000.0, -2000.0);
04:30:18:631;04:30:18:522;1448034376.58;(0.6091396808624268, 0.6460984124077691);74.8594818115;1.0;;;;;;;;;;;;;;4;0;0;;0;0;();();(-2000.0, -2000.0);
04:30:18:648;04:30:18:522;1448034376.58;(0.6091396808624268, 0.6460984124077691);74.8594818115;1.0;;;;;;;;;;;;;;4;0;0;;0;0;();();(-2000.0, -2000.0);
04:30:18:665;04:30:18:661;1448034376.72;(0.607416820526123, 0.6473260243733724);75.5167999268;1.0;;;;;;;;;;;;;;4;0;0;;0;0;();();(-2000.0, -2000.0);
04:30:18:681;04:30:18:661;1448034376.72;(0.607416820526123, 0.6473260243733724);75.5167999268;1.0;;;;;;;;;;;;;;4;0;0;;0;0;();();(-2000.0, -2000.0);
04:30:18:715;04:30:18:661;1448034376.72;(0.607416820526123, 0.6473260243733724);75.5167999268;1.0;;;;;;;;;;;;;;4;0;0;;0;0;();();(-2000.0, -2000.0);
04:30:18:731;04:30:18:723;1448034376.78;(0.6069079875946045, 0.6479016198052301);75.4988098145;1.0;;;;;;;;;;;;;;4;0;0;;0;0;();();(-2000.0, -2000.0);
04:30:18:749;04:30:18:723;1448034376.78;(0.6069079875946045, 0.6479016198052301);75.4988098145;1.0;;;;;;;;;;;;;;4;0;0;;0;0;();();(-2000.0, -2000.0);
04:30:18:765;04:30:18:723;1448034376.78;(0.6069079875946045, 0.6479016198052301);75.4988098145;1.0;;;;;;;;;;;;;;4;0;0;;0;0;();();(-2000.0, -2000.0);
04:30:18:782;04:30:18:723;1448034376.78;(0.6069079875946045, 0.6479016198052301);75.4988098145;1.0;;;;;;;;;;;;;;4;0;0;;0;0;();();(-2000.0, -2000.0);
04:30:18:815;04:30:18:790;1448034376.85;(0.6071897983551026, 0.6482497109307184);75.5408248901;1.0;;;;;;;;;;;;;;4;0;0;;0;0;();();(-2000.0, -2000.0);
04:30:18:832;04:30:18:790;1448034376.85;(0.6071897983551026, 0.6482497109307184);75.5408248901;1.0;;;;;;;;;;;;;;4;0;0;;0;0;();();(-2000.0, -2000.0);
04:30:18:849;04:30:18:790;1448034376.85;(0.6071897983551026, 0.6482497109307184);75.5408248901;1.0;;;;;;;;;;;;;;4;0;0;;0;0;();();(-2000.0, -2000.0);
04:30:18:865;04:30:18:790;1448034376.85;(0.6071897983551026, 0.6482497109307184);75.5408248901;1.0;;;;;;;;;;;;;;4;0;0;;0;0;();();(-2000.0, -2000.0);
04:30:18:882;04:30:18:790;1448034376.85;(0.6071897983551026, 0.6482497109307184);75.5408248901;1.0;;;;;;;;;;;;;;4;0;0;;0;0;();();(-2000.0, -2000.0);
04:30:18:915;04:30:18:884;1448034376.92;(0.6081581592559815, 0.6474486880832249);76.0983963013;1.0;;;;;;;;;;;;;;4;0;0;;0;0;();();(-2000.0, -2000.0);
04:30:18:932;04:30:18:884;1448034376.92;(0.6081581592559815, 0.6474486880832249);76.0983963013;1.0;;;;;;;;;;;;;;4;0;0;;0;0;();();(-2000.0, -2000.0);
04:30:18:948;04:30:18:884;1448034376.92;(0.6081581592559815, 0.6474486880832249);76.0983963013;1.0;;;;;;;;;;;;;;4;0;0;;0;0;();();(-2000.0, -2000.0);
04:30:18:965;04:30:18:884;1448034376.92;(0.6081581592559815, 0.6474486880832249);76.0983963013;1.0;;;;;;;;;;;;;;4;0;0;;0;0;();();(-2000.0, -2000.0);
04:30:18:981;04:30:18:979;1448034376.98;(0.6089601993560791, 0.6464423709445529);76.1368103027;1.0;;;;;;;;;;;;;;4;0;0;;0;0;();();(-2000.0, -2000.0);
04:30:19:015;04:30:18:988;1448034377.05;(0.6082435131072998, 0.647682147555881);75.8666381836;1.0;;;;;;;;;;;;;;4;0;0;;0;0;();();(-2000.0, -2000.0);
04:30:19:032;04:30:18:988;1448034377.05;(0.6082435131072998, 0.647682147555881);75.8666381836;1.0;;;;;;;;;;;;;;4;0;0;;0;0;();();(-2000.0, -2000.0);
04:30:19:049;04:30:18:988;1448034377.05;(0.6082435131072998, 0.647682147555881);75.8666381836;1.0;;;;;;;;;;;;;;4;0;0;;0;0;();();(-2000.0, -2000.0);
04:30:19:065;04:30:19:055;1448034377.12;(0.6080001831054688, 0.6474802441067166);76.0133361816;1.0;;;;;;;;;;;;;;4;0;0;;0;0;();();(-2000.0, -2000.0);
04:30:19:082;04:30:19:055;1448034377.12;(0.6080001831054688, 0.6474802441067166);76.0133361816;1.0;;;;;;;;;;;;;;4;0;0;;0;0;();();(-2000.0, -2000.0);
04:30:19:115;04:30:19:055;1448034377.12;(0.6080001831054688, 0.6474802441067166);76.0133361816;1.0;;;;;;;;;;;;;;4;0;0;;0;0;();();(-2000.0, -2000.0);
04:30:19:132;04:30:19:055;1448034377.12;(0.6080001831054688, 0.6474802441067166);76.0133361816;1.0;;;;;;;;;;;;;;4;0;0;;0;0;();();(-2000.0, -2000.0);
04:30:19:148;04:30:19:136;1448034377.18;(0.6081556797027587, 0.6471927007039389);75.8457260132;1.0;;;;;;;;;;;;;;4;0;0;;0;0;();();(-2000.0, -2000.0);
04:30:19:165;04:30:19:136;1448034377.18;(0.6081556797027587, 0.6471927007039389);75.8457260132;1.0;;;;;;;;;;;;;;4;0;0;;0;0;();();(-2000.0, -2000.0);
04:30:19:182;04:30:19:136;1448034377.18;(0.6081556797027587, 0.6471927007039389);75.8457260132;1.0;;;;;;;;;;;;;;4;0;0;;0;0;();();(-2000.0, -2000.0);
04:30:19:215;04:30:19:136;1448034377.18;(0.6081556797027587, 0.6471927007039389);75.8457260132;1.0;;;;;;;;;;;;;;4;0;0;;0;0;();();(-2000.0, -2000.0);
04:30:19:231;04:30:19:136;1448034377.18;(0.6081556797027587, 0.6471927007039389);75.8457260132;1.0;;;;;;;;;;;;;;4;0;0;;0;0;();();(-2000.0, -2000.0);
04:30:19:249;04:30:19:136;1448034377.18;(0.6081556797027587, 0.6471927007039389);75.8457260132;1.0;;;;;;;;;;;;;;4;0;0;;0;0;();();(-2000.0, -2000.0);
04:30:19:265;04:30:19:136;1448034377.18;(0.6081556797027587, 0.6471927007039389);75.8457260132;1.0;;;;;;;;;;;;;;4;0;0;;0;0;();();(-2000.0, -2000.0);
04:30:19:282;04:30:19:267;1448034377.32;(0.6079139709472656, 0.6485224193996854);75.2844009399;1.0;;;;;;;;;;;;;;4;0;0;;0;0;();();(-2000.0, -2000.0);
04:30:19:316;04:30:19:267;1448034377.32;(0.6079139709472656, 0.6485224193996854);75.2844009399;1.0;;;;;;;;;;;;;;4;0;0;;0;0;();();(-2000.0, -2000.0);
04:30:19:332;04:30:19:321;1448034377.38;(0.6076536178588867, 0.6491041607326932);75.8361587524;1.0;;;;;;;;;;;;;;4;0;0;;0;0;();();(-2000.0, -2000.0);
04:30:19:348;04:30:19:321;1448034377.38;(0.6076536178588867, 0.6491041607326932);75.8361587524;1.0;;;;;;;;;;;;;;4;0;0;;0;0;();();(-2000.0, -2000.0);
04:30:19:366;04:30:19:321;1448034377.38;(0.6076536178588867, 0.6491041607326932);75.8361587524;1.0;;;;;;;;;;;;;;4;0;0;;0;0;();();(-2000.0, -2000.0);
04:30:19:383;04:30:19:321;1448034377.38;(0.6076536178588867, 0.6491041607326932);75.8361587524;1.0;;;;;;;;;;;;;;4;0;0;;0;0;();();(-2000.0, -2000.0);
04:30:19:416;04:30:19:386;1448034377.45;(0.6074571132659912, 0.6490832858615452);75.601272583;1.0;;;;;;;;;;;;;;4;0;0;;0;0;();();(-2000.0, -2000.0);
04:30:19:432;04:30:19:386;1448034377.45;(0.6074571132659912, 0.6490832858615452);75.601272583;1.0;;;;;;;;;;;;;;4;0;0;;0;0;();();(-2000.0, -2000.0);
04:30:19:449;04:30:19:386;1448034377.45;(0.6074571132659912, 0.6490832858615452);75.601272583;1.0;;;;;;;;;;;;;;4;0;0;;0;0;();();(-2000.0, -2000.0);
04:30:19:466;04:30:19:451;1448034377.52;(0.6075259208679199, 0.6492156982421875);75.7527084351;1.0;;;;;;;;;;;;;;4;0;0;;0;0;();();(-2000.0, -2000.0);
04:30:19:482;04:30:19:451;1448034377.52;(0.6075259208679199, 0.6492156982421875);75.7527084351;1.0;;;;;;;;;;;;;;4;0;0;;0;0;();();(-2000.0, -2000.0);
04:30:19:516;04:30:19:451;1448034377.52;(0.6075259208679199, 0.6492156982421875);75.7527084351;1.0;;;;;;;;;;;;;;4;0;0;;0;0;();();(-2000.0, -2000.0);
04:30:19:532;04:30:19:451;1448034377.52;(0.6075259208679199, 0.6492156982421875);75.7527084351;1.0;;;;;;;;;;;;;;4;0;0;;0;0;();();(-2000.0, -2000.0);
04:30:19:549;04:30:19:451;1448034377.52;(0.6075259208679199, 0.6492156982421875);75.7527084351;1.0;;;;;;;;;;;;;;4;0;0;;0;0;();();(-2000.0, -2000.0);
04:30:19:565;04:30:19:555;1448034377.55;(0.6074218273162841, 0.6487075805664062);75.6834182739;1.0;;;;;;;;;;;;;;4;0;0;;0;0;();();(-2000.0, -2000.0);
04:30:19:583;04:30:19:555;1448034377.55;(0.6074218273162841, 0.6487075805664062);75.6834182739;1.0;;;;;;;;;;;;;;4;0;0;;0;0;();();(-2000.0, -2000.0);
04:30:19:616;04:30:19:555;1448034377.55;(0.6074218273162841, 0.6487075805664062);75.6834182739;1.0;;;;;;;;;;;;;;4;0;0;;0;0;();();(-2000.0, -2000.0);
04:30:19:633;04:30:19:555;1448034377.55;(0.6074218273162841, 0.6487075805664062);75.6834182739;1.0;;;;;;;;;;;;;;4;0;0;;0;0;();();(-2000.0, -2000.0);
04:30:19:649;04:30:19:555;1448034377.55;(0.6074218273162841, 0.6487075805664062);75.6834182739;1.0;;;;;;;;;;;;;;4;0;0;;0;0;();();(-2000.0, -2000.0);
04:30:19:666;04:30:19:649;1448034377.58;(0.34236557483673097, 0.7858669916788736);29.8667411804;0.804482473462;;;;;;;;;;;;;;4;0;0;;0;0;();();(-2000.0, -2000.0);
04:30:19:683;04:30:19:649;1448034377.58;(0.34236557483673097, 0.7858669916788736);29.8667411804;0.804482473462;;;;;;;;;;;;;;4;0;0;;0;0;();();(-2000.0, -2000.0);
04:30:19:716;04:30:19:649;1448034377.58;(0.34236557483673097, 0.7858669916788736);29.8667411804;0.804482473462;;;;;;;;;;;;;;4;0;0;;0;0;();();(-2000.0, -2000.0);
04:30:19:733;04:30:19:649;1448034377.58;(0.34236557483673097, 0.7858669916788736);29.8667411804;0.804482473462;;;;;;;;;;;;;;4;0;0;;0;0;();();(-2000.0, -2000.0);
04:30:19:749;04:30:19:649;1448034377.58;(0.34236557483673097, 0.7858669916788736);29.8667411804;0.804482473462;;;;;;;;;;;;;;4;0;0;;0;0;();();(-2000.0, -2000.0);
04:30:19:766;04:30:19:649;1448034377.58;(0.34236557483673097, 0.7858669916788736);29.8667411804;0.804482473462;;;;;;;;;;;;;;4;0;0;;0;0;();();(-2000.0, -2000.0);
04:30:19:783;04:30:19:649;1448034377.58;(0.34236557483673097, 0.7858669916788736);29.8667411804;0.804482473462;;;;;;;;;;;;;;4;0;0;;0;0;();();(-2000.0, -2000.0);
04:30:19:816;04:30:19:649;1448034377.58;(0.34236557483673097, 0.7858669916788736);29.8667411804;0.804482473462;;;;;;;;;;;;;;4;0;0;;0;0;();();(-2000.0, -2000.0);
04:30:19:833;04:30:19:649;1448034377.58;(0.34236557483673097, 0.7858669916788736);29.8667411804;0.804482473462;;;;;;;;;;;;;;4;0;0;;0;0;();();(-2000.0, -2000.0);
04:30:19:850;04:30:19:649;1448034377.58;(0.34236557483673097, 0.7858669916788736);29.8667411804;0.804482473462;;;;;;;;;;;;;;4;0;0;;0;0;();();(-2000.0, -2000.0);
04:30:19:866;04:30:19:649;1448034377.58;(0.34236557483673097, 0.7858669916788736);29.8667411804;0.804482473462;;;;;;;;;;;;;;4;0;0;;0;0;();();(-2000.0, -2000.0);
04:30:19:883;04:30:19:649;1448034377.58;(0.34236557483673097, 0.7858669916788736);29.8667411804;0.804482473462;;;;;;;;;;;;;;4;0;0;;0;0;();();(-2000.0, -2000.0);
04:30:19:916;04:30:19:649;1448034377.58;(0.34236557483673097, 0.7858669916788736);29.8667411804;0.804482473462;;;;;;;;;;;;;;4;0;0;;0;0;();();(-2000.0, -2000.0);
04:30:19:933;04:30:19:919;1448034377.98;(0.6232308864593505, 0.6504564497205947);74.8880767822;1.0;;;;;;;;;;;;;;4;0;0;;0;0;();();(-2000.0, -2000.0);
04:30:19:949;04:30:19:919;1448034377.98;(0.6232308864593505, 0.6504564497205947);74.8880767822;1.0;;;;;;;;;;;;;;4;0;0;;0;0;();();(-2000.0, -2000.0);
04:30:19:966;04:30:19:919;1448034377.98;(0.6232308864593505, 0.6504564497205947);74.8880767822;1.0;;;;;;;;;;;;;;4;0;0;;0;0;();();(-2000.0, -2000.0);
04:30:19:983;04:30:19:919;1448034377.98;(0.6232308864593505, 0.6504564497205947);74.8880767822;1.0;;;;;;;;;;;;;;4;0;0;;0;0;();();(-2000.0, -2000.0);
04:30:19:999;04:30:19:995;1448034378.05;(0.6230798721313476, 0.6505684958563911);74.2220687866;1.0;;;;;;;;;;;;;;4;0;0;;0;0;();();(-2000.0, -2000.0);
04:30:20:033;04:30:19:995;1448034378.05;(0.6230798721313476, 0.6505684958563911);74.2220687866;1.0;;;;;;;;;;;;;;4;0;0;;0;0;();();(-2000.0, -2000.0);
04:30:20:049;04:30:19:995;1448034378.05;(0.6230798721313476, 0.6505684958563911);74.2220687866;1.0;;;;;;;;;;;;;;4;0;0;;0;0;();();(-2000.0, -2000.0);
04:30:20:066;04:30:20:053;1448034378.08;(0.6229761600494385, 0.6505268944634331);74.6066665649;1.0;;;;;;;;;;;;;;4;0;0;;0;0;();();(-2000.0, -2000.0);
04:30:20:083;04:30:20:053;1448034378.08;(0.6229761600494385, 0.6505268944634331);74.6066665649;1.0;;;;;;;;;;;;;;4;0;0;;0;0;();();(-2000.0, -2000.0);
04:30:20:117;04:30:20:053;1448034378.08;(0.6229761600494385, 0.6505268944634331);74.6066665649;1.0;;;;;;;;;;;;;;4;0;0;;0;0;();();(-2000.0, -2000.0);
04:30:20:133;04:30:20:053;1448034378.08;(0.6229761600494385, 0.6505268944634331);74.6066665649;1.0;;;;;;;;;;;;;;4;0;0;;0;0;();();(-2000.0, -2000.0);
04:30:20:149;04:30:20:053;1448034378.08;(0.6229761600494385, 0.6505268944634331);74.6066665649;1.0;;;;;;;;;;;;;;4;0;0;;0;0;();();(-2000.0, -2000.0);
04:30:20:166;04:30:20:053;1448034378.08;(0.6229761600494385, 0.6505268944634331);74.6066665649;1.0;;;;;;;;;;;;;;4;0;0;;0;0;();();(-2000.0, -2000.0);
04:30:20:183;04:30:20:053;1448034378.08;(0.6229761600494385, 0.6505268944634331);74.6066665649;1.0;;;;;;;;;;;;;;4;0;0;;0;0;();();(-2000.0, -2000.0);
04:30:20:216;04:30:20:195;1448034378.25;(0.6285279273986817, 0.6462073008219401);74.6782913208;1.0;;;;;;;;;;;;;;4;0;0;;0;0;();();(-2000.0, -2000.0);
04:30:20:233;04:30:20:195;1448034378.25;(0.6285279273986817, 0.6462073008219401);74.6782913208;1.0;;;;;;;;;;;;;;4;0;0;;0;0;();();(-2000.0, -2000.0);
04:30:20:249;04:30:20:246;1448034378.28;(0.6281652450561523, 0.6461746215820312);74.8093032837;1.0;;;;;;;;;;;;;;4;0;0;;0;0;();();(-2000.0, -2000.0);
04:30:20:266;04:30:20:246;1448034378.28;(0.6281652450561523, 0.6461746215820312);74.8093032837;1.0;;;;;;;;;;;;;;4;0;0;;0;0;();();(-2000.0, -2000.0);
04:30:20:283;04:30:20:246;1448034378.28;(0.6281652450561523, 0.6461746215820312);74.8093032837;1.0;;;;;;;;;;;;;;4;0;0;;0;0;();();(-2000.0, -2000.0);
04:30:20:316;04:30:20:246;1448034378.28;(0.6281652450561523, 0.6461746215820312);74.8093032837;1.0;;;;;;;;;;;;;;4;0;0;;0;0;();();(-2000.0, -2000.0);
04:30:20:333;04:30:20:246;1448034378.28;(0.6281652450561523, 0.6461746215820312);74.8093032837;1.0;;;;;;;;;;;;;;4;0;0;;0;0;();();(-2000.0, -2000.0);
04:30:20:350;04:30:20:246;1448034378.28;(0.6281652450561523, 0.6461746215820312);74.8093032837;1.0;;;;;;;;;;;;;;4;0;0;;0;0;();();(-2000.0, -2000.0);
04:30:20:366;04:30:20:246;1448034378.28;(0.6281652450561523, 0.6461746215820312);74.8093032837;1.0;;;;;;;;;;;;;;4;0;0;;0;0;();();(-2000.0, -2000.0);
04:30:20:383;04:30:20:382;1448034378.42;(0.34019358158111573, 0.7975357267591688);30.7513809204;0.692414895796;;;;;;;;;;;;;;4;0;0;;0;0;();();(-2000.0, -2000.0);
04:30:20:416;04:30:20:382;1448034378.42;(0.34019358158111573, 0.7975357267591688);30.7513809204;0.692414895796;;;;;;;;;;;;;;4;0;0;;0;0;();();(-2000.0, -2000.0);
04:30:20:433;04:30:20:382;1448034378.42;(0.34019358158111573, 0.7975357267591688);30.7513809204;0.692414895796;;;;;;;;;;;;;;4;0;0;;0;0;();();(-2000.0, -2000.0);
04:30:20:449;04:30:20:382;1448034378.42;(0.34019358158111573, 0.7975357267591688);30.7513809204;0.692414895796;;;;;;;;;;;;;;4;0;0;;0;0;();();(-2000.0, -2000.0);
04:30:20:466;04:30:20:382;1448034378.42;(0.34019358158111573, 0.7975357267591688);30.7513809204;0.692414895796;;;;;;;;;;;;;;4;0;0;;0;0;();();(-2000.0, -2000.0);
04:30:20:483;04:30:20:382;1448034378.42;(0.34019358158111573, 0.7975357267591688);30.7513809204;0.692414895796;;;;;;;;;;;;;;4;0;0;;0;0;();();(-2000.0, -2000.0);
04:30:20:500;04:30:20:382;1448034378.42;(0.34019358158111573, 0.7975357267591688);30.7513809204;0.692414895796;;;;;;;;;;;;;;4;0;0;;0;0;();();(-2000.0, -2000.0);
04:30:20:533;04:30:20:382;1448034378.42;(0.34019358158111573, 0.7975357267591688);30.7513809204;0.692414895796;;;;;;;;;;;;;;4;0;0;;0;0;();();(-2000.0, -2000.0);
04:30:20:550;04:30:20:382;1448034378.42;(0.34019358158111573, 0.7975357267591688);30.7513809204;0.692414895796;;;;;;;;;;;;;;4;0;0;;0;0;();();(-2000.0, -2000.0);
04:30:20:567;04:30:20:566;1448034378.59;(0.6139512062072754, 0.6424844529893663);75.2210388184;1.0;;;;;;;;;;;;;;4;0;0;;0;0;();();(-2000.0, -2000.0);
04:30:20:583;04:30:20:578;1448034378.65;(0.6139511585235595, 0.642973624335395);75.3703384399;1.0;;;;;;;;;;;;;;4;0;0;;0;0;();();(-2000.0, -2000.0);
04:30:20:600;04:30:20:578;1448034378.65;(0.6139511585235595, 0.642973624335395);75.3703384399;1.0;;;;;;;;;;;;;;4;0;0;;0;0;();();(-2000.0, -2000.0);
04:30:20:633;04:30:20:578;1448034378.65;(0.6139511585235595, 0.642973624335395);75.3703384399;1.0;;;;;;;;;;;;;;4;0;0;;0;0;();();(-2000.0, -2000.0);
04:30:20:650;04:30:20:578;1448034378.65;(0.6139511585235595, 0.642973624335395);75.3703384399;1.0;;;;;;;;;;;;;;4;0;0;;0;0;();();(-2000.0, -2000.0);
04:30:20:667;04:30:20:655;1448034378.68;(0.6141512870788575, 0.6429993311564128);74.9987258911;1.0;;;;;;;;;;;;;;4;0;0;;0;0;();();(-2000.0, -2000.0);
04:30:20:683;04:30:20:655;1448034378.68;(0.6141512870788575, 0.6429993311564128);74.9987258911;1.0;;;;;;;;;;;;;;4;0;0;;0;0;();();(-2000.0, -2000.0);
04:30:20:717;04:30:20:655;1448034378.68;(0.6141512870788575, 0.6429993311564128);74.9987258911;1.0;;;;;;;;;;;;;;4;0;0;;0;0;();();(-2000.0, -2000.0);
04:30:20:733;04:30:20:655;1448034378.68;(0.6141512870788575, 0.6429993311564128);74.9987258911;1.0;;;;;;;;;;;;;;4;0;0;;0;0;();();(-2000.0, -2000.0);
04:30:20:750;04:30:20:655;1448034378.68;(0.6141512870788575, 0.6429993311564128);74.9987258911;1.0;;;;;;;;;;;;;;4;0;0;;0;0;();();(-2000.0, -2000.0);
04:30:20:766;04:30:20:655;1448034378.68;(0.6141512870788575, 0.6429993311564128);74.9987258911;1.0;;;;;;;;;;;;;;4;0;0;;0;0;();();(-2000.0, -2000.0);
04:30:20:783;04:30:20:655;1448034378.68;(0.6141512870788575, 0.6429993311564128);74.9987258911;1.0;;;;;;;;;;;;;;4;0;0;;0;0;();();(-2000.0, -2000.0);
04:30:20:800;04:30:20:655;1448034378.68;(0.6141512870788575, 0.6429993311564128);74.9987258911;1.0;;;;;;;;;;;;;;4;0;0;;0;0;();();(-2000.0, -2000.0);
04:30:20:834;04:30:20:655;1448034378.68;(0.6141512870788575, 0.6429993311564128);74.9987258911;1.0;;;;;;;;;;;;;;4;0;0;;0;0;();();(-2000.0, -2000.0);
04:30:20:850;04:30:20:655;1448034378.68;(0.6141512870788575, 0.6429993311564128);74.9987258911;1.0;;;;;;;;;;;;;;4;0;0;;0;0;();();(-2000.0, -2000.0);
04:30:20:867;04:30:20:655;1448034378.68;(0.6141512870788575, 0.6429993311564128);74.9987258911;1.0;;;;;;;;;;;;;;4;0;0;;0;0;();();(-2000.0, -2000.0);
04:30:20:884;04:30:20:655;1448034378.68;(0.6141512870788575, 0.6429993311564128);74.9987258911;1.0;;;;;;;;;;;;;;4;0;0;;0;0;();();(-2000.0, -2000.0);
04:30:20:901;04:30:20:888;1448034378.92;(0, 0);0;0;;;;;;;;;;;;;;4;0;0;;0;0;();();(-2000.0, -2000.0);
04:30:20:933;04:30:20:888;1448034378.92;(0, 0);0;0;;;;;;;;;;;;;;4;0;0;;0;0;();();(-2000.0, -2000.0);
04:30:20:950;04:30:20:888;1448034378.92;(0, 0);0;0;;;;;;;;;;;;;;4;0;0;;0;0;();();(-2000.0, -2000.0);
04:30:20:966;04:30:20:888;1448034378.92;(0, 0);0;0;;;;;;;;;;;;;;4;0;0;;0;0;();();(-2000.0, -2000.0);
04:30:20:983;04:30:20:979;1448034379.05;(0.6133312702178955, 0.6569946924845378);74.6453399658;1.0;;;;;;;;;;;;;;4;0;0;;0;0;();();(-2000.0, -2000.0);
04:30:21:001;04:30:20:979;1448034379.05;(0.6133312702178955, 0.6569946924845378);74.6453399658;1.0;;;;;;;;;;;;;;4;0;0;;0;0;();();(-2000.0, -2000.0);
04:30:21:034;04:30:20:979;1448034379.05;(0.6133312702178955, 0.6569946924845378);74.6453399658;1.0;;;;;;;;;;;;;;4;0;0;;0;0;();();(-2000.0, -2000.0);
04:30:21:050;04:30:21:043;1448034379.08;(0.6137156009674072, 0.6569661458333333);74.8876266479;1.0;;;;;;;;;;;;;;4;0;0;;0;0;();();(-2000.0, -2000.0);
04:30:21:067;04:30:21:043;1448034379.08;(0.6137156009674072, 0.6569661458333333);74.8876266479;1.0;;;;;;;;;;;;;;4;0;0;;0;0;();();(-2000.0, -2000.0);
04:30:21:083;04:30:21:043;1448034379.08;(0.6137156009674072, 0.6569661458333333);74.8876266479;1.0;;;;;;;;;;;;;;4;0;0;;0;0;();();(-2000.0, -2000.0);
04:30:21:100;04:30:21:043;1448034379.08;(0.6137156009674072, 0.6569661458333333);74.8876266479;1.0;;;;;;;;;;;;;;4;0;0;;0;0;();();(-2000.0, -2000.0);
04:30:21:133;04:30:21:043;1448034379.08;(0.6137156009674072, 0.6569661458333333);74.8876266479;1.0;;;;;;;;;;;;;;4;0;0;;0;0;();();(-2000.0, -2000.0);
04:30:21:151;04:30:21:043;1448034379.08;(0.6137156009674072, 0.6569661458333333);74.8876266479;1.0;;;;;;;;;;;;;;4;0;0;;0;0;();();(-2000.0, -2000.0);
04:30:21:168;04:30:21:043;1448034379.08;(0.6137156009674072, 0.6569661458333333);74.8876266479;1.0;;;;;;;;;;;;;;4;0;0;;0;0;();();(-2000.0, -2000.0);
04:30:21:184;04:30:21:043;1448034379.08;(0.6137156009674072, 0.6569661458333333);74.8876266479;1.0;;;;;;;;;;;;;;4;0;0;;0;0;();();(-2000.0, -2000.0);
04:30:21:201;04:30:21:043;1448034379.08;(0.6137156009674072, 0.6569661458333333);74.8876266479;1.0;;;;;;;;;;;;;;4;0;0;;0;0;();();(-2000.0, -2000.0);
04:30:21:234;04:30:21:228;1448034379.25;(0.6150651931762695, 0.6573909759521485);74.4633102417;1.0;;;;;;;;;;;;;;4;0;0;;0;0;();();(-2000.0, -2000.0);
04:30:21:250;04:30:21:248;1448034379.32;(0.6150731563568115, 0.6565203772650825);74.5957717896;1.0;;;;;;;;;;;;;;4;0;0;;0;0;();();(-2000.0, -2000.0);
04:30:21:267;04:30:21:248;1448034379.32;(0.6150731563568115, 0.6565203772650825);74.5957717896;1.0;;;;;;;;;;;;;;4;0;0;;0;0;();();(-2000.0, -2000.0);
04:30:21:284;04:30:21:248;1448034379.32;(0.6150731563568115, 0.6565203772650825);74.5957717896;1.0;;;;;;;;;;;;;;4;0;0;;0;0;();();(-2000.0, -2000.0);
04:30:21:300;04:30:21:248;1448034379.32;(0.6150731563568115, 0.6565203772650825);74.5957717896;1.0;;;;;;;;;;;;;;4;0;0;;0;0;();();(-2000.0, -2000.0);
04:30:21:334;04:30:21:315;1448034379.38;(0.6143353462219239, 0.6572394900851779);74.8530731201;1.0;;;;;;;;;;;;;;4;0;0;;0;0;();();(-2000.0, -2000.0);
04:30:21:350;04:30:21:315;1448034379.38;(0.6143353462219239, 0.6572394900851779);74.8530731201;1.0;;;;;;;;;;;;;;4;0;0;;0;0;();();(-2000.0, -2000.0);
04:30:21:367;04:30:21:315;1448034379.38;(0.6143353462219239, 0.6572394900851779);74.8530731201;1.0;;;;;;;;;;;;;;4;0;0;;0;0;();();(-2000.0, -2000.0);
04:30:21:384;04:30:21:376;1448034379.42;(0.6141229629516601, 0.6577628665500217);74.7044219971;1.0;;;;;;;;;;;;;;4;0;0;;0;0;();();(-2000.0, -2000.0);
04:30:21:401;04:30:21:376;1448034379.42;(0.6141229629516601, 0.6577628665500217);74.7044219971;1.0;;;;;;;;;;;;;;4;0;0;;0;0;();();(-2000.0, -2000.0);
04:30:21:434;04:30:21:376;1448034379.42;(0.6141229629516601, 0.6577628665500217);74.7044219971;1.0;;;;;;;;;;;;;;4;0;0;;0;0;();();(-2000.0, -2000.0);
04:30:21:451;04:30:21:376;1448034379.42;(0.6141229629516601, 0.6577628665500217);74.7044219971;1.0;;;;;;;;;;;;;;4;0;0;;0;0;();();(-2000.0, -2000.0);
04:30:21:468;04:30:21:376;1448034379.42;(0.6141229629516601, 0.6577628665500217);74.7044219971;1.0;;;;;;;;;;;;;;4;0;0;;0;0;();();(-2000.0, -2000.0);
04:30:21:484;04:30:21:376;1448034379.42;(0.6141229629516601, 0.6577628665500217);74.7044219971;1.0;;;;;;;;;;;;;;4;0;0;;0;0;();();(-2000.0, -2000.0);
04:30:21:501;04:30:21:376;1448034379.42;(0.6141229629516601, 0.6577628665500217);74.7044219971;1.0;;;;;;;;;;;;;;4;0;0;;0;0;();();(-2000.0, -2000.0);
04:30:21:534;04:30:21:376;1448034379.42;(0.6141229629516601, 0.6577628665500217);74.7044219971;1.0;;;;;;;;;;;;;;4;0;0;;0;0;();();(-2000.0, -2000.0);
04:30:21:551;04:30:21:376;1448034379.42;(0.6141229629516601, 0.6577628665500217);74.7044219971;1.0;;;;;;;;;;;;;;4;0;0;;0;0;();();(-2000.0, -2000.0);
04:30:21:567;04:30:21:376;1448034379.42;(0.6141229629516601, 0.6577628665500217);74.7044219971;1.0;;;;;;;;;;;;;;4;0;0;;0;0;();();(-2000.0, -2000.0);
04:30:21:584;04:30:21:583;1448034379.65;(0.6132082939147949, 0.6597673839992947);74.9473266602;1.0;;;;;;;;;;;;;;4;0;0;;0;0;();();(-2000.0, -2000.0);
04:30:21:601;04:30:21:583;1448034379.65;(0.6132082939147949, 0.6597673839992947);74.9473266602;1.0;;;;;;;;;;;;;;4;0;0;;0;0;();();(-2000.0, -2000.0);
04:30:21:634;04:30:21:583;1448034379.65;(0.6132082939147949, 0.6597673839992947);74.9473266602;1.0;;;;;;;;;;;;;;4;0;0;;0;0;();();(-2000.0, -2000.0);
04:30:21:651;04:30:21:642;1448034379.68;(0.6130765438079834, 0.6595431221856012);74.7872543335;1.0;;;;;;;;;;;;;;4;0;0;;0;0;();();(-2000.0, -2000.0);
04:30:21:667;04:30:21:642;1448034379.68;(0.6130765438079834, 0.6595431221856012);74.7872543335;1.0;;;;;;;;;;;;;;4;0;0;;0;0;();();(-2000.0, -2000.0);
04:30:21:684;04:30:21:642;1448034379.68;(0.6130765438079834, 0.6595431221856012);74.7872543335;1.0;;;;;;;;;;;;;;4;0;0;;0;0;();();(-2000.0, -2000.0);
04:30:21:700;04:30:21:642;1448034379.68;(0.6130765438079834, 0.6595431221856012);74.7872543335;1.0;;;;;;;;;;;;;;4;0;0;;0;0;();();(-2000.0, -2000.0);
04:30:21:735;04:30:21:707;1448034379.78;(0.6130114078521729, 0.6609169854058159);74.8707046509;1.0;;;;;;;;;;;;;;4;0;0;;0;0;();();(-2000.0, -2000.0);
04:30:21:751;04:30:21:707;1448034379.78;(0.6130114078521729, 0.6609169854058159);74.8707046509;1.0;;;;;;;;;;;;;;4;0;0;;0;0;();();(-2000.0, -2000.0);
04:30:21:768;04:30:21:707;1448034379.78;(0.6130114078521729, 0.6609169854058159);74.8707046509;1.0;;;;;;;;;;;;;;4;0;0;;0;0;();();(-2000.0, -2000.0);
04:30:21:785;04:30:21:707;1448034379.78;(0.6130114078521729, 0.6609169854058159);74.8707046509;1.0;;;;;;;;;;;;;;4;0;0;;0;0;();();(-2000.0, -2000.0);
04:30:21:801;04:30:21:786;1448034379.85;(0.6121941089630127, 0.661494615342882);75.2138137817;1.0;;;;;;;;;;;;;;4;0;0;;0;0;();();(-2000.0, -2000.0);
04:30:21:834;04:30:21:786;1448034379.85;(0.6121941089630127, 0.661494615342882);75.2138137817;1.0;;;;;;;;;;;;;;4;0;0;;0;0;();();(-2000.0, -2000.0);
04:30:21:851;04:30:21:842;1448034379.92;(0.6132838249206543, 0.6610121197170682);75.5303497314;1.0;;;;;;;;;;;;;;4;0;0;;0;0;();();(-2000.0, -2000.0);
04:30:21:867;04:30:21:842;1448034379.92;(0.6132838249206543, 0.6610121197170682);75.5303497314;1.0;;;;;;;;;;;;;;4;0;0;;0;0;();();(-2000.0, -2000.0);
04:30:21:884;04:30:21:842;1448034379.92;(0.6132838249206543, 0.6610121197170682);75.5303497314;1.0;;;;;;;;;;;;;;4;0;0;;0;0;();();(-2000.0, -2000.0);
04:30:21:901;04:30:21:842;1448034379.92;(0.6132838249206543, 0.6610121197170682);75.5303497314;1.0;;;;;;;;;;;;;;4;0;0;;0;0;();();(-2000.0, -2000.0);
04:30:21:934;04:30:21:906;1448034379.95;(0.6130700588226319, 0.6613211313883464);75.2551422119;1.0;;;;;;;;;;;;;;4;0;0;;0;0;();();(-2000.0, -2000.0);
04:30:21:951;04:30:21:906;1448034379.95;(0.6130700588226319, 0.6613211313883464);75.2551422119;1.0;;;;;;;;;;;;;;4;0;0;;0;0;();();(-2000.0, -2000.0);
04:30:21:967;04:30:21:906;1448034379.95;(0.6130700588226319, 0.6613211313883464);75.2551422119;1.0;;;;;;;;;;;;;;4;0;0;;0;0;();();(-2000.0, -2000.0);
04:30:21:984;04:30:21:974;1448034380.02;(0.6127092361450195, 0.6619555791219076);75.1858673096;1.0;;;;;;;;;;;;;;4;0;0;;0;0;();();(-2000.0, -2000.0);
04:30:22:001;04:30:21:974;1448034380.02;(0.6127092361450195, 0.6619555791219076);75.1858673096;1.0;;;;;;;;;;;;;;4;0;0;;0;0;();();(-2000.0, -2000.0);
04:30:22:034;04:30:21:974;1448034380.02;(0.6127092361450195, 0.6619555791219076);75.1858673096;1.0;;;;;;;;;;;;;;4;0;0;;0;0;();();(-2000.0, -2000.0);
04:30:22:051;04:30:22:042;1448034380.08;(0.6121237277984619, 0.6628385331895617);74.7567901611;1.0;;;;;;;;;;;;;;4;0;0;;2;0;();();(-2000.0, -2000.0);
04:30:22:068;04:30:22:042;1448034380.08;(0.6121237277984619, 0.6628385331895617);74.7567901611;1.0;;;;;;;;;;;;;;4;0;0;;2;0;();();(-2000.0, -2000.0);
04:30:22:084;04:30:22:042;1448034380.08;(0.6121237277984619, 0.6628385331895617);74.7567901611;1.0;;;;;;;;;;;;;;4;0;0;;2;0;();();(-2000.0, -2000.0);
04:30:22:101;04:30:22:042;1448034380.08;(0.6121237277984619, 0.6628385331895617);74.7567901611;1.0;;;;;;;;;;;;;;4;0;0;;2;0;();();(-2000.0, -2000.0);
04:30:22:134;04:30:22:107;1448034380.15;(0.611629867553711, 0.6633734173244901);74.9447021484;1.0;;;;;;;;;;;;;;4;0;0;;2;0;();();(-2000.0, -2000.0);
04:30:22:152;04:30:22:107;1448034380.15;(0.611629867553711, 0.6633734173244901);74.9447021484;1.0;;;;;;;;;;;;;;4;0;0;;2;0;();();(-2000.0, -2000.0);
04:30:22:169;04:30:22:107;1448034380.15;(0.611629867553711, 0.6633734173244901);74.9447021484;1.0;;;;;;;;;;;;;;4;0;0;;2;0;();();(-2000.0, -2000.0);
04:30:22:185;04:30:22:175;1448034380.25;(0.6108778953552246, 0.663807487487793);75.3640060425;1.0;;;;;;;;;;;;;;4;0;0;;2;0;();();(-2000.0, -2000.0);
04:30:22:201;04:30:22:175;1448034380.25;(0.6108778953552246, 0.663807487487793);75.3640060425;1.0;;;;;;;;;;;;;;4;0;0;;2;0;();();(-2000.0, -2000.0);
04:30:22:235;04:30:22:175;1448034380.25;(0.6108778953552246, 0.663807487487793);75.3640060425;1.0;;;;;;;;;;;;;;4;0;0;;2;0;();();(-2000.0, -2000.0);
04:30:22:251;04:30:22:239;1448034380.28;(0.6110002040863037, 0.6639209323459201);75.0891647339;1.0;;;;;;;;;;;;;;4;0;0;;2;0;();();(-2000.0, -2000.0);
04:30:22:268;04:30:22:239;1448034380.28;(0.6110002040863037, 0.6639209323459201);75.0891647339;1.0;;;;;;;;;;;;;;4;0;0;;2;0;();();(-2000.0, -2000.0);
04:30:22:284;04:30:22:239;1448034380.28;(0.6110002040863037, 0.6639209323459201);75.0891647339;1.0;;;;;;;;;;;;;;4;0;0;;2;0;();();(-2000.0, -2000.0);
04:30:22:301;04:30:22:239;1448034380.28;(0.6110002040863037, 0.6639209323459201);75.0891647339;1.0;;;;;;;;;;;;;;4;0;0;;2;0;();();(-2000.0, -2000.0);
04:30:22:334;04:30:22:307;1448034380.38;(0.6102617740631103, 0.6646797815958658);75.8339767456;1.0;;;;;;;;;;;;;;4;0;0;;2;0;();();(-2000.0, -2000.0);
04:30:22:351;04:30:22:307;1448034380.38;(0.6102617740631103, 0.6646797815958658);75.8339767456;1.0;;;;;;;;;;;;;;4;0;0;;2;0;();();(-2000.0, -2000.0);
04:30:22:368;04:30:22:307;1448034380.38;(0.6102617740631103, 0.6646797815958658);75.8339767456;1.0;;;;;;;;;;;;;;4;0;0;;2;0;();();(-2000.0, -2000.0);
04:30:22:385;04:30:22:374;1448034380.42;(0.6101677894592286, 0.6645912806193034);75.3018188477;1.0;;;;;;;;;;;;;;4;0;0;;2;0;();();(-2000.0, -2000.0);
04:30:22:402;04:30:22:374;1448034380.42;(0.6101677894592286, 0.6645912806193034);75.3018188477;1.0;;;;;;;;;;;;;;4;0;0;;2;0;();();(-2000.0, -2000.0);
04:30:22:435;04:30:22:374;1448034380.42;(0.6101677894592286, 0.6645912806193034);75.3018188477;1.0;;;;;;;;;;;;;;4;0;0;;2;0;();();(-2000.0, -2000.0);
04:30:22:452;04:30:22:439;1448034380.48;(0.6098420143127441, 0.6648115581936307);75.7533874512;1.0;;;;;;;;;;;;;;4;0;0;;2;0;();();(-2000.0, -2000.0);
04:30:22:471;04:30:22:439;1448034380.48;(0.6098420143127441, 0.6648115581936307);75.7533874512;1.0;;;;;;;;;;;;;;6;0;0;;2;0;();();(-2000.0, -2000.0);
04:30:22:485;04:30:22:439;1448034380.48;(0.6098420143127441, 0.6648115581936307);75.7533874512;1.0;;;;;;;;;;;;;;6;0;0;;2;0;();();(-2000.0, -2000.0);
04:30:22:502;04:30:22:439;1448034380.48;(0.6098420143127441, 0.6648115581936307);75.7533874512;1.0;;;;;;;;;;;;;;6;0;0;;2;0;();();(-2000.0, -2000.0);
04:30:22:535;04:30:22:507;1448034380.55;(0.6097429275512696, 0.664882935418023);75.526512146;1.0;;;;;;;;;;;;;;6;0;0;;2;0;();();(-2000.0, -2000.0);
04:30:22:551;04:30:22:507;1448034380.55;(0.6097429275512696, 0.664882935418023);75.526512146;1.0;;;;;;;;;;;;;;6;0;0;;2;0;();();(-2000.0, -2000.0);
04:30:22:568;04:30:22:507;1448034380.55;(0.6097429275512696, 0.664882935418023);75.526512146;1.0;;;;;;;;;;;;;;6;0;0;;2;0;();();(-2000.0, -2000.0);
04:30:22:585;04:30:22:571;1448034380.58;(0.3429408550262451, 0.8150501675075955);28.8041915894;0.86889018624;;;;;;;;;;;;;;6;0;0;;2;0;();();(-2000.0, -2000.0);
04:30:22:602;04:30:22:571;1448034380.58;(0.3429408550262451, 0.8150501675075955);28.8041915894;0.86889018624;;;;;;;;;;;;;;6;0;0;;2;0;();();(-2000.0, -2000.0);
04:30:22:634;04:30:22:571;1448034380.58;(0.3429408550262451, 0.8150501675075955);28.8041915894;0.86889018624;;;;;;;;;;;;;;6;0;0;;2;0;();();(-2000.0, -2000.0);
04:30:22:652;04:30:22:571;1448034380.58;(0.3429408550262451, 0.8150501675075955);28.8041915894;0.86889018624;;;;;;;;;;;;;;6;0;0;;2;0;();();(-2000.0, -2000.0);
04:30:22:668;04:30:22:571;1448034380.58;(0.3429408550262451, 0.8150501675075955);28.8041915894;0.86889018624;;;;;;;;;;;;;;6;0;0;;2;0;();();(-2000.0, -2000.0);
04:30:22:685;04:30:22:571;1448034380.58;(0.3429408550262451, 0.8150501675075955);28.8041915894;0.86889018624;;;;;;;;;;;;;;6;0;0;;2;0;();();(-2000.0, -2000.0);
04:30:22:701;04:30:22:571;1448034380.58;(0.3429408550262451, 0.8150501675075955);28.8041915894;0.86889018624;;;;;;;;;;;;;;6;0;0;;2;0;();();(-2000.0, -2000.0);
04:30:22:735;04:30:22:704;1448034380.77;(0.3435018062591553, 0.8754056294759115);41.4070854187;0.672309660472;;;;;;;;;;;;;;4;0;0;;2;0;();();(-2000.0, -2000.0);
04:30:22:752;04:30:22:704;1448034380.77;(0.3435018062591553, 0.8754056294759115);41.4070854187;0.672309660472;;;;;;;;;;;;;;4;0;0;;2;0;();();(-2000.0, -2000.0);
04:30:22:769;04:30:22:704;1448034380.77;(0.3435018062591553, 0.8754056294759115);41.4070854187;0.672309660472;;;;;;;;;;;;;;4;0;0;;2;0;();();(-2000.0, -2000.0);
04:30:22:785;04:30:22:770;1448034380.78;(0.56779465675354, 0.7095406214396158);76.1871795654;0.816723355338;;;;;;;;;;;;;;4;0;0;;2;0;();();(-2000.0, -2000.0);
04:30:22:802;04:30:22:770;1448034380.78;(0.56779465675354, 0.7095406214396158);76.1871795654;0.816723355338;;;;;;;;;;;;;;4;0;0;;2;0;();();(-2000.0, -2000.0);
04:30:22:835;04:30:22:770;1448034380.78;(0.56779465675354, 0.7095406214396158);76.1871795654;0.816723355338;;;;;;;;;;;;;;4;0;0;;2;0;();();(-2000.0, -2000.0);
04:30:22:852;04:30:22:838;1448034380.82;(0.5680394649505616, 0.707639545864529);74.326713562;0.630104341574;;;;;;;;;;;;;;4;0;0;;2;0;();();(-2000.0, -2000.0);
04:30:22:868;04:30:22:838;1448034380.82;(0.5680394649505616, 0.707639545864529);74.326713562;0.630104341574;;;;;;;;;;;;;;4;0;0;;2;0;();();(-2000.0, -2000.0);
04:30:22:886;04:30:22:838;1448034380.82;(0.5680394649505616, 0.707639545864529);74.326713562;0.630104341574;;;;;;;;;;;;;;4;0;0;;2;0;();();(-2000.0, -2000.0);
04:30:22:902;04:30:22:902;1448034380.93;(0, 0);0;0;;;;;;;;;;;;;;4;0;0;;2;0;();();(-2000.0, -2000.0);
04:30:22:936;04:30:22:902;1448034380.96;(0.3990056276321411, 0.5008487277560764);19.6394805908;0.607433087498;;;;;;;;;;;;;;4;0;0;;2;0;();();(-2000.0, -2000.0);
