%Timestamp,timestamp_write;timestamp_gotpupil;eyetrackertime;norm_pos;diameter;confidence;timestamp_gotbitdata;CRC;SEQ;AnalogOutp1;AnalogOutp2;AnalogOutp3;AnalogOutp4;AnalogOutp5;AnalogOutp6;DigitalOutp1;DigitalOutp2;igitalOutp3;DigitalOutp4;nplanes;lastaction;lastactiondetails;lastactionairplanenumber;positivescore;negativescore;collidedairplanenumbers;targetpositions;collision_point
11:45:25:810;1448060483.27;(0.37468957901000977, 0.46686371697319884);67.0923843384;1.0;;;;;;;;;;;;;;0;0;0;;0;0;();();(0.0, 0.0);
11:45:25:817;1448060483.27;(0.37468957901000977, 0.46686371697319884);67.0923843384;1.0;;;;;;;;;;;;;;0;0;0;;0;0;();();(-2000.0, -2000.0);
11:45:25:820;1448060483.27;(0.37468957901000977, 0.46686371697319884);67.0923843384;1.0;;;;;;;;;;;;;;0;0;0;;0;0;();();(-2000.0, -2000.0);
11:45:25:822;1448060483.27;(0.37468957901000977, 0.46686371697319884);67.0923843384;1.0;;;;;;;;;;;;;;0;0;0;;0;0;();();(-2000.0, -2000.0);
11:45:25:824;1448060483.27;(0.37468957901000977, 0.46686371697319884);67.0923843384;1.0;;;;;;;;;;;;;;0;0;0;;0;0;();();(-2000.0, -2000.0);
11:45:25:826;1448060483.27;(0.37468957901000977, 0.46686371697319884);67.0923843384;1.0;;;;;;;;;;;;;;0;0;0;;0;0;();();(-2000.0, -2000.0);
11:45:25:829;1448060483.27;(0.37468957901000977, 0.46686371697319884);67.0923843384;1.0;;;;;;;;;;;;;;0;0;0;;0;0;();();(-2000.0, -2000.0);
11:45:25:831;1448060483.27;(0.37468957901000977, 0.46686371697319884);67.0923843384;1.0;;;;;;;;;;;;;;0;0;0;;0;0;();();(-2000.0, -2000.0);
11:45:25:833;1448060483.27;(0.37468957901000977, 0.46686371697319884);67.0923843384;1.0;;;;;;;;;;;;;;0;0;0;;0;0;();();(-2000.0, -2000.0);
11:45:25:835;1448060483.27;(0.37468957901000977, 0.46686371697319884);67.0923843384;1.0;;;;;;;;;;;;;;0;0;0;;0;0;();();(-2000.0, -2000.0);
11:45:25:838;1448060483.27;(0.37468957901000977, 0.46686371697319884);67.0923843384;1.0;;;;;;;;;;;;;;0;0;0;;0;0;();();(-2000.0, -2000.0);
11:45:25:840;1448060483.27;(0.37468957901000977, 0.46686371697319884);67.0923843384;1.0;;;;;;;;;;;;;;0;0;0;;0;0;();();(-2000.0, -2000.0);
11:45:25:842;1448060483.27;(0.37468957901000977, 0.46686371697319884);67.0923843384;1.0;;;;;;;;;;;;;;0;0;0;;0;0;();();(-2000.0, -2000.0);
11:45:25:844;1448060483.27;(0.37468957901000977, 0.46686371697319884);67.0923843384;1.0;;;;;;;;;;;;;;0;0;0;;0;0;();();(-2000.0, -2000.0);
11:45:25:847;1448060483.27;(0.37468957901000977, 0.46686371697319884);67.0923843384;1.0;;;;;;;;;;;;;;0;0;0;;0;0;();();(-2000.0, -2000.0);
11:45:25:849;1448060483.27;(0.37468957901000977, 0.46686371697319884);67.0923843384;1.0;;;;;;;;;;;;;;0;0;0;;0;0;();();(-2000.0, -2000.0);
11:45:25:851;1448060483.27;(0.37468957901000977, 0.46686371697319884);67.0923843384;1.0;;;;;;;;;;;;;;0;0;0;;0;0;();();(-2000.0, -2000.0);
11:45:25:852;1448060483.27;(0.37468957901000977, 0.46686371697319884);67.0923843384;1.0;;;;;;;;;;;;;;0;0;0;;0;0;();();(-2000.0, -2000.0);
11:45:25:853;1448060483.27;(0.37468957901000977, 0.46686371697319884);67.0923843384;1.0;;;;;;;;;;;;;;0;0;0;;0;0;();();(-2000.0, -2000.0);
11:45:25:871;11:45:25:861;1448060483.33;(0.3746910810470581, 0.4663308885362413);67.0706710815;1.0;;;;;;;;;;;;;;0;0;0;;0;0;();();(-2000.0, -2000.0);
11:45:25:889;11:45:25:861;1448060483.33;(0.3746910810470581, 0.4663308885362413);67.0706710815;1.0;;;;;;;;;;;;;;0;0;0;;0;0;();();(-2000.0, -2000.0);
11:45:25:922;11:45:25:861;1448060483.33;(0.3746910810470581, 0.4663308885362413);67.0706710815;1.0;;;;;;;;;;;;;;0;0;0;;0;0;();();(-2000.0, -2000.0);
11:45:25:939;11:45:25:931;1448060483.4;(0.3749860286712646, 0.4667247348361545);67.3606262207;1.0;;;;;;;;;;;;;;0;0;0;;0;0;();();(-2000.0, -2000.0);
11:45:25:956;11:45:25:931;1448060483.4;(0.3749860286712646, 0.4667247348361545);67.3606262207;1.0;;;;;;;;;;;;;;0;0;0;;0;0;();();(-2000.0, -2000.0);
11:45:27:676;11:45:27:653;1448060485.13;(0.32383859157562256, 0.43311754862467444);67.6807937622;1.0;;;;;;;;;;;;;;0;0;0;;0;0;();();(-2000.0, -2000.0);
11:45:27:679;11:45:27:653;1448060485.13;(0.32383859157562256, 0.43311754862467444);67.6807937622;1.0;;;;;;;;;;;;;;0;0;0;;0;0;();();(-2000.0, -2000.0);
11:45:27:682;11:45:27:653;1448060485.13;(0.32383859157562256, 0.43311754862467444);67.6807937622;1.0;;;;;;;;;;;;;;0;0;0;;0;0;();();(-2000.0, -2000.0);
11:45:27:684;11:45:27:653;1448060485.13;(0.32383859157562256, 0.43311754862467444);67.6807937622;1.0;;;;;;;;;;;;;;0;0;0;;0;0;();();(-2000.0, -2000.0);
11:45:27:686;11:45:27:653;1448060485.13;(0.32383859157562256, 0.43311754862467444);67.6807937622;1.0;;;;;;;;;;;;;;0;0;0;;0;0;();();(-2000.0, -2000.0);
11:45:27:689;11:45:27:653;1448060485.13;(0.32383859157562256, 0.43311754862467444);67.6807937622;1.0;;;;;;;;;;;;;;0;0;0;;0;0;();();(-2000.0, -2000.0);
11:45:27:691;11:45:27:653;1448060485.13;(0.32383859157562256, 0.43311754862467444);67.6807937622;1.0;;;;;;;;;;;;;;0;0;0;;0;0;();();(-2000.0, -2000.0);
11:45:27:694;11:45:27:653;1448060485.13;(0.32383859157562256, 0.43311754862467444);67.6807937622;1.0;;;;;;;;;;;;;;0;0;0;;0;0;();();(-2000.0, -2000.0);
11:45:27:696;11:45:27:653;1448060485.13;(0.32383859157562256, 0.43311754862467444);67.6807937622;1.0;;;;;;;;;;;;;;0;0;0;;0;0;();();(-2000.0, -2000.0);
11:45:27:698;11:45:27:653;1448060485.13;(0.32383859157562256, 0.43311754862467444);67.6807937622;1.0;;;;;;;;;;;;;;0;0;0;;0;0;();();(-2000.0, -2000.0);
11:45:27:701;11:45:27:653;1448060485.13;(0.32383859157562256, 0.43311754862467444);67.6807937622;1.0;;;;;;;;;;;;;;0;0;0;;0;0;();();(-2000.0, -2000.0);
11:45:27:703;11:45:27:653;1448060485.13;(0.32383859157562256, 0.43311754862467444);67.6807937622;1.0;;;;;;;;;;;;;;0;0;0;;0;0;();();(-2000.0, -2000.0);
11:45:27:706;11:45:27:653;1448060485.13;(0.32383859157562256, 0.43311754862467444);67.6807937622;1.0;;;;;;;;;;;;;;0;0;0;;0;0;();();(-2000.0, -2000.0);
11:45:27:708;11:45:27:653;1448060485.13;(0.32383859157562256, 0.43311754862467444);67.6807937622;1.0;;;;;;;;;;;;;;0;0;0;;0;0;();();(-2000.0, -2000.0);
11:45:27:710;11:45:27:653;1448060485.13;(0.32383859157562256, 0.43311754862467444);67.6807937622;1.0;;;;;;;;;;;;;;0;0;0;;0;0;();();(-2000.0, -2000.0);
11:45:27:711;11:45:27:653;1448060485.13;(0.32383859157562256, 0.43311754862467444);67.6807937622;1.0;;;;;;;;;;;;;;0;0;0;;0;0;();();(-2000.0, -2000.0);
11:45:27:712;11:45:27:653;1448060485.13;(0.32383859157562256, 0.43311754862467444);67.6807937622;1.0;;;;;;;;;;;;;;0;0;0;;0;0;();();(-2000.0, -2000.0);
11:45:27:713;11:45:27:653;1448060485.13;(0.32383859157562256, 0.43311754862467444);67.6807937622;1.0;;;;;;;;;;;;;;0;0;0;;0;0;();();(-2000.0, -2000.0);
11:45:27:715;11:45:27:653;1448060485.13;(0.32383859157562256, 0.43311754862467444);67.6807937622;1.0;;;;;;;;;;;;;;0;0;0;;0;0;();();(-2000.0, -2000.0);
11:45:27:740;11:45:27:721;1448060485.2;(0.32324225902557374, 0.43327835930718317);68.1119613647;1.0;;;;;;;;;;;;;;0;0;0;;0;0;();();(-2000.0, -2000.0);
11:45:27:757;11:45:27:721;1448060485.2;(0.32324225902557374, 0.43327835930718317);68.1119613647;1.0;;;;;;;;;;;;;;0;0;0;;0;0;();();(-2000.0, -2000.0);
11:45:27:774;11:45:27:721;1448060485.2;(0.32324225902557374, 0.43327835930718317);68.1119613647;1.0;;;;;;;;;;;;;;0;0;0;;0;0;();();(-2000.0, -2000.0);
11:45:27:807;11:45:27:785;1448060485.27;(0.32222185134887693, 0.4327456580268012);68.1522140503;1.0;;;;;;;;;;;;;;0;0;0;;0;0;();();(-2000.0, -2000.0);
11:45:27:824;11:45:27:785;1448060485.27;(0.32222185134887693, 0.4327456580268012);68.1522140503;1.0;;;;;;;;;;;;;;0;0;0;;0;0;();();(-2000.0, -2000.0);
11:45:27:840;11:45:27:785;1448060485.27;(0.32222185134887693, 0.4327456580268012);68.1522140503;1.0;;;;;;;;;;;;;;0;0;0;;0;0;();();(-2000.0, -2000.0);
11:45:27:857;11:45:27:853;1448060485.33;(0.3218433380126953, 0.4318827735053168);68.3986129761;1.0;;;;;;;;;;;;;;0;0;0;;0;0;();();(-2000.0, -2000.0);
11:45:27:874;11:45:27:853;1448060485.33;(0.3218433380126953, 0.4318827735053168);68.3986129761;1.0;;;;;;;;;;;;;;0;0;0;;0;0;();();(-2000.0, -2000.0);
11:45:27:907;11:45:27:853;1448060485.33;(0.3218433380126953, 0.4318827735053168);68.3986129761;1.0;;;;;;;;;;;;;;0;0;0;;0;0;();();(-2000.0, -2000.0);
11:45:27:924;11:45:27:921;1448060485.4;(0.3223963022232056, 0.4306724124484592);68.5330657959;1.0;;;;;;;;;;;;;;0;0;0;;0;0;();();(-2000.0, -2000.0);
11:45:27:941;11:45:27:921;1448060485.4;(0.3223963022232056, 0.4306724124484592);68.5330657959;1.0;;;;;;;;;;;;;;0;0;0;;0;0;();();(-2000.0, -2000.0);
11:45:27:957;11:45:27:921;1448060485.4;(0.3223963022232056, 0.4306724124484592);68.5330657959;1.0;;;;;;;;;;;;;;0;0;0;;0;0;();();(-2000.0, -2000.0);
11:45:27:974;11:45:27:921;1448060485.4;(0.3223963022232056, 0.4306724124484592);68.5330657959;1.0;;;;;;;;;;;;;;0;0;0;;0;0;();();(-2000.0, -2000.0);
11:45:28:007;11:45:27:985;1448060485.47;(0.3236879348754883, 0.42953364054361975);69.1100234985;1.0;;;;;;;;;;;;;;0;0;0;;0;0;();();(-2000.0, -2000.0);
11:45:28:024;11:45:27:985;1448060485.47;(0.3236879348754883, 0.42953364054361975);69.1100234985;1.0;;;;;;;;;;;;;;0;0;0;;0;0;();();(-2000.0, -2000.0);
11:45:28:040;11:45:27:985;1448060485.47;(0.3236879348754883, 0.42953364054361975);69.1100234985;1.0;;;;;;;;;;;;;;0;0;0;;0;0;();();(-2000.0, -2000.0);
11:45:28:057;11:45:28:053;1448060485.53;(0.3259124755859375, 0.4306273142496745);69.1198654175;0.906777706353;;;;;;;;;;;;;;0;0;0;;0;0;();();(-2000.0, -2000.0);
11:45:28:074;11:45:28:053;1448060485.53;(0.3259124755859375, 0.4306273142496745);69.1198654175;0.906777706353;;;;;;;;;;;;;;0;0;0;;0;0;();();(-2000.0, -2000.0);
11:45:28:107;11:45:28:053;1448060485.53;(0.3259124755859375, 0.4306273142496745);69.1198654175;0.906777706353;;;;;;;;;;;;;;0;0;0;;0;0;();();(-2000.0, -2000.0);
11:45:28:123;11:45:28:117;1448060485.57;(0.32846412658691404, 0.43128607008192277);69.4645233154;0.996146151868;;;;;;;;;;;;;;0;0;0;;0;0;();();(-2000.0, -2000.0);
11:45:28:141;11:45:28:117;1448060485.57;(0.32846412658691404, 0.43128607008192277);69.4645233154;0.996146151868;;;;;;;;;;;;;;0;0;0;;0;0;();();(-2000.0, -2000.0);
11:45:28:157;11:45:28:117;1448060485.57;(0.32846412658691404, 0.43128607008192277);69.4645233154;0.996146151868;;;;;;;;;;;;;;0;0;0;;0;0;();();(-2000.0, -2000.0);
11:45:28:174;11:45:28:117;1448060485.57;(0.32846412658691404, 0.43128607008192277);69.4645233154;0.996146151868;;;;;;;;;;;;;;0;0;0;;0;0;();();(-2000.0, -2000.0);
11:45:28:207;11:45:28:185;1448060485.6;(0.330324125289917, 0.4318209754096137);69.6591415405;0.994398413298;;;;;;;;;;;;;;0;0;0;;0;0;();();(-2000.0, -2000.0);
11:45:28:224;11:45:28:185;1448060485.6;(0.330324125289917, 0.4318209754096137);69.6591415405;0.994398413298;;;;;;;;;;;;;;0;0;0;;0;0;();();(-2000.0, -2000.0);
11:45:28:241;11:45:28:185;1448060485.6;(0.330324125289917, 0.4318209754096137);69.6591415405;0.994398413298;;;;;;;;;;;;;;0;0;0;;0;0;();();(-2000.0, -2000.0);
11:45:28:258;11:45:28:253;1448060485.7;(0.3432100534439087, 0.43537360297309025);69.7096481323;1.0;;;;;;;;;;;;;;0;0;0;;0;0;();();(-2000.0, -2000.0);
11:45:28:274;11:45:28:253;1448060485.7;(0.3432100534439087, 0.43537360297309025);69.7096481323;1.0;;;;;;;;;;;;;;0;0;0;;0;0;();();(-2000.0, -2000.0);
11:45:28:308;11:45:28:253;1448060485.7;(0.3432100534439087, 0.43537360297309025);69.7096481323;1.0;;;;;;;;;;;;;;0;0;0;;0;0;();();(-2000.0, -2000.0);
11:45:28:324;11:45:28:317;1448060485.77;(0.35372157096862794, 0.44259300231933596);69.5313568115;1.0;;;;;;;;;;;;;;0;0;0;;0;0;();();(-2000.0, -2000.0);
11:45:28:339;11:45:28:317;1448060485.77;(0.35372157096862794, 0.44259300231933596);69.5313568115;1.0;;;;;;;;;;;;;;0;0;0;;0;0;();();(-2000.0, -2000.0);
11:45:28:358;11:45:28:317;1448060485.77;(0.35372157096862794, 0.44259300231933596);69.5313568115;1.0;;;;;;;;;;;;;;0;0;0;;0;0;();();(-2000.0, -2000.0);
11:45:28:916;11:45:28:849;1448060486.27;(0.2804604768753052, 0.7070853127373589);28.4046955109;0.92693384062;11:45:28:913;0;10;1.78064516129032;1;0;0;0;0;1;1;1;1;0;0;0;;0;0;();();(-2000.0, -2000.0);
11:45:28:919;11:45:28:916;1448060486.35;(0.608779764175415, 0.3870473225911458);22.340171814;0.739384666337;11:45:28:919;0;4;1.78064516129032;1;0;0;0;0;1;1;1;1;0;0;0;;0;0;();();(-2000.0, -2000.0);
11:45:28:923;11:45:28:916;1448060486.35;(0.608779764175415, 0.3870473225911458);22.340171814;0.739384666337;11:45:28:923;0;15;1.78064516129032;1;0;0;0;0;1;1;1;1;0;0;0;;0;0;();();(-2000.0, -2000.0);
11:45:28:926;11:45:28:916;1448060486.35;(0.608779764175415, 0.3870473225911458);22.340171814;0.739384666337;11:45:28:926;0;15;1.78064516129032;1;0;0;0;0;1;1;1;1;0;0;0;;0;0;();();(-2000.0, -2000.0);
11:45:28:928;11:45:28:916;1448060486.35;(0.608779764175415, 0.3870473225911458);22.340171814;0.739384666337;11:45:28:928;0;15;1.78064516129032;1;0;0;0;0;1;1;1;1;0;0;0;;0;0;();();(-2000.0, -2000.0);
11:45:28:931;11:45:28:916;1448060486.35;(0.608779764175415, 0.3870473225911458);22.340171814;0.739384666337;11:45:28:931;0;15;1.78064516129032;1;0;0;0;0;1;1;1;1;0;0;0;;0;0;();();(-2000.0, -2000.0);
11:45:28:934;11:45:28:916;1448060486.35;(0.608779764175415, 0.3870473225911458);22.340171814;0.739384666337;11:45:28:934;0;10;1.78064516129032;1;0;0;0;0;1;1;1;1;0;0;0;;0;0;();();(-2000.0, -2000.0);
11:45:28:937;11:45:28:916;1448060486.35;(0.608779764175415, 0.3870473225911458);22.340171814;0.739384666337;11:45:28:937;0;10;1.78064516129032;1;0;0;0;0;1;1;1;1;0;0;0;;0;0;();();(-2000.0, -2000.0);
11:45:28:939;11:45:28:916;1448060486.35;(0.608779764175415, 0.3870473225911458);22.340171814;0.739384666337;11:45:28:939;0;10;1.78064516129032;1;0;0;0;0;1;1;1;1;0;0;0;;0;0;();();(-2000.0, -2000.0);
11:45:28:940;11:45:28:916;1448060486.35;(0.608779764175415, 0.3870473225911458);22.340171814;0.739384666337;11:45:28:940;0;10;1.78064516129032;1;0;0;0;0;1;1;1;1;0;0;0;;0;0;();();(-2000.0, -2000.0);
11:45:28:942;11:45:28:916;1448060486.35;(0.608779764175415, 0.3870473225911458);22.340171814;0.739384666337;11:45:28:942;0;10;1.78064516129032;1;0;0;0;0;1;1;1;1;0;0;0;;0;0;();();(-2000.0, -2000.0);
11:45:28:943;11:45:28:916;1448060486.35;(0.608779764175415, 0.3870473225911458);22.340171814;0.739384666337;11:45:28:943;0;10;1.78064516129032;1;0;0;0;0;1;1;1;1;0;0;0;;0;0;();();(-2000.0, -2000.0);
11:45:28:944;11:45:28:916;1448060486.35;(0.608779764175415, 0.3870473225911458);22.340171814;0.739384666337;11:45:28:944;0;4;1.78064516129032;1;0;0;0;0;1;1;1;1;0;0;0;;0;0;();();(-2000.0, -2000.0);
11:45:28:946;11:45:28:916;1448060486.35;(0.608779764175415, 0.3870473225911458);22.340171814;0.739384666337;11:45:28:946;0;4;1.78064516129032;1;0;0;0;0;1;1;1;1;0;0;0;;0;0;();();(-2000.0, -2000.0);
11:45:28:947;11:45:28:916;1448060486.35;(0.608779764175415, 0.3870473225911458);22.340171814;0.739384666337;11:45:28:947;0;4;1.78064516129032;1;0;0;0;0;1;1;1;1;0;0;0;;0;0;();();(-2000.0, -2000.0);
11:45:28:948;11:45:28:916;1448060486.35;(0.608779764175415, 0.3870473225911458);22.340171814;0.739384666337;11:45:28:948;0;4;1.78064516129032;1;0;0;0;0;1;1;1;1;0;0;0;;0;0;();();(-2000.0, -2000.0);
11:45:28:950;11:45:28:916;1448060486.35;(0.608779764175415, 0.3870473225911458);22.340171814;0.739384666337;11:45:28:950;0;4;1.78064516129032;1;0;0;0;0;1;1;1;1;0;0;0;;0;0;();();(-2000.0, -2000.0);
11:45:28:951;11:45:28:916;1448060486.35;(0.608779764175415, 0.3870473225911458);22.340171814;0.739384666337;11:45:28:951;0;15;1.79032258064516;1;0;0;0;0;1;1;1;1;0;0;0;;0;0;();();(-2000.0, -2000.0);
11:45:28:958;11:45:28:916;1448060486.35;(0.608779764175415, 0.3870473225911458);22.340171814;0.739384666337;11:45:28:958;0;15;1.79032258064516;1;0;0;0;0;1;1;1;1;0;0;0;;0;0;();();(-2000.0, -2000.0);
11:45:28:975;11:45:28:916;1448060486.35;(0.608779764175415, 0.3870473225911458);22.340171814;0.739384666337;11:45:28:975;0;4;1.76129032258065;1;0;0;0;0;1;1;1;1;0;0;0;;0;0;();();(-2000.0, -2000.0);
11:45:29:008;11:45:28:981;1448060486.41;(0.3183767080307007, 0.5200303819444445);31.31316185;0.649564788221;11:45:29:008;0;10;1.77741935483871;1;0;0;0;0;1;1;1;1;0;0;0;;0;0;();();(-2000.0, -2000.0);
11:45:29:025;11:45:28:981;1448060486.41;(0.3183767080307007, 0.5200303819444445);31.31316185;0.649564788221;11:45:29:025;0;10;1.77741935483871;1;0;0;0;0;1;1;1;1;0;0;0;;0;0;();();(-2000.0, -2000.0);
11:45:29:041;11:45:28:981;1448060486.41;(0.3183767080307007, 0.5200303819444445);31.31316185;0.649564788221;11:45:29:041;0;10;1.77741935483871;1;0;0;0;0;1;1;1;1;0;0;0;;0;0;();();(-2000.0, -2000.0);
11:45:29:058;11:45:29:048;1448060486.47;(0, 0);0;0;11:45:29:058;0;9;1.77741935483871;1;0;0;0;0;1;1;1;1;0;0;0;;0;0;();();(-2000.0, -2000.0);
11:45:29:075;11:45:29:048;1448060486.47;(0, 0);0;0;11:45:29:075;0;15;1.78064516129032;1;0;0;0;0;1;1;1;1;0;0;0;;0;0;();();(-2000.0, -2000.0);
11:45:29:109;11:45:29:048;1448060486.47;(0, 0);0;0;11:45:29:109;0;10;1.79032258064516;1;0;0;0;0;1;1;1;1;0;0;0;;0;0;();();(-2000.0, -2000.0);
11:45:29:125;11:45:29:113;1448060486.55;(0.476055908203125, 0.6244119220309787);67.1906967163;0.801613375671;11:45:29:125;0;15;1.78064516129032;1;0;0;0;0;1;1;1;1;0;0;0;;0;0;();();(-2000.0, -2000.0);
11:45:29:141;11:45:29:113;1448060486.55;(0.476055908203125, 0.6244119220309787);67.1906967163;0.801613375671;11:45:29:141;0;5;1.78064516129032;1;0;0;0;0;1;1;1;1;0;0;0;;0;0;();();(-2000.0, -2000.0);
11:45:29:159;11:45:29:113;1448060486.55;(0.476055908203125, 0.6244119220309787);67.1906967163;0.801613375671;11:45:29:159;0;10;1.78064516129032;1;0;0;0;0;1;1;1;1;0;0;0;;0;0;();();(-2000.0, -2000.0);
11:45:29:175;11:45:29:113;1448060486.55;(0.476055908203125, 0.6244119220309787);67.1906967163;0.801613375671;11:45:29:175;0;4;-1.5;1;0;0;0;0;1;1;1;1;0;0;0;;0;0;();();(-2000.0, -2000.0);
11:45:29:208;11:45:29:113;1448060486.55;(0.476055908203125, 0.6244119220309787);67.1906967163;0.801613375671;11:45:29:208;0;4;-1.5;1;0;0;0;0;1;1;1;1;0;0;0;;0;0;();();(-2000.0, -2000.0);
11:45:29:224;11:45:29:113;1448060486.55;(0.476055908203125, 0.6244119220309787);67.1906967163;0.801613375671;11:45:29:224;0;0;-1.5;1;0;0;0;0;1;1;1;1;0;0;0;;0;0;();();(-2000.0, -2000.0);
11:45:29:242;11:45:29:113;1448060486.55;(0.476055908203125, 0.6244119220309787);67.1906967163;0.801613375671;11:45:29:242;0;5;-1.5;1;0;0;0;0;1;1;1;1;0;0;0;;0;0;();();(-2000.0, -2000.0);
11:45:29:258;11:45:29:249;1448060486.72;(0.45849061012268066, 0.6158019595675999);67.3807449341;0.961912977926;11:45:29:258;0;15;-1.5;1;0;0;0;0;1;1;1;1;0;0;0;;0;0;();();(-2000.0, -2000.0);
11:45:29:275;11:45:29:249;1448060486.72;(0.45849061012268066, 0.6158019595675999);67.3807449341;0.961912977926;11:45:29:275;0;4;-1.5;1;0;0;0;0;1;1;1;1;0;0;0;;0;0;();();(-2000.0, -2000.0);
11:45:29:308;11:45:29:249;1448060486.72;(0.45849061012268066, 0.6158019595675999);67.3807449341;0.961912977926;11:45:29:308;0;15;-1.5;1;0;0;0;0;1;1;1;1;0;0;0;;0;0;();();(-2000.0, -2000.0);
11:45:29:324;11:45:29:313;1448060486.74;(0.45335850715637205, 0.6153435177273221);67.3214492798;0.908203511384;11:45:29:324;0;15;-1.5;1;0;0;0;0;1;1;1;1;0;0;0;;0;0;();();(-2000.0, -2000.0);
11:45:29:341;11:45:29:313;1448060486.74;(0.45335850715637205, 0.6153435177273221);67.3214492798;0.908203511384;11:45:29:341;0;15;-1.5;1;0;0;0;0;1;1;1;1;0;0;0;;0;0;();();(-2000.0, -2000.0);
11:45:29:359;11:45:29:313;1448060486.74;(0.45335850715637205, 0.6153435177273221);67.3214492798;0.908203511384;11:45:29:359;0;10;-1.5;1;0;0;0;0;1;1;1;1;0;0;0;;0;0;();();(-2000.0, -2000.0);
11:45:29:375;11:45:29:313;1448060486.74;(0.45335850715637205, 0.6153435177273221);67.3214492798;0.908203511384;11:45:29:375;0;15;-1.5;1;0;0;0;0;1;1;1;1;0;0;0;;0;0;();();(-2000.0, -2000.0);
11:45:29:408;11:45:29:313;1448060486.74;(0.45335850715637205, 0.6153435177273221);67.3214492798;0.908203511384;11:45:29:408;0;15;1.77741935483871;1;0;0;0;0;1;1;1;1;0;0;0;;0;0;();();(-2000.0, -2000.0);
11:45:29:425;11:45:29:313;1448060486.74;(0.45335850715637205, 0.6153435177273221);67.3214492798;0.908203511384;11:45:29:425;0;4;1.78064516129032;1;0;0;0;0;1;1;1;1;0;0;0;;0;0;();();(-2000.0, -2000.0);
11:45:29:441;11:45:29:313;1448060486.74;(0.45335850715637205, 0.6153435177273221);67.3214492798;0.908203511384;11:45:29:441;0;15;1.77741935483871;1;0;0;0;0;1;1;1;1;0;0;0;;0;0;();();(-2000.0, -2000.0);
11:45:29:458;11:45:29:445;1448060486.77;(0.4507326602935791, 0.6156185150146485);66.5475692749;0.86328833852;11:45:29:458;0;5;-1.5;1;0;0;0;0;1;1;1;1;0;0;0;;0;0;();();(-2000.0, -2000.0);
11:45:29:475;11:45:29:445;1448060486.77;(0.4507326602935791, 0.6156185150146485);66.5475692749;0.86328833852;11:45:29:475;0;15;-1.5;1;0;0;0;0;1;1;1;1;0;0;0;;0;0;();();(-2000.0, -2000.0);
11:45:29:508;11:45:29:445;1448060486.77;(0.4507326602935791, 0.6156185150146485);66.5475692749;0.86328833852;11:45:29:508;0;15;-1.5;1;0;0;0;0;1;1;1;1;0;0;0;;0;0;();();(-2000.0, -2000.0);
11:45:29:525;11:45:29:513;1448060486.88;(0.44342217445373533, 0.616191652086046);66.6389770508;1.0;11:45:29:525;0;4;-1.5;1;0;0;0;0;1;1;1;1;0;0;0;;0;0;();();(-2000.0, -2000.0);
11:45:29:542;11:45:29:513;1448060486.88;(0.44342217445373533, 0.616191652086046);66.6389770508;1.0;11:45:29:542;0;9;-1.5;1;0;0;0;0;1;1;1;1;0;0;0;;0;0;();();(-2000.0, -2000.0);
11:45:29:559;11:45:29:513;1448060486.88;(0.44342217445373533, 0.616191652086046);66.6389770508;1.0;11:45:29:559;0;5;-1.5;1;0;0;0;0;1;1;1;1;0;0;0;;0;0;();();(-2000.0, -2000.0);
11:45:29:575;11:45:29:513;1448060486.88;(0.44342217445373533, 0.616191652086046);66.6389770508;1.0;11:45:29:575;0;9;-1.5;1;0;0;0;0;1;1;1;1;0;0;0;;0;0;();();(-2000.0, -2000.0);
11:45:29:609;11:45:29:513;1448060486.88;(0.44342217445373533, 0.616191652086046);66.6389770508;1.0;11:45:29:609;0;15;-1.5;1;0;0;0;0;1;1;1;1;0;0;0;;0;0;();();(-2000.0, -2000.0);
11:45:29:626;11:45:29:513;1448060486.88;(0.44342217445373533, 0.616191652086046);66.6389770508;1.0;11:45:29:626;0;4;-1.5;1;0;0;0;0;1;1;1;1;0;0;0;;0;0;();();(-2000.0, -2000.0);
11:45:29:641;11:45:29:513;1448060486.88;(0.44342217445373533, 0.616191652086046);66.6389770508;1.0;11:45:29:641;0;10;-1.5;1;0;0;0;0;1;1;1;1;0;0;0;;0;0;();();(-2000.0, -2000.0);
11:45:29:659;11:45:29:645;1448060487.1;(0.44879703521728515, 0.5888065761990018);66.6184692383;0.823545139935;11:45:29:659;0;10;-1.5;1;0;0;0;0;1;1;1;1;0;0;0;;0;0;();();(-2000.0, -2000.0);
11:45:29:675;11:45:29:645;1448060487.1;(0.44879703521728515, 0.5888065761990018);66.6184692383;0.823545139935;11:45:29:675;0;15;1.77741935483871;1;0;0;0;0;1;1;1;1;0;0;0;;0;0;();();(-2000.0, -2000.0);
11:45:29:709;11:45:29:645;1448060487.1;(0.44879703521728515, 0.5888065761990018);66.6184692383;0.823545139935;11:45:29:709;0;4;1.78064516129032;1;0;0;0;0;1;1;1;1;0;0;0;;0;0;();();(-2000.0, -2000.0);
11:45:29:725;11:45:29:717;1448060487.2;(0.4480245113372803, 0.5853651682535808);66.3020477295;1.0;11:45:29:725;0;4;1.78064516129032;1;0;0;0;0;1;1;1;1;0;0;0;;0;0;();();(-2000.0, -2000.0);
11:45:29:741;11:45:29:717;1448060487.2;(0.4480245113372803, 0.5853651682535808);66.3020477295;1.0;11:45:29:741;0;10;1.77741935483871;1;0;0;0;0;1;1;1;1;0;0;0;;0;0;();();(-2000.0, -2000.0);
11:45:29:759;11:45:29:717;1448060487.2;(0.4480245113372803, 0.5853651682535808);66.3020477295;1.0;11:45:29:759;0;4;1.78064516129032;1;0;0;0;0;1;1;1;1;0;0;0;;0;0;();();(-2000.0, -2000.0);
11:45:29:775;11:45:29:717;1448060487.2;(0.4480245113372803, 0.5853651682535808);66.3020477295;1.0;11:45:29:775;0;5;1.78064516129032;1;0;0;0;0;1;1;1;1;0;0;0;;0;0;();();(-2000.0, -2000.0);
11:45:29:809;11:45:29:776;1448060487.23;(0.44867525100708006, 0.58443357679579);65.5804672241;1.0;11:45:29:809;0;10;1.78064516129032;1;0;0;0;0;1;1;1;1;0;0;0;;0;0;();();(-2000.0, -2000.0);
11:45:29:826;11:45:29:776;1448060487.23;(0.44867525100708006, 0.58443357679579);65.5804672241;1.0;11:45:29:826;0;15;1.78064516129032;1;0;0;0;0;1;1;1;1;0;0;0;;0;0;();();(-2000.0, -2000.0);
11:45:29:842;11:45:29:776;1448060487.23;(0.44867525100708006, 0.58443357679579);65.5804672241;1.0;11:45:29:842;0;4;1.78064516129032;1;0;0;0;0;1;1;1;1;0;0;0;;0;0;();();(-2000.0, -2000.0);
11:45:29:858;11:45:29:845;1448060487.3;(0.6219656467437744, 0.41407250298394094);24.5661067963;0.788573988215;11:45:29:858;0;4;1.78064516129032;1;0;0;0;0;1;1;1;1;0;0;0;;0;0;();();(-2000.0, -2000.0);
11:45:29:876;11:45:29:845;1448060487.3;(0.6219656467437744, 0.41407250298394094);24.5661067963;0.788573988215;11:45:29:876;0;9;1.78064516129032;1;0;0;0;0;1;1;1;1;0;0;0;;0;0;();();(-2000.0, -2000.0);
11:45:29:909;11:45:29:909;1448060487.33;(0.5872905731201172, 0.6156783209906684);67.8621139526;0.622622384814;11:45:29:909;0;4;1.78064516129032;1;0;0;0;0;1;1;1;1;0;0;0;;0;0;();();(-2000.0, -2000.0);
11:45:29:926;11:45:29:909;1448060487.37;(0, 0);0;0;11:45:29:926;0;9;1.79032258064516;1;0;0;0;0;1;1;1;1;0;0;0;;0;0;();();(-2000.0, -2000.0);
11:45:29:943;11:45:29:909;1448060487.37;(0, 0);0;0;11:45:29:942;0;9;1.79032258064516;1;0;0;0;0;1;1;1;1;0;0;0;;0;0;();();(-2000.0, -2000.0);
11:45:29:959;11:45:29:909;1448060487.37;(0, 0);0;0;11:45:29:959;0;10;1.78064516129032;1;0;0;0;0;1;1;1;1;0;0;0;;0;0;();();(-2000.0, -2000.0);
11:45:29:975;11:45:29:909;1448060487.37;(0, 0);0;0;11:45:29:975;0;14;1.78064516129032;1;0;0;0;0;1;1;1;1;0;0;0;;0;0;();();(-2000.0, -2000.0);
11:45:30:009;11:45:29:976;1448060487.4;(0.19489117860794067, 0.5293502807617188);38.7015914917;0.676793772803;11:45:30:009;0;0;-1.5;1;0;0;0;0;1;1;1;1;0;0;0;;0;0;();();(-2000.0, -2000.0);
11:45:30:026;11:45:29:976;1448060487.4;(0.19489117860794067, 0.5293502807617188);38.7015914917;0.676793772803;11:45:30:026;0;10;-1.5;1;0;0;0;0;1;1;1;1;0;0;0;;0;0;();();(-2000.0, -2000.0);
11:45:30:042;11:45:29:976;1448060487.4;(0.19489117860794067, 0.5293502807617188);38.7015914917;0.676793772803;11:45:30:042;0;5;-0.932258064516129;1;0;0;0;0;1;1;1;1;0;0;0;;0;0;();();(-2000.0, -2000.0);
11:45:30:059;11:45:30:045;1448060487.43;(0.33838372230529784, 0.607619391547309);64.6745834351;0.973247860453;11:45:30:059;0;9;1;1;0;0;0;0;1;1;1;1;0;0;0;;0;0;();();(-2000.0, -2000.0);
11:45:30:076;11:45:30:045;1448060487.43;(0.33838372230529784, 0.607619391547309);64.6745834351;0.973247860453;11:45:30:076;0;4;1.78064516129032;1;0;0;0;0;1;1;1;1;0;0;0;;0;0;();();(-2000.0, -2000.0);
11:45:30:109;11:45:30:045;1448060487.43;(0.33838372230529784, 0.607619391547309);64.6745834351;0.973247860453;11:45:30:109;0;0;-1.5;1;0;0;0;0;1;1;1;1;0;0;0;;0;0;();();(-2000.0, -2000.0);
11:45:30:126;11:45:30:045;1448060487.43;(0.33838372230529784, 0.607619391547309);64.6745834351;0.973247860453;11:45:30:126;0;10;-1.5;1;0;0;0;0;1;1;1;1;0;0;0;;0;0;();();(-2000.0, -2000.0);
11:45:30:142;11:45:30:045;1448060487.43;(0.33838372230529784, 0.607619391547309);64.6745834351;0.973247860453;11:45:30:142;0;10;-1.5;1;0;0;0;0;1;1;1;1;0;0;0;;0;0;();();(-2000.0, -2000.0);
11:45:30:159;11:45:30:045;1448060487.43;(0.33838372230529784, 0.607619391547309);64.6745834351;0.973247860453;11:45:30:159;0;15;-1.5;1;0;0;0;0;1;1;1;1;0;0;0;;0;0;();();(-2000.0, -2000.0);
11:45:30:176;11:45:30:045;1448060487.43;(0.33838372230529784, 0.607619391547309);64.6745834351;0.973247860453;11:45:30:176;0;0;-1.5;1;0;0;0;0;1;1;1;1;0;0;0;;0;0;();();(-2000.0, -2000.0);
11:45:30:209;11:45:30:176;1448060487.61;(0.3682509422302246, 0.613970692952474);63.6177024841;1.0;11:45:30:209;0;15;-1.5;1;0;0;0;0;1;1;1;1;0;0;0;;0;0;();();(-2000.0, -2000.0);
11:45:30:225;11:45:30:176;1448060487.61;(0.3682509422302246, 0.613970692952474);63.6177024841;1.0;11:45:30:225;0;4;-1.5;1;0;0;0;0;1;1;1;1;0;0;0;;0;0;();();(-2000.0, -2000.0);
11:45:30:243;11:45:30:176;1448060487.61;(0.3682509422302246, 0.613970692952474);63.6177024841;1.0;11:45:30:243;0;15;-1.5;1;0;0;0;0;1;1;1;1;0;0;0;;0;0;();();(-2000.0, -2000.0);
11:45:30:259;11:45:30:176;1448060487.61;(0.3682509422302246, 0.613970692952474);63.6177024841;1.0;11:45:30:259;0;4;-1.5;1;0;0;0;0;1;1;1;1;0;0;0;;0;0;();();(-2000.0, -2000.0);
11:45:30:275;11:45:30:176;1448060487.61;(0.3682509422302246, 0.613970692952474);63.6177024841;1.0;11:45:30:275;0;9;-1.5;1;0;0;0;0;1;1;1;1;0;0;0;;0;0;();();(-2000.0, -2000.0);
11:45:30:309;11:45:30:308;1448060487.63;(0.3745385408401489, 0.6141502380371093);63.1644859314;1.0;11:45:30:309;0;10;-1.5;1;0;0;0;0;1;1;1;1;0;0;0;;0;0;();();(-2000.0, -2000.0);
11:45:30:326;11:45:30:308;1448060487.63;(0.3745385408401489, 0.6141502380371093);63.1644859314;1.0;11:45:30:326;0;10;-1.5;1;0;0;0;0;1;1;1;1;0;0;0;;0;0;();();(-2000.0, -2000.0);
11:45:30:343;11:45:30:308;1448060487.63;(0.3745385408401489, 0.6141502380371093);63.1644859314;1.0;11:45:30:343;0;15;1.78064516129032;1;0;0;0;0;1;1;1;1;0;0;0;;0;0;();();(-2000.0, -2000.0);
11:45:30:359;11:45:30:308;1448060487.63;(0.3745385408401489, 0.6141502380371093);63.1644859314;1.0;11:45:30:359;0;15;1.78064516129032;1;0;0;0;0;1;1;1;1;0;0;0;;0;0;();();(-2000.0, -2000.0);
11:45:30:376;11:45:30:308;1448060487.63;(0.3745385408401489, 0.6141502380371093);63.1644859314;1.0;11:45:30:376;0;1;1.78064516129032;1;0;0;0;0;1;1;1;1;0;0;0;;0;0;();();(-2000.0, -2000.0);
11:45:30:410;11:45:30:308;1448060487.63;(0.3745385408401489, 0.6141502380371093);63.1644859314;1.0;11:45:30:410;0;9;1.79032258064516;1;0;0;0;0;1;1;1;1;0;0;0;;0;0;();();(-2000.0, -2000.0);
11:45:30:426;11:45:30:308;1448060487.63;(0.3745385408401489, 0.6141502380371093);63.1644859314;1.0;11:45:30:426;0;5;1.78064516129032;1;0;0;0;0;1;1;1;1;0;0;0;;0;0;();();(-2000.0, -2000.0);
11:45:30:442;11:45:30:308;1448060487.63;(0.3745385408401489, 0.6141502380371093);63.1644859314;1.0;11:45:30:442;0;10;1.78064516129032;1;0;0;0;0;1;1;1;1;0;0;0;;0;0;();();(-2000.0, -2000.0);
11:45:30:459;11:45:30:308;1448060487.63;(0.3745385408401489, 0.6141502380371093);63.1644859314;1.0;11:45:30:459;0;5;1.77741935483871;1;0;0;0;0;1;1;1;1;0;0;0;;0;0;();();(-2000.0, -2000.0);
11:45:30:476;11:45:30:308;1448060487.63;(0.3745385408401489, 0.6141502380371093);63.1644859314;1.0;11:45:30:476;0;5;1.77741935483871;1;0;0;0;0;1;1;1;1;0;0;0;;0;0;();();(-2000.0, -2000.0);
11:45:30:509;11:45:30:508;1448060487.97;(0.2861226797103882, 0.8803867022196452);45.6096420288;0.786544088206;11:45:30:509;0;15;1.78064516129032;1;0;0;0;0;1;1;1;1;0;0;0;;0;0;();();(-2000.0, -2000.0);
11:45:30:525;11:45:30:508;1448060487.97;(0.2861226797103882, 0.8803867022196452);45.6096420288;0.786544088206;11:45:30:525;0;5;1.78064516129032;1;0;0;0;0;1;1;1;1;0;0;0;;0;0;();();(-2000.0, -2000.0);
11:45:30:543;11:45:30:508;1448060487.97;(0.2861226797103882, 0.8803867022196452);45.6096420288;0.786544088206;11:45:30:543;0;4;1.77741935483871;1;0;0;0;0;1;1;1;1;0;0;0;;0;0;();();(-2000.0, -2000.0);
11:45:30:559;11:45:30:508;1448060487.97;(0.2861226797103882, 0.8803867022196452);45.6096420288;0.786544088206;11:45:30:559;0;15;1.78064516129032;1;0;0;0;0;1;1;1;1;0;0;0;;0;0;();();(-2000.0, -2000.0);
11:45:30:576;11:45:30:508;1448060487.97;(0.2861226797103882, 0.8803867022196452);45.6096420288;0.786544088206;11:45:30:576;0;9;1.78064516129032;1;0;0;0;0;1;1;1;1;0;0;0;;0;0;();();(-2000.0, -2000.0);
11:45:30:610;11:45:30:508;1448060487.97;(0.2861226797103882, 0.8803867022196452);45.6096420288;0.786544088206;11:45:30:610;0;4;1.76129032258065;1;0;0;0;0;1;1;1;1;0;0;0;;0;0;();();(-2000.0, -2000.0);
11:45:30:625;11:45:30:508;1448060487.97;(0.2861226797103882, 0.8803867022196452);45.6096420288;0.786544088206;11:45:30:625;0;15;1.79032258064516;1;0;0;0;0;1;1;1;1;0;0;0;;0;0;();();(-2000.0, -2000.0);
11:45:30:643;11:45:30:508;1448060487.97;(0.2861226797103882, 0.8803867022196452);45.6096420288;0.786544088206;11:45:30:643;0;4;1.78064516129032;1;0;0;0;0;1;1;1;1;0;0;0;;0;0;();();(-2000.0, -2000.0);
11:45:30:659;11:45:30:508;1448060487.97;(0.2861226797103882, 0.8803867022196452);45.6096420288;0.786544088206;11:45:30:659;0;0;1.78064516129032;1;0;0;0;0;1;1;1;1;0;0;0;;0;0;();();(-2000.0, -2000.0);
11:45:30:676;11:45:30:508;1448060487.97;(0.2861226797103882, 0.8803867022196452);45.6096420288;0.786544088206;11:45:30:676;0;10;1.78064516129032;1;0;0;0;0;1;1;1;1;0;0;0;;0;0;();();(-2000.0, -2000.0);
11:45:30:710;11:45:30:709;1448060488.17;(0.46613779067993166, 0.5653109232584635);63.465473175;1.0;11:45:30:710;0;4;1.78064516129032;1;0;0;0;0;1;1;1;1;0;0;0;;0;0;();();(-2000.0, -2000.0);
11:45:30:726;11:45:30:709;1448060488.17;(0.46613779067993166, 0.5653109232584635);63.465473175;1.0;11:45:30:726;0;9;1.78064516129032;1;0;0;0;0;1;1;1;1;0;0;0;;0;0;();();(-2000.0, -2000.0);
11:45:30:743;11:45:30:709;1448060488.17;(0.46613779067993166, 0.5653109232584635);63.465473175;1.0;11:45:30:743;0;5;1.78064516129032;1;0;0;0;0;1;1;1;1;0;0;0;;0;0;();();(-2000.0, -2000.0);
11:45:30:759;11:45:30:709;1448060488.17;(0.46613779067993166, 0.5653109232584635);63.465473175;1.0;11:45:30:759;0;5;1.78064516129032;1;0;0;0;0;1;1;1;1;0;0;0;;0;0;();();(-2000.0, -2000.0);
11:45:30:776;11:45:30:772;1448060488.23;(0.1797635555267334, 0.568576897515191);27.1229629517;1.0;11:45:30:776;0;10;1.77741935483871;1;0;0;0;0;1;1;1;1;0;0;0;;0;0;();();(-2000.0, -2000.0);
11:45:30:810;11:45:30:772;1448060488.23;(0.1797635555267334, 0.568576897515191);27.1229629517;1.0;11:45:30:810;0;4;1.77741935483871;1;0;0;0;0;1;1;1;1;0;0;0;;0;0;();();(-2000.0, -2000.0);
11:45:30:826;11:45:30:772;1448060488.23;(0.1797635555267334, 0.568576897515191);27.1229629517;1.0;11:45:30:826;0;9;1.78064516129032;1;0;0;0;0;1;1;1;1;0;0;0;;0;0;();();(-2000.0, -2000.0);
11:45:30:843;11:45:30:772;1448060488.23;(0.1797635555267334, 0.568576897515191);27.1229629517;1.0;11:45:30:843;0;15;1.78064516129032;1;0;0;0;0;1;1;1;1;0;0;0;;0;0;();();(-2000.0, -2000.0);
11:45:30:859;11:45:30:772;1448060488.23;(0.1797635555267334, 0.568576897515191);27.1229629517;1.0;11:45:30:859;0;9;1.78064516129032;1;0;0;0;0;1;1;1;1;0;0;0;;0;0;();();(-2000.0, -2000.0);
11:45:30:876;11:45:30:772;1448060488.23;(0.1797635555267334, 0.568576897515191);27.1229629517;1.0;11:45:30:876;0;15;1.77741935483871;1;0;0;0;0;1;1;1;1;0;0;0;;0;0;();();(-2000.0, -2000.0);
11:45:30:910;11:45:30:772;1448060488.23;(0.1797635555267334, 0.568576897515191);27.1229629517;1.0;11:45:30:910;0;15;1.79032258064516;1;0;0;0;0;1;1;1;1;0;0;0;;0;0;();();(-2000.0, -2000.0);
11:45:30:926;11:45:30:772;1448060488.23;(0.1797635555267334, 0.568576897515191);27.1229629517;1.0;11:45:30:926;0;4;1.78064516129032;1;0;0;0;0;1;1;1;1;0;0;0;;0;0;();();(-2000.0, -2000.0);
11:45:30:943;11:45:30:772;1448060488.23;(0.1797635555267334, 0.568576897515191);27.1229629517;1.0;11:45:30:943;0;4;1.78064516129032;1;0;0;0;0;1;1;1;1;0;0;0;;0;0;();();(-2000.0, -2000.0);
11:45:30:959;11:45:30:772;1448060488.23;(0.1797635555267334, 0.568576897515191);27.1229629517;1.0;11:45:30:959;0;15;1.78064516129032;1;0;0;0;0;1;1;1;1;0;0;0;;0;0;();();(-2000.0, -2000.0);
11:45:30:977;11:45:30:974;1448060488.43;(0.48174419403076174, 0.5800056033664279);62.4091529846;0.932879975674;11:45:30:977;0;9;1.77741935483871;1;0;0;0;0;1;1;1;1;0;0;0;;0;0;();();(-2000.0, -2000.0);
11:45:31:009;11:45:30:974;1448060488.43;(0.48174419403076174, 0.5800056033664279);62.4091529846;0.932879975674;11:45:31:009;0;9;1.78064516129032;1;0;0;0;0;1;1;1;1;0;0;0;;0;0;();();(-2000.0, -2000.0);
11:45:31:027;11:45:30:974;1448060488.43;(0.48174419403076174, 0.5800056033664279);62.4091529846;0.932879975674;11:45:31:027;0;4;1.79032258064516;1;0;0;0;0;1;1;1;1;0;0;0;;0;0;();();(-2000.0, -2000.0);
11:45:31:043;11:45:30:974;1448060488.43;(0.48174419403076174, 0.5800056033664279);62.4091529846;0.932879975674;11:45:31:043;0;15;1.79032258064516;1;0;0;0;0;1;1;1;1;0;0;0;;0;0;();();(-2000.0, -2000.0);
11:45:31:059;11:45:30:974;1448060488.43;(0.48174419403076174, 0.5800056033664279);62.4091529846;0.932879975674;11:45:31:059;0;5;1.76129032258065;1;0;0;0;0;1;1;1;1;0;0;0;;0;0;();();(-2000.0, -2000.0);
11:45:31:077;11:45:30:974;1448060488.43;(0.48174419403076174, 0.5800056033664279);62.4091529846;0.932879975674;11:45:31:077;0;10;1.77741935483871;1;0;0;0;0;1;1;1;1;0;0;0;;0;0;();();(-2000.0, -2000.0);
11:45:31:110;11:45:30:974;1448060488.43;(0.48174419403076174, 0.5800056033664279);62.4091529846;0.932879975674;11:45:31:110;0;15;1.57096774193548;1;0;0;0;0;1;1;1;1;0;0;0;;0;0;();();(-2000.0, -2000.0);
11:45:31:126;11:45:30:974;1448060488.43;(0.48174419403076174, 0.5800056033664279);62.4091529846;0.932879975674;11:45:31:126;0;4;1.78064516129032;1;0;0;0;0;1;1;1;1;0;0;0;;0;0;();();(-2000.0, -2000.0);
11:45:31:143;11:45:30:974;1448060488.43;(0.48174419403076174, 0.5800056033664279);62.4091529846;0.932879975674;11:45:31:143;0;15;1.78064516129032;1;0;0;0;0;1;1;1;1;0;0;0;;0;0;();();(-2000.0, -2000.0);
11:45:31:171;11:45:30:974;1448060488.43;(0.48174419403076174, 0.5800056033664279);62.4091529846;0.932879975674;11:45:31:171;0;15;1.78064516129032;1;0;0;0;0;1;1;1;1;2;0;0;;0;0;();();(-2000.0, -2000.0);
11:45:31:196;11:45:31:172;1448060488.62;(0.4915783882141113, 0.5819112989637587);59.9334373474;1.0;11:45:31:196;0;4;1.79032258064516;1;0;0;0;0;1;1;1;1;2;0;0;;0;0;();();(-2000.0, -2000.0);
11:45:31:198;11:45:31:172;1448060488.62;(0.4915783882141113, 0.5819112989637587);59.9334373474;1.0;11:45:31:198;0;4;1.79032258064516;1;0;0;0;0;1;1;1;1;2;0;0;;0;0;();();(-2000.0, -2000.0);
11:45:31:226;11:45:31:172;1448060488.62;(0.4915783882141113, 0.5819112989637587);59.9334373474;1.0;11:45:31:226;0;15;1.78064516129032;1;0;0;0;0;1;1;1;1;2;0;0;;0;0;();();(-2000.0, -2000.0);
11:45:31:243;11:45:31:172;1448060488.62;(0.4915783882141113, 0.5819112989637587);59.9334373474;1.0;11:45:31:243;0;10;1.78064516129032;1;0;0;0;0;1;1;1;1;2;0;0;;0;0;();();(-2000.0, -2000.0);
11:45:31:260;11:45:31:172;1448060488.62;(0.4915783882141113, 0.5819112989637587);59.9334373474;1.0;11:45:31:260;0;15;1.78064516129032;1;0;0;0;0;1;1;1;1;2;0;0;;0;0;();();(-2000.0, -2000.0);
11:45:31:277;11:45:31:172;1448060488.62;(0.4915783882141113, 0.5819112989637587);59.9334373474;1.0;11:45:31:277;0;9;-0.261290322580645;1;0;0;0;0;1;1;1;1;2;0;0;;0;0;();();(-2000.0, -2000.0);
11:45:31:309;11:45:31:304;1448060488.65;(0.48491382598876953, 0.5850142584906683);60.4258651733;0.90835329156;11:45:31:309;0;10;0;1;0;0;0;0;1;1;1;1;2;0;0;;0;0;();();(-2000.0, -2000.0);
11:45:31:327;11:45:31:304;1448060488.65;(0.48491382598876953, 0.5850142584906683);60.4258651733;0.90835329156;11:45:31:327;0;0;-1.3741935483871;1;0;0;0;0;1;1;1;1;2;0;0;;0;0;();();(-2000.0, -2000.0);
11:45:31:344;11:45:31:304;1448060488.65;(0.48491382598876953, 0.5850142584906683);60.4258651733;0.90835329156;11:45:31:344;0;10;-0.716129032258065;1;0;0;0;0;1;1;1;1;2;0;0;;0;0;();();(-2000.0, -2000.0);
11:45:31:360;11:45:31:304;1448060488.65;(0.48491382598876953, 0.5850142584906683);60.4258651733;0.90835329156;11:45:31:360;0;15;1.57096774193548;1;0;0;0;0;1;1;1;1;2;0;0;;0;0;();();(-2000.0, -2000.0);
11:45:31:377;11:45:31:304;1448060488.65;(0.48491382598876953, 0.5850142584906683);60.4258651733;0.90835329156;11:45:31:377;0;4;0.603225806451613;1;0;0;0;0;1;1;1;1;2;0;0;;0;0;();();(-2000.0, -2000.0);
11:45:31:410;11:45:31:304;1448060488.65;(0.48491382598876953, 0.5850142584906683);60.4258651733;0.90835329156;11:45:31:410;0;4;-0.37741935483871;1;0;0;0;0;1;1;1;1;2;0;0;;0;0;();();(-2000.0, -2000.0);
11:45:31:427;11:45:31:304;1448060488.65;(0.48491382598876953, 0.5850142584906683);60.4258651733;0.90835329156;11:45:31:427;0;9;-1.5;1;0;0;0;0;1;1;1;1;2;0;0;;0;0;();();(-2000.0, -2000.0);
11:45:31:444;11:45:31:437;1448060488.74;(0.19501670598983764, 0.761966323852539);101.749893188;0.65506928746;11:45:31:444;0;5;-1.5;1;0;0;0;0;1;1;1;1;2;0;0;;0;0;();();(-2000.0, -2000.0);
11:45:31:460;11:45:31:437;1448060488.74;(0.19501670598983764, 0.761966323852539);101.749893188;0.65506928746;11:45:31:460;0;0;-0.754838709677419;1;0;0;0;0;1;1;1;1;2;0;0;;0;0;();();(-2000.0, -2000.0);
11:45:31:476;11:45:31:437;1448060488.74;(0.19501670598983764, 0.761966323852539);101.749893188;0.65506928746;11:45:31:476;0;5;0.977419354838709;1;0;0;0;0;1;1;1;1;2;0;0;;0;0;();();(-2000.0, -2000.0);
11:45:31:511;11:45:31:506;1448060488.96;(0.41021013259887695, 0.4724212646484375);25.1789302826;0.95893155226;11:45:31:511;0;10;1.26451612903226;1;0;0;0;0;1;1;1;1;2;0;0;;0;0;();();(-2000.0, -2000.0);
11:45:31:527;11:45:31:506;1448060488.96;(0.41021013259887695, 0.4724212646484375);25.1789302826;0.95893155226;11:45:31:527;0;15;-0.651612903225806;1;0;0;0;0;1;1;1;1;2;0;0;;0;0;();();(-2000.0, -2000.0);
11:45:31:544;11:45:31:506;1448060488.96;(0.41021013259887695, 0.4724212646484375);25.1789302826;0.95893155226;11:45:31:544;0;4;1.78064516129032;1;0;0;0;0;1;1;1;1;2;0;0;;0;0;();();(-2000.0, -2000.0);
11:45:31:560;11:45:31:506;1448060488.96;(0.41021013259887695, 0.4724212646484375);25.1789302826;0.95893155226;11:45:31:560;0;4;1.78064516129032;1;0;0;0;0;1;1;1;1;2;0;0;;0;0;();();(-2000.0, -2000.0);
11:45:31:577;11:45:31:570;1448060489.03;(0.408322811126709, 0.4718128204345703);25.9428806305;0.812324237535;11:45:31:577;0;4;1.78064516129032;1;0;0;0;0;1;1;1;1;2;0;0;;0;0;();();(-2000.0, -2000.0);
11:45:31:610;11:45:31:570;1448060489.03;(0.408322811126709, 0.4718128204345703);25.9428806305;0.812324237535;11:45:31:610;0;0;1.78064516129032;1;0;0;0;0;1;1;1;1;2;0;0;;0;0;();();(-2000.0, -2000.0);
11:45:31:627;11:45:31:570;1448060489.03;(0.408322811126709, 0.4718128204345703);25.9428806305;0.812324237535;11:45:31:627;0;15;-1.5;1;0;0;0;0;1;1;1;1;2;0;0;;0;0;();();(-2000.0, -2000.0);
11:45:31:644;11:45:31:637;1448060489.1;(0.4088733673095703, 0.472139400906033);25.10197258;0.854835336575;11:45:31:644;0;15;-1.5;1;0;0;0;0;1;1;1;1;2;0;0;;0;0;();();(-2000.0, -2000.0);
11:45:31:660;11:45:31:637;1448060489.1;(0.4088733673095703, 0.472139400906033);25.10197258;0.854835336575;11:45:31:660;0;4;-1.5;1;0;0;0;0;1;1;1;1;2;0;0;;0;0;();();(-2000.0, -2000.0);
11:45:31:677;11:45:31:637;1448060489.1;(0.4088733673095703, 0.472139400906033);25.10197258;0.854835336575;11:45:31:677;0;4;-1.5;1;0;0;0;0;1;1;1;1;2;0;0;;0;0;();();(-2000.0, -2000.0);
11:45:31:694;11:45:31:637;1448060489.1;(0.4088733673095703, 0.472139400906033);25.10197258;0.854835336575;11:45:31:694;0;5;-1.5;1;0;0;0;0;1;1;1;1;2;0;0;;0;0;();();(-2000.0, -2000.0);
11:45:31:727;11:45:31:705;1448060489.17;(0, 0);0;0;11:45:31:727;0;5;-1.5;1;0;0;0;0;1;1;1;1;2;0;0;;0;0;();();(-2000.0, -2000.0);
11:45:31:744;11:45:31:705;1448060489.17;(0, 0);0;0;11:45:31:744;0;15;-1.5;1;0;0;0;0;1;1;1;1;2;0;0;;0;0;();();(-2000.0, -2000.0);
11:45:31:761;11:45:31:705;1448060489.17;(0, 0);0;0;11:45:31:761;0;9;-1.5;1;0;0;0;0;1;1;1;1;2;0;0;;0;0;();();(-2000.0, -2000.0);
11:45:31:777;11:45:31:705;1448060489.17;(0, 0);0;0;11:45:31:777;0;4;-1.5;1;0;0;0;0;1;1;1;1;2;0;0;;0;0;();();(-2000.0, -2000.0);
11:45:31:794;11:45:31:705;1448060489.17;(0, 0);0;0;11:45:31:794;0;10;-1.5;1;0;0;0;0;1;1;1;1;2;0;0;;0;0;();();(-2000.0, -2000.0);
11:45:31:827;11:45:31:705;1448060489.17;(0, 0);0;0;11:45:31:827;0;9;-1.5;1;0;0;0;0;1;1;1;1;2;0;0;;0;0;();();(-2000.0, -2000.0);
11:45:31:844;11:45:31:836;1448060489.2;(0.40096909999847413, 0.5460730234781901);65.8896865845;0.965073960212;11:45:31:844;0;4;-1.5;1;0;0;0;0;1;1;1;1;2;0;0;;0;0;();();(-2000.0, -2000.0);
11:45:31:860;11:45:31:836;1448060489.2;(0.40096909999847413, 0.5460730234781901);65.8896865845;0.965073960212;11:45:31:860;0;5;1.78064516129032;1;0;0;0;0;1;1;1;1;2;0;0;;0;0;();();(-2000.0, -2000.0);
11:45:31:875;11:45:31:836;1448060489.2;(0.40096909999847413, 0.5460730234781901);65.8896865845;0.965073960212;11:45:31:875;0;15;1.78064516129032;1;0;0;0;0;1;1;1;1;2;0;0;;0;0;();();(-2000.0, -2000.0);
11:45:31:894;11:45:31:836;1448060489.2;(0.40096909999847413, 0.5460730234781901);65.8896865845;0.965073960212;11:45:31:894;0;4;1.78064516129032;1;0;0;0;0;1;1;1;1;2;0;0;;0;0;();();(-2000.0, -2000.0);
11:45:31:927;11:45:31:836;1448060489.2;(0.40096909999847413, 0.5460730234781901);65.8896865845;0.965073960212;11:45:31:927;0;9;1.78064516129032;1;0;0;0;0;1;1;1;1;2;0;0;;0;0;();();(-2000.0, -2000.0);
11:45:31:944;11:45:31:836;1448060489.2;(0.40096909999847413, 0.5460730234781901);65.8896865845;0.965073960212;11:45:31:944;0;15;1.78064516129032;1;0;0;0;0;1;1;1;1;2;0;0;;0;0;();();(-2000.0, -2000.0);
11:45:31:961;11:45:31:836;1448060489.2;(0.40096909999847413, 0.5460730234781901);65.8896865845;0.965073960212;11:45:31:961;0;4;1.78064516129032;1;0;0;0;0;1;1;1;1;2;0;0;;0;0;();();(-2000.0, -2000.0);
11:45:31:978;11:45:31:974;1448060489.44;(0, 0);0;0;11:45:31:978;0;0;1.76129032258065;1;0;0;0;0;1;1;1;1;2;0;0;;0;0;();();(-2000.0, -2000.0);
11:45:31:994;11:45:31:974;1448060489.44;(0, 0);0;0;11:45:31:994;0;4;-1.5;1;0;0;0;0;1;1;1;1;2;0;0;;0;0;();();(-2000.0, -2000.0);
11:45:32:027;11:45:31:974;1448060489.44;(0, 0);0;0;11:45:32:027;0;15;1.77741935483871;1;0;0;0;0;1;1;1;1;2;0;0;;0;0;();();(-2000.0, -2000.0);
11:45:32:044;11:45:31:974;1448060489.44;(0, 0);0;0;11:45:32:044;0;0;1.78064516129032;1;0;0;0;0;1;1;1;1;2;0;0;;0;0;();();(-2000.0, -2000.0);
11:45:32:060;11:45:31:974;1448060489.44;(0, 0);0;0;11:45:32:060;0;15;1.76129032258065;1;0;0;0;0;1;1;1;1;2;0;0;;0;0;();();(-2000.0, -2000.0);
11:45:32:078;11:45:31:974;1448060489.44;(0, 0);0;0;11:45:32:078;0;9;1.78064516129032;1;0;0;0;0;1;1;1;1;2;0;0;;0;0;();();(-2000.0, -2000.0);
11:45:32:111;11:45:32:101;1448060489.46;(0.3940730571746826, 0.549576907687717);67.8346252441;0.897743744417;11:45:32:111;0;5;1.78064516129032;1;0;0;0;0;1;1;1;1;2;0;0;;0;0;();();(-2000.0, -2000.0);
11:45:32:127;11:45:32:101;1448060489.46;(0.3940730571746826, 0.549576907687717);67.8346252441;0.897743744417;11:45:32:127;0;15;1.78064516129032;1;0;0;0;0;1;1;1;1;2;0;0;;0;0;();();(-2000.0, -2000.0);
11:45:32:144;11:45:32:101;1448060489.46;(0.3940730571746826, 0.549576907687717);67.8346252441;0.897743744417;11:45:32:144;0;10;1.77741935483871;1;0;0;0;0;1;1;1;1;2;0;0;;0;0;();();(-2000.0, -2000.0);
11:45:32:161;11:45:32:101;1448060489.46;(0.3940730571746826, 0.549576907687717);67.8346252441;0.897743744417;11:45:32:161;0;15;1.78064516129032;1;0;0;0;0;1;1;1;1;2;0;0;;0;0;();();(-2000.0, -2000.0);
11:45:32:178;11:45:32:101;1448060489.46;(0.3940730571746826, 0.549576907687717);67.8346252441;0.897743744417;11:45:32:178;0;3;1.77741935483871;1;0;0;0;0;1;1;1;1;2;0;0;;0;0;();();(-2000.0, -2000.0);
11:45:32:194;11:45:32:101;1448060489.46;(0.3940730571746826, 0.549576907687717);67.8346252441;0.897743744417;11:45:32:194;0;10;1.78064516129032;1;0;0;0;0;1;1;1;1;2;0;0;;0;0;();();(-2000.0, -2000.0);
11:45:32:228;11:45:32:101;1448060489.46;(0.3940730571746826, 0.549576907687717);67.8346252441;0.897743744417;11:45:32:228;0;4;1.78064516129032;1;0;0;0;0;1;1;1;1;2;0;0;;0;0;();();(-2000.0, -2000.0);
11:45:32:244;11:45:32:233;1448060489.54;(0.3943699598312378, 0.5531478457980685);67.6555252075;0.855051342107;11:45:32:244;0;4;1.78064516129032;1;0;0;0;0;1;1;1;1;2;0;0;;0;0;();();(-2000.0, -2000.0);
11:45:32:260;11:45:32:233;1448060489.54;(0.3943699598312378, 0.5531478457980685);67.6555252075;0.855051342107;11:45:32:260;0;9;1.78064516129032;1;0;0;0;0;1;1;1;1;2;0;0;;0;0;();();(-2000.0, -2000.0);
11:45:32:278;11:45:32:233;1448060489.54;(0.3943699598312378, 0.5531478457980685);67.6555252075;0.855051342107;11:45:32:278;0;5;1.78064516129032;1;0;0;0;0;1;1;1;1;2;0;0;;0;0;();();(-2000.0, -2000.0);
11:45:32:311;11:45:32:233;1448060489.54;(0.3943699598312378, 0.5531478457980685);67.6555252075;0.855051342107;11:45:32:311;0;4;-1.5;1;0;0;0;0;1;1;1;1;2;0;0;;0;0;();();(-2000.0, -2000.0);
11:45:32:328;11:45:32:233;1448060489.54;(0.3943699598312378, 0.5531478457980685);67.6555252075;0.855051342107;11:45:32:328;0;9;-1.5;1;0;0;0;0;1;1;1;1;2;0;0;;0;0;();();(-2000.0, -2000.0);
11:45:32:345;11:45:32:233;1448060489.54;(0.3943699598312378, 0.5531478457980685);67.6555252075;0.855051342107;11:45:32:345;0;5;-1.5;1;0;0;0;0;1;1;1;1;2;0;0;;0;0;();();(-2000.0, -2000.0);
11:45:32:361;11:45:32:233;1448060489.54;(0.3943699598312378, 0.5531478457980685);67.6555252075;0.855051342107;11:45:32:361;0;5;-1.5;1;0;0;0;0;1;1;1;1;2;0;0;;0;0;();();(-2000.0, -2000.0);
11:45:32:378;11:45:32:369;1448060489.68;(0.40122160911560056, 0.5714771694607205);68.6346817017;0.869798761651;11:45:32:378;0;4;1.77741935483871;1;0;0;0;0;1;1;1;1;2;0;0;;0;0;();();(-2000.0, -2000.0);
11:45:32:394;11:45:32:369;1448060489.68;(0.40122160911560056, 0.5714771694607205);68.6346817017;0.869798761651;11:45:32:394;0;9;1.79032258064516;1;0;0;0;0;1;1;1;1;2;0;0;;0;0;();();(-2000.0, -2000.0);
11:45:32:428;11:45:32:369;1448060489.68;(0.40122160911560056, 0.5714771694607205);68.6346817017;0.869798761651;11:45:32:428;0;9;1.77741935483871;1;0;0;0;0;1;1;1;1;2;0;0;;0;0;();();(-2000.0, -2000.0);
11:45:32:444;11:45:32:369;1448060489.68;(0.40122160911560056, 0.5714771694607205);68.6346817017;0.869798761651;11:45:32:444;0;9;1.77741935483871;1;0;0;0;0;1;1;1;1;2;0;0;;0;0;();();(-2000.0, -2000.0);
11:45:32:461;11:45:32:369;1448060489.68;(0.40122160911560056, 0.5714771694607205);68.6346817017;0.869798761651;11:45:32:461;0;10;1.78064516129032;1;0;0;0;0;1;1;1;1;2;0;0;;0;0;();();(-2000.0, -2000.0);
11:45:32:478;11:45:32:369;1448060489.68;(0.40122160911560056, 0.5714771694607205);68.6346817017;0.869798761651;11:45:32:478;0;15;1.78064516129032;1;0;0;0;0;1;1;1;1;2;0;0;;0;0;();();(-2000.0, -2000.0);
11:45:32:495;11:45:32:369;1448060489.68;(0.40122160911560056, 0.5714771694607205);68.6346817017;0.869798761651;11:45:32:495;0;9;1.76129032258065;1;0;0;0;0;1;1;1;1;2;0;0;;0;0;();();(-2000.0, -2000.0);
11:45:32:527;11:45:32:501;1448060489.96;(0.4059243679046631, 0.48569077385796444);22.1658420563;0.673171458713;11:45:32:527;0;4;1.78064516129032;1;0;0;0;0;1;1;1;1;2;0;0;;0;0;();();(-2000.0, -2000.0);
11:45:32:545;11:45:32:501;1448060489.96;(0.4059243679046631, 0.48569077385796444);22.1658420563;0.673171458713;11:45:32:545;0;15;-1.5;1;0;0;0;0;1;1;1;1;2;0;0;;0;0;();();(-2000.0, -2000.0);
11:45:32:562;11:45:32:501;1448060489.96;(0.4059243679046631, 0.48569077385796444);22.1658420563;0.673171458713;11:45:32:562;0;9;-1.5;1;0;0;0;0;1;1;1;1;2;0;0;;0;0;();();(-2000.0, -2000.0);
11:45:32:578;11:45:32:565;1448060490.03;(0.6334581851959229, 0.4658921559651693);24.0186977386;0.948174477131;11:45:32:578;0;0;1.78064516129032;1;0;0;0;0;1;1;1;1;2;0;0;;0;0;();();(-2000.0, -2000.0);
11:45:32:595;11:45:32:565;1448060490.03;(0.6334581851959229, 0.4658921559651693);24.0186977386;0.948174477131;11:45:32:595;0;5;1.78064516129032;1;0;0;0;0;1;1;1;1;2;0;0;;0;0;();();(-2000.0, -2000.0);
11:45:32:628;11:45:32:565;1448060490.03;(0.6334581851959229, 0.4658921559651693);24.0186977386;0.948174477131;11:45:32:628;0;4;1.79032258064516;1;0;0;0;0;1;1;1;1;2;0;0;;0;0;();();(-2000.0, -2000.0);
11:45:32:645;11:45:32:633;1448060490.1;(0, 0);0;0;11:45:32:645;0;15;1.78064516129032;1;0;0;0;0;1;1;1;1;2;0;0;;0;0;();();(-2000.0, -2000.0);
11:45:32:661;11:45:32:633;1448060490.1;(0, 0);0;0;11:45:32:661;0;5;-1.5;1;0;0;0;0;1;1;1;1;2;0;0;;0;0;();();(-2000.0, -2000.0);
11:45:32:678;11:45:32:633;1448060490.1;(0, 0);0;0;11:45:32:678;0;10;1.78064516129032;1;0;0;0;0;1;1;1;1;2;0;0;;0;0;();();(-2000.0, -2000.0);
11:45:32:695;11:45:32:633;1448060490.1;(0, 0);0;0;11:45:32:695;0;10;1.78064516129032;1;0;0;0;0;1;1;1;1;2;0;0;;0;0;();();(-2000.0, -2000.0);
11:45:32:728;11:45:32:633;1448060490.1;(0, 0);0;0;11:45:32:728;0;5;-1.5;1;0;0;0;0;1;1;1;1;2;0;0;;0;0;();();(-2000.0, -2000.0);
11:45:32:744;11:45:32:633;1448060490.1;(0, 0);0;0;11:45:32:744;0;0;-1.5;1;0;0;0;0;1;1;1;1;2;0;0;;0;0;();();(-2000.0, -2000.0);
11:45:32:761;11:45:32:633;1448060490.1;(0, 0);0;0;11:45:32:761;0;5;-1.5;1;0;0;0;0;1;1;1;1;2;0;0;;0;0;();();(-2000.0, -2000.0);
11:45:32:778;11:45:32:764;1448060490.13;(0.3955463647842407, 0.49116787380642357);42.9124908447;0.663993521558;11:45:32:778;0;10;-1.5;1;0;0;0;0;1;1;1;1;2;0;0;;0;0;();();(-2000.0, -2000.0);
11:45:32:795;11:45:32:764;1448060490.13;(0.3955463647842407, 0.49116787380642357);42.9124908447;0.663993521558;11:45:32:795;0;4;-1.5;1;0;0;0;0;1;1;1;1;2;0;0;;0;0;();();(-2000.0, -2000.0);
11:45:32:828;11:45:32:764;1448060490.13;(0.3955463647842407, 0.49116787380642357);42.9124908447;0.663993521558;11:45:32:828;0;5;-1.5;1;0;0;0;0;1;1;1;1;2;0;0;;0;0;();();(-2000.0, -2000.0);
11:45:32:845;11:45:32:834;1448060490.29;(0.2029848575592041, 0.3572431352403429);37.930770874;0.602122427221;11:45:32:845;0;0;-1.5;1;0;0;0;0;1;1;1;1;2;0;0;;0;0;();();(-2000.0, -2000.0);
11:45:32:862;11:45:32:834;1448060490.29;(0.2029848575592041, 0.3572431352403429);37.930770874;0.602122427221;11:45:32:862;0;0;-1.5;1;0;0;0;0;1;1;1;1;2;0;0;;0;0;();();(-2000.0, -2000.0);
11:45:32:876;11:45:32:834;1448060490.29;(0.2029848575592041, 0.3572431352403429);37.930770874;0.602122427221;11:45:32:876;0;0;-1.5;1;0;0;0;0;1;1;1;1;2;0;0;;0;0;();();(-2000.0, -2000.0);
11:45:32:895;11:45:32:834;1448060490.29;(0.2029848575592041, 0.3572431352403429);37.930770874;0.602122427221;11:45:32:895;0;10;-1.5;1;0;0;0;0;1;1;1;1;2;0;0;;0;0;();();(-2000.0, -2000.0);
11:45:32:928;11:45:32:897;1448060490.3;(0.21015712022781372, 0.4404097663031684);46.0027008057;0.644414455763;11:45:32:928;0;15;-1.5;1;0;0;0;0;1;1;1;1;2;0;0;;0;0;();();(-2000.0, -2000.0);
11:45:32:945;11:45:32:897;1448060490.3;(0.21015712022781372, 0.4404097663031684);46.0027008057;0.644414455763;11:45:32:945;0;4;-1.5;1;0;0;0;0;1;1;1;1;2;0;0;;0;0;();();(-2000.0, -2000.0);
11:45:32:961;11:45:32:897;1448060490.3;(0.21015712022781372, 0.4404097663031684);46.0027008057;0.644414455763;11:45:32:961;0;15;-1.5;1;0;0;0;0;1;1;1;1;2;0;0;;0;0;();();(-2000.0, -2000.0);
11:45:32:978;11:45:32:965;1448060490.44;(0.4439666748046875, 0.48878589206271705);65.2464447021;0.933619704589;11:45:32:978;0;5;-1.5;1;0;0;0;0;1;1;1;1;2;0;0;;0;0;();();(-2000.0, -2000.0);
11:45:32:994;11:45:32:965;1448060490.44;(0.4439666748046875, 0.48878589206271705);65.2464447021;0.933619704589;11:45:32:994;0;0;-1.5;1;0;0;0;0;1;1;1;1;2;0;0;;0;0;();();(-2000.0, -2000.0);
11:45:33:028;11:45:32:965;1448060490.44;(0.4439666748046875, 0.48878589206271705);65.2464447021;0.933619704589;11:45:33:028;0;15;-1.5;1;0;0;0;0;1;1;1;1;2;0;0;;0;0;();();(-2000.0, -2000.0);
11:45:33:044;11:45:33:030;1448060490.5;(0.4436976432800293, 0.49111429850260413);66.1530380249;1.0;11:45:33:044;0;15;-1.5;1;0;0;0;0;1;1;1;1;2;0;0;;0;0;();();(-2000.0, -2000.0);
11:45:33:062;11:45:33:030;1448060490.5;(0.4436976432800293, 0.49111429850260413);66.1530380249;1.0;11:45:33:062;0;15;-1.5;1;0;0;0;0;1;1;1;1;2;0;0;;0;0;();();(-2000.0, -2000.0);
11:45:33:078;11:45:33:030;1448060490.5;(0.4436976432800293, 0.49111429850260413);66.1530380249;1.0;11:45:33:078;0;4;-1.5;1;0;0;0;0;1;1;1;1;2;0;0;;0;0;();();(-2000.0, -2000.0);
11:45:33:095;11:45:33:030;1448060490.5;(0.4436976432800293, 0.49111429850260413);66.1530380249;1.0;11:45:33:095;0;15;-1.5;1;0;0;0;0;1;1;1;1;2;0;0;;0;0;();();(-2000.0, -2000.0);
11:45:33:128;11:45:33:097;1448060490.57;(0.4451319217681885, 0.4932953304714627);66.4776306152;0.92552749733;11:45:33:128;0;9;-1.5;1;0;0;0;0;1;1;1;1;2;0;0;;0;0;();();(-2000.0, -2000.0);
11:45:33:145;11:45:33:097;1448060490.57;(0.4451319217681885, 0.4932953304714627);66.4776306152;0.92552749733;11:45:33:145;0;5;-1.5;1;0;0;0;0;1;1;1;1;2;0;0;;0;0;();();(-2000.0, -2000.0);
11:45:33:161;11:45:33:097;1448060490.57;(0.4451319217681885, 0.4932953304714627);66.4776306152;0.92552749733;11:45:33:161;0;10;-1.5;1;0;0;0;0;1;1;1;1;2;0;0;;0;0;();();(-2000.0, -2000.0);
11:45:33:182;11:45:33:165;1448060490.63;(0.44664664268493653, 0.49286397298177087);66.919670105;0.99665550841;11:45:33:182;0;15;-1.5;1;0;0;0;0;1;1;1;1;4;0;0;;0;0;();();(-2000.0, -2000.0);
11:45:33:195;11:45:33:165;1448060490.63;(0.44664664268493653, 0.49286397298177087);66.919670105;0.99665550841;11:45:33:195;0;9;0.229032258064516;1;0;0;0;0;1;1;1;1;4;0;0;;0;0;();();(-2000.0, -2000.0);
11:45:33:230;11:45:33:228;1448060490.66;(0.2622349977493286, 0.5685447269015842);20.2262268066;0.863130157726;11:45:33:230;0;14;-1.5;1;0;0;0;0;1;1;1;1;4;0;0;;0;0;();();(-2000.0, -2000.0);
11:45:33:245;11:45:33:228;1448060490.66;(0.2622349977493286, 0.5685447269015842);20.2262268066;0.863130157726;11:45:33:245;0;5;-1.5;1;0;0;0;0;1;1;1;1;4;0;0;;0;0;();();(-2000.0, -2000.0);
11:45:33:262;11:45:33:228;1448060490.66;(0.2622349977493286, 0.5685447269015842);20.2262268066;0.863130157726;11:45:33:262;0;10;-1.5;1;0;0;0;0;1;1;1;1;4;0;0;;0;0;();();(-2000.0, -2000.0);
11:45:33:278;11:45:33:228;1448060490.66;(0.2622349977493286, 0.5685447269015842);20.2262268066;0.863130157726;11:45:33:278;0;15;1.11935483870968;1;0;0;0;0;1;1;1;1;4;0;0;;0;0;();();(-2000.0, -2000.0);
11:45:33:295;11:45:33:228;1448060490.66;(0.2622349977493286, 0.5685447269015842);20.2262268066;0.863130157726;11:45:33:295;0;5;-0.470967741935484;1;0;0;0;0;1;1;1;1;4;0;0;;0;0;();();(-2000.0, -2000.0);
11:45:33:329;11:45:33:228;1448060490.66;(0.2622349977493286, 0.5685447269015842);20.2262268066;0.863130157726;11:45:33:329;0;4;1.77741935483871;1;0;0;0;0;1;1;1;1;4;0;0;;0;0;();();(-2000.0, -2000.0);
11:45:33:345;11:45:33:228;1448060490.66;(0.2622349977493286, 0.5685447269015842);20.2262268066;0.863130157726;11:45:33:345;0;15;1.77741935483871;1;0;0;0;0;1;1;1;1;4;0;0;;0;0;();();(-2000.0, -2000.0);
11:45:33:362;11:45:33:361;1448060490.8;(0, 0);0;0;11:45:33:362;0;9;1.78064516129032;1;0;0;0;0;1;1;1;1;4;0;0;;0;0;();();(-2000.0, -2000.0);
11:45:33:379;11:45:33:361;1448060490.8;(0, 0);0;0;11:45:33:379;0;0;-1.5;1;0;0;0;0;1;1;1;1;4;0;0;;0;0;();();(-2000.0, -2000.0);
11:45:33:395;11:45:33:361;1448060490.8;(0, 0);0;0;11:45:33:395;0;10;-0.206451612903226;1;0;0;0;0;1;1;1;1;4;0;0;;0;0;();();(-2000.0, -2000.0);
11:45:33:429;11:45:33:429;1448060490.88;(0.4436520576477051, 0.4978751288519965);67.850227356;0.803758640926;11:45:33:429;0;15;1.70322580645161;1;0;0;0;0;1;1;1;1;4;0;0;;0;0;();();(-2000.0, -2000.0);
11:45:33:445;11:45:33:429;1448060490.9;(0.4430588722229004, 0.4968020545111762);67.7166137695;0.959667455394;11:45:33:445;0;15;-1.5;1;0;0;0;0;1;1;1;1;4;0;0;;0;0;();();(-2000.0, -2000.0);
11:45:33:461;11:45:33:429;1448060490.9;(0.4430588722229004, 0.4968020545111762);67.7166137695;0.959667455394;11:45:33:461;0;5;-1.5;1;0;0;0;0;1;1;1;1;4;0;0;;0;0;();();(-2000.0, -2000.0);
11:45:33:478;11:45:33:429;1448060490.9;(0.4430588722229004, 0.4968020545111762);67.7166137695;0.959667455394;11:45:33:478;0;0;-1.5;1;0;0;0;0;1;1;1;1;4;0;0;;0;0;();();(-2000.0, -2000.0);
11:45:33:495;11:45:33:429;1448060490.9;(0.4430588722229004, 0.4968020545111762);67.7166137695;0.959667455394;11:45:33:495;0;4;-1.5;1;0;0;0;0;1;1;1;1;4;0;0;;0;0;();();(-2000.0, -2000.0);
11:45:33:528;11:45:33:496;1448060490.93;(0.436398983001709, 0.49583981831868484);68.0100860596;0.848648058242;11:45:33:528;0;9;-1.5;1;0;0;0;0;1;1;1;1;4;0;0;;0;0;();();(-2000.0, -2000.0);
11:45:33:545;11:45:33:496;1448060490.93;(0.436398983001709, 0.49583981831868484);68.0100860596;0.848648058242;11:45:33:545;0;10;1.78064516129032;1;0;0;0;0;1;1;1;1;4;0;0;;0;0;();();(-2000.0, -2000.0);
11:45:33:562;11:45:33:496;1448060490.93;(0.436398983001709, 0.49583981831868484);68.0100860596;0.848648058242;11:45:33:562;0;5;1.76129032258065;1;0;0;0;0;1;1;1;1;4;0;0;;0;0;();();(-2000.0, -2000.0);
11:45:33:579;11:45:33:496;1448060490.93;(0.436398983001709, 0.49583981831868484);68.0100860596;0.848648058242;11:45:33:579;0;10;1.79032258064516;1;0;0;0;0;1;1;1;1;4;0;0;;0;0;();();(-2000.0, -2000.0);
11:45:33:595;11:45:33:496;1448060490.93;(0.436398983001709, 0.49583981831868484);68.0100860596;0.848648058242;11:45:33:595;0;14;1.76129032258065;1;0;0;0;0;1;1;1;1;4;0;0;;0;0;();();(-2000.0, -2000.0);
11:45:33:629;11:45:33:496;1448060490.93;(0.436398983001709, 0.49583981831868484);68.0100860596;0.848648058242;11:45:33:629;0;15;1.79032258064516;1;0;0;0;0;1;1;1;1;4;0;0;;0;0;();();(-2000.0, -2000.0);
11:45:33:645;11:45:33:629;1448060490.97;(0.4355955123901367, 0.4960660722520617);67.7851104736;1.0;11:45:33:645;0;10;1.79032258064516;1;0;0;0;0;1;1;1;1;4;0;0;;0;0;();();(-2000.0, -2000.0);
11:45:33:661;11:45:33:629;1448060490.97;(0.4355955123901367, 0.4960660722520617);67.7851104736;1.0;11:45:33:661;0;10;1.79032258064516;1;0;0;0;0;1;1;1;1;4;0;0;;0;0;();();(-2000.0, -2000.0);
11:45:33:679;11:45:33:629;1448060490.97;(0.4355955123901367, 0.4960660722520617);67.7851104736;1.0;11:45:33:679;0;9;1.78064516129032;1;0;0;0;0;1;1;1;1;4;0;0;;0;0;();();(-2000.0, -2000.0);
11:45:33:696;11:45:33:629;1448060490.97;(0.4355955123901367, 0.4960660722520617);67.7851104736;1.0;11:45:33:696;0;4;1.78064516129032;1;0;0;0;0;1;1;1;1;4;0;0;;0;0;();();(-2000.0, -2000.0);
11:45:33:729;11:45:33:629;1448060490.97;(0.4355955123901367, 0.4960660722520617);67.7851104736;1.0;11:45:33:729;0;15;1.77741935483871;1;0;0;0;0;1;1;1;1;4;0;0;;0;0;();();(-2000.0, -2000.0);
11:45:33:746;11:45:33:629;1448060490.97;(0.4355955123901367, 0.4960660722520617);67.7851104736;1.0;11:45:33:746;0;4;1.77741935483871;1;0;0;0;0;1;1;1;1;4;0;0;;0;0;();();(-2000.0, -2000.0);
11:45:33:760;11:45:33:629;1448060490.97;(0.4355955123901367, 0.4960660722520617);67.7851104736;1.0;11:45:33:760;0;4;1.77741935483871;1;0;0;0;0;1;1;1;1;4;0;0;;0;0;();();(-2000.0, -2000.0);
11:45:33:779;11:45:33:629;1448060490.97;(0.4355955123901367, 0.4960660722520617);67.7851104736;1.0;11:45:33:779;0;5;1.78064516129032;1;0;0;0;0;1;1;1;1;4;0;0;;0;0;();();(-2000.0, -2000.0);
11:45:33:796;11:45:33:629;1448060490.97;(0.4355955123901367, 0.4960660722520617);67.7851104736;1.0;11:45:33:796;0;0;-1.5;1;0;0;0;0;1;1;1;1;4;0;0;;0;0;();();(-2000.0, -2000.0);
11:45:33:828;11:45:33:828;1448060491.1;(0.4333221197128296, 0.4928606669108073);67.9163208008;1.0;11:45:33:828;0;0;-1.5;1;0;0;0;0;1;1;1;1;4;0;0;;0;0;();();(-2000.0, -2000.0);
11:45:33:846;11:45:33:828;1448060491.1;(0.4333221197128296, 0.4928606669108073);67.9163208008;1.0;11:45:33:846;0;4;-1.5;1;0;0;0;0;1;1;1;1;4;0;0;;0;0;();();(-2000.0, -2000.0);
11:45:33:862;11:45:33:828;1448060491.1;(0.4333221197128296, 0.4928606669108073);67.9163208008;1.0;11:45:33:862;0;10;-1.5;1;0;0;0;0;1;1;1;1;4;0;0;;0;0;();();(-2000.0, -2000.0);
11:45:33:879;11:45:33:828;1448060491.1;(0.4333221197128296, 0.4928606669108073);67.9163208008;1.0;11:45:33:879;0;10;-1.5;1;0;0;0;0;1;1;1;1;4;0;0;;0;0;();();(-2000.0, -2000.0);
11:45:33:895;11:45:33:828;1448060491.1;(0.4333221197128296, 0.4928606669108073);67.9163208008;1.0;11:45:33:895;0;15;1.76129032258065;1;0;0;0;0;1;1;1;1;4;0;0;;0;0;();();(-2000.0, -2000.0);
11:45:33:929;11:45:33:828;1448060491.1;(0.4333221197128296, 0.4928606669108073);67.9163208008;1.0;11:45:33:929;0;9;1.79032258064516;1;0;0;0;0;1;1;1;1;4;0;0;;0;0;();();(-2000.0, -2000.0);
11:45:33:946;11:45:33:828;1448060491.1;(0.4333221197128296, 0.4928606669108073);67.9163208008;1.0;11:45:33:946;0;5;1.76129032258065;1;0;0;0;0;1;1;1;1;4;0;0;;0;0;();();(-2000.0, -2000.0);
11:45:33:962;11:45:33:960;1448060491.3;(0.46192426681518556, 0.498241212632921);67.2495040894;0.909876603;11:45:33:962;0;10;1.78064516129032;1;0;0;0;0;1;1;1;1;4;0;0;;0;0;();();(-2000.0, -2000.0);
11:45:33:978;11:45:33:960;1448060491.3;(0.46192426681518556, 0.498241212632921);67.2495040894;0.909876603;11:45:33:978;0;15;0.461290322580645;1;0;0;0;0;1;1;1;1;4;0;0;;0;0;();();(-2000.0, -2000.0);
11:45:33:996;11:45:33:960;1448060491.3;(0.46192426681518556, 0.498241212632921);67.2495040894;0.909876603;11:45:33:996;0;15;0.461290322580645;1;0;0;0;0;1;1;1;1;4;0;0;;0;0;();();(-2000.0, -2000.0);
11:45:34:029;11:45:34:025;1448060491.5;(0.46044120788574217, 0.49838095770941837);68.2930603027;1.0;11:45:34:029;0;10;1.78064516129032;1;0;0;0;0;1;1;1;1;4;0;0;;0;0;();();(-2000.0, -2000.0);
11:45:34:046;11:45:34:025;1448060491.5;(0.46044120788574217, 0.49838095770941837);68.2930603027;1.0;11:45:34:046;0;15;1.78064516129032;1;0;0;0;0;1;1;1;1;4;0;0;;0;0;();();(-2000.0, -2000.0);
11:45:34:063;11:45:34:025;1448060491.5;(0.46044120788574217, 0.49838095770941837);68.2930603027;1.0;11:45:34:063;0;10;1.77741935483871;1;0;0;0;0;1;1;1;1;4;0;0;;0;0;();();(-2000.0, -2000.0);
11:45:34:079;11:45:34:025;1448060491.5;(0.46044120788574217, 0.49838095770941837);68.2930603027;1.0;11:45:34:079;0;4;-1.49677419354839;1;0;0;0;0;1;1;1;1;4;0;0;;0;0;();();(-2000.0, -2000.0);
11:45:34:095;11:45:34:092;1448060491.53;(0.46057844161987305, 0.4977183024088542);68.3086090088;1.0;11:45:34:095;0;9;-1.5;1;0;0;0;0;1;1;1;1;4;0;0;;0;0;();();(-2000.0, -2000.0);
11:45:34:129;11:45:34:092;1448060491.53;(0.46057844161987305, 0.4977183024088542);68.3086090088;1.0;11:45:34:129;0;15;-1.5;1;0;0;0;0;1;1;1;1;4;0;0;;0;0;();();(-2000.0, -2000.0);
11:45:34:146;11:45:34:092;1448060491.53;(0.46057844161987305, 0.4977183024088542);68.3086090088;1.0;11:45:34:146;0;0;-1.5;1;0;0;0;0;1;1;1;1;4;0;0;;0;0;();();(-2000.0, -2000.0);
11:45:34:163;11:45:34:092;1448060491.53;(0.46057844161987305, 0.4977183024088542);68.3086090088;1.0;11:45:34:163;0;10;-1.5;1;0;0;0;0;1;1;1;1;4;0;0;;0;0;();();(-2000.0, -2000.0);
11:45:34:179;11:45:34:092;1448060491.53;(0.46057844161987305, 0.4977183024088542);68.3086090088;1.0;11:45:34:179;0;15;-1.5;1;0;0;0;0;1;1;1;1;4;0;0;;0;0;();();(-2000.0, -2000.0);
11:45:34:196;11:45:34:092;1448060491.53;(0.46057844161987305, 0.4977183024088542);68.3086090088;1.0;11:45:34:196;0;13;-1.5;1;0;0;0;0;1;1;1;1;4;0;0;;0;0;();();(-2000.0, -2000.0);
11:45:34:230;11:45:34:228;1448060491.7;(0.416166877746582, 0.43787570529513886);25.4468593597;0.769575703397;11:45:34:230;0;10;-1.5;1;0;0;0;0;1;1;1;1;4;0;0;;0;0;();();(-2000.0, -2000.0);
11:45:34:247;11:45:34:228;1448060491.7;(0.416166877746582, 0.43787570529513886);25.4468593597;0.769575703397;11:45:34:247;0;4;-1.5;1;0;0;0;0;1;1;1;1;4;0;0;;0;0;();();(-2000.0, -2000.0);
11:45:34:263;11:45:34:228;1448060491.7;(0.416166877746582, 0.43787570529513886);25.4468593597;0.769575703397;11:45:34:263;0;15;-1.5;1;0;0;0;0;1;1;1;1;4;0;0;;0;0;();();(-2000.0, -2000.0);
11:45:34:279;11:45:34:228;1448060491.7;(0.416166877746582, 0.43787570529513886);25.4468593597;0.769575703397;11:45:34:279;0;15;-1.5;1;0;0;0;0;1;1;1;1;4;0;0;;0;0;();();(-2000.0, -2000.0);
11:45:34:296;11:45:34:292;1448060491.77;(0.4307439088821411, 0.5041311475965712);70.3102416992;0.913863484514;11:45:34:296;0;10;-1.5;1;0;0;0;0;1;1;1;1;4;0;0;;0;0;();();(-2000.0, -2000.0);
11:45:34:329;11:45:34:292;1448060491.77;(0.4307439088821411, 0.5041311475965712);70.3102416992;0.913863484514;11:45:34:329;0;15;-1.5;1;0;0;0;0;1;1;1;1;4;0;0;;0;0;();();(-2000.0, -2000.0);
11:45:34:346;11:45:34:292;1448060491.77;(0.4307439088821411, 0.5041311475965712);70.3102416992;0.913863484514;11:45:34:346;0;9;-1.5;1;0;0;0;0;1;1;1;1;4;0;0;;0;0;();();(-2000.0, -2000.0);
11:45:34:363;11:45:34:357;1448060491.83;(0.4311091184616089, 0.503474129570855);70.0541610718;0.998207029967;11:45:34:363;0;15;-1.5;1;0;0;0;0;1;1;1;1;4;0;0;;0;0;();();(-2000.0, -2000.0);
11:45:34:380;11:45:34:357;1448060491.83;(0.4311091184616089, 0.503474129570855);70.0541610718;0.998207029967;11:45:34:380;0;10;-1.5;1;0;0;0;0;1;1;1;1;4;0;0;;0;0;();();(-2000.0, -2000.0);
11:45:34:396;11:45:34:357;1448060491.83;(0.4311091184616089, 0.503474129570855);70.0541610718;0.998207029967;11:45:34:396;0;15;-1.5;1;0;0;0;0;1;1;1;1;4;0;0;;0;0;();();(-2000.0, -2000.0);
11:45:34:430;11:45:34:357;1448060491.83;(0.4311091184616089, 0.503474129570855);70.0541610718;0.998207029967;11:45:34:430;0;5;-1.5;1;0;0;0;0;1;1;1;1;4;0;0;;0;0;();();(-2000.0, -2000.0);
11:45:34:446;11:45:34:357;1448060491.83;(0.4311091184616089, 0.503474129570855);70.0541610718;0.998207029967;11:45:34:446;0;10;-1.5;1;0;0;0;0;1;1;1;1;4;0;0;;0;0;();();(-2000.0, -2000.0);
11:45:34:463;11:45:34:357;1448060491.83;(0.4311091184616089, 0.503474129570855);70.0541610718;0.998207029967;11:45:34:463;0;15;-1.5;1;0;0;0;0;1;1;1;1;4;0;0;;0;0;();();(-2000.0, -2000.0);
11:45:34:480;11:45:34:357;1448060491.83;(0.4311091184616089, 0.503474129570855);70.0541610718;0.998207029967;11:45:34:480;0;4;-1.5;1;0;0;0;0;1;1;1;1;4;0;0;;0;0;();();(-2000.0, -2000.0);
11:45:34:496;11:45:34:493;1448060491.95;(0.4102253675460815, 0.4457391950819227);19.943655014;0.943951839349;11:45:34:496;0;0;-1.5;1;0;0;0;0;1;1;1;1;4;0;0;;0;0;();();(-2000.0, -2000.0);
11:45:34:530;11:45:34:493;1448060491.95;(0.4102253675460815, 0.4457391950819227);19.943655014;0.943951839349;11:45:34:530;0;15;-1.5;1;0;0;0;0;1;1;1;1;4;0;0;;0;0;();();(-2000.0, -2000.0);
11:45:34:546;11:45:34:493;1448060491.95;(0.4102253675460815, 0.4457391950819227);19.943655014;0.943951839349;11:45:34:546;0;4;-1.5;1;0;0;0;0;1;1;1;1;4;0;0;;0;0;();();(-2000.0, -2000.0);
11:45:34:563;11:45:34:493;1448060491.95;(0.4102253675460815, 0.4457391950819227);19.943655014;0.943951839349;11:45:34:563;0;10;-1.5;1;0;0;0;0;1;1;1;1;4;0;0;;0;0;();();(-2000.0, -2000.0);
11:45:34:580;11:45:34:493;1448060491.95;(0.4102253675460815, 0.4457391950819227);19.943655014;0.943951839349;11:45:34:580;0;5;-1.5;1;0;0;0;0;1;1;1;1;4;0;0;;0;0;();();(-2000.0, -2000.0);
11:45:34:596;11:45:34:493;1448060491.95;(0.4102253675460815, 0.4457391950819227);19.943655014;0.943951839349;11:45:34:596;0;15;-1.5;1;0;0;0;0;1;1;1;1;4;0;0;;0;0;();();(-2000.0, -2000.0);
11:45:34:630;11:45:34:625;1448060491.98;(0.426120662689209, 0.5303489261203342);70.7390441895;0.96097365606;11:45:34:630;0;9;-1.5;1;0;0;0;0;1;1;1;1;4;0;0;;0;0;();();(-2000.0, -2000.0);
11:45:34:646;11:45:34:640;1448060492.09;(0.41627299785614014, 0.45005247328016496);25.4957637787;0.762401414747;11:45:34:646;0;4;-1.5;1;0;0;0;0;1;1;1;1;4;0;0;;0;0;();();(-2000.0, -2000.0);
11:45:34:662;11:45:34:640;1448060492.09;(0.41627299785614014, 0.45005247328016496);25.4957637787;0.762401414747;11:45:34:662;0;9;-1.5;1;0;0;0;0;1;1;1;1;4;0;0;;0;0;();();(-2000.0, -2000.0);
11:45:34:679;11:45:34:640;1448060492.09;(0.41627299785614014, 0.45005247328016496);25.4957637787;0.762401414747;11:45:34:679;0;5;1.78064516129032;1;0;0;0;0;1;1;1;1;4;0;0;;0;0;();();(-2000.0, -2000.0);
11:45:34:696;11:45:34:640;1448060492.09;(0.41627299785614014, 0.45005247328016496);25.4957637787;0.762401414747;11:45:34:696;0;10;1.78064516129032;1;0;0;0;0;1;1;1;1;4;0;0;;0;0;();();(-2000.0, -2000.0);
11:45:34:729;11:45:34:640;1448060492.09;(0.41627299785614014, 0.45005247328016496);25.4957637787;0.762401414747;11:45:34:729;0;9;1.77741935483871;1;0;0;0;0;1;1;1;1;4;0;0;;0;0;();();(-2000.0, -2000.0);
11:45:34:747;11:45:34:640;1448060492.09;(0.41627299785614014, 0.45005247328016496);25.4957637787;0.762401414747;11:45:34:747;0;4;1.78064516129032;1;0;0;0;0;1;1;1;1;4;0;0;;0;0;();();(-2000.0, -2000.0);
11:45:34:763;11:45:34:757;1448060492.11;(0.43210501670837403, 0.5357195536295574);70.4542999268;0.93151604518;11:45:34:763;0;10;1.78064516129032;1;0;0;0;0;1;1;1;1;4;0;0;;0;0;();();(-2000.0, -2000.0);
11:45:34:780;11:45:34:757;1448060492.11;(0.43210501670837403, 0.5357195536295574);70.4542999268;0.93151604518;11:45:34:780;0;4;1.78064516129032;1;0;0;0;0;1;1;1;1;4;0;0;;0;0;();();(-2000.0, -2000.0);
11:45:34:797;11:45:34:757;1448060492.11;(0.43210501670837403, 0.5357195536295574);70.4542999268;0.93151604518;11:45:34:797;0;9;1.78064516129032;1;0;0;0;0;1;1;1;1;4;0;0;;0;0;();();(-2000.0, -2000.0);
11:45:34:830;11:45:34:826;1448060492.3;(0.4182992458343506, 0.4020802391899957);23.4320831299;0.839405655584;11:45:34:830;0;10;1.77741935483871;1;0;0;0;0;1;1;1;1;4;0;0;;0;0;();();(-2000.0, -2000.0);
11:45:34:847;11:45:34:826;1448060492.3;(0.4182992458343506, 0.4020802391899957);23.4320831299;0.839405655584;11:45:34:847;0;15;1.76129032258065;1;0;0;0;0;1;1;1;1;4;0;0;;0;0;();();(-2000.0, -2000.0);
11:45:34:863;11:45:34:826;1448060492.3;(0.4182992458343506, 0.4020802391899957);23.4320831299;0.839405655584;11:45:34:863;0;10;1.78064516129032;1;0;0;0;0;1;1;1;1;4;0;0;;0;0;();();(-2000.0, -2000.0);
11:45:34:880;11:45:34:826;1448060492.3;(0.4182992458343506, 0.4020802391899957);23.4320831299;0.839405655584;11:45:34:880;0;15;1.78064516129032;1;0;0;0;0;1;1;1;1;4;0;0;;0;0;();();(-2000.0, -2000.0);
11:45:34:897;11:45:34:889;1448060492.37;(0, 0);0;0;11:45:34:897;0;15;1.78064516129032;1;0;0;0;0;1;1;1;1;4;0;0;;0;0;();();(-2000.0, -2000.0);
11:45:34:930;11:45:34:889;1448060492.37;(0, 0);0;0;11:45:34:930;0;4;1.78064516129032;1;0;0;0;0;1;1;1;1;4;0;0;;0;0;();();(-2000.0, -2000.0);
11:45:34:947;11:45:34:889;1448060492.37;(0, 0);0;0;11:45:34:947;0;4;1.78064516129032;1;0;0;0;0;1;1;1;1;4;0;0;;0;0;();();(-2000.0, -2000.0);
11:45:34:963;11:45:34:957;1448060492.43;(0.43336782455444334, 0.449255625406901);69.9479675293;0.834467086823;11:45:34:963;0;9;1.78064516129032;1;0;0;0;0;1;1;1;1;4;0;0;;0;0;();();(-2000.0, -2000.0);
11:45:34:980;11:45:34:957;1448060492.43;(0.43336782455444334, 0.449255625406901);69.9479675293;0.834467086823;11:45:34:980;0;0;1.77741935483871;1;0;0;0;0;1;1;1;1;4;0;0;;0;0;();();(-2000.0, -2000.0);
11:45:34:997;11:45:34:957;1448060492.43;(0.43336782455444334, 0.449255625406901);69.9479675293;0.834467086823;11:45:34:997;0;4;1.77741935483871;1;0;0;0;0;1;1;1;1;4;0;0;;0;0;();();(-2000.0, -2000.0);
11:45:35:029;11:45:35:021;1448060492.5;(0.4344950675964355, 0.4488915761311849);70.105140686;0.997892444925;11:45:35:029;0;4;-1.5;1;0;0;0;0;1;1;1;1;4;0;0;;0;0;();();(-2000.0, -2000.0);
11:45:35:046;11:45:35:021;1448060492.5;(0.4344950675964355, 0.4488915761311849);70.105140686;0.997892444925;11:45:35:046;0;15;1.77741935483871;1;0;0;0;0;1;1;1;1;4;0;0;;0;0;();();(-2000.0, -2000.0);
11:45:35:063;11:45:35:021;1448060492.5;(0.4344950675964355, 0.4488915761311849);70.105140686;0.997892444925;11:45:35:063;0;5;1.77741935483871;1;0;0;0;0;1;1;1;1;4;0;0;;0;0;();();(-2000.0, -2000.0);
11:45:35:080;11:45:35:021;1448060492.5;(0.4344950675964355, 0.4488915761311849);70.105140686;0.997892444925;11:45:35:080;0;10;1.78064516129032;1;0;0;0;0;1;1;1;1;4;0;0;;0;0;();();(-2000.0, -2000.0);
11:45:35:096;11:45:35:089;1448060492.56;(0.4357585430145264, 0.44845258924696185);70.2294692993;0.946660676001;11:45:35:096;0;4;1.78064516129032;1;0;0;0;0;1;1;1;1;4;0;0;;0;0;();();(-2000.0, -2000.0);
11:45:35:114;11:45:35:089;1448060492.56;(0.4357585430145264, 0.44845258924696185);70.2294692993;0.946660676001;11:45:35:114;0;4;1.78064516129032;1;0;0;0;0;1;1;1;1;4;0;0;;0;0;();();(-2000.0, -2000.0);
11:45:35:147;11:45:35:089;1448060492.56;(0.4357585430145264, 0.44845258924696185);70.2294692993;0.946660676001;11:45:35:147;0;9;-1.5;1;0;0;0;0;1;1;1;1;4;0;0;;0;0;();();(-2000.0, -2000.0);
11:45:35:164;11:45:35:157;1448060492.63;(0, 0);0;0;11:45:35:164;0;15;-1.5;1;0;0;0;0;1;1;1;1;4;0;0;;0;0;();();(-2000.0, -2000.0);
11:45:35:180;11:45:35:157;1448060492.63;(0, 0);0;0;11:45:35:180;0;9;-1.5;1;0;0;0;0;1;1;1;1;4;0;0;;0;0;();();(-2000.0, -2000.0);
11:45:35:197;11:45:35:157;1448060492.63;(0, 0);0;0;11:45:35:197;0;15;-1.5;1;0;0;0;0;1;1;1;1;4;0;0;;0;0;();();(-2000.0, -2000.0);
11:45:35:230;11:45:35:221;1448060492.66;(0, 0);0;0;11:45:35:230;0;0;-1.5;1;0;0;0;0;1;1;1;1;4;0;0;;0;0;();();(-2000.0, -2000.0);
11:45:35:247;11:45:35:221;1448060492.66;(0, 0);0;0;11:45:35:247;0;10;0.538709677419355;1;0;0;0;0;1;1;1;1;4;0;0;;0;0;();();(-2000.0, -2000.0);
11:45:35:263;11:45:35:221;1448060492.66;(0, 0);0;0;11:45:35:263;0;15;1.77741935483871;1;0;0;0;0;1;1;1;1;4;0;0;;0;0;();();(-2000.0, -2000.0);
11:45:35:280;11:45:35:221;1448060492.66;(0, 0);0;0;11:45:35:280;0;4;1.76129032258065;1;0;0;0;0;1;1;1;1;4;0;0;;0;0;();();(-2000.0, -2000.0);
11:45:35:296;11:45:35:290;1448060492.77;(0.31196491718292235, 0.35140232510036895);20.858587265;0.651142104439;11:45:35:296;0;0;1.78064516129032;1;0;0;0;0;1;1;1;1;4;0;0;;0;0;();();(-2000.0, -2000.0);
11:45:35:314;11:45:35:290;1448060492.77;(0.31196491718292235, 0.35140232510036895);20.858587265;0.651142104439;11:45:35:314;0;10;1.77741935483871;1;0;0;0;0;1;1;1;1;4;0;0;;0;0;();();(-2000.0, -2000.0);
11:45:35:347;11:45:35:290;1448060492.77;(0.31196491718292235, 0.35140232510036895);20.858587265;0.651142104439;11:45:35:347;0;4;-1.5;1;0;0;0;0;1;1;1;1;4;0;0;;0;0;();();(-2000.0, -2000.0);
11:45:35:364;11:45:35:355;1448060492.83;(0.43170890808105467, 0.3742039150661892);24.582233429;0.849986984281;11:45:35:364;0;15;-1.5;1;0;0;0;0;1;1;1;1;4;0;0;;0;0;();();(-2000.0, -2000.0);
11:45:35:380;11:45:35:355;1448060492.83;(0.43170890808105467, 0.3742039150661892);24.582233429;0.849986984281;11:45:35:380;0;5;1.78064516129032;1;0;0;0;0;1;1;1;1;4;0;0;;0;0;();();(-2000.0, -2000.0);
11:45:35:396;11:45:35:355;1448060492.83;(0.43170890808105467, 0.3742039150661892);24.582233429;0.849986984281;11:45:35:396;0;0;1.78064516129032;1;0;0;0;0;1;1;1;1;4;0;0;;0;0;();();(-2000.0, -2000.0);
11:45:35:414;11:45:35:355;1448060492.83;(0.43170890808105467, 0.3742039150661892);24.582233429;0.849986984281;11:45:35:414;0;10;1.78064516129032;1;0;0;0;0;1;1;1;1;4;0;0;;0;0;();();(-2000.0, -2000.0);
11:45:35:447;11:45:35:421;1448060492.87;(0.4268861532211304, 0.37470902336968315);19.7183227539;0.926984784713;11:45:35:447;0;4;1.78064516129032;1;0;0;0;0;1;1;1;1;4;0;0;;0;0;();();(-2000.0, -2000.0);
11:45:35:464;11:45:35:421;1448060492.87;(0.4268861532211304, 0.37470902336968315);19.7183227539;0.926984784713;11:45:35:464;0;0;1.79032258064516;1;0;0;0;0;1;1;1;1;4;0;0;;0;0;();();(-2000.0, -2000.0);
11:45:35:480;11:45:35:421;1448060492.87;(0.4268861532211304, 0.37470902336968315);19.7183227539;0.926984784713;11:45:35:480;0;15;-1.5;1;0;0;0;0;1;1;1;1;4;0;0;;0;0;();();(-2000.0, -2000.0);
11:45:35:497;11:45:35:484;1448060492.92;(0.42708611488342285, 0.37637926737467453);20.5904045105;0.806073725838;11:45:35:497;0;9;-1.5;1;0;0;0;0;1;1;1;1;4;0;0;;0;0;();();(-2000.0, -2000.0);
11:45:35:514;11:45:35:484;1448060492.92;(0.42708611488342285, 0.37637926737467453);20.5904045105;0.806073725838;11:45:35:514;0;4;-1.5;1;0;0;0;0;1;1;1;1;4;0;0;;0;0;();();(-2000.0, -2000.0);
11:45:35:547;11:45:35:484;1448060492.92;(0.42708611488342285, 0.37637926737467453);20.5904045105;0.806073725838;11:45:35:547;0;15;-1.5;1;0;0;0;0;1;1;1;1;4;0;0;;0;0;();();(-2000.0, -2000.0);
11:45:35:566;11:45:35:558;1448060492.93;(0.23154621124267577, 0.3407222747802734);53.1659507751;0.665521421837;11:45:35:566;0;10;-1.5;1;0;0;0;0;1;1;1;1;4;0;0;;0;0;();();(-2000.0, -2000.0);
11:45:35:580;11:45:35:558;1448060492.93;(0.23154621124267577, 0.3407222747802734);53.1659507751;0.665521421837;11:45:35:580;0;4;-1.5;1;0;0;0;0;1;1;1;1;4;0;0;;0;0;();();(-2000.0, -2000.0);
11:45:35:597;11:45:35:558;1448060492.93;(0.23154621124267577, 0.3407222747802734);53.1659507751;0.665521421837;11:45:35:597;0;4;1.78064516129032;1;0;0;0;0;1;1;1;1;4;0;0;;0;0;();();(-2000.0, -2000.0);
11:45:35:614;11:45:35:558;1448060492.93;(0.23154621124267577, 0.3407222747802734);53.1659507751;0.665521421837;11:45:35:614;0;15;1.77741935483871;1;0;0;0;0;1;1;1;1;4;0;0;;0;0;();();(-2000.0, -2000.0);
11:45:35:647;11:45:35:621;1448060493.07;(0.42933776378631594, 0.3817559136284723);23.5190544128;0.756887579332;11:45:35:647;0;15;1.78064516129032;1;0;0;0;0;1;1;1;1;4;0;0;;0;0;();();(-2000.0, -2000.0);
11:45:35:664;11:45:35:621;1448060493.07;(0.42933776378631594, 0.3817559136284723);23.5190544128;0.756887579332;11:45:35:664;0;4;-1.5;1;0;0;0;0;1;1;1;1;4;0;0;;0;0;();();(-2000.0, -2000.0);
11:45:35:681;11:45:35:621;1448060493.07;(0.42933776378631594, 0.3817559136284723);23.5190544128;0.756887579332;11:45:35:681;0;15;-1.5;1;0;0;0;0;1;1;1;1;4;0;0;;0;0;();();(-2000.0, -2000.0);
11:45:35:697;11:45:35:621;1448060493.07;(0.42933776378631594, 0.3817559136284723);23.5190544128;0.756887579332;11:45:35:697;0;5;-1.5;1;0;0;0;0;1;1;1;1;4;0;0;;0;0;();();(-2000.0, -2000.0);
11:45:35:714;11:45:35:621;1448060493.07;(0.42933776378631594, 0.3817559136284723);23.5190544128;0.756887579332;11:45:35:714;0;15;-1.5;1;0;0;0;0;1;1;1;1;4;0;0;;0;0;();();(-2000.0, -2000.0);
11:45:35:747;11:45:35:621;1448060493.07;(0.42933776378631594, 0.3817559136284723);23.5190544128;0.756887579332;11:45:35:747;0;8;1.78064516129032;1;0;0;0;0;1;1;1;1;4;0;0;;0;0;();();(-2000.0, -2000.0);
11:45:35:764;11:45:35:753;1448060493.1;(0.4291581630706787, 0.3827793545193142);23.824338913;0.778368573771;11:45:35:764;0;9;1.78064516129032;1;0;0;0;0;1;1;1;1;4;0;0;;0;0;();();(-2000.0, -2000.0);
11:45:35:781;11:45:35:753;1448060493.1;(0.4291581630706787, 0.3827793545193142);23.824338913;0.778368573771;11:45:35:781;0;0;1.77741935483871;1;0;0;0;0;1;1;1;1;4;0;0;;0;0;();();(-2000.0, -2000.0);
11:45:35:797;11:45:35:753;1448060493.1;(0.4291581630706787, 0.3827793545193142);23.824338913;0.778368573771;11:45:35:797;0;5;1.78064516129032;1;0;0;0;0;1;1;1;1;4;0;0;;0;0;();();(-2000.0, -2000.0);
11:45:35:831;11:45:35:816;1448060493.21;(0.3847931385040283, 0.46239679124620225);31.0013637543;0.688539595719;11:45:35:831;0;4;1.77741935483871;1;0;0;0;0;1;1;1;1;4;0;0;;0;0;();();(-2000.0, -2000.0);
11:45:35:847;11:45:35:816;1448060493.21;(0.3847931385040283, 0.46239679124620225);31.0013637543;0.688539595719;11:45:35:847;0;9;-1.5;1;0;0;0;0;1;1;1;1;4;0;0;;0;0;();();(-2000.0, -2000.0);
11:45:35:864;11:45:35:816;1448060493.21;(0.3847931385040283, 0.46239679124620225);31.0013637543;0.688539595719;11:45:35:864;0;5;-1.5;1;0;0;0;0;1;1;1;1;4;0;0;;0;0;();();(-2000.0, -2000.0);
11:45:35:881;11:45:35:816;1448060493.21;(0.3847931385040283, 0.46239679124620225);31.0013637543;0.688539595719;11:45:35:880;0;10;-1.5;1;0;0;0;0;1;1;1;1;4;0;0;;0;0;();();(-2000.0, -2000.0);
11:45:35:897;11:45:35:816;1448060493.21;(0.3847931385040283, 0.46239679124620225);31.0013637543;0.688539595719;11:45:35:897;0;4;-1.5;1;0;0;0;0;1;1;1;1;4;0;0;;0;0;();();(-2000.0, -2000.0);
11:45:35:914;11:45:35:816;1448060493.21;(0.3847931385040283, 0.46239679124620225);31.0013637543;0.688539595719;11:45:35:914;0;9;-1.5;1;0;0;0;0;1;1;1;1;4;0;0;;0;0;();();(-2000.0, -2000.0);
11:45:35:948;11:45:35:816;1448060493.21;(0.3847931385040283, 0.46239679124620225);31.0013637543;0.688539595719;11:45:35:948;0;10;-1.5;1;0;0;0;0;1;1;1;1;4;0;0;;0;0;();();(-2000.0, -2000.0);
11:45:35:964;11:45:35:953;1448060493.41;(0, 0);0;0;11:45:35:964;0;15;-1.5;1;0;0;0;0;1;1;1;1;4;0;0;;0;0;();();(-2000.0, -2000.0);
11:45:35:981;11:45:35:953;1448060493.41;(0, 0);0;0;11:45:35:981;0;10;-1.5;1;0;0;0;0;1;1;1;1;4;0;0;;0;0;();();(-2000.0, -2000.0);
11:45:35:997;11:45:35:953;1448060493.41;(0, 0);0;0;11:45:35:997;0;15;-1.5;1;0;0;0;0;1;1;1;1;4;0;0;;0;0;();();(-2000.0, -2000.0);
11:45:36:031;11:45:35:953;1448060493.41;(0, 0);0;0;11:45:36:031;0;15;-1.5;1;0;0;0;0;1;1;1;1;4;0;0;;0;0;();();(-2000.0, -2000.0);
11:45:36:048;11:45:35:953;1448060493.41;(0, 0);0;0;11:45:36:048;0;4;-1.5;1;0;0;0;0;1;1;1;1;4;0;0;;0;0;();();(-2000.0, -2000.0);
11:45:36:064;11:45:35:953;1448060493.41;(0, 0);0;0;11:45:36:064;0;15;-1.5;1;0;0;0;0;1;1;1;1;4;0;0;;0;0;();();(-2000.0, -2000.0);
11:45:36:081;11:45:35:953;1448060493.41;(0, 0);0;0;11:45:36:081;0;15;-1.5;1;0;0;0;0;1;1;1;1;4;0;0;;0;0;();();(-2000.0, -2000.0);
11:45:36:097;11:45:36:084;1448060493.55;(0.44899582862854004, 0.5172294192843967);23.7463035583;0.821364787333;11:45:36:097;0;0;-1.5;1;0;0;0;0;1;1;1;1;4;0;0;;0;0;();();(-2000.0, -2000.0);
11:45:36:114;11:45:36:084;1448060493.55;(0.44899582862854004, 0.5172294192843967);23.7463035583;0.821364787333;11:45:36:114;0;5;-1.5;1;0;0;0;0;1;1;1;1;4;0;0;;0;0;();();(-2000.0, -2000.0);
11:45:36:148;11:45:36:084;1448060493.55;(0.44899582862854004, 0.5172294192843967);23.7463035583;0.821364787333;11:45:36:148;0;4;0.641935483870967;1;0;0;0;0;1;1;1;1;4;0;0;;0;0;();();(-2000.0, -2000.0);
11:45:36:164;11:45:36:084;1448060493.55;(0.44899582862854004, 0.5172294192843967);23.7463035583;0.821364787333;11:45:36:164;0;9;-0.238709677419355;1;0;0;0;0;1;1;1;1;4;0;0;;0;0;();();(-2000.0, -2000.0);
11:45:36:180;11:45:36:084;1448060493.55;(0.44899582862854004, 0.5172294192843967);23.7463035583;0.821364787333;11:45:36:180;0;5;-0.354838709677419;1;0;0;0;0;1;1;1;1;4;0;0;;0;0;();();(-2000.0, -2000.0);
11:45:36:197;11:45:36:084;1448060493.55;(0.44899582862854004, 0.5172294192843967);23.7463035583;0.821364787333;11:45:36:197;0;10;-1.5;1;0;0;0;0;1;1;1;1;4;0;0;;0;0;();();(-2000.0, -2000.0);
11:45:36:215;11:45:36:084;1448060493.55;(0.44899582862854004, 0.5172294192843967);23.7463035583;0.821364787333;11:45:36:214;0;5;-0.0806451612903225;1;0;0;0;0;1;1;1;1;4;0;0;;0;0;();();(-2000.0, -2000.0);
11:45:36:248;11:45:36:216;1448060493.57;(0.393362832069397, 0.45019387139214406);40.6731414795;0.63519645675;11:45:36:248;0;4;1.78064516129032;1;0;0;0;0;1;1;1;1;4;0;0;;0;0;();();(-2000.0, -2000.0);
11:45:36:265;11:45:36:216;1448060493.57;(0.393362832069397, 0.45019387139214406);40.6731414795;0.63519645675;11:45:36:265;0;10;1.77741935483871;1;0;0;0;0;1;1;1;1;4;0;0;;0;0;();();(-2000.0, -2000.0);
11:45:36:281;11:45:36:216;1448060493.57;(0.393362832069397, 0.45019387139214406);40.6731414795;0.63519645675;11:45:36:281;0;10;1.79032258064516;1;0;0;0;0;1;1;1;1;4;0;0;;0;0;();();(-2000.0, -2000.0);
11:45:36:297;11:45:36:284;1448060493.76;(0.43523354530334474, 0.37250989278157554);24.5594806671;0.716622168709;11:45:36:297;0;10;1.78064516129032;1;0;0;0;0;1;1;1;1;4;0;0;;0;0;();();(-2000.0, -2000.0);
11:45:36:314;11:45:36:284;1448060493.76;(0.43523354530334474, 0.37250989278157554);24.5594806671;0.716622168709;11:45:36:314;0;15;1.77741935483871;1;0;0;0;0;1;1;1;1;4;0;0;;0;0;();();(-2000.0, -2000.0);
11:45:36:348;11:45:36:284;1448060493.76;(0.43523354530334474, 0.37250989278157554);24.5594806671;0.716622168709;11:45:36:348;0;15;1.76129032258065;1;0;0;0;0;1;1;1;1;4;0;0;;0;0;();();(-2000.0, -2000.0);
11:45:36:364;11:45:36:349;1448060493.77;(0.40592763423919676, 0.47734226650661893);34.5665855408;0.667587830084;11:45:36:364;0;10;1.77741935483871;1;0;0;0;0;1;1;1;1;4;0;0;;0;0;();();(-2000.0, -2000.0);
11:45:36:381;11:45:36:349;1448060493.77;(0.40592763423919676, 0.47734226650661893);34.5665855408;0.667587830084;11:45:36:381;0;15;1.77741935483871;1;0;0;0;0;1;1;1;1;4;0;0;;0;0;();();(-2000.0, -2000.0);
11:45:36:397;11:45:36:349;1448060493.77;(0.40592763423919676, 0.47734226650661893);34.5665855408;0.667587830084;11:45:36:397;0;9;1.77741935483871;1;0;0;0;0;1;1;1;1;4;0;0;;0;0;();();(-2000.0, -2000.0);
11:45:36:415;11:45:36:349;1448060493.77;(0.40592763423919676, 0.47734226650661893);34.5665855408;0.667587830084;11:45:36:415;0;0;1.78064516129032;1;0;0;0;0;1;1;1;1;4;0;0;;0;0;();();(-2000.0, -2000.0);
11:45:36:448;11:45:36:349;1448060493.77;(0.40592763423919676, 0.47734226650661893);34.5665855408;0.667587830084;11:45:36:448;0;15;-1.5;1;0;0;0;0;1;1;1;1;4;0;0;;0;0;();();(-2000.0, -2000.0);
11:45:36:465;11:45:36:349;1448060493.77;(0.40592763423919676, 0.47734226650661893);34.5665855408;0.667587830084;11:45:36:465;0;9;-1.5;1;0;0;0;0;1;1;1;1;4;0;0;;0;0;();();(-2000.0, -2000.0);
11:45:36:482;11:45:36:482;1448060493.94;(0, 0);0;0;11:45:36:482;0;15;-1.5;1;0;0;0;0;1;1;1;1;4;0;0;;0;0;();();(-2000.0, -2000.0);
11:45:36:498;11:45:36:482;1448060493.94;(0, 0);0;0;11:45:36:498;0;5;-1.5;1;0;0;0;0;1;1;1;1;4;0;0;;0;0;();();(-2000.0, -2000.0);
11:45:36:515;11:45:36:482;1448060493.94;(0, 0);0;0;11:45:36:515;0;15;-1.5;1;0;0;0;0;1;1;1;1;4;0;0;;0;0;();();(-2000.0, -2000.0);
11:45:36:548;11:45:36:482;1448060493.94;(0, 0);0;0;11:45:36:548;0;9;-1.5;1;0;0;0;0;1;1;1;1;4;0;0;;0;0;();();(-2000.0, -2000.0);
11:45:36:565;11:45:36:548;1448060493.96;(0.4740182876586914, 0.5517688327365451);30.2921333313;0.828350294081;11:45:36:565;0;5;-1.5;1;0;0;0;0;1;1;1;1;4;0;0;;0;0;();();(-2000.0, -2000.0);
11:45:36:582;11:45:36:548;1448060493.96;(0.4740182876586914, 0.5517688327365451);30.2921333313;0.828350294081;11:45:36:582;0;15;1.77741935483871;1;0;0;0;0;1;1;1;1;4;0;0;;0;0;();();(-2000.0, -2000.0);
11:45:36:598;11:45:36:548;1448060493.96;(0.4740182876586914, 0.5517688327365451);30.2921333313;0.828350294081;11:45:36:598;0;15;1.77741935483871;1;0;0;0;0;1;1;1;1;4;0;0;;0;0;();();(-2000.0, -2000.0);
11:45:36:615;11:45:36:548;1448060493.96;(0.4740182876586914, 0.5517688327365451);30.2921333313;0.828350294081;11:45:36:615;0;15;-1.5;1;0;0;0;0;1;1;1;1;4;0;0;;0;0;();();(-2000.0, -2000.0);
11:45:36:648;11:45:36:548;1448060493.96;(0.4740182876586914, 0.5517688327365451);30.2921333313;0.828350294081;11:45:36:648;0;10;-1.5;1;0;0;0;0;1;1;1;1;4;0;0;;0;0;();();(-2000.0, -2000.0);
11:45:36:665;11:45:36:548;1448060493.96;(0.4740182876586914, 0.5517688327365451);30.2921333313;0.828350294081;11:45:36:665;0;5;1.77741935483871;1;0;0;0;0;1;1;1;1;4;0;0;;0;0;();();(-2000.0, -2000.0);
11:45:36:681;11:45:36:548;1448060493.96;(0.4740182876586914, 0.5517688327365451);30.2921333313;0.828350294081;11:45:36:681;0;10;1.78064516129032;1;0;0;0;0;1;1;1;1;4;0;0;;0;0;();();(-2000.0, -2000.0);
11:45:36:698;11:45:36:695;1448060494.12;(0.4343044519424438, 0.37379565768771705);25.4865379333;0.63149107339;11:45:36:698;0;10;1.78064516129032;1;0;0;0;0;1;1;1;1;4;0;0;;0;0;();();(-2000.0, -2000.0);
11:45:36:714;11:45:36:695;1448060494.12;(0.4343044519424438, 0.37379565768771705);25.4865379333;0.63149107339;11:45:36:714;0;4;1.49032258064516;1;0;0;0;0;1;1;1;1;4;0;0;;0;0;();();(-2000.0, -2000.0);
11:45:36:748;11:45:36:695;1448060494.12;(0.4343044519424438, 0.37379565768771705);25.4865379333;0.63149107339;11:45:36:748;0;10;-1.5;1;0;0;0;0;1;1;1;1;4;0;0;;0;0;();();(-2000.0, -2000.0);
11:45:36:765;11:45:36:695;1448060494.12;(0.4343044519424438, 0.37379565768771705);25.4865379333;0.63149107339;11:45:36:765;0;5;-1.5;1;0;0;0;0;1;1;1;1;4;0;0;;0;0;();();(-2000.0, -2000.0);
11:45:36:781;11:45:36:695;1448060494.12;(0.4343044519424438, 0.37379565768771705);25.4865379333;0.63149107339;11:45:36:781;0;15;-1.5;1;0;0;0;0;1;1;1;1;4;0;0;;0;0;();();(-2000.0, -2000.0);
11:45:36:798;11:45:36:695;1448060494.12;(0.4343044519424438, 0.37379565768771705);25.4865379333;0.63149107339;11:45:36:798;0;15;-1.5;1;0;0;0;0;1;1;1;1;4;0;0;;0;0;();();(-2000.0, -2000.0);
11:45:36:814;11:45:36:813;1448060494.3;(0.3551022052764893, 0.4584637959798177);18.6438121796;0.873468398365;11:45:36:814;0;5;-1.5;1;0;0;0;0;1;1;1;1;4;0;0;;0;0;();();(-2000.0, -2000.0);
11:45:36:848;11:45:36:813;1448060494.3;(0.3551022052764893, 0.4584637959798177);18.6438121796;0.873468398365;11:45:36:848;0;10;-1.5;1;0;0;0;0;1;1;1;1;4;0;0;;0;0;();();(-2000.0, -2000.0);
11:45:36:865;11:45:36:813;1448060494.3;(0.3551022052764893, 0.4584637959798177);18.6438121796;0.873468398365;11:45:36:865;0;15;-1.5;1;0;0;0;0;1;1;1;1;4;0;0;;0;0;();();(-2000.0, -2000.0);
11:45:36:881;11:45:36:813;1448060494.3;(0.3551022052764893, 0.4584637959798177);18.6438121796;0.873468398365;11:45:36:881;0;4;-1.5;1;0;0;0;0;1;1;1;1;4;0;0;;0;0;();();(-2000.0, -2000.0);
11:45:36:898;11:45:36:813;1448060494.3;(0.3551022052764893, 0.4584637959798177);18.6438121796;0.873468398365;11:45:36:898;0;15;-1.5;1;0;0;0;0;1;1;1;1;4;0;0;;0;0;();();(-2000.0, -2000.0);
11:45:36:915;11:45:36:813;1448060494.3;(0.3551022052764893, 0.4584637959798177);18.6438121796;0.873468398365;11:45:36:915;0;5;-1.5;1;0;0;0;0;1;1;1;1;4;0;0;;0;0;();();(-2000.0, -2000.0);
11:45:36:948;11:45:36:948;1448060494.37;(0.21365923881530763, 0.381942621866862);40.7760124207;0.699817474264;11:45:36:948;0;4;-1.5;1;0;0;0;0;1;1;1;1;4;0;0;;0;0;();();(-2000.0, -2000.0);
11:45:36:966;11:45:36:948;1448060494.42;(0.4334496021270752, 0.37522968716091576);25.737039566;0.804429812451;11:45:36:966;0;0;-1.5;1;0;0;0;0;1;1;1;1;4;0;0;;0;0;();();(-2000.0, -2000.0);
11:45:36:982;11:45:36:948;1448060494.42;(0.4334496021270752, 0.37522968716091576);25.737039566;0.804429812451;11:45:36:982;0;5;-1.5;1;0;0;0;0;1;1;1;1;4;0;0;;0;0;();();(-2000.0, -2000.0);
11:45:36:998;11:45:36:948;1448060494.42;(0.4334496021270752, 0.37522968716091576);25.737039566;0.804429812451;11:45:36:998;0;15;-1.42903225806452;1;0;0;0;0;1;1;1;1;4;0;0;;0;0;();();(-2000.0, -2000.0);
11:45:37:016;11:45:36:948;1448060494.42;(0.4334496021270752, 0.37522968716091576);25.737039566;0.804429812451;11:45:37:016;0;4;-0.8;1;0;0;0;0;1;1;1;1;4;0;0;;0;0;();();(-2000.0, -2000.0);
11:45:37:048;11:45:36:948;1448060494.42;(0.4334496021270752, 0.37522968716091576);25.737039566;0.804429812451;11:45:37:048;0;9;-0.0806451612903225;1;0;0;0;0;1;1;1;1;4;0;0;;0;0;();();(-2000.0, -2000.0);
11:45:37:065;11:45:36:948;1448060494.42;(0.4334496021270752, 0.37522968716091576);25.737039566;0.804429812451;11:45:37:065;0;10;0.190322580645161;1;0;0;0;0;1;1;1;1;4;0;0;;0;0;();();(-2000.0, -2000.0);
11:45:37:082;11:45:37:080;1448060494.45;(0.43249988555908203, 0.375695546468099);25.7619018555;0.814336053339;11:45:37:082;0;10;0.190322580645161;1;0;0;0;0;1;1;1;1;4;0;0;;0;0;();();(-2000.0, -2000.0);
11:45:37:098;11:45:37:080;1448060494.45;(0.43249988555908203, 0.375695546468099);25.7619018555;0.814336053339;11:45:37:098;0;9;0.241935483870968;1;0;0;0;0;1;1;1;1;4;0;0;;0;0;();();(-2000.0, -2000.0);
11:45:37:115;11:45:37:080;1448060494.45;(0.43249988555908203, 0.375695546468099);25.7619018555;0.814336053339;11:45:37:115;0;4;0.351612903225806;1;0;0;0;0;1;1;1;1;4;0;0;;0;0;();();(-2000.0, -2000.0);
11:45:37:149;11:45:37:145;1448060494.59;(0.3557805299758911, 0.4511720869276259);19.6898136139;0.860790801254;11:45:37:149;0;15;0.516129032258065;1;0;0;0;0;1;1;1;1;4;0;0;;0;0;();();(-2000.0, -2000.0);
11:45:37:165;11:45:37:145;1448060494.59;(0.3557805299758911, 0.4511720869276259);19.6898136139;0.860790801254;11:45:37:165;0;10;0.538709677419355;1;0;0;0;0;1;1;1;1;4;0;0;;0;0;();();(-2000.0, -2000.0);
11:45:37:181;11:45:37:145;1448060494.59;(0.3557805299758911, 0.4511720869276259);19.6898136139;0.860790801254;11:45:37:181;0;4;0.470967741935484;1;0;0;0;0;1;1;1;1;4;0;0;;0;0;();();(-2000.0, -2000.0);
11:45:37:199;11:45:37:145;1448060494.59;(0.3557805299758911, 0.4511720869276259);19.6898136139;0.860790801254;11:45:37:199;0;15;0.587096774193548;1;0;0;0;0;1;1;1;1;4;0;0;;0;0;();();(-2000.0, -2000.0);
11:45:37:215;11:45:37:213;1448060494.61;(0.45453701019287107, 0.39957233005099824);73.8950119019;0.762612987019;11:45:37:215;0;5;0.609677419354838;1;0;0;0;0;1;1;1;1;4;0;0;;0;0;();();(-2000.0, -2000.0);
11:45:37:249;11:45:37:213;1448060494.61;(0.45453701019287107, 0.39957233005099824);73.8950119019;0.762612987019;11:45:37:249;0;15;0.512903225806451;1;0;0;0;0;1;1;1;1;4;0;0;;0;0;();();(-2000.0, -2000.0);
11:45:37:265;11:45:37:213;1448060494.61;(0.45453701019287107, 0.39957233005099824);73.8950119019;0.762612987019;11:45:37:265;0;10;0.483870967741936;1;0;0;0;0;1;1;1;1;4;0;0;;0;0;();();(-2000.0, -2000.0);
11:45:37:281;11:45:37:213;1448060494.61;(0.45453701019287107, 0.39957233005099824);73.8950119019;0.762612987019;11:45:37:281;0;10;0.483870967741936;1;0;0;0;0;1;1;1;1;4;0;0;;0;0;();();(-2000.0, -2000.0);
11:45:37:299;11:45:37:213;1448060494.61;(0.45453701019287107, 0.39957233005099824);73.8950119019;0.762612987019;11:45:37:299;0;9;0.406451612903226;1;0;0;0;0;1;1;1;1;4;0;0;;0;0;();();(-2000.0, -2000.0);
11:45:37:315;11:45:37:213;1448060494.61;(0.45453701019287107, 0.39957233005099824);73.8950119019;0.762612987019;11:45:37:315;0;15;0.354838709677419;1;0;0;0;0;1;1;1;1;4;0;0;;0;0;();();(-2000.0, -2000.0);
11:45:37:349;11:45:37:345;1448060494.69;(0.4552043914794922, 0.39534140692816844);72.6396026611;0.627884351423;11:45:37:349;0;15;0.332258064516129;1;0;0;0;0;1;1;1;1;4;0;0;;0;0;();();(-2000.0, -2000.0);
11:45:37:365;11:45:37:345;1448060494.69;(0.4552043914794922, 0.39534140692816844);72.6396026611;0.627884351423;11:45:37:365;0;15;0.332258064516129;1;0;0;0;0;1;1;1;1;4;0;0;;0;0;();();(-2000.0, -2000.0);
11:45:37:382;11:45:37:345;1448060494.69;(0.4552043914794922, 0.39534140692816844);72.6396026611;0.627884351423;11:45:37:382;0;0;0.603225806451613;1;0;0;0;0;1;1;1;1;4;0;0;;0;0;();();(-2000.0, -2000.0);
11:45:37:399;11:45:37:345;1448060494.69;(0.4552043914794922, 0.39534140692816844);72.6396026611;0.627884351423;11:45:37:399;0;5;0.706451612903225;1;0;0;0;0;1;1;1;1;4;0;0;;0;0;();();(-2000.0, -2000.0);
11:45:37:416;11:45:37:413;1448060494.81;(0.4536746978759766, 0.39883295694986975);75.3166656494;0.611293766166;11:45:37:416;0;15;0.780645161290323;1;0;0;0;0;1;1;1;1;4;0;0;;0;0;();();(-2000.0, -2000.0);
11:45:37:449;11:45:37:413;1448060494.81;(0.4536746978759766, 0.39883295694986975);75.3166656494;0.611293766166;11:45:37:449;0;9;0.506451612903226;1;0;0;0;0;1;1;1;1;4;0;0;;0;0;();();(-2000.0, -2000.0);
11:45:37:465;11:45:37:413;1448060494.81;(0.4536746978759766, 0.39883295694986975);75.3166656494;0.611293766166;11:45:37:465;0;9;0.506451612903226;1;0;0;0;0;1;1;1;1;4;0;0;;0;0;();();(-2000.0, -2000.0);
11:45:37:481;11:45:37:477;1448060494.86;(0.4545867443084717, 0.39397824605305987);72.3801879883;0.679468941625;11:45:37:481;0;0;0.461290322580645;1;0;0;0;0;1;1;1;1;4;0;0;;0;0;();();(-2000.0, -2000.0);
11:45:37:499;11:45:37:477;1448060494.86;(0.4545867443084717, 0.39397824605305987);72.3801879883;0.679468941625;11:45:37:499;0;4;0.316129032258064;1;0;0;0;0;1;1;1;1;4;0;0;;0;0;();();(-2000.0, -2000.0);
11:45:37:516;11:45:37:477;1448060494.86;(0.4545867443084717, 0.39397824605305987);72.3801879883;0.679468941625;11:45:37:516;0;10;0.551612903225806;1;0;0;0;0;1;1;1;1;4;0;0;;0;0;();();(-2000.0, -2000.0);
11:45:37:549;11:45:37:545;1448060494.97;(0, 0);0;0;11:45:37:549;0;10;0.809677419354839;1;0;0;0;0;1;1;1;1;4;0;0;;0;0;();();(-2000.0, -2000.0);
11:45:37:565;11:45:37:545;1448060494.97;(0, 0);0;0;11:45:37:565;0;15;0.719354838709677;1;0;0;0;0;1;1;1;1;4;0;0;;0;0;();();(-2000.0, -2000.0);
11:45:37:582;11:45:37:545;1448060494.97;(0, 0);0;0;11:45:37:582;0;9;0.551612903225806;1;0;0;0;0;1;1;1;1;4;0;0;;0;0;();();(-2000.0, -2000.0);
11:45:37:599;11:45:37:545;1448060494.97;(0, 0);0;0;11:45:37:599;0;15;0.770967741935484;1;0;0;0;0;1;1;1;1;4;0;0;;0;0;();();(-2000.0, -2000.0);
11:45:37:615;11:45:37:545;1448060494.97;(0, 0);0;0;11:45:37:615;0;9;0.758064516129032;1;0;0;0;0;1;1;1;1;4;0;0;;0;0;();();(-2000.0, -2000.0);
11:45:37:649;11:45:37:545;1448060494.97;(0, 0);0;0;11:45:37:649;0;10;0.925806451612903;1;0;0;0;0;1;1;1;1;4;0;0;;0;0;();();(-2000.0, -2000.0);
11:45:37:666;11:45:37:545;1448060494.97;(0, 0);0;0;11:45:37:666;0;10;0.903225806451613;1;0;0;0;0;1;1;1;1;4;0;0;;0;0;();();(-2000.0, -2000.0);
11:45:37:682;11:45:37:677;1448060495.16;(0.43189120292663574, 0.3687107510036892);26.5074729919;0.826789932114;11:45:37:682;0;10;0.903225806451613;1;0;0;0;0;1;1;1;1;4;0;0;;0;0;();();(-2000.0, -2000.0);
11:45:37:699;11:45:37:677;1448060495.16;(0.43189120292663574, 0.3687107510036892);26.5074729919;0.826789932114;11:45:37:699;0;0;0.512903225806451;1;0;0;0;0;1;1;1;1;4;0;0;;0;0;();();(-2000.0, -2000.0);
11:45:37:716;11:45:37:677;1448060495.16;(0.43189120292663574, 0.3687107510036892);26.5074729919;0.826789932114;11:45:37:716;0;5;0.464516129032258;1;0;0;0;0;1;1;1;1;4;0;0;;0;0;();();(-2000.0, -2000.0);
11:45:37:749;11:45:37:745;1448060495.2;(0.3524853944778442, 0.4300604502360026);18.3130435944;0.762686815194;11:45:37:749;0;10;0.483870967741936;1;0;0;0;0;1;1;1;1;4;0;0;;0;0;();();(-2000.0, -2000.0);
11:45:37:765;11:45:37:745;1448060495.2;(0.3524853944778442, 0.4300604502360026);18.3130435944;0.762686815194;11:45:37:765;0;4;0.512903225806451;1;0;0;0;0;1;1;1;1;4;0;0;;0;0;();();(-2000.0, -2000.0);
11:45:37:783;11:45:37:745;1448060495.2;(0.3524853944778442, 0.4300604502360026);18.3130435944;0.762686815194;11:45:37:783;0;5;0.22258064516129;1;0;0;0;0;1;1;1;1;4;0;0;;0;0;();();(-2000.0, -2000.0);
11:45:37:799;11:45:37:745;1448060495.2;(0.3524853944778442, 0.4300604502360026);18.3130435944;0.762686815194;11:45:37:799;0;15;0.129032258064516;1;0;0;0;0;1;1;1;1;4;0;0;;0;0;();();(-2000.0, -2000.0);
11:45:37:816;11:45:37:809;1448060495.23;(0.48972182273864745, 0.3701935662163629);53.1648826599;0.698946181533;11:45:37:816;0;4;0.34516129032258;1;0;0;0;0;1;1;1;1;4;0;0;;0;0;();();(-2000.0, -2000.0);
11:45:37:849;11:45:37:809;1448060495.23;(0.48972182273864745, 0.3701935662163629);53.1648826599;0.698946181533;11:45:37:849;0;4;0.34516129032258;1;0;0;0;0;1;1;1;1;4;0;0;;0;0;();();(-2000.0, -2000.0);
11:45:37:866;11:45:37:809;1448060495.23;(0.48972182273864745, 0.3701935662163629);53.1648826599;0.698946181533;11:45:37:866;0;4;0.438709677419355;1;0;0;0;0;1;1;1;1;4;0;0;;0;0;();();(-2000.0, -2000.0);
11:45:37:883;11:45:37:809;1448060495.23;(0.48972182273864745, 0.3701935662163629);53.1648826599;0.698946181533;11:45:37:883;0;10;0.558064516129032;1;0;0;0;0;1;1;1;1;4;0;0;;0;0;();();(-2000.0, -2000.0);
11:45:37:900;11:45:37:809;1448060495.23;(0.48972182273864745, 0.3701935662163629);53.1648826599;0.698946181533;11:45:37:900;0;10;0.935483870967742;1;0;0;0;0;1;1;1;1;4;0;0;;0;0;();();(-2000.0, -2000.0);
11:45:37:916;11:45:37:809;1448060495.23;(0.48972182273864745, 0.3701935662163629);53.1648826599;0.698946181533;11:45:37:916;0;15;1.77741935483871;1;0;0;0;0;1;1;1;1;4;0;0;;0;0;();();(-2000.0, -2000.0);
11:45:37:949;11:45:37:945;1448060495.3;(0.23181588649749757, 0.3422923194037544);45.1442527771;0.628304265013;11:45:37:949;0;5;1.77741935483871;1;0;0;0;0;1;1;1;1;4;0;0;;0;0;();();(-2000.0, -2000.0);
11:45:37:966;11:45:37:945;1448060495.3;(0.23181588649749757, 0.3422923194037544);45.1442527771;0.628304265013;11:45:37:966;0;10;1.78064516129032;1;0;0;0;0;1;1;1;1;4;0;0;;0;0;();();(-2000.0, -2000.0);
11:45:37:987;11:45:37:945;1448060495.3;(0.23181588649749757, 0.3422923194037544);45.1442527771;0.628304265013;11:45:37:987;0;4;1.76129032258065;1;0;0;0;0;1;1;1;1;6;0;0;;0;0;();();(-2000.0, -2000.0);
11:45:37:999;11:45:37:945;1448060495.3;(0.23181588649749757, 0.3422923194037544);45.1442527771;0.628304265013;11:45:37:999;0;4;1.76129032258065;1;0;0;0;0;1;1;1;1;6;0;0;;0;0;();();(-2000.0, -2000.0);
11:45:38:016;11:45:37:945;1448060495.3;(0.23181588649749757, 0.3422923194037544);45.1442527771;0.628304265013;11:45:38:016;0;10;1.78064516129032;1;0;0;0;0;1;1;1;1;6;0;0;;0;0;();();(-2000.0, -2000.0);
11:45:38:049;11:45:37:945;1448060495.3;(0.23181588649749757, 0.3422923194037544);45.1442527771;0.628304265013;11:45:38:049;0;10;1.78064516129032;1;0;0;0;0;1;1;1;1;6;0;0;;0;0;();();(-2000.0, -2000.0);
11:45:38:066;11:45:37:945;1448060495.3;(0.23181588649749757, 0.3422923194037544);45.1442527771;0.628304265013;11:45:38:066;0;10;1.78064516129032;1;0;0;0;0;1;1;1;1;6;0;0;;0;0;();();(-2000.0, -2000.0);
11:45:38:083;11:45:38:077;1448060495.55;(0.4339426040649414, 0.36259167989095054);24.6155815125;0.830222076305;11:45:38:083;0;15;1.78064516129032;1;0;0;0;0;1;1;1;1;6;0;0;;0;0;();();(-2000.0, -2000.0);
11:45:38:099;11:45:38:077;1448060495.55;(0.4339426040649414, 0.36259167989095054);24.6155815125;0.830222076305;11:45:38:099;0;5;1.78064516129032;1;0;0;0;0;1;1;1;1;6;0;0;;0;0;();();(-2000.0, -2000.0);
11:45:38:116;11:45:38:077;1448060495.55;(0.4339426040649414, 0.36259167989095054);24.6155815125;0.830222076305;11:45:38:116;0;10;1.77741935483871;1;0;0;0;0;1;1;1;1;6;0;0;;0;0;();();(-2000.0, -2000.0);
11:45:38:149;11:45:38:141;1448060495.57;(0.20981147289276122, 0.36430786980523);37.4243927002;0.639499323308;11:45:38:149;0;15;1.79032258064516;1;0;0;0;0;1;1;1;1;6;0;0;;0;0;();();(-2000.0, -2000.0);
11:45:38:166;11:45:38:141;1448060495.57;(0.20981147289276122, 0.36430786980523);37.4243927002;0.639499323308;11:45:38:166;0;10;1.78064516129032;1;0;0;0;0;1;1;1;1;6;0;0;;0;0;();();(-2000.0, -2000.0);
11:45:38:182;11:45:38:141;1448060495.57;(0.20981147289276122, 0.36430786980523);37.4243927002;0.639499323308;11:45:38:182;0;10;1.79032258064516;1;0;0;0;0;1;1;1;1;6;0;0;;0;0;();();(-2000.0, -2000.0);
11:45:38:199;11:45:38:141;1448060495.57;(0.20981147289276122, 0.36430786980523);37.4243927002;0.639499323308;11:45:38:199;0;5;1.78064516129032;1;0;0;0;0;1;1;1;1;6;0;0;;0;0;();();(-2000.0, -2000.0);
11:45:38:216;11:45:38:210;1448060495.67;(0.426218843460083, 0.37416848076714415);24.7199020386;0.877800824558;11:45:38:216;0;6;1.79032258064516;1;0;0;0;0;1;1;1;1;6;0;0;;0;0;();();(-2000.0, -2000.0);
11:45:38:249;11:45:38:210;1448060495.67;(0.426218843460083, 0.37416848076714415);24.7199020386;0.877800824558;11:45:38:249;0;9;1.78064516129032;1;0;0;0;0;1;1;1;1;6;0;0;;0;0;();();(-2000.0, -2000.0);
11:45:38:266;11:45:38:210;1448060495.67;(0.426218843460083, 0.37416848076714415);24.7199020386;0.877800824558;11:45:38:266;0;0;1.78064516129032;1;0;0;0;0;1;1;1;1;6;0;0;;0;0;();();(-2000.0, -2000.0);
11:45:38:283;11:45:38:273;1448060495.73;(0.4259207010269165, 0.3745855967203776);25.3432712555;0.853355822084;11:45:38:283;0;10;1.78064516129032;1;0;0;0;0;1;1;1;1;6;0;0;;0;0;();();(-2000.0, -2000.0);
11:45:38:300;11:45:38:273;1448060495.73;(0.4259207010269165, 0.3745855967203776);25.3432712555;0.853355822084;11:45:38:300;0;4;1.78064516129032;1;0;0;0;0;1;1;1;1;6;0;0;;0;0;();();(-2000.0, -2000.0);
11:45:38:316;11:45:38:273;1448060495.73;(0.4259207010269165, 0.3745855967203776);25.3432712555;0.853355822084;11:45:38:316;0;9;1.79032258064516;1;0;0;0;0;1;1;1;1;6;0;0;;0;0;();();(-2000.0, -2000.0);
11:45:38:350;11:45:38:342;1448060495.8;(0.4232504367828369, 0.37325096130371094);24.2532901764;0.805177918477;11:45:38:350;0;4;-1.5;1;0;0;0;0;1;1;1;1;6;0;0;;0;0;();();(-2000.0, -2000.0);
11:45:38:366;11:45:38:342;1448060495.8;(0.4232504367828369, 0.37325096130371094);24.2532901764;0.805177918477;11:45:38:366;0;15;-1.5;1;0;0;0;0;1;1;1;1;6;0;0;;0;0;();();(-2000.0, -2000.0);
11:45:38:383;11:45:38:342;1448060495.8;(0.4232504367828369, 0.37325096130371094);24.2532901764;0.805177918477;11:45:38:383;0;4;-1.5;1;0;0;0;0;1;1;1;1;6;0;0;;0;0;();();(-2000.0, -2000.0);
11:45:38:400;11:45:38:342;1448060495.8;(0.4232504367828369, 0.37325096130371094);24.2532901764;0.805177918477;11:45:38:400;0;7;-1.5;1;0;0;0;0;1;1;1;1;6;0;0;;0;0;();();(-2000.0, -2000.0);
11:45:38:417;11:45:38:409;1448060495.83;(0.4250408887863159, 0.3734914991590712);26.2749404907;0.682901952144;11:45:38:417;0;9;-1.5;1;0;0;0;0;1;1;1;1;6;0;0;;0;0;();();(-2000.0, -2000.0);
11:45:38:450;11:45:38:409;1448060495.83;(0.4250408887863159, 0.3734914991590712);26.2749404907;0.682901952144;11:45:38:450;0;4;-1.5;1;0;0;0;0;1;1;1;1;6;0;0;;0;0;();();(-2000.0, -2000.0);
11:45:38:466;11:45:38:409;1448060495.83;(0.4250408887863159, 0.3734914991590712);26.2749404907;0.682901952144;11:45:38:466;0;4;-1.5;1;0;0;0;0;1;1;1;1;6;0;0;;0;0;();();(-2000.0, -2000.0);
11:45:38:483;11:45:38:473;1448060495.87;(0.17915645837783814, 0.2714779324001736);18.1108589172;0.615581509117;11:45:38:483;0;15;-1.5;1;0;0;0;0;1;1;1;1;6;0;0;;0;0;();();(-2000.0, -2000.0);
11:45:38:500;11:45:38:473;1448060495.87;(0.17915645837783814, 0.2714779324001736);18.1108589172;0.615581509117;11:45:38:500;0;0;-1.5;1;0;0;0;0;1;1;1;1;6;0;0;;0;0;();();(-2000.0, -2000.0);
11:45:38:516;11:45:38:473;1448060495.87;(0.17915645837783814, 0.2714779324001736);18.1108589172;0.615581509117;11:45:38:516;0;5;-1.5;1;0;0;0;0;1;1;1;1;6;0;0;;0;0;();();(-2000.0, -2000.0);
11:45:38:550;11:45:38:541;1448060495.95;(0.4461032867431641, 0.42666087680392795);72.7696456909;0.704837516681;11:45:38:550;0;9;-1.5;1;0;0;0;0;1;1;1;1;6;0;0;;0;0;();();(-2000.0, -2000.0);
11:45:38:567;11:45:38:541;1448060495.95;(0.4461032867431641, 0.42666087680392795);72.7696456909;0.704837516681;11:45:38:567;0;10;-1.5;1;0;0;0;0;1;1;1;1;6;0;0;;0;0;();();(-2000.0, -2000.0);
11:45:38:583;11:45:38:541;1448060495.95;(0.4461032867431641, 0.42666087680392795);72.7696456909;0.704837516681;11:45:38:583;0;10;-1.5;1;0;0;0;0;1;1;1;1;6;0;0;;0;0;();();(-2000.0, -2000.0);
11:45:38:600;11:45:38:541;1448060495.95;(0.4461032867431641, 0.42666087680392795);72.7696456909;0.704837516681;11:45:38:600;0;15;-1.5;1;0;0;0;0;1;1;1;1;6;0;0;;0;0;();();(-2000.0, -2000.0);
11:45:38:617;11:45:38:541;1448060495.95;(0.4461032867431641, 0.42666087680392795);72.7696456909;0.704837516681;11:45:38:617;0;4;-1.5;1;0;0;0;0;1;1;1;1;6;0;0;;0;0;();();(-2000.0, -2000.0);
11:45:38:650;11:45:38:541;1448060495.95;(0.4461032867431641, 0.42666087680392795);72.7696456909;0.704837516681;11:45:38:650;0;9;-1.5;1;0;0;0;0;1;1;1;1;6;0;0;;0;0;();();(-2000.0, -2000.0);
11:45:38:666;11:45:38:541;1448060495.95;(0.4461032867431641, 0.42666087680392795);72.7696456909;0.704837516681;11:45:38:666;0;10;-1.5;1;0;0;0;0;1;1;1;1;6;0;0;;0;0;();();(-2000.0, -2000.0);
11:45:38:683;11:45:38:673;1448060496.04;(0.4473085403442383, 0.42969775729709203);74.2369995117;0.783883816042;11:45:38:683;0;5;-1.5;1;0;0;0;0;1;1;1;1;6;0;0;;0;0;();();(-2000.0, -2000.0);
11:45:38:700;11:45:38:673;1448060496.04;(0.4473085403442383, 0.42969775729709203);74.2369995117;0.783883816042;11:45:38:700;0;10;-1.5;1;0;0;0;0;1;1;1;1;6;0;0;;0;0;();();(-2000.0, -2000.0);
11:45:38:716;11:45:38:673;1448060496.04;(0.4473085403442383, 0.42969775729709203);74.2369995117;0.783883816042;11:45:38:716;0;10;-1.5;1;0;0;0;0;1;1;1;1;6;0;0;;0;0;();();(-2000.0, -2000.0);
11:45:38:750;11:45:38:741;1448060496.14;(0.4503777503967285, 0.4592309739854601);103.996032715;0.62393739391;11:45:38:750;0;5;-1.5;1;0;0;0;0;1;1;1;1;6;0;0;;0;0;();();(-2000.0, -2000.0);
11:45:38:767;11:45:38:741;1448060496.14;(0.4503777503967285, 0.4592309739854601);103.996032715;0.62393739391;11:45:38:767;0;10;-1.4;1;0;0;0;0;1;1;1;1;6;0;0;;0;0;();();(-2000.0, -2000.0);
11:45:38:783;11:45:38:741;1448060496.14;(0.4503777503967285, 0.4592309739854601);103.996032715;0.62393739391;11:45:38:783;0;15;-0.832258064516129;1;0;0;0;0;1;1;1;1;6;0;0;;0;0;();();(-2000.0, -2000.0);
11:45:38:800;11:45:38:741;1448060496.14;(0.4503777503967285, 0.4592309739854601);103.996032715;0.62393739391;11:45:38:800;0;10;0.264516129032258;1;0;0;0;0;1;1;1;1;6;0;0;;0;0;();();(-2000.0, -2000.0);
11:45:38:817;11:45:38:805;1448060496.21;(0.43842372894287107, 0.3866942935519748);23.5221328735;0.785362539468;11:45:38:817;0;0;1.78064516129032;1;0;0;0;0;1;1;1;1;6;0;0;;0;0;();();(-2000.0, -2000.0);
11:45:38:850;11:45:38:805;1448060496.21;(0.43842372894287107, 0.3866942935519748);23.5221328735;0.785362539468;11:45:38:850;0;0;1.72258064516129;1;0;0;0;0;1;1;1;1;6;0;0;;0;0;();();(-2000.0, -2000.0);
11:45:38:867;11:45:38:805;1448060496.21;(0.43842372894287107, 0.3866942935519748);23.5221328735;0.785362539468;11:45:38:867;0;4;0.435483870967742;1;0;0;0;0;1;1;1;1;6;0;0;;0;0;();();(-2000.0, -2000.0);
11:45:38:883;11:45:38:873;1448060496.33;(0.43506646156311035, 0.38394283718532984);27.2892875671;0.650604827871;11:45:38:883;0;10;0.512903225806451;1;0;0;0;0;1;1;1;1;6;0;0;;0;0;();();(-2000.0, -2000.0);
11:45:38:900;11:45:38:873;1448060496.33;(0.43506646156311035, 0.38394283718532984);27.2892875671;0.650604827871;11:45:38:900;0;10;0.512903225806451;1;0;0;0;0;1;1;1;1;6;0;0;;0;0;();();(-2000.0, -2000.0);
11:45:38:917;11:45:38:873;1448060496.33;(0.43506646156311035, 0.38394283718532984);27.2892875671;0.650604827871;11:45:38:917;0;15;0.67741935483871;1;0;0;0;0;1;1;1;1;6;0;0;;0;0;();();(-2000.0, -2000.0);
11:45:38:934;11:45:38:873;1448060496.33;(0.43506646156311035, 0.38394283718532984);27.2892875671;0.650604827871;11:45:38:934;0;4;0.883870967741935;1;0;0;0;0;1;1;1;1;6;0;0;;0;0;();();(-2000.0, -2000.0);
11:45:38:967;11:45:38:873;1448060496.33;(0.43506646156311035, 0.38394283718532984);27.2892875671;0.650604827871;11:45:38:967;0;9;0.793548387096774;1;0;0;0;0;1;1;1;1;6;0;0;;0;0;();();(-2000.0, -2000.0);
11:45:38:983;11:45:38:873;1448060496.33;(0.43506646156311035, 0.38394283718532984);27.2892875671;0.650604827871;11:45:38:983;0;0;1.23225806451613;1;0;0;0;0;1;1;1;1;6;0;0;;0;0;();();(-2000.0, -2000.0);
11:45:39:000;11:45:38:873;1448060496.33;(0.43506646156311035, 0.38394283718532984);27.2892875671;0.650604827871;11:45:39:000;0;4;0.851612903225806;1;0;0;0;0;1;1;1;1;6;0;0;;0;0;();();(-2000.0, -2000.0);
11:45:39:017;11:45:39:005;1448060496.47;(0.17521634101867675, 0.3923010508219401);18.819442749;0.947047292001;11:45:39:017;0;15;0.27741935483871;1;0;0;0;0;1;1;1;1;6;0;0;;0;0;();();(-2000.0, -2000.0);
11:45:39:034;11:45:39:005;1448060496.47;(0.17521634101867675, 0.3923010508219401);18.819442749;0.947047292001;11:45:39:034;0;14;1.54516129032258;1;0;0;0;0;1;1;1;1;6;0;0;;0;0;();();(-2000.0, -2000.0);
11:45:39:067;11:45:39:005;1448060496.47;(0.17521634101867675, 0.3923010508219401);18.819442749;0.947047292001;11:45:39:067;0;5;-1.5;1;0;0;0;0;1;1;1;1;6;0;0;;0;0;();();(-2000.0, -2000.0);
11:45:39:084;11:45:39:073;1448060496.53;(0.17568817138671874, 0.3914842817518446);18.3380146027;0.81903674144;11:45:39:084;0;15;-1.5;1;0;0;0;0;1;1;1;1;6;0;0;;0;0;();();(-2000.0, -2000.0);
11:45:39:101;11:45:39:073;1448060496.53;(0.17568817138671874, 0.3914842817518446);18.3380146027;0.81903674144;11:45:39:100;0;4;-0.0548387096774194;1;0;0;0;0;1;1;1;1;6;0;0;;0;0;();();(-2000.0, -2000.0);
11:45:39:116;11:45:39:073;1448060496.53;(0.17568817138671874, 0.3914842817518446);18.3380146027;0.81903674144;11:45:39:116;0;15;1.72258064516129;1;0;0;0;0;1;1;1;1;6;0;0;;0;0;();();(-2000.0, -2000.0);
11:45:39:150;11:45:39:141;1448060496.6;(0.4290101766586304, 0.39103185865614154);22.1128997803;0.802960559695;11:45:39:150;0;9;1.6741935483871;1;0;0;0;0;1;1;1;1;6;0;0;;0;0;();();(-2000.0, -2000.0);
11:45:39:167;11:45:39:141;1448060496.6;(0.4290101766586304, 0.39103185865614154);22.1128997803;0.802960559695;11:45:39:167;0;15;0.561290322580645;1;0;0;0;0;1;1;1;1;6;0;0;;0;0;();();(-2000.0, -2000.0);
11:45:39:183;11:45:39:141;1448060496.6;(0.4290101766586304, 0.39103185865614154);22.1128997803;0.802960559695;11:45:39:183;0;10;0.561290322580645;1;0;0;0;0;1;1;1;1;6;0;0;;0;0;();();(-2000.0, -2000.0);
11:45:39:200;11:45:39:141;1448060496.6;(0.4290101766586304, 0.39103185865614154);22.1128997803;0.802960559695;11:45:39:200;0;15;1.64516129032258;1;0;0;0;0;1;1;1;1;6;0;0;;0;0;();();(-2000.0, -2000.0);
11:45:39:217;11:45:39:205;1448060496.66;(0, 0);0;0;11:45:39:217;0;5;1.77741935483871;1;0;0;0;0;1;1;1;1;6;0;0;;0;0;();();(-2000.0, -2000.0);
11:45:39:234;11:45:39:205;1448060496.66;(0, 0);0;0;11:45:39:234;0;15;1.76129032258065;1;0;0;0;0;1;1;1;1;6;0;0;;0;0;();();(-2000.0, -2000.0);
11:45:39:268;11:45:39:205;1448060496.66;(0, 0);0;0;11:45:39:268;0;4;1.76129032258065;1;0;0;0;0;1;1;1;1;6;0;0;;0;0;();();(-2000.0, -2000.0);
11:45:39:284;11:45:39:269;1448060496.73;(0.35027251243591306, 0.5768837822808159);25.5437660217;0.669616921178;11:45:39:284;0;4;1.76129032258065;1;0;0;0;0;1;1;1;1;6;0;0;;0;0;();();(-2000.0, -2000.0);
11:45:39:300;11:45:39:269;1448060496.73;(0.35027251243591306, 0.5768837822808159);25.5437660217;0.669616921178;11:45:39:300;0;0;1.78064516129032;1;0;0;0;0;1;1;1;1;6;0;0;;0;0;();();(-2000.0, -2000.0);
11:45:39:318;11:45:39:269;1448060496.73;(0.35027251243591306, 0.5768837822808159);25.5437660217;0.669616921178;11:45:39:317;0;4;1.78064516129032;1;0;0;0;0;1;1;1;1;6;0;0;;0;0;();();(-2000.0, -2000.0);
11:45:39:350;11:45:39:269;1448060496.73;(0.35027251243591306, 0.5768837822808159);25.5437660217;0.669616921178;11:45:39:350;0;4;-1.5;1;0;0;0;0;1;1;1;1;6;0;0;;0;0;();();(-2000.0, -2000.0);
11:45:39:367;11:45:39:269;1448060496.73;(0.35027251243591306, 0.5768837822808159);25.5437660217;0.669616921178;11:45:39:367;0;9;-1.5;1;0;0;0;0;1;1;1;1;6;0;0;;0;0;();();(-2000.0, -2000.0);
11:45:39:384;11:45:39:269;1448060496.73;(0.35027251243591306, 0.5768837822808159);25.5437660217;0.669616921178;11:45:39:384;0;5;-1.5;1;0;0;0;0;1;1;1;1;6;0;0;;0;0;();();(-2000.0, -2000.0);
11:45:39:401;11:45:39:269;1448060496.73;(0.35027251243591306, 0.5768837822808159);25.5437660217;0.669616921178;11:45:39:401;0;10;-0.596774193548387;1;0;0;0;0;1;1;1;1;6;0;0;;0;0;();();(-2000.0, -2000.0);
11:45:39:416;11:45:39:406;1448060496.88;(0.43991599082946775, 0.525896708170573);74.1944961548;0.934100088148;11:45:39:416;0;4;1.77741935483871;1;0;0;0;0;1;1;1;1;6;0;0;;0;0;();();(-2000.0, -2000.0);
11:45:39:434;11:45:39:406;1448060496.88;(0.43991599082946775, 0.525896708170573);74.1944961548;0.934100088148;11:45:39:434;0;10;1.78064516129032;1;0;0;0;0;1;1;1;1;6;0;0;;0;0;();();(-2000.0, -2000.0);
11:45:39:467;11:45:39:406;1448060496.88;(0.43991599082946775, 0.525896708170573);74.1944961548;0.934100088148;11:45:39:467;0;10;-1.5;1;0;0;0;0;1;1;1;1;6;0;0;;0;0;();();(-2000.0, -2000.0);
11:45:39:484;11:45:39:470;1448060496.93;(0.43964376449584963, 0.5219106038411458);73.7997741699;0.84426512319;11:45:39:484;0;4;-1.5;1;0;0;0;0;1;1;1;1;6;0;0;;0;0;();();(-2000.0, -2000.0);
11:45:39:500;11:45:39:470;1448060496.93;(0.43964376449584963, 0.5219106038411458);73.7997741699;0.84426512319;11:45:39:500;0;10;-1.5;1;0;0;0;0;1;1;1;1;6;0;0;;0;0;();();(-2000.0, -2000.0);
11:45:39:518;11:45:39:470;1448060496.93;(0.43964376449584963, 0.5219106038411458);73.7997741699;0.84426512319;11:45:39:518;0;15;-1.5;1;0;0;0;0;1;1;1;1;6;0;0;;0;0;();();(-2000.0, -2000.0);
11:45:39:534;11:45:39:470;1448060496.93;(0.43964376449584963, 0.5219106038411458);73.7997741699;0.84426512319;11:45:39:534;0;4;-1.5;1;0;0;0;0;1;1;1;1;6;0;0;;0;0;();();(-2000.0, -2000.0);
11:45:39:568;11:45:39:537;1448060497.0;(0.43954949378967284, 0.5193433125813802);73.9046859741;1.0;11:45:39:568;0;4;-1.5;1;0;0;0;0;1;1;1;1;6;0;0;;0;0;();();(-2000.0, -2000.0);
11:45:39:585;11:45:39:537;1448060497.0;(0.43954949378967284, 0.5193433125813802);73.9046859741;1.0;11:45:39:585;0;15;-1.5;1;0;0;0;0;1;1;1;1;6;0;0;;0;0;();();(-2000.0, -2000.0);
11:45:39:601;11:45:39:601;1448060497.07;(0.43959927558898926, 0.5172384474012587);74.1001358032;1.0;11:45:39:601;0;9;-1.5;1;0;0;0;0;1;1;1;1;6;0;0;;0;0;();();(-2000.0, -2000.0);
11:45:39:617;11:45:39:601;1448060497.07;(0.43959927558898926, 0.5172384474012587);74.1001358032;1.0;11:45:39:617;0;0;-1.5;1;0;0;0;0;1;1;1;1;6;0;0;;0;0;();();(-2000.0, -2000.0);
11:45:39:634;11:45:39:601;1448060497.07;(0.43959927558898926, 0.5172384474012587);74.1001358032;1.0;11:45:39:634;0;4;-1.07741935483871;1;0;0;0;0;1;1;1;1;6;0;0;;0;0;();();(-2000.0, -2000.0);
11:45:39:667;11:45:39:601;1448060497.07;(0.43959927558898926, 0.5172384474012587);74.1001358032;1.0;11:45:39:667;0;4;1.78064516129032;1;0;0;0;0;1;1;1;1;6;0;0;;0;0;();();(-2000.0, -2000.0);
11:45:39:684;11:45:39:669;1448060497.1;(0.4389610290527344, 0.5160252888997396);74.090965271;0.895970336432;11:45:39:684;0;15;1.77741935483871;1;0;0;0;0;1;1;1;1;6;0;0;;0;0;();();(-2000.0, -2000.0);
11:45:39:700;11:45:39:669;1448060497.1;(0.4389610290527344, 0.5160252888997396);74.090965271;0.895970336432;11:45:39:700;0;5;1.77741935483871;1;0;0;0;0;1;1;1;1;6;0;0;;0;0;();();(-2000.0, -2000.0);
11:45:39:718;11:45:39:669;1448060497.1;(0.4389610290527344, 0.5160252888997396);74.090965271;0.895970336432;11:45:39:718;0;15;-1.5;1;0;0;0;0;1;1;1;1;6;0;0;;0;0;();();(-2000.0, -2000.0);
11:45:39:734;11:45:39:669;1448060497.1;(0.4389610290527344, 0.5160252888997396);74.090965271;0.895970336432;11:45:39:734;0;4;1.78064516129032;1;0;0;0;0;1;1;1;1;6;0;0;;0;0;();();(-2000.0, -2000.0);
11:45:39:767;11:45:39:669;1448060497.1;(0.4389610290527344, 0.5160252888997396);74.090965271;0.895970336432;11:45:39:767;0;5;1.78064516129032;1;0;0;0;0;1;1;1;1;6;0;0;;0;0;();();(-2000.0, -2000.0);
11:45:39:784;11:45:39:669;1448060497.1;(0.4389610290527344, 0.5160252888997396);74.090965271;0.895970336432;11:45:39:784;0;0;1.78064516129032;1;0;0;0;0;1;1;1;1;6;0;0;;0;0;();();(-2000.0, -2000.0);
11:45:39:802;11:45:39:801;1448060497.13;(0.43668904304504397, 0.5123588138156467);74.4610671997;0.899911196123;11:45:39:802;0;15;-1.5;1;0;0;0;0;1;1;1;1;6;0;0;;0;0;();();(-2000.0, -2000.0);
11:45:39:818;11:45:39:801;1448060497.13;(0.43668904304504397, 0.5123588138156467);74.4610671997;0.899911196123;11:45:39:818;0;10;-1.5;1;0;0;0;0;1;1;1;1;6;0;0;;0;0;();();(-2000.0, -2000.0);
11:45:39:834;11:45:39:801;1448060497.13;(0.43668904304504397, 0.5123588138156467);74.4610671997;0.899911196123;11:45:39:834;0;4;-1.5;1;0;0;0;0;1;1;1;1;6;0;0;;0;0;();();(-2000.0, -2000.0);
11:45:39:867;11:45:39:801;1448060497.13;(0.43668904304504397, 0.5123588138156467);74.4610671997;0.899911196123;11:45:39:867;0;12;-1.5;1;0;0;0;0;1;1;1;1;6;0;0;;0;0;();();(-2000.0, -2000.0);
11:45:39:884;11:45:39:801;1448060497.13;(0.43668904304504397, 0.5123588138156467);74.4610671997;0.899911196123;11:45:39:884;0;10;-1.5;1;0;0;0;0;1;1;1;1;6;0;0;;0;0;();();(-2000.0, -2000.0);
11:45:39:901;11:45:39:801;1448060497.13;(0.43668904304504397, 0.5123588138156467);74.4610671997;0.899911196123;11:45:39:901;0;4;-0.438709677419355;1;0;0;0;0;1;1;1;1;6;0;0;;0;0;();();(-2000.0, -2000.0);
11:45:39:918;11:45:39:801;1448060497.13;(0.43668904304504397, 0.5123588138156467);74.4610671997;0.899911196123;11:45:39:918;0;15;1.78064516129032;1;0;0;0;0;1;1;1;1;6;0;0;;0;0;();();(-2000.0, -2000.0);
11:45:39:934;11:45:39:934;1448060497.4;(0.4352323055267334, 0.511451678805881);74.8226089478;1.0;11:45:39:934;0;10;1.78064516129032;1;0;0;0;0;1;1;1;1;6;0;0;;0;0;();();(-2000.0, -2000.0);
11:45:39:968;11:45:39:934;1448060497.4;(0.4352323055267334, 0.511451678805881);74.8226089478;1.0;11:45:39:968;0;15;-1.49677419354839;1;0;0;0;0;1;1;1;1;6;0;0;;0;0;();();(-2000.0, -2000.0);
11:45:39:984;11:45:39:934;1448060497.4;(0.4352323055267334, 0.511451678805881);74.8226089478;1.0;11:45:39:984;0;10;-1.5;1;0;0;0;0;1;1;1;1;6;0;0;;0;0;();();(-2000.0, -2000.0);
11:45:40:001;11:45:40:001;1448060497.47;(0.4199864625930786, 0.4285625457763672);27.2435684204;0.782609716323;11:45:40:001;0;14;-1.5;1;0;0;0;0;1;1;1;1;6;0;0;;0;0;();();(-2000.0, -2000.0);
11:45:40:018;11:45:40:001;1448060497.47;(0.4199864625930786, 0.4285625457763672);27.2435684204;0.782609716323;11:45:40:018;0;9;-1.5;1;0;0;0;0;1;1;1;1;6;0;0;;0;0;();();(-2000.0, -2000.0);
11:45:40:035;11:45:40:001;1448060497.47;(0.4199864625930786, 0.4285625457763672);27.2435684204;0.782609716323;11:45:40:035;0;15;-0.651612903225806;1;0;0;0;0;1;1;1;1;6;0;0;;0;0;();();(-2000.0, -2000.0);
11:45:40:068;11:45:40:001;1448060497.47;(0.4199864625930786, 0.4285625457763672);27.2435684204;0.782609716323;11:45:40:068;0;9;1.77741935483871;1;0;0;0;0;1;1;1;1;6;0;0;;0;0;();();(-2000.0, -2000.0);
11:45:40:084;11:45:40:001;1448060497.47;(0.4199864625930786, 0.4285625457763672);27.2435684204;0.782609716323;11:45:40:084;0;5;1.77741935483871;1;0;0;0;0;1;1;1;1;6;0;0;;0;0;();();(-2000.0, -2000.0);
11:45:40:104;11:45:40:001;1448060497.47;(0.4199864625930786, 0.4285625457763672);27.2435684204;0.782609716323;11:45:40:104;0;9;1.78064516129032;1;0;0;0;0;1;1;1;1;8;0;0;;0;0;();();(-2000.0, -2000.0);
11:45:40:118;11:45:40:001;1448060497.47;(0.4199864625930786, 0.4285625457763672);27.2435684204;0.782609716323;11:45:40:117;0;5;1.78064516129032;1;0;0;0;0;1;1;1;1;8;0;0;;0;0;();();(-2000.0, -2000.0);
11:45:40:135;11:45:40:135;1448060497.5;(0.4509434700012207, 0.5250759124755859);73.8748092651;0.899096001373;11:45:40:135;0;4;1.78064516129032;1;0;0;0;0;1;1;1;1;8;0;0;;0;0;();();(-2000.0, -2000.0);
11:45:40:168;11:45:40:135;1448060497.5;(0.4509434700012207, 0.5250759124755859);73.8748092651;0.899096001373;11:45:40:168;0;4;0.612903225806452;1;0;0;0;0;1;1;1;1;8;0;0;;0;0;();();(-2000.0, -2000.0);
11:45:40:185;11:45:40:135;1448060497.5;(0.4509434700012207, 0.5250759124755859);73.8748092651;0.899096001373;11:45:40:185;0;15;-1.5;1;0;0;0;0;1;1;1;1;8;0;0;;0;0;();();(-2000.0, -2000.0);
