%Timestamp,timestamp_write;timestamp_gotpupil;eyetrackertime;norm_pos;diameter;confidence;nplanes;lastaction;lastactiondetails;lastactionairplanenumber;positivescore;negativescore;collidedairplanenumbers;targetpositions;collision_point
04:23:51:033;1448033988.99;(0.24849624633789064, 0.5095192803276909);32.8843955994;0.766836627862;0;0;0;;0;0;();();(0.0, 0.0);
04:23:51:035;1448033988.99;(0.24849624633789064, 0.5095192803276909);32.8843955994;0.766836627862;0;0;0;;0;0;();();(-2000.0, -2000.0);
04:23:51:035;1448033988.99;(0.24849624633789064, 0.5095192803276909);32.8843955994;0.766836627862;0;0;0;;0;0;();();(-2000.0, -2000.0);
04:23:51:035;1448033988.99;(0.24849624633789064, 0.5095192803276909);32.8843955994;0.766836627862;0;0;0;;0;0;();();(-2000.0, -2000.0);
04:23:51:035;1448033988.99;(0.24849624633789064, 0.5095192803276909);32.8843955994;0.766836627862;0;0;0;;0;0;();();(-2000.0, -2000.0);
04:23:51:036;1448033988.99;(0.24849624633789064, 0.5095192803276909);32.8843955994;0.766836627862;0;0;0;;0;0;();();(-2000.0, -2000.0);
04:23:51:036;1448033988.99;(0.24849624633789064, 0.5095192803276909);32.8843955994;0.766836627862;0;0;0;;0;0;();();(-2000.0, -2000.0);
04:23:51:036;1448033988.99;(0.24849624633789064, 0.5095192803276909);32.8843955994;0.766836627862;0;0;0;;0;0;();();(-2000.0, -2000.0);
04:23:51:036;1448033988.99;(0.24849624633789064, 0.5095192803276909);32.8843955994;0.766836627862;0;0;0;;0;0;();();(-2000.0, -2000.0);
04:23:51:036;1448033988.99;(0.24849624633789064, 0.5095192803276909);32.8843955994;0.766836627862;0;0;0;;0;0;();();(-2000.0, -2000.0);
04:23:51:036;1448033988.99;(0.24849624633789064, 0.5095192803276909);32.8843955994;0.766836627862;0;0;0;;0;0;();();(-2000.0, -2000.0);
04:23:51:036;1448033988.99;(0.24849624633789064, 0.5095192803276909);32.8843955994;0.766836627862;0;0;0;;0;0;();();(-2000.0, -2000.0);
04:23:51:036;1448033988.99;(0.24849624633789064, 0.5095192803276909);32.8843955994;0.766836627862;0;0;0;;0;0;();();(-2000.0, -2000.0);
04:23:51:037;1448033988.99;(0.24849624633789064, 0.5095192803276909);32.8843955994;0.766836627862;0;0;0;;0;0;();();(-2000.0, -2000.0);
04:23:51:037;1448033988.99;(0.24849624633789064, 0.5095192803276909);32.8843955994;0.766836627862;0;0;0;;0;0;();();(-2000.0, -2000.0);
04:23:51:037;1448033988.99;(0.24849624633789064, 0.5095192803276909);32.8843955994;0.766836627862;0;0;0;;0;0;();();(-2000.0, -2000.0);
04:23:51:053;1448033988.99;(0.24849624633789064, 0.5095192803276909);32.8843955994;0.766836627862;0;0;0;;0;0;();();(-2000.0, -2000.0);
04:23:51:069;1448033988.99;(0.24849624633789064, 0.5095192803276909);32.8843955994;0.766836627862;0;0;0;;0;0;();();(-2000.0, -2000.0);
04:23:51:086;1448033988.99;(0.24849624633789064, 0.5095192803276909);32.8843955994;0.766836627862;0;0;0;;0;0;();();(-2000.0, -2000.0);
04:23:51:102;1448033988.99;(0.24849624633789064, 0.5095192803276909);32.8843955994;0.766836627862;0;0;0;;0;0;();();(-2000.0, -2000.0);
04:23:51:135;04:23:51:128;1448033989.04;(0.5982526302337646, 0.5428747389051649);67.3881912231;0.782329704194;0;0;0;;0;0;();();(-2000.0, -2000.0);
04:23:51:152;04:23:51:128;1448033989.04;(0.5982526302337646, 0.5428747389051649);67.3881912231;0.782329704194;0;0;0;;0;0;();();(-2000.0, -2000.0);
04:23:51:169;04:23:51:128;1448033989.04;(0.5982526302337646, 0.5428747389051649);67.3881912231;0.782329704194;0;0;0;;0;0;();();(-2000.0, -2000.0);
04:23:51:185;04:23:51:128;1448033989.04;(0.5982526302337646, 0.5428747389051649);67.3881912231;0.782329704194;0;0;0;;0;0;();();(-2000.0, -2000.0);
04:23:51:202;04:23:51:128;1448033989.04;(0.5982526302337646, 0.5428747389051649);67.3881912231;0.782329704194;0;0;0;;0;0;();();(-2000.0, -2000.0);
04:23:51:235;04:23:51:128;1448033989.04;(0.5982526302337646, 0.5428747389051649);67.3881912231;0.782329704194;0;0;0;;0;0;();();(-2000.0, -2000.0);
04:23:51:252;04:23:51:128;1448033989.04;(0.5982526302337646, 0.5428747389051649);67.3881912231;0.782329704194;0;0;0;;0;0;();();(-2000.0, -2000.0);
04:23:51:269;04:23:51:128;1448033989.04;(0.5982526302337646, 0.5428747389051649);67.3881912231;0.782329704194;0;0;0;;0;0;();();(-2000.0, -2000.0);
04:23:51:284;04:23:51:128;1448033989.04;(0.5982526302337646, 0.5428747389051649);67.3881912231;0.782329704194;0;0;0;;0;0;();();(-2000.0, -2000.0);
04:23:51:301;04:23:51:128;1448033989.04;(0.5982526302337646, 0.5428747389051649);67.3881912231;0.782329704194;0;0;0;;0;0;();();(-2000.0, -2000.0);
04:23:51:334;04:23:51:328;1448033989.36;(0.3448041439056396, 0.5805282168918185);33.0776557922;0.638863861106;0;0;0;;0;0;();();(-2000.0, -2000.0);
04:23:51:350;04:23:51:328;1448033989.36;(0.3448041439056396, 0.5805282168918185);33.0776557922;0.638863861106;0;0;0;;0;0;();();(-2000.0, -2000.0);
04:23:51:368;04:23:51:328;1448033989.36;(0.3448041439056396, 0.5805282168918185);33.0776557922;0.638863861106;0;0;0;;0;0;();();(-2000.0, -2000.0);
04:23:51:384;04:23:51:328;1448033989.36;(0.3448041439056396, 0.5805282168918185);33.0776557922;0.638863861106;0;0;0;;0;0;();();(-2000.0, -2000.0);
04:23:51:400;04:23:51:328;1448033989.36;(0.3448041439056396, 0.5805282168918185);33.0776557922;0.638863861106;0;0;0;;0;0;();();(-2000.0, -2000.0);
04:23:51:433;04:23:51:328;1448033989.36;(0.3448041439056396, 0.5805282168918185);33.0776557922;0.638863861106;0;0;0;;0;0;();();(-2000.0, -2000.0);
04:23:51:450;04:23:51:328;1448033989.36;(0.3448041439056396, 0.5805282168918185);33.0776557922;0.638863861106;0;0;0;;0;0;();();(-2000.0, -2000.0);
04:23:51:467;04:23:51:328;1448033989.36;(0.3448041439056396, 0.5805282168918185);33.0776557922;0.638863861106;0;0;0;;0;0;();();(-2000.0, -2000.0);
04:23:51:484;04:23:51:328;1448033989.36;(0.3448041439056396, 0.5805282168918185);33.0776557922;0.638863861106;0;0;0;;0;0;();();(-2000.0, -2000.0);
04:23:51:500;04:23:51:328;1448033989.36;(0.3448041439056396, 0.5805282168918185);33.0776557922;0.638863861106;0;0;0;;0;0;();();(-2000.0, -2000.0);
04:23:51:533;04:23:51:528;1448033989.57;(0.5762481689453125, 0.6460963143242731);23.8739948273;0.757786498414;0;0;0;;0;0;();();(-2000.0, -2000.0);
04:23:51:550;04:23:51:528;1448033989.57;(0.5762481689453125, 0.6460963143242731);23.8739948273;0.757786498414;0;0;0;;0;0;();();(-2000.0, -2000.0);
04:23:51:566;04:23:51:528;1448033989.57;(0.5762481689453125, 0.6460963143242731);23.8739948273;0.757786498414;0;0;0;;0;0;();();(-2000.0, -2000.0);
04:23:51:583;04:23:51:528;1448033989.57;(0.5762481689453125, 0.6460963143242731);23.8739948273;0.757786498414;0;0;0;;0;0;();();(-2000.0, -2000.0);
04:23:51:600;04:23:51:528;1448033989.57;(0.5762481689453125, 0.6460963143242731);23.8739948273;0.757786498414;0;0;0;;0;0;();();(-2000.0, -2000.0);
04:23:51:633;04:23:51:528;1448033989.57;(0.5762481689453125, 0.6460963143242731);23.8739948273;0.757786498414;0;0;0;;0;0;();();(-2000.0, -2000.0);
04:23:51:649;04:23:51:528;1448033989.57;(0.5762481689453125, 0.6460963143242731);23.8739948273;0.757786498414;0;0;0;;0;0;();();(-2000.0, -2000.0);
04:23:51:666;04:23:51:528;1448033989.57;(0.5762481689453125, 0.6460963143242731);23.8739948273;0.757786498414;0;0;0;;0;0;();();(-2000.0, -2000.0);
04:23:51:683;04:23:51:528;1448033989.57;(0.5762481689453125, 0.6460963143242731);23.8739948273;0.757786498414;0;0;0;;0;0;();();(-2000.0, -2000.0);
04:23:51:734;04:23:51:733;1448033989.8;(0.5483109951019287, 0.6837549845377604);31.0280246735;0.876484914621;0;0;0;;0;0;();();(-2000.0, -2000.0);
04:23:51:747;04:23:51:733;1448033989.8;(0.5483109951019287, 0.6837549845377604);31.0280246735;0.876484914621;0;0;0;;0;0;();();(-2000.0, -2000.0);
04:23:51:751;04:23:51:733;1448033989.8;(0.5483109951019287, 0.6837549845377604);31.0280246735;0.876484914621;0;0;0;;0;0;();();(-2000.0, -2000.0);
04:23:51:768;04:23:51:733;1448033989.8;(0.5483109951019287, 0.6837549845377604);31.0280246735;0.876484914621;0;0;0;;0;0;();();(-2000.0, -2000.0);
04:23:51:784;04:23:51:733;1448033989.8;(0.5483109951019287, 0.6837549845377604);31.0280246735;0.876484914621;0;0;0;;0;0;();();(-2000.0, -2000.0);
04:23:51:801;04:23:51:793;1448033989.84;(0.5480931282043457, 0.6839656829833984);31.9517421722;0.838279107925;0;0;0;;0;0;();();(-2000.0, -2000.0);
04:23:51:834;04:23:51:793;1448033989.84;(0.5480931282043457, 0.6839656829833984);31.9517421722;0.838279107925;0;0;0;;0;0;();();(-2000.0, -2000.0);
04:23:51:851;04:23:51:793;1448033989.84;(0.5480931282043457, 0.6839656829833984);31.9517421722;0.838279107925;0;0;0;;0;0;();();(-2000.0, -2000.0);
04:23:51:867;04:23:51:859;1448033989.87;(0.5480652809143066, 0.6847168604532878);31.7822685242;0.88664151992;0;0;0;;0;0;();();(-2000.0, -2000.0);
04:23:51:884;04:23:51:859;1448033989.87;(0.5480652809143066, 0.6847168604532878);31.7822685242;0.88664151992;0;0;0;;0;0;();();(-2000.0, -2000.0);
04:23:51:901;04:23:51:859;1448033989.87;(0.5480652809143066, 0.6847168604532878);31.7822685242;0.88664151992;0;0;0;;0;0;();();(-2000.0, -2000.0);
04:23:51:933;04:23:51:859;1448033989.87;(0.5480652809143066, 0.6847168604532878);31.7822685242;0.88664151992;0;0;0;;0;0;();();(-2000.0, -2000.0);
04:23:51:950;04:23:51:859;1448033989.87;(0.5480652809143066, 0.6847168604532878);31.7822685242;0.88664151992;0;0;0;;0;0;();();(-2000.0, -2000.0);
04:23:51:966;04:23:51:859;1448033989.87;(0.5480652809143066, 0.6847168604532878);31.7822685242;0.88664151992;0;0;0;;0;0;();();(-2000.0, -2000.0);
04:23:51:983;04:23:51:859;1448033989.87;(0.5480652809143066, 0.6847168604532878);31.7822685242;0.88664151992;0;0;0;;0;0;();();(-2000.0, -2000.0);
04:23:52:000;04:23:51:992;1448033989.91;(0.5992475509643554, 0.5490426805284288);69.3378677368;0.719139173437;0;0;0;;0;0;();();(-2000.0, -2000.0);
04:23:52:032;04:23:51:992;1448033989.91;(0.5992475509643554, 0.5490426805284288);69.3378677368;0.719139173437;0;0;0;;0;0;();();(-2000.0, -2000.0);
04:23:52:049;04:23:51:992;1448033989.91;(0.5992475509643554, 0.5490426805284288);69.3378677368;0.719139173437;0;0;0;;0;0;();();(-2000.0, -2000.0);
04:23:52:066;04:23:51:992;1448033989.91;(0.5992475509643554, 0.5490426805284288);69.3378677368;0.719139173437;0;0;0;;0;0;();();(-2000.0, -2000.0);
04:23:52:083;04:23:51:992;1448033989.91;(0.5992475509643554, 0.5490426805284288);69.3378677368;0.719139173437;0;0;0;;0;0;();();(-2000.0, -2000.0);
04:23:52:115;04:23:51:992;1448033989.91;(0.5992475509643554, 0.5490426805284288);69.3378677368;0.719139173437;0;0;0;;0;0;();();(-2000.0, -2000.0);
04:23:52:132;04:23:52:123;1448033990.05;(0.6032012462615967, 0.5355475531684029);63.7394447327;0.657353068906;0;0;0;;0;0;();();(-2000.0, -2000.0);
04:23:52:149;04:23:52:123;1448033990.05;(0.6032012462615967, 0.5355475531684029);63.7394447327;0.657353068906;0;0;0;;0;0;();();(-2000.0, -2000.0);
04:23:52:166;04:23:52:123;1448033990.05;(0.6032012462615967, 0.5355475531684029);63.7394447327;0.657353068906;0;0;0;;0;0;();();(-2000.0, -2000.0);
04:23:52:181;04:23:52:123;1448033990.05;(0.6032012462615967, 0.5355475531684029);63.7394447327;0.657353068906;0;0;0;;0;0;();();(-2000.0, -2000.0);
04:23:52:215;04:23:52:123;1448033990.05;(0.6032012462615967, 0.5355475531684029);63.7394447327;0.657353068906;0;0;0;;0;0;();();(-2000.0, -2000.0);
04:23:52:232;04:23:52:123;1448033990.05;(0.6032012462615967, 0.5355475531684029);63.7394447327;0.657353068906;0;0;0;;0;0;();();(-2000.0, -2000.0);
04:23:52:248;04:23:52:123;1448033990.05;(0.6032012462615967, 0.5355475531684029);63.7394447327;0.657353068906;0;0;0;;0;0;();();(-2000.0, -2000.0);
04:23:52:265;04:23:52:255;1448033990.18;(0.5927480697631836, 0.548334206475152);71.6321716309;0.841729940764;0;0;0;;0;0;();();(-2000.0, -2000.0);
04:23:52:281;04:23:52:255;1448033990.18;(0.5927480697631836, 0.548334206475152);71.6321716309;0.841729940764;0;0;0;;0;0;();();(-2000.0, -2000.0);
04:23:52:314;04:23:52:255;1448033990.18;(0.5927480697631836, 0.548334206475152);71.6321716309;0.841729940764;0;0;0;;0;0;();();(-2000.0, -2000.0);
04:23:52:331;04:23:52:255;1448033990.18;(0.5927480697631836, 0.548334206475152);71.6321716309;0.841729940764;0;0;0;;0;0;();();(-2000.0, -2000.0);
04:23:52:347;04:23:52:255;1448033990.18;(0.5927480697631836, 0.548334206475152);71.6321716309;0.841729940764;0;0;0;;0;0;();();(-2000.0, -2000.0);
04:23:52:364;04:23:52:255;1448033990.18;(0.5927480697631836, 0.548334206475152);71.6321716309;0.841729940764;0;0;0;;0;0;();();(-2000.0, -2000.0);
04:23:52:381;04:23:52:255;1448033990.18;(0.5927480697631836, 0.548334206475152);71.6321716309;0.841729940764;0;0;0;;0;0;();();(-2000.0, -2000.0);
04:23:52:413;04:23:52:255;1448033990.18;(0.5927480697631836, 0.548334206475152);71.6321716309;0.841729940764;0;0;0;;0;0;();();(-2000.0, -2000.0);
04:23:52:430;04:23:52:255;1448033990.18;(0.5927480697631836, 0.548334206475152);71.6321716309;0.841729940764;0;0;0;;0;0;();();(-2000.0, -2000.0);
04:23:52:447;04:23:52:255;1448033990.18;(0.5927480697631836, 0.548334206475152);71.6321716309;0.841729940764;0;0;0;;0;0;();();(-2000.0, -2000.0);
04:23:52:463;04:23:52:455;1448033990.31;(0.5898860454559326, 0.551713350084093);71.5411148071;0.738837942259;0;0;0;;0;0;();();(-2000.0, -2000.0);
04:23:52:480;04:23:52:455;1448033990.31;(0.5898860454559326, 0.551713350084093);71.5411148071;0.738837942259;0;0;0;;0;0;();();(-2000.0, -2000.0);
04:23:52:513;04:23:52:455;1448033990.31;(0.5898860454559326, 0.551713350084093);71.5411148071;0.738837942259;0;0;0;;0;0;();();(-2000.0, -2000.0);
04:23:52:530;04:23:52:455;1448033990.31;(0.5898860454559326, 0.551713350084093);71.5411148071;0.738837942259;0;0;0;;0;0;();();(-2000.0, -2000.0);
04:23:52:546;04:23:52:455;1448033990.31;(0.5898860454559326, 0.551713350084093);71.5411148071;0.738837942259;0;0;0;;0;0;();();(-2000.0, -2000.0);
04:23:52:563;04:23:52:455;1448033990.31;(0.5898860454559326, 0.551713350084093);71.5411148071;0.738837942259;0;0;0;;0;0;();();(-2000.0, -2000.0);
04:23:52:580;04:23:52:455;1448033990.31;(0.5898860454559326, 0.551713350084093);71.5411148071;0.738837942259;0;0;0;;0;0;();();(-2000.0, -2000.0);
04:23:52:612;04:23:52:587;1448033990.49;(0.6065179824829101, 0.5334205203586154);64.3426513672;0.751454499772;0;0;0;;0;0;();();(-2000.0, -2000.0);
04:23:52:629;04:23:52:587;1448033990.49;(0.6065179824829101, 0.5334205203586154);64.3426513672;0.751454499772;0;0;0;;0;0;();();(-2000.0, -2000.0);
04:23:52:646;04:23:52:587;1448033990.49;(0.6065179824829101, 0.5334205203586154);64.3426513672;0.751454499772;0;0;0;;0;0;();();(-2000.0, -2000.0);
04:23:52:662;04:23:52:587;1448033990.49;(0.6065179824829101, 0.5334205203586154);64.3426513672;0.751454499772;0;0;0;;0;0;();();(-2000.0, -2000.0);
04:23:52:695;04:23:52:587;1448033990.49;(0.6065179824829101, 0.5334205203586154);64.3426513672;0.751454499772;0;0;0;;0;0;();();(-2000.0, -2000.0);
04:23:52:712;04:23:52:587;1448033990.49;(0.6065179824829101, 0.5334205203586154);64.3426513672;0.751454499772;0;0;0;;0;0;();();(-2000.0, -2000.0);
04:23:52:729;04:23:52:723;1448033990.64;(0.6115714550018311, 0.5286936865912544);67.4683837891;0.607342277264;0;0;0;;0;0;();();(-2000.0, -2000.0);
04:23:52:745;04:23:52:723;1448033990.64;(0.6115714550018311, 0.5286936865912544);67.4683837891;0.607342277264;0;0;0;;0;0;();();(-2000.0, -2000.0);
04:23:52:761;04:23:52:723;1448033990.64;(0.6115714550018311, 0.5286936865912544);67.4683837891;0.607342277264;0;0;0;;0;0;();();(-2000.0, -2000.0);
04:23:52:795;04:23:52:723;1448033990.64;(0.6115714550018311, 0.5286936865912544);67.4683837891;0.607342277264;0;0;0;;0;0;();();(-2000.0, -2000.0);
04:23:52:811;04:23:52:723;1448033990.64;(0.6115714550018311, 0.5286936865912544);67.4683837891;0.607342277264;0;0;0;;0;0;();();(-2000.0, -2000.0);
04:23:52:828;04:23:52:723;1448033990.64;(0.6115714550018311, 0.5286936865912544);67.4683837891;0.607342277264;0;0;0;;0;0;();();(-2000.0, -2000.0);
04:23:52:845;04:23:52:723;1448033990.64;(0.6115714550018311, 0.5286936865912544);67.4683837891;0.607342277264;0;0;0;;0;0;();();(-2000.0, -2000.0);
04:23:52:861;04:23:52:856;1448033990.78;(0.6128815174102783, 0.53290892706977);66.1582336426;0.664337428083;0;0;0;;0;0;();();(-2000.0, -2000.0);
04:23:52:893;04:23:52:856;1448033990.78;(0.6128815174102783, 0.53290892706977);66.1582336426;0.664337428083;0;0;0;;0;0;();();(-2000.0, -2000.0);
04:23:52:911;04:23:52:856;1448033990.78;(0.6128815174102783, 0.53290892706977);66.1582336426;0.664337428083;0;0;0;;0;0;();();(-2000.0, -2000.0);
04:23:52:928;04:23:52:920;1448033990.97;(0.5264891147613525, 0.43428611755371094);24.2190265656;0.632183428671;0;0;0;;0;0;();();(-2000.0, -2000.0);
04:23:52:944;04:23:52:920;1448033990.97;(0.5264891147613525, 0.43428611755371094);24.2190265656;0.632183428671;0;0;0;;0;0;();();(-2000.0, -2000.0);
04:23:52:961;04:23:52:920;1448033990.97;(0.5264891147613525, 0.43428611755371094);24.2190265656;0.632183428671;0;0;0;;0;0;();();(-2000.0, -2000.0);
04:23:52:993;04:23:52:992;1448033991.04;(0, 0);0;0;0;0;0;;0;0;();();(-2000.0, -2000.0);
04:23:53:010;04:23:52:992;1448033991.04;(0, 0);0;0;0;0;0;;0;0;();();(-2000.0, -2000.0);
04:23:53:027;04:23:52:992;1448033991.04;(0, 0);0;0;0;0;0;;0;0;();();(-2000.0, -2000.0);
04:23:53:043;04:23:52:992;1448033991.04;(0, 0);0;0;0;0;0;;0;0;();();(-2000.0, -2000.0);
04:23:53:060;04:23:52:992;1448033991.04;(0, 0);0;0;0;0;0;;0;0;();();(-2000.0, -2000.0);
04:23:53:093;04:23:52:992;1448033991.04;(0, 0);0;0;0;0;0;;0;0;();();(-2000.0, -2000.0);
04:23:53:110;04:23:52:992;1448033991.04;(0, 0);0;0;0;0;0;;0;0;();();(-2000.0, -2000.0);
04:23:53:126;04:23:53:119;1448033991.07;(0.3721065282821655, 0.5678288777669271);46.3090515137;0.628855971606;0;0;0;;0;0;();();(-2000.0, -2000.0);
04:23:53:143;04:23:53:119;1448033991.07;(0.3721065282821655, 0.5678288777669271);46.3090515137;0.628855971606;0;0;0;;0;0;();();(-2000.0, -2000.0);
04:23:53:160;04:23:53:119;1448033991.07;(0.3721065282821655, 0.5678288777669271);46.3090515137;0.628855971606;0;0;0;;0;0;();();(-2000.0, -2000.0);
04:23:53:192;04:23:53:119;1448033991.07;(0.3721065282821655, 0.5678288777669271);46.3090515137;0.628855971606;0;0;0;;0;0;();();(-2000.0, -2000.0);
04:23:53:209;04:23:53:119;1448033991.07;(0.3721065282821655, 0.5678288777669271);46.3090515137;0.628855971606;0;0;0;;0;0;();();(-2000.0, -2000.0);
04:23:53:225;04:23:53:119;1448033991.07;(0.3721065282821655, 0.5678288777669271);46.3090515137;0.628855971606;0;0;0;;0;0;();();(-2000.0, -2000.0);
04:23:53:242;04:23:53:119;1448033991.07;(0.3721065282821655, 0.5678288777669271);46.3090515137;0.628855971606;0;0;0;;0;0;();();(-2000.0, -2000.0);
04:23:53:275;04:23:53:251;1448033991.15;(0.5915619850158691, 0.5643063015407986);92.1483688354;0.748213928984;0;0;0;;0;0;();();(-2000.0, -2000.0);
04:23:53:292;04:23:53:251;1448033991.15;(0.5915619850158691, 0.5643063015407986);92.1483688354;0.748213928984;0;0;0;;0;0;();();(-2000.0, -2000.0);
04:23:53:309;04:23:53:251;1448033991.15;(0.5915619850158691, 0.5643063015407986);92.1483688354;0.748213928984;0;0;0;;0;0;();();(-2000.0, -2000.0);
04:23:53:326;04:23:53:319;1448033991.29;(0.5996213436126709, 0.5289322747124565);64.9703216553;0.604242499171;0;0;0;;0;0;();();(-2000.0, -2000.0);
04:23:53:341;04:23:53:319;1448033991.29;(0.5996213436126709, 0.5289322747124565);64.9703216553;0.604242499171;0;0;0;;0;0;();();(-2000.0, -2000.0);
04:23:53:374;04:23:53:319;1448033991.29;(0.5996213436126709, 0.5289322747124565);64.9703216553;0.604242499171;0;0;0;;0;0;();();(-2000.0, -2000.0);
04:23:53:391;04:23:53:319;1448033991.29;(0.5996213436126709, 0.5289322747124565);64.9703216553;0.604242499171;0;0;0;;0;0;();();(-2000.0, -2000.0);
04:23:53:408;04:23:53:319;1448033991.29;(0.5996213436126709, 0.5289322747124565);64.9703216553;0.604242499171;0;0;0;;0;0;();();(-2000.0, -2000.0);
04:23:53:425;04:23:53:319;1448033991.29;(0.5996213436126709, 0.5289322747124565);64.9703216553;0.604242499171;0;0;0;;0;0;();();(-2000.0, -2000.0);
04:23:53:441;04:23:53:319;1448033991.29;(0.5996213436126709, 0.5289322747124565);64.9703216553;0.604242499171;0;0;0;;0;0;();();(-2000.0, -2000.0);
04:23:53:474;04:23:53:459;1448033991.4;(0.5018115520477295, 0.7010453542073567);29.244758606;0.664259198958;0;0;0;;0;0;();();(-2000.0, -2000.0);
04:23:53:491;04:23:53:459;1448033991.4;(0.5018115520477295, 0.7010453542073567);29.244758606;0.664259198958;0;0;0;;0;0;();();(-2000.0, -2000.0);
04:23:53:507;04:23:53:459;1448033991.4;(0.5018115520477295, 0.7010453542073567);29.244758606;0.664259198958;0;0;0;;0;0;();();(-2000.0, -2000.0);
04:23:53:524;04:23:53:459;1448033991.4;(0.5018115520477295, 0.7010453542073567);29.244758606;0.664259198958;0;0;0;;0;0;();();(-2000.0, -2000.0);
04:23:53:539;04:23:53:459;1448033991.4;(0.5018115520477295, 0.7010453542073567);29.244758606;0.664259198958;0;0;0;;0;0;();();(-2000.0, -2000.0);
04:23:53:574;04:23:53:459;1448033991.4;(0.5018115520477295, 0.7010453542073567);29.244758606;0.664259198958;0;0;0;;0;0;();();(-2000.0, -2000.0);
04:23:53:590;04:23:53:584;1448033991.53;(0.42003607749938965, 0.600839869181315);36.6343193054;0.701584274901;0;0;0;;0;0;();();(-2000.0, -2000.0);
04:23:53:607;04:23:53:584;1448033991.53;(0.42003607749938965, 0.600839869181315);36.6343193054;0.701584274901;0;0;0;;0;0;();();(-2000.0, -2000.0);
04:23:53:622;04:23:53:584;1448033991.53;(0.42003607749938965, 0.600839869181315);36.6343193054;0.701584274901;0;0;0;;0;0;();();(-2000.0, -2000.0);
04:23:53:639;04:23:53:584;1448033991.53;(0.42003607749938965, 0.600839869181315);36.6343193054;0.701584274901;0;0;0;;0;0;();();(-2000.0, -2000.0);
04:23:53:673;04:23:53:652;1448033991.64;(0.6053542613983154, 0.5295509338378906);70.4515228271;0.72408079063;0;0;0;;0;0;();();(-2000.0, -2000.0);
04:23:53:690;04:23:53:652;1448033991.64;(0.6053542613983154, 0.5295509338378906);70.4515228271;0.72408079063;0;0;0;;0;0;();();(-2000.0, -2000.0);
04:23:53:706;04:23:53:652;1448033991.64;(0.6053542613983154, 0.5295509338378906);70.4515228271;0.72408079063;0;0;0;;0;0;();();(-2000.0, -2000.0);
04:23:53:723;04:23:53:652;1448033991.64;(0.6053542613983154, 0.5295509338378906);70.4515228271;0.72408079063;0;0;0;;0;0;();();(-2000.0, -2000.0);
04:23:53:755;04:23:53:652;1448033991.64;(0.6053542613983154, 0.5295509338378906);70.4515228271;0.72408079063;0;0;0;;0;0;();();(-2000.0, -2000.0);
04:23:53:772;04:23:53:652;1448033991.64;(0.6053542613983154, 0.5295509338378906);70.4515228271;0.72408079063;0;0;0;;0;0;();();(-2000.0, -2000.0);
04:23:53:789;04:23:53:652;1448033991.64;(0.6053542613983154, 0.5295509338378906);70.4515228271;0.72408079063;0;0;0;;0;0;();();(-2000.0, -2000.0);
04:23:53:806;04:23:53:652;1448033991.64;(0.6053542613983154, 0.5295509338378906);70.4515228271;0.72408079063;0;0;0;;0;0;();();(-2000.0, -2000.0);
04:23:53:821;04:23:53:652;1448033991.64;(0.6053542613983154, 0.5295509338378906);70.4515228271;0.72408079063;0;0;0;;0;0;();();(-2000.0, -2000.0);
04:23:53:855;04:23:53:852;1448033991.73;(0.6057608604431153, 0.5204259660508898);67.1909866333;0.62278637863;0;0;0;;0;0;();();(-2000.0, -2000.0);
04:23:53:871;04:23:53:852;1448033991.73;(0.6057608604431153, 0.5204259660508898);67.1909866333;0.62278637863;0;0;0;;0;0;();();(-2000.0, -2000.0);
04:23:53:888;04:23:53:852;1448033991.73;(0.6057608604431153, 0.5204259660508898);67.1909866333;0.62278637863;0;0;0;;0;0;();();(-2000.0, -2000.0);
04:23:53:905;04:23:53:852;1448033991.73;(0.6057608604431153, 0.5204259660508898);67.1909866333;0.62278637863;0;0;0;;0;0;();();(-2000.0, -2000.0);
04:23:53:921;04:23:53:852;1448033991.73;(0.6057608604431153, 0.5204259660508898);67.1909866333;0.62278637863;0;0;0;;0;0;();();(-2000.0, -2000.0);
04:23:53:954;04:23:53:852;1448033991.73;(0.6057608604431153, 0.5204259660508898);67.1909866333;0.62278637863;0;0;0;;0;0;();();(-2000.0, -2000.0);
04:23:53:971;04:23:53:852;1448033991.73;(0.6057608604431153, 0.5204259660508898);67.1909866333;0.62278637863;0;0;0;;0;0;();();(-2000.0, -2000.0);
04:23:53:988;04:23:53:852;1448033991.73;(0.6057608604431153, 0.5204259660508898);67.1909866333;0.62278637863;0;0;0;;0;0;();();(-2000.0, -2000.0);
04:23:54:004;04:23:53:989;1448033991.91;(0.5885259628295898, 0.5519230312771267);93.8720245361;0.609876436989;0;0;0;;0;0;();();(-2000.0, -2000.0);
04:23:54:020;04:23:53:989;1448033991.91;(0.5885259628295898, 0.5519230312771267);93.8720245361;0.609876436989;0;0;0;;0;0;();();(-2000.0, -2000.0);
04:23:54:054;04:23:54:049;1448033992.04;(0.5951385498046875, 0.5267619238959418);73.8065261841;0.684949123028;0;0;0;;0;0;();();(-2000.0, -2000.0);
04:23:54:070;04:23:54:049;1448033992.04;(0.5951385498046875, 0.5267619238959418);73.8065261841;0.684949123028;0;0;0;;0;0;();();(-2000.0, -2000.0);
04:23:54:087;04:23:54:049;1448033992.04;(0.5951385498046875, 0.5267619238959418);73.8065261841;0.684949123028;0;0;0;;0;0;();();(-2000.0, -2000.0);
04:23:54:104;04:23:54:049;1448033992.04;(0.5951385498046875, 0.5267619238959418);73.8065261841;0.684949123028;0;0;0;;0;0;();();(-2000.0, -2000.0);
04:23:54:120;04:23:54:049;1448033992.04;(0.5951385498046875, 0.5267619238959418);73.8065261841;0.684949123028;0;0;0;;0;0;();();(-2000.0, -2000.0);
04:23:54:153;04:23:54:049;1448033992.04;(0.5951385498046875, 0.5267619238959418);73.8065261841;0.684949123028;0;0;0;;0;0;();();(-2000.0, -2000.0);
04:23:54:169;04:23:54:049;1448033992.04;(0.5951385498046875, 0.5267619238959418);73.8065261841;0.684949123028;0;0;0;;0;0;();();(-2000.0, -2000.0);
04:23:54:186;04:23:54:049;1448033992.04;(0.5951385498046875, 0.5267619238959418);73.8065261841;0.684949123028;0;0;0;;0;0;();();(-2000.0, -2000.0);
04:23:54:203;04:23:54:196;1448033992.13;(0.5941202163696289, 0.5212338765462239);69.1630477905;0.608901686222;0;0;0;;0;0;();();(-2000.0, -2000.0);
04:23:54:220;04:23:54:196;1448033992.13;(0.5941202163696289, 0.5212338765462239);69.1630477905;0.608901686222;0;0;0;;0;0;();();(-2000.0, -2000.0);
04:23:54:252;04:23:54:196;1448033992.13;(0.5941202163696289, 0.5212338765462239);69.1630477905;0.608901686222;0;0;0;;0;0;();();(-2000.0, -2000.0);
04:23:54:269;04:23:54:196;1448033992.13;(0.5941202163696289, 0.5212338765462239);69.1630477905;0.608901686222;0;0;0;;0;0;();();(-2000.0, -2000.0);
04:23:54:285;04:23:54:196;1448033992.13;(0.5941202163696289, 0.5212338765462239);69.1630477905;0.608901686222;0;0;0;;0;0;();();(-2000.0, -2000.0);
04:23:54:302;04:23:54:196;1448033992.13;(0.5941202163696289, 0.5212338765462239);69.1630477905;0.608901686222;0;0;0;;0;0;();();(-2000.0, -2000.0);
04:23:54:336;04:23:54:315;1448033992.22;(0.58931565284729, 0.5359986199273004);77.9282531738;0.633866207295;0;0;0;;0;0;();();(-2000.0, -2000.0);
04:23:54:352;04:23:54:315;1448033992.22;(0.58931565284729, 0.5359986199273004);77.9282531738;0.633866207295;0;0;0;;0;0;();();(-2000.0, -2000.0);
04:23:54:369;04:23:54:315;1448033992.22;(0.58931565284729, 0.5359986199273004);77.9282531738;0.633866207295;0;0;0;;0;0;();();(-2000.0, -2000.0);
04:23:54:386;04:23:54:315;1448033992.22;(0.58931565284729, 0.5359986199273004);77.9282531738;0.633866207295;0;0;0;;0;0;();();(-2000.0, -2000.0);
04:23:54:402;04:23:54:315;1448033992.22;(0.58931565284729, 0.5359986199273004);77.9282531738;0.633866207295;0;0;0;;0;0;();();(-2000.0, -2000.0);
04:23:54:434;04:23:54:315;1448033992.22;(0.58931565284729, 0.5359986199273004);77.9282531738;0.633866207295;0;0;0;;0;0;();();(-2000.0, -2000.0);
04:23:54:451;04:23:54:447;1448033992.36;(0.5955437183380127, 0.5391017066107856);78.0511627197;0.661839344863;0;0;0;;0;0;();();(-2000.0, -2000.0);
04:23:54:468;04:23:54:447;1448033992.36;(0.5955437183380127, 0.5391017066107856);78.0511627197;0.661839344863;0;0;0;;0;0;();();(-2000.0, -2000.0);
04:23:54:484;04:23:54:447;1448033992.36;(0.5955437183380127, 0.5391017066107856);78.0511627197;0.661839344863;0;0;0;;0;0;();();(-2000.0, -2000.0);
04:23:54:501;04:23:54:447;1448033992.36;(0.5955437183380127, 0.5391017066107856);78.0511627197;0.661839344863;0;0;0;;0;0;();();(-2000.0, -2000.0);
04:23:54:534;04:23:54:515;1448033992.48;(0.5918488502502441, 0.5665028889973958);94.6937332153;0.757577719536;0;0;0;;0;0;();();(-2000.0, -2000.0);
04:23:54:550;04:23:54:515;1448033992.48;(0.5918488502502441, 0.5665028889973958);94.6937332153;0.757577719536;0;0;0;;0;0;();();(-2000.0, -2000.0);
04:23:54:567;04:23:54:515;1448033992.48;(0.5918488502502441, 0.5665028889973958);94.6937332153;0.757577719536;0;0;0;;0;0;();();(-2000.0, -2000.0);
04:23:54:584;04:23:54:580;1448033992.62;(0.4961967468261719, 0.6347506205240885);18.8967399597;0.890775600334;0;0;0;;0;0;();();(-2000.0, -2000.0);
04:23:54:601;04:23:54:580;1448033992.62;(0.4961967468261719, 0.6347506205240885);18.8967399597;0.890775600334;0;0;0;;0;0;();();(-2000.0, -2000.0);
04:23:54:634;04:23:54:580;1448033992.62;(0.4961967468261719, 0.6347506205240885);18.8967399597;0.890775600334;0;0;0;;0;0;();();(-2000.0, -2000.0);
04:23:54:650;04:23:54:580;1448033992.62;(0.4961967468261719, 0.6347506205240885);18.8967399597;0.890775600334;0;0;0;;0;0;();();(-2000.0, -2000.0);
04:23:54:667;04:23:54:580;1448033992.62;(0.4961967468261719, 0.6347506205240885);18.8967399597;0.890775600334;0;0;0;;0;0;();();(-2000.0, -2000.0);
04:23:54:683;04:23:54:580;1448033992.62;(0.4961967468261719, 0.6347506205240885);18.8967399597;0.890775600334;0;0;0;;0;0;();();(-2000.0, -2000.0);
04:23:54:700;04:23:54:580;1448033992.62;(0.4961967468261719, 0.6347506205240885);18.8967399597;0.890775600334;0;0;0;;0;0;();();(-2000.0, -2000.0);
04:23:54:732;04:23:54:712;1448033992.64;(0.5981910705566407, 0.5362013075086806);67.1746063232;0.697493335478;0;0;0;;0;0;();();(-2000.0, -2000.0);
04:23:54:749;04:23:54:712;1448033992.64;(0.5981910705566407, 0.5362013075086806);67.1746063232;0.697493335478;0;0;0;;0;0;();();(-2000.0, -2000.0);
04:23:54:766;04:23:54:712;1448033992.64;(0.5981910705566407, 0.5362013075086806);67.1746063232;0.697493335478;0;0;0;;0;0;();();(-2000.0, -2000.0);
04:23:54:783;04:23:54:712;1448033992.64;(0.5981910705566407, 0.5362013075086806);67.1746063232;0.697493335478;0;0;0;;0;0;();();(-2000.0, -2000.0);
04:23:54:816;04:23:54:712;1448033992.64;(0.5981910705566407, 0.5362013075086806);67.1746063232;0.697493335478;0;0;0;;0;0;();();(-2000.0, -2000.0);
04:23:54:832;04:23:54:712;1448033992.64;(0.5981910705566407, 0.5362013075086806);67.1746063232;0.697493335478;0;0;0;;0;0;();();(-2000.0, -2000.0);
04:23:54:849;04:23:54:847;1448033992.75;(0.5924520015716552, 0.548526382446289);74.1323394775;0.774099240753;0;0;0;;0;0;();();(-2000.0, -2000.0);
04:23:54:865;04:23:54:847;1448033992.75;(0.5924520015716552, 0.548526382446289);74.1323394775;0.774099240753;0;0;0;;0;0;();();(-2000.0, -2000.0);
04:23:54:882;04:23:54:847;1448033992.75;(0.5924520015716552, 0.548526382446289);74.1323394775;0.774099240753;0;0;0;;0;0;();();(-2000.0, -2000.0);
04:23:54:915;04:23:54:847;1448033992.75;(0.5924520015716552, 0.548526382446289);74.1323394775;0.774099240753;0;0;0;;0;0;();();(-2000.0, -2000.0);
04:23:54:931;04:23:54:847;1448033992.75;(0.5924520015716552, 0.548526382446289);74.1323394775;0.774099240753;0;0;0;;0;0;();();(-2000.0, -2000.0);
04:23:54:948;04:23:54:847;1448033992.75;(0.5924520015716552, 0.548526382446289);74.1323394775;0.774099240753;0;0;0;;0;0;();();(-2000.0, -2000.0);
04:23:54:964;04:23:54:847;1448033992.75;(0.5924520015716552, 0.548526382446289);74.1323394775;0.774099240753;0;0;0;;0;0;();();(-2000.0, -2000.0);
04:23:54:981;04:23:54:980;1448033992.91;(0.5943113327026367, 0.545795652601454);75.3646087646;0.773852764154;0;0;0;;0;0;();();(-2000.0, -2000.0);
04:23:55:015;04:23:54:980;1448033992.91;(0.5943113327026367, 0.545795652601454);75.3646087646;0.773852764154;0;0;0;;0;0;();();(-2000.0, -2000.0);
04:23:55:031;04:23:54:980;1448033992.91;(0.5943113327026367, 0.545795652601454);75.3646087646;0.773852764154;0;0;0;;0;0;();();(-2000.0, -2000.0);
04:23:55:048;04:23:55:044;1448033993.03;(0.3592111587524414, 0.5861680348714193);53.6206932068;0.828616690681;0;0;0;;0;0;();();(-2000.0, -2000.0);
04:23:55:064;04:23:55:044;1448033993.03;(0.3592111587524414, 0.5861680348714193);53.6206932068;0.828616690681;0;0;0;;0;0;();();(-2000.0, -2000.0);
04:23:55:080;04:23:55:044;1448033993.03;(0.3592111587524414, 0.5861680348714193);53.6206932068;0.828616690681;0;0;0;;0;0;();();(-2000.0, -2000.0);
04:23:55:113;04:23:55:044;1448033993.03;(0.3592111587524414, 0.5861680348714193);53.6206932068;0.828616690681;0;0;0;;0;0;();();(-2000.0, -2000.0);
04:23:55:130;04:23:55:044;1448033993.03;(0.3592111587524414, 0.5861680348714193);53.6206932068;0.828616690681;0;0;0;;0;0;();();(-2000.0, -2000.0);
04:23:55:147;04:23:55:044;1448033993.03;(0.3592111587524414, 0.5861680348714193);53.6206932068;0.828616690681;0;0;0;;0;0;();();(-2000.0, -2000.0);
04:23:55:163;04:23:55:044;1448033993.03;(0.3592111587524414, 0.5861680348714193);53.6206932068;0.828616690681;0;0;0;;0;0;();();(-2000.0, -2000.0);
04:23:55:180;04:23:55:044;1448033993.03;(0.3592111587524414, 0.5861680348714193);53.6206932068;0.828616690681;0;0;0;;0;0;();();(-2000.0, -2000.0);
04:23:55:213;04:23:55:181;1448033993.13;(0.590339469909668, 0.5266714307996962);75.3615570068;0.740191529979;0;0;0;;0;0;();();(-2000.0, -2000.0);
04:23:55:230;04:23:55:181;1448033993.13;(0.590339469909668, 0.5266714307996962);75.3615570068;0.740191529979;0;0;0;;0;0;();();(-2000.0, -2000.0);
04:23:55:246;04:23:55:243;1448033993.22;(0.3600303649902344, 0.5712931738959419);57.2955245972;0.619776276754;0;0;0;;0;0;();();(-2000.0, -2000.0);
04:23:55:264;04:23:55:243;1448033993.22;(0.3600303649902344, 0.5712931738959419);57.2955245972;0.619776276754;0;0;0;;0;0;();();(-2000.0, -2000.0);
04:23:55:280;04:23:55:243;1448033993.22;(0.3600303649902344, 0.5712931738959419);57.2955245972;0.619776276754;0;0;0;;0;0;();();(-2000.0, -2000.0);
04:23:55:313;04:23:55:243;1448033993.22;(0.3600303649902344, 0.5712931738959419);57.2955245972;0.619776276754;0;0;0;;0;0;();();(-2000.0, -2000.0);
04:23:55:329;04:23:55:243;1448033993.22;(0.3600303649902344, 0.5712931738959419);57.2955245972;0.619776276754;0;0;0;;0;0;();();(-2000.0, -2000.0);
04:23:55:346;04:23:55:243;1448033993.22;(0.3600303649902344, 0.5712931738959419);57.2955245972;0.619776276754;0;0;0;;0;0;();();(-2000.0, -2000.0);
04:23:55:362;04:23:55:243;1448033993.22;(0.3600303649902344, 0.5712931738959419);57.2955245972;0.619776276754;0;0;0;;0;0;();();(-2000.0, -2000.0);
04:23:55:396;04:23:55:243;1448033993.22;(0.3600303649902344, 0.5712931738959419);57.2955245972;0.619776276754;0;0;0;;0;0;();();(-2000.0, -2000.0);
04:23:55:412;04:23:55:243;1448033993.22;(0.3600303649902344, 0.5712931738959419);57.2955245972;0.619776276754;0;0;0;;0;0;();();(-2000.0, -2000.0);
04:23:55:429;04:23:55:243;1448033993.22;(0.3600303649902344, 0.5712931738959419);57.2955245972;0.619776276754;0;0;0;;0;0;();();(-2000.0, -2000.0);
04:23:55:452;04:23:55:444;1448033993.33;(0.2350623369216919, 0.47083918253580725);36.5288887024;0.636657061526;0;0;0;;0;0;();();(-2000.0, -2000.0);
04:23:55:462;04:23:55:444;1448033993.33;(0.2350623369216919, 0.47083918253580725);36.5288887024;0.636657061526;0;0;0;;0;0;();();(-2000.0, -2000.0);
04:23:55:495;04:23:55:444;1448033993.33;(0.2350623369216919, 0.47083918253580725);36.5288887024;0.636657061526;0;0;0;;0;0;();();(-2000.0, -2000.0);
04:23:55:511;04:23:55:511;1448033993.47;(0.3616786479949951, 0.5632797241210937);53.9027175903;0.736721037836;0;0;0;;0;0;();();(-2000.0, -2000.0);
04:23:55:528;04:23:55:511;1448033993.47;(0.3616786479949951, 0.5632797241210937);53.9027175903;0.736721037836;0;0;0;;0;0;();();(-2000.0, -2000.0);
04:23:55:545;04:23:55:511;1448033993.47;(0.3616786479949951, 0.5632797241210937);53.9027175903;0.736721037836;0;0;0;;0;0;();();(-2000.0, -2000.0);
04:23:55:561;04:23:55:511;1448033993.47;(0.3616786479949951, 0.5632797241210937);53.9027175903;0.736721037836;0;0;0;;0;0;();();(-2000.0, -2000.0);
04:23:55:594;04:23:55:511;1448033993.47;(0.3616786479949951, 0.5632797241210937);53.9027175903;0.736721037836;0;0;0;;0;0;();();(-2000.0, -2000.0);
04:23:55:611;04:23:55:511;1448033993.47;(0.3616786479949951, 0.5632797241210937);53.9027175903;0.736721037836;0;0;0;;0;0;();();(-2000.0, -2000.0);
04:23:55:628;04:23:55:511;1448033993.47;(0.3616786479949951, 0.5632797241210937);53.9027175903;0.736721037836;0;0;0;;0;0;();();(-2000.0, -2000.0);
04:23:55:644;04:23:55:643;1448033993.6;(0.5992778778076172, 0.5065433502197265);70.0871887207;0.613639384806;0;0;0;;0;0;();();(-2000.0, -2000.0);
04:23:55:661;04:23:55:643;1448033993.6;(0.5992778778076172, 0.5065433502197265);70.0871887207;0.613639384806;0;0;0;;0;0;();();(-2000.0, -2000.0);
04:23:55:694;04:23:55:643;1448033993.6;(0.5992778778076172, 0.5065433502197265);70.0871887207;0.613639384806;0;0;0;;0;0;();();(-2000.0, -2000.0);
04:23:55:710;04:23:55:643;1448033993.6;(0.5992778778076172, 0.5065433502197265);70.0871887207;0.613639384806;0;0;0;;0;0;();();(-2000.0, -2000.0);
04:23:55:727;04:23:55:643;1448033993.6;(0.5992778778076172, 0.5065433502197265);70.0871887207;0.613639384806;0;0;0;;0;0;();();(-2000.0, -2000.0);
04:23:55:744;04:23:55:643;1448033993.6;(0.5992778778076172, 0.5065433502197265);70.0871887207;0.613639384806;0;0;0;;0;0;();();(-2000.0, -2000.0);
04:23:55:760;04:23:55:643;1448033993.6;(0.5992778778076172, 0.5065433502197265);70.0871887207;0.613639384806;0;0;0;;0;0;();();(-2000.0, -2000.0);
04:23:55:793;04:23:55:776;1448033993.72;(0.5876203536987304, 0.5332823011610244);89.8314437866;0.644239491463;0;0;0;;0;0;();();(-2000.0, -2000.0);
04:23:55:810;04:23:55:776;1448033993.72;(0.5876203536987304, 0.5332823011610244);89.8314437866;0.644239491463;0;0;0;;0;0;();();(-2000.0, -2000.0);
04:23:55:827;04:23:55:776;1448033993.72;(0.5876203536987304, 0.5332823011610244);89.8314437866;0.644239491463;0;0;0;;0;0;();();(-2000.0, -2000.0);
04:23:55:843;04:23:55:776;1448033993.72;(0.5876203536987304, 0.5332823011610244);89.8314437866;0.644239491463;0;0;0;;0;0;();();(-2000.0, -2000.0);
04:23:55:859;04:23:55:776;1448033993.72;(0.5876203536987304, 0.5332823011610244);89.8314437866;0.644239491463;0;0;0;;0;0;();();(-2000.0, -2000.0);
04:23:55:893;04:23:55:776;1448033993.72;(0.5876203536987304, 0.5332823011610244);89.8314437866;0.644239491463;0;0;0;;0;0;();();(-2000.0, -2000.0);
04:23:55:924;04:23:55:908;1448033993.86;(0.5950774669647216, 0.510724385579427);73.3072509766;0.627910699202;2;0;0;;0;0;();();(-2000.0, -2000.0);
04:23:55:936;04:23:55:908;1448033993.86;(0.5950774669647216, 0.510724385579427);73.3072509766;0.627910699202;2;0;0;;0;0;();();(-2000.0, -2000.0);
04:23:55:953;04:23:55:908;1448033993.86;(0.5950774669647216, 0.510724385579427);73.3072509766;0.627910699202;2;0;0;;0;0;();();(-2000.0, -2000.0);
04:23:55:970;04:23:55:908;1448033993.86;(0.5950774669647216, 0.510724385579427);73.3072509766;0.627910699202;2;0;0;;0;0;();();(-2000.0, -2000.0);
04:23:55:986;04:23:55:976;1448033993.96;(0.5975853443145752, 0.5044358571370442);70.4715805054;0.800179036558;2;0;0;;0;0;();();(-2000.0, -2000.0);
04:23:56:003;04:23:55:976;1448033993.96;(0.5975853443145752, 0.5044358571370442);70.4715805054;0.800179036558;2;0;0;;0;0;();();(-2000.0, -2000.0);
04:23:56:035;04:23:55:976;1448033993.96;(0.5975853443145752, 0.5044358571370442);70.4715805054;0.800179036558;2;0;0;;0;0;();();(-2000.0, -2000.0);
04:23:56:052;04:23:55:976;1448033993.96;(0.5975853443145752, 0.5044358571370442);70.4715805054;0.800179036558;2;0;0;;0;0;();();(-2000.0, -2000.0);
04:23:56:069;04:23:55:976;1448033993.96;(0.5975853443145752, 0.5044358571370442);70.4715805054;0.800179036558;2;0;0;;0;0;();();(-2000.0, -2000.0);
04:23:56:086;04:23:55:976;1448033993.96;(0.5975853443145752, 0.5044358571370442);70.4715805054;0.800179036558;2;0;0;;0;0;();();(-2000.0, -2000.0);
04:23:56:102;04:23:55:976;1448033993.96;(0.5975853443145752, 0.5044358571370442);70.4715805054;0.800179036558;2;0;0;;0;0;();();(-2000.0, -2000.0);
04:23:56:135;04:23:55:976;1448033993.96;(0.5975853443145752, 0.5044358571370442);70.4715805054;0.800179036558;2;0;0;;0;0;();();(-2000.0, -2000.0);
04:23:56:152;04:23:55:976;1448033993.96;(0.5975853443145752, 0.5044358571370442);70.4715805054;0.800179036558;2;0;0;;0;0;();();(-2000.0, -2000.0);
04:23:56:168;04:23:55:976;1448033993.96;(0.5975853443145752, 0.5044358571370442);70.4715805054;0.800179036558;2;0;0;;0;0;();();(-2000.0, -2000.0);
04:23:56:185;04:23:56:178;1448033994.21;(0.7691856861114502, 0.8317117585076226);41.7851600647;0.601940013088;2;0;0;;0;0;();();(-2000.0, -2000.0);
04:23:56:202;04:23:56:178;1448033994.21;(0.7691856861114502, 0.8317117585076226);41.7851600647;0.601940013088;2;0;0;;0;0;();();(-2000.0, -2000.0);
04:23:56:235;04:23:56:178;1448033994.21;(0.7691856861114502, 0.8317117585076226);41.7851600647;0.601940013088;2;0;0;;0;0;();();(-2000.0, -2000.0);
04:23:56:251;04:23:56:178;1448033994.21;(0.7691856861114502, 0.8317117585076226);41.7851600647;0.601940013088;2;0;0;;0;0;();();(-2000.0, -2000.0);
04:23:56:268;04:23:56:178;1448033994.21;(0.7691856861114502, 0.8317117585076226);41.7851600647;0.601940013088;2;0;0;;0;0;();();(-2000.0, -2000.0);
04:23:56:285;04:23:56:178;1448033994.21;(0.7691856861114502, 0.8317117585076226);41.7851600647;0.601940013088;2;0;0;;0;0;();();(-2000.0, -2000.0);
04:23:56:300;04:23:56:178;1448033994.21;(0.7691856861114502, 0.8317117585076226);41.7851600647;0.601940013088;2;0;0;;0;0;();();(-2000.0, -2000.0);
04:23:56:333;04:23:56:307;1448033994.24;(0.6288974285125732, 0.6928028742472331);77.9052810669;1.0;2;0;0;;0;0;();();(-2000.0, -2000.0);
04:23:56:351;04:23:56:307;1448033994.24;(0.6288974285125732, 0.6928028742472331);77.9052810669;1.0;2;0;0;;0;0;();();(-2000.0, -2000.0);
04:23:56:367;04:23:56:307;1448033994.24;(0.6288974285125732, 0.6928028742472331);77.9052810669;1.0;2;0;0;;0;0;();();(-2000.0, -2000.0);
04:23:56:384;04:23:56:372;1448033994.42;(0.2760630130767822, 0.7073101467556424);30.5623703003;0.757940396377;2;0;0;;0;0;();();(-2000.0, -2000.0);
04:23:56:400;04:23:56:372;1448033994.42;(0.2760630130767822, 0.7073101467556424);30.5623703003;0.757940396377;2;0;0;;0;0;();();(-2000.0, -2000.0);
04:23:56:434;04:23:56:372;1448033994.42;(0.2760630130767822, 0.7073101467556424);30.5623703003;0.757940396377;2;0;0;;0;0;();();(-2000.0, -2000.0);
04:23:56:451;04:23:56:445;1448033994.48;(0.38760201930999755, 0.7995912551879882);18.9032497406;0.777341802938;2;0;0;;0;0;();();(-2000.0, -2000.0);
04:23:56:466;04:23:56:445;1448033994.48;(0.38760201930999755, 0.7995912551879882);18.9032497406;0.777341802938;2;0;0;;0;0;();();(-2000.0, -2000.0);
04:23:56:484;04:23:56:445;1448033994.48;(0.38760201930999755, 0.7995912551879882);18.9032497406;0.777341802938;2;0;0;;0;0;();();(-2000.0, -2000.0);
04:23:56:500;04:23:56:445;1448033994.48;(0.38760201930999755, 0.7995912551879882);18.9032497406;0.777341802938;2;0;0;;0;0;();();(-2000.0, -2000.0);
04:23:56:533;04:23:56:504;1448033994.51;(0.4180274486541748, 0.8921671019660102);35.7831382751;0.718232331423;2;0;0;;0;0;();();(-2000.0, -2000.0);
04:23:56:549;04:23:56:504;1448033994.51;(0.4180274486541748, 0.8921671019660102);35.7831382751;0.718232331423;2;0;0;;0;0;();();(-2000.0, -2000.0);
04:23:56:566;04:23:56:504;1448033994.51;(0.4180274486541748, 0.8921671019660102);35.7831382751;0.718232331423;2;0;0;;0;0;();();(-2000.0, -2000.0);
04:23:56:582;04:23:56:575;1448033994.62;(0.6348034381866455, 0.6235352834065755);67.797203064;1.0;2;0;0;;0;0;();();(-2000.0, -2000.0);
04:23:56:615;04:23:56:575;1448033994.62;(0.6348034381866455, 0.6235352834065755);67.797203064;1.0;2;0;0;;0;0;();();(-2000.0, -2000.0);
04:23:56:632;04:23:56:575;1448033994.62;(0.6348034381866455, 0.6235352834065755);67.797203064;1.0;2;0;0;;0;0;();();(-2000.0, -2000.0);
04:23:56:649;04:23:56:575;1448033994.62;(0.6348034381866455, 0.6235352834065755);67.797203064;1.0;2;0;0;;0;0;();();(-2000.0, -2000.0);
04:23:56:666;04:23:56:657;1448033994.68;(0.6295876026153564, 0.6272930145263672);65.8583831787;1.0;2;0;0;;0;0;();();(-2000.0, -2000.0);
04:23:56:682;04:23:56:657;1448033994.68;(0.6295876026153564, 0.6272930145263672);65.8583831787;1.0;2;0;0;;0;0;();();(-2000.0, -2000.0);
04:23:56:715;04:23:56:696;1448033994.74;(0.34241297245025637, 0.7897015465630426);30.1977462769;0.913763120583;2;0;0;;0;0;();();(-2000.0, -2000.0);
04:23:56:732;04:23:56:696;1448033994.74;(0.34241297245025637, 0.7897015465630426);30.1977462769;0.913763120583;2;0;0;;0;0;();();(-2000.0, -2000.0);
04:23:56:748;04:23:56:696;1448033994.74;(0.34241297245025637, 0.7897015465630426);30.1977462769;0.913763120583;2;0;0;;0;0;();();(-2000.0, -2000.0);
04:23:56:765;04:23:56:756;1448033994.77;(0.6426667690277099, 0.6157229529486763);63.1113929749;0.701233983091;2;0;0;;0;0;();();(-2000.0, -2000.0);
04:23:56:782;04:23:56:756;1448033994.77;(0.6426667690277099, 0.6157229529486763);63.1113929749;0.701233983091;2;0;0;;0;0;();();(-2000.0, -2000.0);
04:23:56:814;04:23:56:811;1448033994.84;(0.6617222309112549, 0.6008447011311848);61.4940872192;1.0;2;0;0;;0;0;();();(-2000.0, -2000.0);
04:23:56:831;04:23:56:811;1448033994.84;(0.6617222309112549, 0.6008447011311848);61.4940872192;1.0;2;0;0;;0;0;();();(-2000.0, -2000.0);
04:23:56:848;04:23:56:811;1448033994.84;(0.6617222309112549, 0.6008447011311848);61.4940872192;1.0;2;0;0;;0;0;();();(-2000.0, -2000.0);
04:23:56:864;04:23:56:863;1448033994.91;(0.6571589946746826, 0.607192145453559);60.6755523682;1.0;2;0;0;;0;0;();();(-2000.0, -2000.0);
04:23:56:881;04:23:56:863;1448033994.91;(0.6571589946746826, 0.607192145453559);60.6755523682;1.0;2;0;0;;0;0;();();(-2000.0, -2000.0);
04:23:56:914;04:23:56:912;1448033994.97;(0.6536897659301758, 0.6123573727077908);60.6762084961;1.0;2;0;0;;0;0;();();(-2000.0, -2000.0);
04:23:56:931;04:23:56:912;1448033994.97;(0.6536897659301758, 0.6123573727077908);60.6762084961;1.0;2;0;0;;0;0;();();(-2000.0, -2000.0);
04:23:56:948;04:23:56:912;1448033994.97;(0.6536897659301758, 0.6123573727077908);60.6762084961;1.0;2;0;0;;0;0;();();(-2000.0, -2000.0);
04:23:56:963;04:23:56:912;1448033994.97;(0.6536897659301758, 0.6123573727077908);60.6762084961;1.0;2;0;0;;0;0;();();(-2000.0, -2000.0);
04:23:56:981;04:23:56:963;1448033995.04;(0.6515764713287353, 0.616366958618164);60.1672210693;0.922552955582;2;0;0;;0;0;();();(-2000.0, -2000.0);
04:23:57:014;04:23:57:012;1448033995.07;(0.6504261016845703, 0.619009526570638);60.3093757629;0.922213524403;2;0;0;;0;0;();();(-2000.0, -2000.0);
04:23:57:031;04:23:57:012;1448033995.07;(0.6504261016845703, 0.619009526570638);60.3093757629;0.922213524403;2;0;0;;0;0;();();(-2000.0, -2000.0);
04:23:57:046;04:23:57:012;1448033995.07;(0.6504261016845703, 0.619009526570638);60.3093757629;0.922213524403;2;0;0;;0;0;();();(-2000.0, -2000.0);
04:23:57:063;04:23:57:012;1448033995.07;(0.6504261016845703, 0.619009526570638);60.3093757629;0.922213524403;2;0;0;;0;0;();();(-2000.0, -2000.0);
04:23:57:080;04:23:57:012;1448033995.07;(0.6504261016845703, 0.619009526570638);60.3093757629;0.922213524403;2;0;0;;0;0;();();(-2000.0, -2000.0);
04:23:57:113;04:23:57:104;1448033995.11;(0.5208537578582764, 0.8709391699896918);18.6297645569;0.834588695219;2;0;0;;0;0;();();(-2000.0, -2000.0);
04:23:57:129;04:23:57:104;1448033995.11;(0.5208537578582764, 0.8709391699896918);18.6297645569;0.834588695219;2;0;0;;0;0;();();(-2000.0, -2000.0);
04:23:57:146;04:23:57:104;1448033995.11;(0.5208537578582764, 0.8709391699896918);18.6297645569;0.834588695219;2;0;0;;0;0;();();(-2000.0, -2000.0);
04:23:57:162;04:23:57:104;1448033995.11;(0.5208537578582764, 0.8709391699896918);18.6297645569;0.834588695219;2;0;0;;0;0;();();(-2000.0, -2000.0);
04:23:57:196;04:23:57:104;1448033995.11;(0.5208537578582764, 0.8709391699896918);18.6297645569;0.834588695219;2;0;0;;0;0;();();(-2000.0, -2000.0);
04:23:57:213;04:23:57:104;1448033995.11;(0.5208537578582764, 0.8709391699896918);18.6297645569;0.834588695219;2;0;0;;0;0;();();(-2000.0, -2000.0);
04:23:57:228;04:23:57:228;1448033995.15;(0.6190705299377441, 0.5935972425672743);60.1639595032;1.0;2;0;0;;0;0;();();(-2000.0, -2000.0);
04:23:57:246;04:23:57:228;1448033995.15;(0.6190705299377441, 0.5935972425672743);60.1639595032;1.0;2;0;0;;0;0;();();(-2000.0, -2000.0);
04:23:57:262;04:23:57:228;1448033995.15;(0.6190705299377441, 0.5935972425672743);60.1639595032;1.0;2;0;0;;0;0;();();(-2000.0, -2000.0);
04:23:57:294;04:23:57:267;1448033995.29;(0.6184085845947266, 0.6011957804361979);61.5100631714;1.0;2;0;0;;0;0;();();(-2000.0, -2000.0);
04:23:57:312;04:23:57:267;1448033995.29;(0.6184085845947266, 0.6011957804361979);61.5100631714;1.0;2;0;0;;0;0;();();(-2000.0, -2000.0);
04:23:57:329;04:23:57:267;1448033995.29;(0.6184085845947266, 0.6011957804361979);61.5100631714;1.0;2;0;0;;0;0;();();(-2000.0, -2000.0);
04:23:57:345;04:23:57:267;1448033995.29;(0.6184085845947266, 0.6011957804361979);61.5100631714;1.0;2;0;0;;0;0;();();(-2000.0, -2000.0);
04:23:57:361;04:23:57:352;1448033995.32;(0.6159449577331543, 0.6100474039713542);58.8787307739;0.792856186413;2;0;0;;0;0;();();(-2000.0, -2000.0);
04:23:57:395;04:23:57:352;1448033995.32;(0.6159449577331543, 0.6100474039713542);58.8787307739;0.792856186413;2;0;0;;0;0;();();(-2000.0, -2000.0);
04:23:57:411;04:23:57:395;1448033995.47;(0.5974362373352051, 0.6740372975667317);63.5136222839;1.0;2;0;0;;0;0;();();(-2000.0, -2000.0);
04:23:57:428;04:23:57:395;1448033995.47;(0.5974362373352051, 0.6740372975667317);63.5136222839;1.0;2;0;0;;0;0;();();(-2000.0, -2000.0);
04:23:57:443;04:23:57:443;1448033995.51;(0.5979837894439697, 0.6738333384195964);63.7568817139;1.0;2;0;0;;0;0;();();(-2000.0, -2000.0);
04:23:57:460;04:23:57:443;1448033995.51;(0.5979837894439697, 0.6738333384195964);63.7568817139;1.0;2;0;0;;0;0;();();(-2000.0, -2000.0);
04:23:57:493;04:23:57:443;1448033995.51;(0.5979837894439697, 0.6738333384195964);63.7568817139;1.0;2;0;0;;0;0;();();(-2000.0, -2000.0);
04:23:57:511;04:23:57:443;1448033995.51;(0.5979837894439697, 0.6738333384195964);63.7568817139;1.0;2;0;0;;0;0;();();(-2000.0, -2000.0);
04:23:57:526;04:23:57:521;1448033995.54;(0, 0);0;0;2;0;0;;0;0;();();(-2000.0, -2000.0);
04:23:57:544;04:23:57:521;1448033995.54;(0, 0);0;0;2;0;0;;0;0;();();(-2000.0, -2000.0);
04:23:57:560;04:23:57:560;1448033995.59;(0.6430627346038819, 0.5702479892306858);62.9061393738;1.0;2;0;0;;0;0;();();(-2000.0, -2000.0);
04:23:57:593;04:23:57:560;1448033995.59;(0.6430627346038819, 0.5702479892306858);62.9061393738;1.0;2;0;0;;0;0;();();(-2000.0, -2000.0);
04:23:57:610;04:23:57:560;1448033995.59;(0.6430627346038819, 0.5702479892306858);62.9061393738;1.0;2;0;0;;0;0;();();(-2000.0, -2000.0);
04:23:57:626;04:23:57:560;1448033995.59;(0.6430627346038819, 0.5702479892306858);62.9061393738;1.0;2;0;0;;0;0;();();(-2000.0, -2000.0);
04:23:57:643;04:23:57:560;1448033995.59;(0.6430627346038819, 0.5702479892306858);62.9061393738;1.0;2;0;0;;0;0;();();(-2000.0, -2000.0);
04:23:57:676;04:23:57:560;1448033995.59;(0.6430627346038819, 0.5702479892306858);62.9061393738;1.0;2;0;0;;0;0;();();(-2000.0, -2000.0);
04:23:57:693;04:23:57:560;1448033995.59;(0.6430627346038819, 0.5702479892306858);62.9061393738;1.0;2;0;0;;0;0;();();(-2000.0, -2000.0);
04:23:57:710;04:23:57:560;1448033995.59;(0.6430627346038819, 0.5702479892306858);62.9061393738;1.0;2;0;0;;0;0;();();(-2000.0, -2000.0);
04:23:57:725;04:23:57:560;1448033995.59;(0.6430627346038819, 0.5702479892306858);62.9061393738;1.0;2;0;0;;0;0;();();(-2000.0, -2000.0);
04:23:57:742;04:23:57:560;1448033995.59;(0.6430627346038819, 0.5702479892306858);62.9061393738;1.0;2;0;0;;0;0;();();(-2000.0, -2000.0);
04:23:57:775;04:23:57:560;1448033995.59;(0.6430627346038819, 0.5702479892306858);62.9061393738;1.0;2;0;0;;0;0;();();(-2000.0, -2000.0);
04:23:57:792;04:23:57:781;1448033995.65;(0.6409992694854736, 0.5658372243245442);61.2771034241;1.0;2;0;0;;0;0;();();(-2000.0, -2000.0);
04:23:57:809;04:23:57:807;1448033995.88;(0.6390927314758301, 0.5754772186279297);63.0207862854;1.0;2;0;0;;0;0;();();(-2000.0, -2000.0);
04:23:57:826;04:23:57:807;1448033995.88;(0.6390927314758301, 0.5754772186279297);63.0207862854;1.0;2;0;0;;0;0;();();(-2000.0, -2000.0);
04:23:57:842;04:23:57:807;1448033995.88;(0.6390927314758301, 0.5754772186279297);63.0207862854;1.0;2;0;0;;0;0;();();(-2000.0, -2000.0);
04:23:57:875;04:23:57:848;1448033995.91;(0.639019775390625, 0.5760318332248264);63.5282211304;1.0;2;0;0;;0;0;();();(-2000.0, -2000.0);
04:23:57:891;04:23:57:848;1448033995.91;(0.639019775390625, 0.5760318332248264);63.5282211304;1.0;2;0;0;;0;0;();();(-2000.0, -2000.0);
04:23:57:908;04:23:57:891;1448033995.94;(0.6391513824462891, 0.5768789927164714);63.6075248718;1.0;2;0;0;;0;0;();();(-2000.0, -2000.0);
04:23:57:925;04:23:57:891;1448033995.94;(0.6391513824462891, 0.5768789927164714);63.6075248718;1.0;2;0;0;;0;0;();();(-2000.0, -2000.0);
04:23:57:942;04:23:57:891;1448033995.94;(0.6391513824462891, 0.5768789927164714);63.6075248718;1.0;2;0;0;;0;0;();();(-2000.0, -2000.0);
04:23:57:974;04:23:57:891;1448033995.94;(0.6391513824462891, 0.5768789927164714);63.6075248718;1.0;2;0;0;;0;0;();();(-2000.0, -2000.0);
04:23:57:991;04:23:57:983;1448033995.97;(0.34925117492675783, 0.7175941891140408);37.8144111633;0.72290635274;2;0;0;;0;0;();();(-2000.0, -2000.0);
04:23:58:007;04:23:57:983;1448033995.97;(0.34925117492675783, 0.7175941891140408);37.8144111633;0.72290635274;2;0;0;;0;0;();();(-2000.0, -2000.0);
04:23:58:024;04:23:57:983;1448033995.97;(0.34925117492675783, 0.7175941891140408);37.8144111633;0.72290635274;2;0;0;;0;0;();();(-2000.0, -2000.0);
04:23:58:040;04:23:57:983;1448033995.97;(0.34925117492675783, 0.7175941891140408);37.8144111633;0.72290635274;2;0;0;;0;0;();();(-2000.0, -2000.0);
04:23:58:074;04:23:58:056;1448033996.04;(0.3873811006546021, 0.6668607499864366);42.523021698;0.669357768768;2;0;0;;0;0;();();(-2000.0, -2000.0);
04:23:58:090;04:23:58:056;1448033996.04;(0.3873811006546021, 0.6668607499864366);42.523021698;0.669357768768;2;0;0;;0;0;();();(-2000.0, -2000.0);
04:23:58:107;04:23:58:100;1448033996.17;(0.5950304985046386, 0.6858385721842448);65.9496154785;1.0;2;0;0;;0;0;();();(-2000.0, -2000.0);
04:23:58:124;04:23:58:100;1448033996.17;(0.5950304985046386, 0.6858385721842448);65.9496154785;1.0;2;0;0;;0;0;();();(-2000.0, -2000.0);
04:23:58:139;04:23:58:139;1448033996.21;(0.596036720275879, 0.6862854215833876);66.341255188;0.983966279207;2;0;0;;0;0;();();(-2000.0, -2000.0);
04:23:58:173;04:23:58:139;1448033996.21;(0.596036720275879, 0.6862854215833876);66.341255188;0.983966279207;2;0;0;;0;0;();();(-2000.0, -2000.0);
04:23:58:190;04:23:58:179;1448033996.24;(0.5972124099731445, 0.6863786061604817);66.4634399414;1.0;2;0;0;;0;0;();();(-2000.0, -2000.0);
04:23:58:206;04:23:58:179;1448033996.24;(0.5972124099731445, 0.6863786061604817);66.4634399414;1.0;2;0;0;;0;0;();();(-2000.0, -2000.0);
04:23:58:223;04:23:58:179;1448033996.24;(0.5972124099731445, 0.6863786061604817);66.4634399414;1.0;2;0;0;;0;0;();();(-2000.0, -2000.0);
04:23:58:255;04:23:58:223;1448033996.31;(0.599643325805664, 0.6858181635538737);66.6639785767;0.977188394392;2;0;0;;0;0;();();(-2000.0, -2000.0);
04:23:58:273;04:23:58:264;1448033996.34;(0.6007851600646973, 0.685442140367296);66.7958221436;1.0;2;0;0;;0;0;();();(-2000.0, -2000.0);
04:23:58:289;04:23:58:264;1448033996.34;(0.6007851600646973, 0.685442140367296);66.7958221436;1.0;2;0;0;;0;0;();();(-2000.0, -2000.0);
04:23:58:306;04:23:58:264;1448033996.34;(0.6007851600646973, 0.685442140367296);66.7958221436;1.0;2;0;0;;0;0;();();(-2000.0, -2000.0);
04:23:58:322;04:23:58:319;1448033996.37;(0.6018645763397217, 0.6849259270562066);66.8573532104;1.0;2;0;0;;0;0;();();(-2000.0, -2000.0);
04:23:58:355;04:23:58:347;1448033996.41;(0.6029131889343262, 0.6849142710367839);67.5732574463;1.0;2;0;0;;0;0;();();(-2000.0, -2000.0);
04:23:58:372;04:23:58:347;1448033996.41;(0.6029131889343262, 0.6849142710367839);67.5732574463;1.0;2;0;0;;0;0;();();(-2000.0, -2000.0);
04:23:58:388;04:23:58:387;1448033996.44;(0.6045207023620606, 0.6848108503553603);67.4924697876;0.843192120558;2;0;0;;0;0;();();(-2000.0, -2000.0);
04:23:58:405;04:23:58:387;1448033996.44;(0.6045207023620606, 0.6848108503553603);67.4924697876;0.843192120558;2;0;0;;0;0;();();(-2000.0, -2000.0);
04:23:58:422;04:23:58:387;1448033996.44;(0.6045207023620606, 0.6848108503553603);67.4924697876;0.843192120558;2;0;0;;0;0;();();(-2000.0, -2000.0);
04:23:58:455;04:23:58:432;1448033996.47;(0.6086746215820312, 0.6846278296576607);66.8533859253;1.0;2;0;0;;0;0;();();(-2000.0, -2000.0);
04:23:58:471;04:23:58:432;1448033996.47;(0.6086746215820312, 0.6846278296576607);66.8533859253;1.0;2;0;0;;0;0;();();(-2000.0, -2000.0);
04:23:58:488;04:23:58:471;1448033996.51;(0.6069483280181884, 0.685096549987793);64.7304077148;0.973923064457;2;0;0;;0;0;();();(-2000.0, -2000.0);
04:23:58:504;04:23:58:471;1448033996.51;(0.6069483280181884, 0.685096549987793);64.7304077148;0.973923064457;2;0;0;;0;0;();();(-2000.0, -2000.0);
04:23:58:521;04:23:58:511;1448033996.57;(0.6459009170532226, 0.39544368320041234);24.7850704193;0.72143494203;2;0;0;;0;0;();();(-2000.0, -2000.0);
04:23:58:554;04:23:58:511;1448033996.57;(0.6459009170532226, 0.39544368320041234);24.7850704193;0.72143494203;2;0;0;;0;0;();();(-2000.0, -2000.0);
04:23:58:571;04:23:58:555;1448033996.61;(0.35799202919006345, 0.52620726691352);20.1702480316;0.847469428202;2;0;0;;0;0;();();(-2000.0, -2000.0);
04:23:58:587;04:23:58:555;1448033996.61;(0.35799202919006345, 0.52620726691352);20.1702480316;0.847469428202;2;0;0;;0;0;();();(-2000.0, -2000.0);
04:23:58:604;04:23:58:596;1448033996.64;(0, 0);0;0;2;0;0;;0;0;();();(-2000.0, -2000.0);
04:23:58:620;04:23:58:596;1448033996.64;(0, 0);0;0;2;0;0;;0;0;();();(-2000.0, -2000.0);
04:23:58:654;04:23:58:637;1448033996.67;(0.3554069042205811, 0.4765911526150174);23.3220729828;0.610497096692;2;0;0;;0;0;();();(-2000.0, -2000.0);
04:23:58:670;04:23:58:637;1448033996.67;(0.3554069042205811, 0.4765911526150174);23.3220729828;0.610497096692;2;0;0;;0;0;();();(-2000.0, -2000.0);
04:23:58:686;04:23:58:679;1448033996.71;(0, 0);0;0;2;0;0;;0;0;();();(-2000.0, -2000.0);
04:23:58:703;04:23:58:679;1448033996.71;(0, 0);0;0;2;0;0;;0;0;();();(-2000.0, -2000.0);
04:23:58:720;04:23:58:679;1448033996.71;(0, 0);0;0;2;0;0;;0;0;();();(-2000.0, -2000.0);
04:23:58:753;04:23:58:720;1448033996.74;(0.49792990684509275, 0.5193457709418403);47.3202972412;0.677052968992;2;0;0;;0;0;();();(-2000.0, -2000.0);
04:23:58:769;04:23:58:720;1448033996.74;(0.49792990684509275, 0.5193457709418403);47.3202972412;0.677052968992;2;0;0;;0;0;();();(-2000.0, -2000.0);
04:23:58:787;04:23:58:720;1448033996.74;(0.49792990684509275, 0.5193457709418403);47.3202972412;0.677052968992;2;0;0;;0;0;();();(-2000.0, -2000.0);
04:23:58:802;04:23:58:720;1448033996.74;(0.49792990684509275, 0.5193457709418403);47.3202972412;0.677052968992;2;0;0;;0;0;();();(-2000.0, -2000.0);
04:23:58:835;04:23:58:720;1448033996.74;(0.49792990684509275, 0.5193457709418403);47.3202972412;0.677052968992;2;0;0;;0;0;();();(-2000.0, -2000.0);
04:23:58:853;04:23:58:720;1448033996.74;(0.49792990684509275, 0.5193457709418403);47.3202972412;0.677052968992;2;0;0;;0;0;();();(-2000.0, -2000.0);
04:23:58:869;04:23:58:720;1448033996.74;(0.49792990684509275, 0.5193457709418403);47.3202972412;0.677052968992;2;0;0;;0;0;();();(-2000.0, -2000.0);
04:23:58:886;04:23:58:872;1448033996.79;(0.7595525264739991, 0.4938965267605252);40.1250686646;0.72763559887;2;0;0;;0;0;();();(-2000.0, -2000.0);
04:23:58:901;04:23:58:872;1448033996.79;(0.7595525264739991, 0.4938965267605252);40.1250686646;0.72763559887;2;0;0;;0;0;();();(-2000.0, -2000.0);
04:23:58:936;04:23:58:872;1448033996.79;(0.7595525264739991, 0.4938965267605252);40.1250686646;0.72763559887;2;0;0;;0;0;();();(-2000.0, -2000.0);
04:23:58:951;04:23:58:936;1448033996.92;(0.4992248058319092, 0.5700791676839192);55.4851112366;0.62409702457;2;0;0;;0;0;();();(-2000.0, -2000.0);
04:23:58:969;04:23:58:936;1448033996.92;(0.4992248058319092, 0.5700791676839192);55.4851112366;0.62409702457;2;0;0;;0;0;();();(-2000.0, -2000.0);
04:23:58:985;04:23:58:936;1448033996.92;(0.4992248058319092, 0.5700791676839192);55.4851112366;0.62409702457;2;0;0;;0;0;();();(-2000.0, -2000.0);
04:23:59:001;04:23:58:936;1448033996.92;(0.4992248058319092, 0.5700791676839192);55.4851112366;0.62409702457;2;0;0;;0;0;();();(-2000.0, -2000.0);
04:23:59:034;04:23:59:005;1448033996.99;(0.40212397575378417, 0.5303357866075304);23.7817077637;0.724125155956;2;0;0;;0;0;();();(-2000.0, -2000.0);
04:23:59:051;04:23:59:005;1448033996.99;(0.40212397575378417, 0.5303357866075304);23.7817077637;0.724125155956;2;0;0;;0;0;();();(-2000.0, -2000.0);
04:23:59:068;04:23:59:005;1448033996.99;(0.40212397575378417, 0.5303357866075304);23.7817077637;0.724125155956;2;0;0;;0;0;();();(-2000.0, -2000.0);
04:23:59:084;04:23:59:005;1448033996.99;(0.40212397575378417, 0.5303357866075304);23.7817077637;0.724125155956;2;0;0;;0;0;();();(-2000.0, -2000.0);
04:23:59:101;04:23:59:005;1448033996.99;(0.40212397575378417, 0.5303357866075304);23.7817077637;0.724125155956;2;0;0;;0;0;();();(-2000.0, -2000.0);
04:23:59:134;04:23:59:005;1448033996.99;(0.40212397575378417, 0.5303357866075304);23.7817077637;0.724125155956;2;0;0;;0;0;();();(-2000.0, -2000.0);
04:23:59:150;04:23:59:135;1448033997.09;(0.5868626594543457, 0.529173321194119);77.2470016479;0.68500197604;2;0;0;;0;0;();();(-2000.0, -2000.0);
04:23:59:167;04:23:59:135;1448033997.09;(0.5868626594543457, 0.529173321194119);77.2470016479;0.68500197604;2;0;0;;0;0;();();(-2000.0, -2000.0);
04:23:59:184;04:23:59:135;1448033997.09;(0.5868626594543457, 0.529173321194119);77.2470016479;0.68500197604;2;0;0;;0;0;();();(-2000.0, -2000.0);
04:23:59:201;04:23:59:135;1448033997.09;(0.5868626594543457, 0.529173321194119);77.2470016479;0.68500197604;2;0;0;;0;0;();();(-2000.0, -2000.0);
04:23:59:233;04:23:59:215;1448033997.26;(0.4729878902435303, 0.5671038309733073);18.8665771484;0.711875273527;2;0;0;;0;0;();();(-2000.0, -2000.0);
04:23:59:251;04:23:59:215;1448033997.26;(0.4729878902435303, 0.5671038309733073);18.8665771484;0.711875273527;2;0;0;;0;0;();();(-2000.0, -2000.0);
04:23:59:267;04:23:59:215;1448033997.26;(0.4729878902435303, 0.5671038309733073);18.8665771484;0.711875273527;2;0;0;;0;0;();();(-2000.0, -2000.0);
04:23:59:283;04:23:59:271;1448033997.33;(0.4275851249694824, 0.5385348002115886);25.2071075439;0.834500642469;2;0;0;;0;0;();();(-2000.0, -2000.0);
04:23:59:300;04:23:59:271;1448033997.33;(0.4275851249694824, 0.5385348002115886);25.2071075439;0.834500642469;2;0;0;;0;0;();();(-2000.0, -2000.0);
04:23:59:333;04:23:59:271;1448033997.33;(0.4275851249694824, 0.5385348002115886);25.2071075439;0.834500642469;2;0;0;;0;0;();();(-2000.0, -2000.0);
04:23:59:350;04:23:59:271;1448033997.33;(0.4275851249694824, 0.5385348002115886);25.2071075439;0.834500642469;2;0;0;;0;0;();();(-2000.0, -2000.0);
04:23:59:365;04:23:59:271;1448033997.33;(0.4275851249694824, 0.5385348002115886);25.2071075439;0.834500642469;2;0;0;;0;0;();();(-2000.0, -2000.0);
04:23:59:383;04:23:59:271;1448033997.33;(0.4275851249694824, 0.5385348002115886);25.2071075439;0.834500642469;2;0;0;;0;0;();();(-2000.0, -2000.0);
04:23:59:416;04:23:59:400;1448033997.47;(0.3313984155654907, 0.4639699300130208);19.6306533813;0.89412882519;2;0;0;;0;0;();();(-2000.0, -2000.0);
04:23:59:432;04:23:59:400;1448033997.47;(0.3313984155654907, 0.4639699300130208);19.6306533813;0.89412882519;2;0;0;;0;0;();();(-2000.0, -2000.0);
04:23:59:449;04:23:59:400;1448033997.47;(0.3313984155654907, 0.4639699300130208);19.6306533813;0.89412882519;2;0;0;;0;0;();();(-2000.0, -2000.0);
04:23:59:465;04:23:59:400;1448033997.47;(0.3313984155654907, 0.4639699300130208);19.6306533813;0.89412882519;2;0;0;;0;0;();();(-2000.0, -2000.0);
04:23:59:483;04:23:59:400;1448033997.47;(0.3313984155654907, 0.4639699300130208);19.6306533813;0.89412882519;2;0;0;;0;0;();();(-2000.0, -2000.0);
04:23:59:514;04:23:59:400;1448033997.47;(0.3313984155654907, 0.4639699300130208);19.6306533813;0.89412882519;2;0;0;;0;0;();();(-2000.0, -2000.0);
04:23:59:531;04:23:59:400;1448033997.47;(0.3313984155654907, 0.4639699300130208);19.6306533813;0.89412882519;2;0;0;;0;0;();();(-2000.0, -2000.0);
04:23:59:549;04:23:59:535;1448033997.49;(0.5855120658874512, 0.5056957244873047);68.764541626;0.90537111564;2;0;0;;0;0;();();(-2000.0, -2000.0);
04:23:59:565;04:23:59:535;1448033997.49;(0.5855120658874512, 0.5056957244873047);68.764541626;0.90537111564;2;0;0;;0;0;();();(-2000.0, -2000.0);
04:23:59:581;04:23:59:535;1448033997.49;(0.5855120658874512, 0.5056957244873047);68.764541626;0.90537111564;2;0;0;;0;0;();();(-2000.0, -2000.0);
04:23:59:614;04:23:59:600;1448033997.58;(0.587019395828247, 0.5155234866672092);74.0301513672;0.796201636459;2;0;0;;0;0;();();(-2000.0, -2000.0);
04:23:59:631;04:23:59:600;1448033997.58;(0.587019395828247, 0.5155234866672092);74.0301513672;0.796201636459;2;0;0;;0;0;();();(-2000.0, -2000.0);
04:23:59:657;04:23:59:600;1448033997.58;(0.587019395828247, 0.5155234866672092);74.0301513672;0.796201636459;4;0;0;;0;0;();();(-2000.0, -2000.0);
04:23:59:665;04:23:59:600;1448033997.58;(0.587019395828247, 0.5155234866672092);74.0301513672;0.796201636459;4;0;0;;0;0;();();(-2000.0, -2000.0);
04:23:59:681;04:23:59:668;1448033997.64;(0.5920510292053223, 0.4982252756754557);65.1596984863;0.68936819382;4;0;0;;0;0;();();(-2000.0, -2000.0);
04:23:59:715;04:23:59:668;1448033997.64;(0.5920510292053223, 0.4982252756754557);65.1596984863;0.68936819382;4;0;0;;0;0;();();(-2000.0, -2000.0);
04:23:59:731;04:23:59:668;1448033997.64;(0.5920510292053223, 0.4982252756754557);65.1596984863;0.68936819382;4;0;0;;0;0;();();(-2000.0, -2000.0);
04:23:59:748;04:23:59:668;1448033997.64;(0.5920510292053223, 0.4982252756754557);65.1596984863;0.68936819382;4;0;0;;0;0;();();(-2000.0, -2000.0);
04:23:59:764;04:23:59:668;1448033997.64;(0.5920510292053223, 0.4982252756754557);65.1596984863;0.68936819382;4;0;0;;0;0;();();(-2000.0, -2000.0);
04:23:59:780;04:23:59:668;1448033997.64;(0.5920510292053223, 0.4982252756754557);65.1596984863;0.68936819382;4;0;0;;0;0;();();(-2000.0, -2000.0);
04:23:59:814;04:23:59:799;1448033997.75;(0.5903100967407227, 0.4990761227077908);66.2383651733;0.746128634052;4;0;0;;0;0;();();(-2000.0, -2000.0);
04:23:59:830;04:23:59:799;1448033997.75;(0.5903100967407227, 0.4990761227077908);66.2383651733;0.746128634052;4;0;0;;0;0;();();(-2000.0, -2000.0);
04:23:59:847;04:23:59:799;1448033997.75;(0.5903100967407227, 0.4990761227077908);66.2383651733;0.746128634052;4;0;0;;0;0;();();(-2000.0, -2000.0);
04:23:59:864;04:23:59:799;1448033997.75;(0.5903100967407227, 0.4990761227077908);66.2383651733;0.746128634052;4;0;0;;0;0;();();(-2000.0, -2000.0);
04:23:59:880;04:23:59:866;1448033997.92;(0.34241347312927245, 0.7240680270724826);20.8020420074;0.749417541202;4;0;0;;0;0;();();(-2000.0, -2000.0);
04:23:59:913;04:23:59:866;1448033997.92;(0.34241347312927245, 0.7240680270724826);20.8020420074;0.749417541202;4;0;0;;0;0;();();(-2000.0, -2000.0);
04:23:59:930;04:23:59:866;1448033997.92;(0.34241347312927245, 0.7240680270724826);20.8020420074;0.749417541202;4;0;0;;0;0;();();(-2000.0, -2000.0);
04:23:59:946;04:23:59:866;1448033997.92;(0.34241347312927245, 0.7240680270724826);20.8020420074;0.749417541202;4;0;0;;0;0;();();(-2000.0, -2000.0);
04:23:59:963;04:23:59:866;1448033997.92;(0.34241347312927245, 0.7240680270724826);20.8020420074;0.749417541202;4;0;0;;0;0;();();(-2000.0, -2000.0);
04:23:59:996;04:23:59:866;1448033997.92;(0.34241347312927245, 0.7240680270724826);20.8020420074;0.749417541202;4;0;0;;0;0;();();(-2000.0, -2000.0);
04:24:00:013;04:23:59:999;1448033998.04;(0.3531565427780151, 0.8050015555487738);24.1823825836;0.978627848666;4;0;0;;0;0;();();(-2000.0, -2000.0);
04:24:00:029;04:23:59:999;1448033998.04;(0.3531565427780151, 0.8050015555487738);24.1823825836;0.978627848666;4;0;0;;0;0;();();(-2000.0, -2000.0);
04:24:00:046;04:23:59:999;1448033998.04;(0.3531565427780151, 0.8050015555487738);24.1823825836;0.978627848666;4;0;0;;0;0;();();(-2000.0, -2000.0);
04:24:00:061;04:23:59:999;1448033998.04;(0.3531565427780151, 0.8050015555487738);24.1823825836;0.978627848666;4;0;0;;0;0;();();(-2000.0, -2000.0);
04:24:00:096;04:24:00:063;1448033998.11;(0.6092565536499024, 0.6643954806857639);72.9822692871;1.0;4;0;0;;0;0;();();(-2000.0, -2000.0);
04:24:00:112;04:24:00:063;1448033998.11;(0.6092565536499024, 0.6643954806857639);72.9822692871;1.0;4;0;0;;0;0;();();(-2000.0, -2000.0);
04:24:00:129;04:24:00:063;1448033998.11;(0.6092565536499024, 0.6643954806857639);72.9822692871;1.0;4;0;0;;0;0;();();(-2000.0, -2000.0);
04:24:00:145;04:24:00:063;1448033998.11;(0.6092565536499024, 0.6643954806857639);72.9822692871;1.0;4;0;0;;0;0;();();(-2000.0, -2000.0);
04:24:00:162;04:24:00:063;1448033998.11;(0.6092565536499024, 0.6643954806857639);72.9822692871;1.0;4;0;0;;0;0;();();(-2000.0, -2000.0);
04:24:00:194;04:24:00:063;1448033998.11;(0.6092565536499024, 0.6643954806857639);72.9822692871;1.0;4;0;0;;0;0;();();(-2000.0, -2000.0);
04:24:00:211;04:24:00:063;1448033998.11;(0.6092565536499024, 0.6643954806857639);72.9822692871;1.0;4;0;0;;0;0;();();(-2000.0, -2000.0);
04:24:00:229;04:24:00:063;1448033998.11;(0.6092565536499024, 0.6643954806857639);72.9822692871;1.0;4;0;0;;0;0;();();(-2000.0, -2000.0);
04:24:00:244;04:24:00:063;1448033998.11;(0.6092565536499024, 0.6643954806857639);72.9822692871;1.0;4;0;0;;0;0;();();(-2000.0, -2000.0);
04:24:00:261;04:24:00:063;1448033998.11;(0.6092565536499024, 0.6643954806857639);72.9822692871;1.0;4;0;0;;0;0;();();(-2000.0, -2000.0);
04:24:00:294;04:24:00:263;1448033998.14;(0.606926441192627, 0.6642140070597331);73.7180786133;1.0;4;0;0;;0;0;();();(-2000.0, -2000.0);
04:24:00:311;04:24:00:263;1448033998.14;(0.606926441192627, 0.6642140070597331);73.7180786133;1.0;4;0;0;;0;0;();();(-2000.0, -2000.0);
04:24:00:328;04:24:00:263;1448033998.14;(0.606926441192627, 0.6642140070597331);73.7180786133;1.0;4;0;0;;0;0;();();(-2000.0, -2000.0);
04:24:00:345;04:24:00:332;1448033998.39;(0, 0);0;0;4;0;0;;0;0;();();(-2000.0, -2000.0);
04:24:00:360;04:24:00:332;1448033998.39;(0, 0);0;0;4;0;0;;0;0;();();(-2000.0, -2000.0);
04:24:00:393;04:24:00:332;1448033998.39;(0, 0);0;0;4;0;0;;0;0;();();(-2000.0, -2000.0);
04:24:00:411;04:24:00:332;1448033998.39;(0, 0);0;0;4;0;0;;0;0;();();(-2000.0, -2000.0);
04:24:00:428;04:24:00:332;1448033998.39;(0, 0);0;0;4;0;0;;0;0;();();(-2000.0, -2000.0);
04:24:00:444;04:24:00:332;1448033998.39;(0, 0);0;0;4;0;0;;0;0;();();(-2000.0, -2000.0);
04:24:00:461;04:24:00:456;1448033998.42;(0.5861019134521485, 0.6706104278564453);68.1050949097;1.0;4;0;0;;0;0;();();(-2000.0, -2000.0);
04:24:00:493;04:24:00:456;1448033998.42;(0.5861019134521485, 0.6706104278564453);68.1050949097;1.0;4;0;0;;0;0;();();(-2000.0, -2000.0);
04:24:00:510;04:24:00:456;1448033998.42;(0.5861019134521485, 0.6706104278564453);68.1050949097;1.0;4;0;0;;0;0;();();(-2000.0, -2000.0);
04:24:00:527;04:24:00:456;1448033998.42;(0.5861019134521485, 0.6706104278564453);68.1050949097;1.0;4;0;0;;0;0;();();(-2000.0, -2000.0);
04:24:00:543;04:24:00:456;1448033998.42;(0.5861019134521485, 0.6706104278564453);68.1050949097;1.0;4;0;0;;0;0;();();(-2000.0, -2000.0);
04:24:00:560;04:24:00:456;1448033998.42;(0.5861019134521485, 0.6706104278564453);68.1050949097;1.0;4;0;0;;0;0;();();(-2000.0, -2000.0);
04:24:00:592;04:24:00:572;1448033998.54;(0.5788109779357911, 0.6472411473592122);163.038787842;0.605034889243;4;0;0;;0;0;();();(-2000.0, -2000.0);
04:24:00:609;04:24:00:572;1448033998.54;(0.5788109779357911, 0.6472411473592122);163.038787842;0.605034889243;4;0;0;;0;0;();();(-2000.0, -2000.0);
04:24:00:626;04:24:00:625;1448033998.67;(0.5868362426757813, 0.6685109456380208);65.917137146;1.0;4;0;0;;0;0;();();(-2000.0, -2000.0);
04:24:00:642;04:24:00:625;1448033998.67;(0.5868362426757813, 0.6685109456380208);65.917137146;1.0;4;0;0;;0;0;();();(-2000.0, -2000.0);
04:24:00:674;04:24:00:672;1448033998.74;(0.5861073493957519, 0.6675486458672417);64.8844070435;1.0;4;0;0;;0;0;();();(-2000.0, -2000.0);
04:24:00:692;04:24:00:672;1448033998.74;(0.5861073493957519, 0.6675486458672417);64.8844070435;1.0;4;0;0;;0;0;();();(-2000.0, -2000.0);
04:24:00:708;04:24:00:672;1448033998.74;(0.5861073493957519, 0.6675486458672417);64.8844070435;1.0;4;0;0;;0;0;();();(-2000.0, -2000.0);
04:24:00:725;04:24:00:672;1448033998.74;(0.5861073493957519, 0.6675486458672417);64.8844070435;1.0;4;0;0;;0;0;();();(-2000.0, -2000.0);
04:24:00:741;04:24:00:727;1448033998.77;(0, 0);0;0;4;0;0;;0;0;();();(-2000.0, -2000.0);
04:24:00:775;04:24:00:772;1448033998.81;(0.6322789669036866, 0.6369585249159071);62.6866188049;1.0;4;0;0;;0;0;();();(-2000.0, -2000.0);
04:24:00:791;04:24:00:772;1448033998.81;(0.6322789669036866, 0.6369585249159071);62.6866188049;1.0;4;0;0;;0;0;();();(-2000.0, -2000.0);
04:24:00:808;04:24:00:772;1448033998.81;(0.6322789669036866, 0.6369585249159071);62.6866188049;1.0;4;0;0;;0;0;();();(-2000.0, -2000.0);
04:24:00:824;04:24:00:820;1448033998.87;(0.6305161952972412, 0.6396858639187283);62.7705535889;1.0;4;0;0;;0;0;();();(-2000.0, -2000.0);
04:24:00:840;04:24:00:820;1448033998.87;(0.6305161952972412, 0.6396858639187283);62.7705535889;1.0;4;0;0;;0;0;();();(-2000.0, -2000.0);
04:24:00:875;04:24:00:868;1448033998.94;(0.6277212619781494, 0.6429987589518229);62.817489624;0.836966869897;4;0;0;;0;0;();();(-2000.0, -2000.0);
04:24:00:890;04:24:00:868;1448033998.94;(0.6277212619781494, 0.6429987589518229);62.817489624;0.836966869897;4;0;0;;0;0;();();(-2000.0, -2000.0);
04:24:00:907;04:24:00:868;1448033998.94;(0.6277212619781494, 0.6429987589518229);62.817489624;0.836966869897;4;0;0;;0;0;();();(-2000.0, -2000.0);
04:24:00:923;04:24:00:920;1448033998.97;(0.6263675689697266, 0.6448389689127605);63.3440933228;0.858226311678;4;0;0;;0;0;();();(-2000.0, -2000.0);
04:24:00:940;04:24:00:920;1448033998.97;(0.6263675689697266, 0.6448389689127605);63.3440933228;0.858226311678;4;0;0;;0;0;();();(-2000.0, -2000.0);
04:24:00:973;04:24:00:959;1448033999.04;(0.6240011692047119, 0.6476363711886935);63.2468681335;1.0;4;0;0;;0;0;();();(-2000.0, -2000.0);
04:24:00:990;04:24:00:959;1448033999.04;(0.6240011692047119, 0.6476363711886935);63.2468681335;1.0;4;0;0;;0;0;();();(-2000.0, -2000.0);
04:24:01:006;04:24:01:004;1448033999.07;(0.6228108406066895, 0.6489349365234375);63.5115966797;1.0;4;0;0;;0;0;();();(-2000.0, -2000.0);
04:24:01:022;04:24:01:004;1448033999.07;(0.6228108406066895, 0.6489349365234375);63.5115966797;1.0;4;0;0;;0;0;();();(-2000.0, -2000.0);
04:24:01:039;04:24:01:004;1448033999.07;(0.6228108406066895, 0.6489349365234375);63.5115966797;1.0;4;0;0;;0;0;();();(-2000.0, -2000.0);
04:24:01:073;04:24:01:004;1448033999.07;(0.6228108406066895, 0.6489349365234375);63.5115966797;1.0;4;0;0;;0;0;();();(-2000.0, -2000.0);
04:24:01:089;04:24:01:083;1448033999.14;(0.6221766948699952, 0.650103251139323);64.1653518677;1.0;4;0;0;;0;0;();();(-2000.0, -2000.0);
04:24:01:107;04:24:01:083;1448033999.14;(0.6221766948699952, 0.650103251139323);64.1653518677;1.0;4;0;0;;0;0;();();(-2000.0, -2000.0);
04:24:01:123;04:24:01:083;1448033999.14;(0.6221766948699952, 0.650103251139323);64.1653518677;1.0;4;0;0;;0;0;();();(-2000.0, -2000.0);
04:24:01:156;04:24:01:083;1448033999.14;(0.6221766948699952, 0.650103251139323);64.1653518677;1.0;4;0;0;;0;0;();();(-2000.0, -2000.0);
04:24:01:173;04:24:01:083;1448033999.14;(0.6221766948699952, 0.650103251139323);64.1653518677;1.0;4;0;0;;0;0;();();(-2000.0, -2000.0);
04:24:01:189;04:24:01:083;1448033999.14;(0.6221766948699952, 0.650103251139323);64.1653518677;1.0;4;0;0;;0;0;();();(-2000.0, -2000.0);
04:24:01:205;04:24:01:083;1448033999.14;(0.6221766948699952, 0.650103251139323);64.1653518677;1.0;4;0;0;;0;0;();();(-2000.0, -2000.0);
04:24:01:222;04:24:01:083;1448033999.14;(0.6221766948699952, 0.650103251139323);64.1653518677;1.0;4;0;0;;0;0;();();(-2000.0, -2000.0);
04:24:01:255;04:24:01:083;1448033999.14;(0.6221766948699952, 0.650103251139323);64.1653518677;1.0;4;0;0;;0;0;();();(-2000.0, -2000.0);
04:24:01:271;04:24:01:256;1448033999.17;(0.6398500919342041, 0.6326847500271268);63.0580177307;1.0;4;0;0;;0;0;();();(-2000.0, -2000.0);
04:24:01:289;04:24:01:256;1448033999.17;(0.6398500919342041, 0.6326847500271268);63.0580177307;1.0;4;0;0;;0;0;();();(-2000.0, -2000.0);
04:24:01:304;04:24:01:292;1448033999.37;(0.6353791713714599, 0.638933817545573);63.9358406067;1.0;4;0;0;;0;0;();();(-2000.0, -2000.0);
04:24:01:321;04:24:01:292;1448033999.37;(0.6353791713714599, 0.638933817545573);63.9358406067;1.0;4;0;0;;0;0;();();(-2000.0, -2000.0);
04:24:01:354;04:24:01:339;1448033999.41;(0.356302285194397, 0.7627640830145942);25.7375183105;0.795438002273;4;0;0;;0;0;();();(-2000.0, -2000.0);
04:24:01:370;04:24:01:339;1448033999.41;(0.356302285194397, 0.7627640830145942);25.7375183105;0.795438002273;4;0;0;;0;0;();();(-2000.0, -2000.0);
04:24:01:388;04:24:01:376;1448033999.44;(0.34631781578063964, 0.7519948111640082);31.4938354492;0.623104113621;4;0;0;;0;0;();();(-2000.0, -2000.0);
04:24:01:404;04:24:01:376;1448033999.44;(0.34631781578063964, 0.7519948111640082);31.4938354492;0.623104113621;4;0;0;;0;0;();();(-2000.0, -2000.0);
04:24:01:421;04:24:01:376;1448033999.44;(0.34631781578063964, 0.7519948111640082);31.4938354492;0.623104113621;4;0;0;;0;0;();();(-2000.0, -2000.0);
04:24:01:454;04:24:01:376;1448033999.44;(0.34631781578063964, 0.7519948111640082);31.4938354492;0.623104113621;4;0;0;;0;0;();();(-2000.0, -2000.0);
04:24:01:471;04:24:01:460;1448033999.52;(0.5917975425720214, 0.662568622165256);66.3309402466;1.0;4;0;0;;0;0;();();(-2000.0, -2000.0);
04:24:01:487;04:24:01:460;1448033999.52;(0.5917975425720214, 0.662568622165256);66.3309402466;1.0;4;0;0;;0;0;();();(-2000.0, -2000.0);
04:24:01:504;04:24:01:499;1448033999.57;(0.5927795886993408, 0.66384949154324);66.3533554077;1.0;4;0;0;;0;0;();();(-2000.0, -2000.0);
04:24:01:521;04:24:01:499;1448033999.57;(0.5927795886993408, 0.66384949154324);66.3533554077;1.0;4;0;0;;0;0;();();(-2000.0, -2000.0);
04:24:01:553;04:24:01:539;1448033999.61;(0.5933989524841309, 0.6639673021104601);66.7784729004;1.0;4;0;0;;0;0;();();(-2000.0, -2000.0);
04:24:01:570;04:24:01:539;1448033999.61;(0.5933989524841309, 0.6639673021104601);66.7784729004;1.0;4;0;0;;0;0;();();(-2000.0, -2000.0);
04:24:01:587;04:24:01:584;1448033999.64;(0.5940287113189697, 0.6641260570949978);66.4321975708;1.0;4;0;0;;0;0;();();(-2000.0, -2000.0);
04:24:01:603;04:24:01:584;1448033999.64;(0.5940287113189697, 0.6641260570949978);66.4321975708;1.0;4;0;0;;0;0;();();(-2000.0, -2000.0);
04:24:01:619;04:24:01:584;1448033999.64;(0.5940287113189697, 0.6641260570949978);66.4321975708;1.0;4;0;0;;0;0;();();(-2000.0, -2000.0);
04:24:01:652;04:24:01:624;1448033999.71;(0.5947418689727784, 0.6645943535698784);66.0527572632;1.0;4;0;0;;0;0;();();(-2000.0, -2000.0);
04:24:01:669;04:24:01:624;1448033999.71;(0.5947418689727784, 0.6645943535698784);66.0527572632;1.0;4;0;0;;0;0;();();(-2000.0, -2000.0);
04:24:01:687;04:24:01:624;1448033999.71;(0.5947418689727784, 0.6645943535698784);66.0527572632;1.0;4;0;0;;0;0;();();(-2000.0, -2000.0);
04:24:01:702;04:24:01:624;1448033999.71;(0.5947418689727784, 0.6645943535698784);66.0527572632;1.0;4;0;0;;0;0;();();(-2000.0, -2000.0);
04:24:01:735;04:24:01:709;1448033999.77;(0.5774369716644288, 0.6733176761203342);64.9991149902;1.0;4;0;0;;0;0;();();(-2000.0, -2000.0);
04:24:01:751;04:24:01:748;1448033999.81;(0.5778423309326172, 0.6735409630669488);64.6476516724;0.983272677612;4;0;0;;0;0;();();(-2000.0, -2000.0);
04:24:01:769;04:24:01:748;1448033999.81;(0.5778423309326172, 0.6735409630669488);64.6476516724;0.983272677612;4;0;0;;0;0;();();(-2000.0, -2000.0);
04:24:01:785;04:24:01:748;1448033999.81;(0.5778423309326172, 0.6735409630669488);64.6476516724;0.983272677612;4;0;0;;0;0;();();(-2000.0, -2000.0);
04:24:01:802;04:24:01:792;1448033999.87;(0.5790215015411377, 0.6742756101820204);63.4197044373;1.0;4;0;0;;0;0;();();(-2000.0, -2000.0);
04:24:01:835;04:24:01:832;1448033999.91;(0.5796817302703857, 0.673897722032335);63.6807937622;1.0;4;0;0;;0;0;();();(-2000.0, -2000.0);
04:24:01:851;04:24:01:832;1448033999.91;(0.5796817302703857, 0.673897722032335);63.6807937622;1.0;4;0;0;;0;0;();();(-2000.0, -2000.0);
04:24:01:868;04:24:01:832;1448033999.91;(0.5796817302703857, 0.673897722032335);63.6807937622;1.0;4;0;0;;0;0;();();(-2000.0, -2000.0);
04:24:01:885;04:24:01:872;1448033999.94;(0.5802741527557373, 0.6738876342773438);63.0680389404;1.0;4;0;0;;0;0;();();(-2000.0, -2000.0);
04:24:01:902;04:24:01:872;1448033999.94;(0.5802741527557373, 0.6738876342773438);63.0680389404;1.0;4;0;0;;0;0;();();(-2000.0, -2000.0);
04:24:01:934;04:24:01:915;1448033999.97;(0.5809313297271729, 0.6734427769978841);62.8530883789;1.0;4;0;0;;0;0;();();(-2000.0, -2000.0);
04:24:01:951;04:24:01:915;1448033999.97;(0.5809313297271729, 0.6734427769978841);62.8530883789;1.0;4;0;0;;0;0;();();(-2000.0, -2000.0);
04:24:01:968;04:24:01:956;1448034000.01;(0.5801308631896973, 0.6743204116821289);62.7466201782;1.0;4;0;0;;0;0;();();(-2000.0, -2000.0);
04:24:01:984;04:24:01:956;1448034000.01;(0.5801308631896973, 0.6743204116821289);62.7466201782;1.0;4;0;0;;0;0;();();(-2000.0, -2000.0);
04:24:02:001;04:24:02:000;1448034000.07;(0.5768147468566894, 0.6788969463772244);62.1063919067;1.0;4;0;0;;0;0;();();(-2000.0, -2000.0);
04:24:02:033;04:24:02:000;1448034000.07;(0.5768147468566894, 0.6788969463772244);62.1063919067;1.0;4;0;0;;0;0;();();(-2000.0, -2000.0);
04:24:02:050;04:24:02:040;1448034000.11;(0.5776535034179687, 0.6788043128119574);61.9145736694;1.0;4;0;0;;0;0;();();(-2000.0, -2000.0);
04:24:02:068;04:24:02:040;1448034000.11;(0.5776535034179687, 0.6788043128119574);61.9145736694;1.0;4;0;0;;0;0;();();(-2000.0, -2000.0);
04:24:02:084;04:24:02:079;1448034000.14;(0.5778326988220215, 0.6784973568386502);61.2570838928;1.0;4;0;0;;0;0;();();(-2000.0, -2000.0);
04:24:02:100;04:24:02:079;1448034000.14;(0.5778326988220215, 0.6784973568386502);61.2570838928;1.0;4;0;0;;0;0;();();(-2000.0, -2000.0);
04:24:02:133;04:24:02:124;1448034000.21;(0.5783730983734131, 0.6785813225640192);60.6891326904;1.0;4;0;0;;0;0;();();(-2000.0, -2000.0);
04:24:02:150;04:24:02:124;1448034000.21;(0.5783730983734131, 0.6785813225640192);60.6891326904;1.0;4;0;0;;0;0;();();(-2000.0, -2000.0);
04:24:02:166;04:24:02:124;1448034000.21;(0.5783730983734131, 0.6785813225640192);60.6891326904;1.0;4;0;0;;0;0;();();(-2000.0, -2000.0);
04:24:02:183;04:24:02:124;1448034000.21;(0.5783730983734131, 0.6785813225640192);60.6891326904;1.0;4;0;0;;0;0;();();(-2000.0, -2000.0);
04:24:02:216;04:24:02:203;1448034000.27;(0.5791077136993408, 0.6781773249308268);59.9765586853;1.0;4;0;0;;0;0;();();(-2000.0, -2000.0);
04:24:02:233;04:24:02:203;1448034000.27;(0.5791077136993408, 0.6781773249308268);59.9765586853;1.0;4;0;0;;0;0;();();(-2000.0, -2000.0);
04:24:02:248;04:24:02:248;1448034000.31;(0.5795743942260743, 0.6779877980550131);59.3913879395;1.0;4;0;0;;0;0;();();(-2000.0, -2000.0);
04:24:02:266;04:24:02:248;1448034000.31;(0.5795743942260743, 0.6779877980550131);59.3913879395;1.0;4;0;0;;0;0;();();(-2000.0, -2000.0);
04:24:02:283;04:24:02:248;1448034000.31;(0.5795743942260743, 0.6779877980550131);59.3913879395;1.0;4;0;0;;0;0;();();(-2000.0, -2000.0);
04:24:02:315;04:24:02:288;1448034000.34;(0.5792214393615722, 0.6785911771986219);59.1137008667;1.0;4;0;0;;0;0;();();(-2000.0, -2000.0);
04:24:02:332;04:24:02:328;1448034000.41;(0.5798758506774903, 0.6773418426513672);59.3991699219;1.0;4;0;0;;0;0;();();(-2000.0, -2000.0);
04:24:02:349;04:24:02:328;1448034000.41;(0.5798758506774903, 0.6773418426513672);59.3991699219;1.0;4;0;0;;0;0;();();(-2000.0, -2000.0);
04:24:02:365;04:24:02:328;1448034000.41;(0.5798758506774903, 0.6773418426513672);59.3991699219;1.0;4;0;0;;0;0;();();(-2000.0, -2000.0);
04:24:02:382;04:24:02:372;1448034000.44;(0.5799481868743896, 0.677223629421658);59.9015159607;1.0;4;0;0;;0;0;();();(-2000.0, -2000.0);
04:24:02:415;04:24:02:372;1448034000.44;(0.5799481868743896, 0.677223629421658);59.9015159607;1.0;4;0;0;;0;0;();();(-2000.0, -2000.0);
04:24:02:431;04:24:02:420;1448034000.47;(0.580196475982666, 0.6773974948459202);59.6500663757;1.0;4;0;0;;0;0;();();(-2000.0, -2000.0);
04:24:02:449;04:24:02:420;1448034000.47;(0.580196475982666, 0.6773974948459202);59.6500663757;1.0;4;0;0;;0;0;();();(-2000.0, -2000.0);
04:24:02:465;04:24:02:455;1448034000.51;(0.5805843830108642, 0.6771434148152669);60.3335914612;1.0;4;0;0;;0;0;();();(-2000.0, -2000.0);
04:24:02:481;04:24:02:455;1448034000.51;(0.5805843830108642, 0.6771434148152669);60.3335914612;1.0;4;0;0;;0;0;();();(-2000.0, -2000.0);
04:24:02:514;04:24:02:496;1448034000.57;(0.6084006786346435, 0.6625794304741753);61.2447547913;0.918038642722;4;0;0;;0;0;();();(-2000.0, -2000.0);
04:24:02:530;04:24:02:496;1448034000.57;(0.6084006786346435, 0.6625794304741753);61.2447547913;0.918038642722;4;0;0;;0;0;();();(-2000.0, -2000.0);
04:24:02:546;04:24:02:536;1448034000.61;(0.6086916923522949, 0.6626401477389865);60.8718910217;1.0;4;0;0;;0;0;();();(-2000.0, -2000.0);
04:24:02:563;04:24:02:536;1448034000.61;(0.6086916923522949, 0.6626401477389865);60.8718910217;1.0;4;0;0;;0;0;();();(-2000.0, -2000.0);
04:24:02:581;04:24:02:536;1448034000.61;(0.6086916923522949, 0.6626401477389865);60.8718910217;1.0;4;0;0;;0;0;();();(-2000.0, -2000.0);
04:24:02:613;04:24:02:536;1448034000.61;(0.6086916923522949, 0.6626401477389865);60.8718910217;1.0;4;0;0;;0;0;();();(-2000.0, -2000.0);
04:24:02:630;04:24:02:622;1448034000.67;(0.6084375381469727, 0.6636630376180013);62.3912506104;1.0;4;0;0;;0;0;();();(-2000.0, -2000.0);
04:24:02:647;04:24:02:622;1448034000.67;(0.6084375381469727, 0.6636630376180013);62.3912506104;1.0;4;0;0;;0;0;();();(-2000.0, -2000.0);
04:24:02:663;04:24:02:660;1448034000.74;(0.6087727069854736, 0.6637294345431858);63.667804718;1.0;4;0;0;;0;0;();();(-2000.0, -2000.0);
04:24:02:680;04:24:02:660;1448034000.74;(0.6087727069854736, 0.6637294345431858);63.667804718;1.0;4;0;0;;0;0;();();(-2000.0, -2000.0);
04:24:02:713;04:24:02:660;1448034000.74;(0.6087727069854736, 0.6637294345431858);63.667804718;1.0;4;0;0;;0;0;();();(-2000.0, -2000.0);
04:24:02:729;04:24:02:660;1448034000.74;(0.6087727069854736, 0.6637294345431858);63.667804718;1.0;4;0;0;;0;0;();();(-2000.0, -2000.0);
04:24:02:745;04:24:02:660;1448034000.74;(0.6087727069854736, 0.6637294345431858);63.667804718;1.0;4;0;0;;0;0;();();(-2000.0, -2000.0);
04:24:02:763;04:24:02:660;1448034000.74;(0.6087727069854736, 0.6637294345431858);63.667804718;1.0;4;0;0;;0;0;();();(-2000.0, -2000.0);
04:24:02:795;04:24:02:660;1448034000.74;(0.6087727069854736, 0.6637294345431858);63.667804718;1.0;4;0;0;;0;0;();();(-2000.0, -2000.0);
04:24:02:812;04:24:02:802;1448034000.77;(0.6144606590270996, 0.6991814719306098);63.2295188904;0.946494184105;4;0;0;;0;0;();();(-2000.0, -2000.0);
04:24:02:830;04:24:02:827;1448034000.87;(0.6191234111785888, 0.6998335308498806);64.2069854736;1.0;4;0;0;;0;0;();();(-2000.0, -2000.0);
04:24:02:845;04:24:02:827;1448034000.87;(0.6191234111785888, 0.6998335308498806);64.2069854736;1.0;4;0;0;;0;0;();();(-2000.0, -2000.0);
04:24:02:862;04:24:02:827;1448034000.87;(0.6191234111785888, 0.6998335308498806);64.2069854736;1.0;4;0;0;;0;0;();();(-2000.0, -2000.0);
04:24:02:895;04:24:02:869;1448034000.94;(0.6182055473327637, 0.699638409084744);65.348815918;1.0;4;0;0;;0;0;();();(-2000.0, -2000.0);
04:24:02:911;04:24:02:911;1448034000.97;(0.6179197311401368, 0.6994317796495226);65.2433242798;1.0;4;0;0;;0;0;();();(-2000.0, -2000.0);
04:24:02:928;04:24:02:911;1448034000.97;(0.6179197311401368, 0.6994317796495226);65.2433242798;1.0;4;0;0;;0;0;();();(-2000.0, -2000.0);
04:24:02:945;04:24:02:911;1448034000.97;(0.6179197311401368, 0.6994317796495226);65.2433242798;1.0;4;0;0;;0;0;();();(-2000.0, -2000.0);
04:24:02:961;04:24:02:952;1448034001.01;(0.6177884101867676, 0.6991079330444336);65.5575485229;1.0;4;0;0;;0;0;();();(-2000.0, -2000.0);
04:24:02:994;04:24:02:952;1448034001.01;(0.6177884101867676, 0.6991079330444336);65.5575485229;1.0;4;0;0;;0;0;();();(-2000.0, -2000.0);
04:24:03:011;04:24:03:006;1448034001.04;(0.6179722309112549, 0.6992389890882704);66.6885757446;1.0;4;0;0;;0;0;();();(-2000.0, -2000.0);
04:24:03:029;04:24:03:006;1448034001.04;(0.6179722309112549, 0.6992389890882704);66.6885757446;1.0;4;0;0;;0;0;();();(-2000.0, -2000.0);
04:24:03:045;04:24:03:039;1448034001.11;(0.6188427448272705, 0.6990277608235678);66.6676635742;1.0;4;0;0;;0;0;();();(-2000.0, -2000.0);
04:24:03:060;04:24:03:039;1448034001.11;(0.6188427448272705, 0.6990277608235678);66.6676635742;1.0;4;0;0;;0;0;();();(-2000.0, -2000.0);
04:24:03:095;04:24:03:076;1448034001.14;(0.6186851978302002, 0.6986703660753038);66.7642059326;1.0;4;0;0;;0;0;();();(-2000.0, -2000.0);
04:24:03:111;04:24:03:076;1448034001.14;(0.6186851978302002, 0.6986703660753038);66.7642059326;1.0;4;0;0;;0;0;();();(-2000.0, -2000.0);
04:24:03:127;04:24:03:120;1448034001.17;(0.6184933185577393, 0.6985457102457682);67.0844039917;1.0;4;0;0;;0;0;();();(-2000.0, -2000.0);
04:24:03:144;04:24:03:120;1448034001.17;(0.6184933185577393, 0.6985457102457682);67.0844039917;1.0;4;0;0;;0;0;();();(-2000.0, -2000.0);
04:24:03:160;04:24:03:160;1448034001.21;(0.6159555912017822, 0.6943318049112956);66.1463775635;0.985990113903;4;0;0;;0;0;();();(-2000.0, -2000.0);
04:24:03:194;04:24:03:160;1448034001.21;(0.6159555912017822, 0.6943318049112956);66.1463775635;0.985990113903;4;0;0;;0;0;();();(-2000.0, -2000.0);
04:24:03:209;04:24:03:160;1448034001.21;(0.6159555912017822, 0.6943318049112956);66.1463775635;0.985990113903;4;0;0;;0;0;();();(-2000.0, -2000.0);
04:24:03:227;04:24:03:160;1448034001.21;(0.6159555912017822, 0.6943318049112956);66.1463775635;0.985990113903;4;0;0;;0;0;();();(-2000.0, -2000.0);
04:24:03:243;04:24:03:160;1448034001.21;(0.6159555912017822, 0.6943318049112956);66.1463775635;0.985990113903;4;0;0;;0;0;();();(-2000.0, -2000.0);
04:24:03:260;04:24:03:243;1448034001.24;(0.36694624423980715, 0.6353074391682942);59.040802002;0.607714510056;4;0;0;;0;0;();();(-2000.0, -2000.0);
04:24:03:293;04:24:03:284;1448034001.32;(0.6349190711975098, 0.6739392598470052);67.0837783813;0.746104451156;4;0;0;;0;0;();();(-2000.0, -2000.0);
04:24:03:309;04:24:03:284;1448034001.32;(0.6349190711975098, 0.6739392598470052);67.0837783813;0.746104451156;4;0;0;;0;0;();();(-2000.0, -2000.0);
04:24:03:326;04:24:03:324;1448034001.39;(0.6408551216125489, 0.6622542275322808);66.942237854;0.884641041683;4;0;0;;0;0;();();(-2000.0, -2000.0);
04:24:03:343;04:24:03:324;1448034001.39;(0.6408551216125489, 0.6622542275322808);66.942237854;0.884641041683;4;0;0;;0;0;();();(-2000.0, -2000.0);
04:24:03:376;04:24:03:368;1448034001.44;(0.6422810077667236, 0.6627590815226236);67.5074996948;1.0;4;0;0;;0;0;();();(-2000.0, -2000.0);
04:24:03:392;04:24:03:368;1448034001.44;(0.6422810077667236, 0.6627590815226236);67.5074996948;1.0;4;0;0;;0;0;();();(-2000.0, -2000.0);
04:24:03:410;04:24:03:408;1448034001.47;(0.6425276279449463, 0.6631989585028755);67.5618743896;1.0;4;0;0;;0;0;();();(-2000.0, -2000.0);
04:24:03:425;04:24:03:408;1448034001.47;(0.6425276279449463, 0.6631989585028755);67.5618743896;1.0;4;0;0;;0;0;();();(-2000.0, -2000.0);
04:24:03:442;04:24:03:408;1448034001.47;(0.6425276279449463, 0.6631989585028755);67.5618743896;1.0;4;0;0;;0;0;();();(-2000.0, -2000.0);
04:24:03:475;04:24:03:449;1448034001.51;(0.6426368236541748, 0.6638606177435982);68.1279373169;1.0;4;0;0;;0;0;();();(-2000.0, -2000.0);
04:24:03:491;04:24:03:491;1448034001.54;(0, 0);0;0;4;0;0;;0;0;();();(-2000.0, -2000.0);
04:24:03:508;04:24:03:491;1448034001.54;(0, 0);0;0;4;0;0;;0;0;();();(-2000.0, -2000.0);
04:24:03:525;04:24:03:491;1448034001.54;(0, 0);0;0;4;0;0;;0;0;();();(-2000.0, -2000.0);
04:24:03:541;04:24:03:491;1448034001.54;(0, 0);0;0;4;0;0;;0;0;();();(-2000.0, -2000.0);
04:24:03:575;04:24:03:491;1448034001.54;(0, 0);0;0;4;0;0;;0;0;();();(-2000.0, -2000.0);
04:24:03:592;04:24:03:491;1448034001.54;(0, 0);0;0;4;0;0;;0;0;();();(-2000.0, -2000.0);
04:24:03:608;04:24:03:491;1448034001.54;(0, 0);0;0;4;0;0;;0;0;();();(-2000.0, -2000.0);
04:24:03:624;04:24:03:615;1448034001.68;(0.357429051399231, 0.8559817420111762);39.6728172302;0.81215751956;4;0;0;;0;0;();();(-2000.0, -2000.0);
04:24:03:640;04:24:03:615;1448034001.68;(0.357429051399231, 0.8559817420111762);39.6728172302;0.81215751956;4;0;0;;0;0;();();(-2000.0, -2000.0);
04:24:03:673;04:24:03:615;1448034001.68;(0.357429051399231, 0.8559817420111762);39.6728172302;0.81215751956;4;0;0;;0;0;();();(-2000.0, -2000.0);
04:24:03:690;04:24:03:615;1448034001.68;(0.357429051399231, 0.8559817420111762);39.6728172302;0.81215751956;4;0;0;;0;0;();();(-2000.0, -2000.0);
04:24:03:709;04:24:03:709;1448034001.77;(0.6612789154052734, 0.6764565149943034);68.6388320923;1.0;4;0;0;;0;0;();();(-2000.0, -2000.0);
04:24:03:723;04:24:03:709;1448034001.77;(0.6612789154052734, 0.6764565149943034);68.6388320923;1.0;4;0;0;;0;0;();();(-2000.0, -2000.0);
04:24:03:739;04:24:03:739;1448034001.81;(0.6610752582550049, 0.6769738727145724);68.5030517578;1.0;4;0;0;;0;0;();();(-2000.0, -2000.0);
04:24:03:773;04:24:03:739;1448034001.81;(0.6610752582550049, 0.6769738727145724);68.5030517578;1.0;4;0;0;;0;0;();();(-2000.0, -2000.0);
04:24:03:790;04:24:03:780;1448034001.84;(0.6615756034851075, 0.6758699629041884);69.0444107056;1.0;4;0;0;;0;0;();();(-2000.0, -2000.0);
04:24:03:807;04:24:03:780;1448034001.84;(0.6615756034851075, 0.6758699629041884);69.0444107056;1.0;4;0;0;;0;0;();();(-2000.0, -2000.0);
04:24:03:823;04:24:03:780;1448034001.84;(0.6615756034851075, 0.6758699629041884);69.0444107056;1.0;4;0;0;;0;0;();();(-2000.0, -2000.0);
04:24:03:840;04:24:03:824;1448034001.87;(0.6661858081817627, 0.667893812391493);68.6192550659;0.888895797823;4;0;0;;0;0;();();(-2000.0, -2000.0);
04:24:03:873;04:24:03:866;1448034001.94;(0.6657447814941406, 0.6684045791625977);68.3177490234;1.0;4;0;0;;0;0;();();(-2000.0, -2000.0);
04:24:03:890;04:24:03:866;1448034001.94;(0.6657447814941406, 0.6684045791625977);68.3177490234;1.0;4;0;0;;0;0;();();(-2000.0, -2000.0);
04:24:03:905;04:24:03:866;1448034001.94;(0.6657447814941406, 0.6684045791625977);68.3177490234;1.0;4;0;0;;0;0;();();(-2000.0, -2000.0);
04:24:03:923;04:24:03:907;1448034001.97;(0.6657871723175048, 0.6685428407457139);68.6065750122;1.0;4;0;0;;0;0;();();(-2000.0, -2000.0);
04:24:03:956;04:24:03:948;1448034002.01;(0.6656397342681885, 0.6682548099093967);68.7511138916;1.0;4;0;0;;0;0;();();(-2000.0, -2000.0);
04:24:03:972;04:24:03:948;1448034002.01;(0.6656397342681885, 0.6682548099093967);68.7511138916;1.0;4;0;0;;0;0;();();(-2000.0, -2000.0);
04:24:03:989;04:24:03:988;1448034002.04;(0.6652699947357178, 0.6687521616617839);68.7575149536;1.0;4;0;0;;0;0;();();(-2000.0, -2000.0);
04:24:04:005;04:24:03:988;1448034002.04;(0.6652699947357178, 0.6687521616617839);68.7575149536;1.0;4;0;0;;0;0;();();(-2000.0, -2000.0);
04:24:04:021;04:24:03:988;1448034002.04;(0.6652699947357178, 0.6687521616617839);68.7575149536;1.0;4;0;0;;0;0;();();(-2000.0, -2000.0);
04:24:04:054;04:24:03:988;1448034002.04;(0.6652699947357178, 0.6687521616617839);68.7575149536;1.0;4;0;0;;0;0;();();(-2000.0, -2000.0);
04:24:04:071;04:24:04:071;1448034002.07;(0, 0);0;0;4;0;0;;0;0;();();(-2000.0, -2000.0);
04:24:04:089;04:24:04:071;1448034002.07;(0, 0);0;0;4;0;0;;0;0;();();(-2000.0, -2000.0);
04:24:04:105;04:24:04:071;1448034002.07;(0, 0);0;0;4;0;0;;0;0;();();(-2000.0, -2000.0);
04:24:04:121;04:24:04:111;1448034002.16;(0.611559247970581, 0.6558763715955946);70.3244247437;0.917796416726;4;0;0;;0;0;();();(-2000.0, -2000.0);
04:24:04:154;04:24:04:111;1448034002.16;(0.611559247970581, 0.6558763715955946);70.3244247437;0.917796416726;4;0;0;;0;0;();();(-2000.0, -2000.0);
04:24:04:171;04:24:04:156;1448034002.24;(0.6116490364074707, 0.6573580423990886);70.5820846558;1.0;4;0;0;;0;0;();();(-2000.0, -2000.0);
04:24:04:187;04:24:04:156;1448034002.24;(0.6116490364074707, 0.6573580423990886);70.5820846558;1.0;4;0;0;;0;0;();();(-2000.0, -2000.0);
04:24:04:203;04:24:04:195;1448034002.27;(0.6114041805267334, 0.6574194378323025);70.8423614502;1.0;4;0;0;;0;0;();();(-2000.0, -2000.0);
04:24:04:221;04:24:04:195;1448034002.27;(0.6114041805267334, 0.6574194378323025);70.8423614502;1.0;4;0;0;;0;0;();();(-2000.0, -2000.0);
04:24:04:254;04:24:04:236;1448034002.31;(0.6119512557983399, 0.6577150132921007);70.6785812378;1.0;4;0;0;;0;0;();();(-2000.0, -2000.0);
04:24:04:269;04:24:04:236;1448034002.31;(0.6119512557983399, 0.6577150132921007);70.6785812378;1.0;4;0;0;;0;0;();();(-2000.0, -2000.0);
04:24:04:287;04:24:04:280;1448034002.34;(0.6121557235717774, 0.6579514821370442);70.7038803101;1.0;4;0;0;;0;0;();();(-2000.0, -2000.0);
04:24:04:303;04:24:04:280;1448034002.34;(0.6121557235717774, 0.6579514821370442);70.7038803101;1.0;4;0;0;;0;0;();();(-2000.0, -2000.0);
04:24:04:321;04:24:04:280;1448034002.34;(0.6121557235717774, 0.6579514821370442);70.7038803101;1.0;4;0;0;;0;0;();();(-2000.0, -2000.0);
04:24:04:353;04:24:04:280;1448034002.34;(0.6121557235717774, 0.6579514821370442);70.7038803101;1.0;4;0;0;;0;0;();();(-2000.0, -2000.0);
04:24:04:370;04:24:04:364;1448034002.37;(0.7901060581207275, 0.445421388414171);26.0046749115;0.873579363453;4;0;0;;0;0;();();(-2000.0, -2000.0);
04:24:04:386;04:24:04:364;1448034002.37;(0.7901060581207275, 0.445421388414171);26.0046749115;0.873579363453;4;0;0;;0;0;();();(-2000.0, -2000.0);
04:24:04:404;04:24:04:364;1448034002.37;(0.7901060581207275, 0.445421388414171);26.0046749115;0.873579363453;4;0;0;;0;0;();();(-2000.0, -2000.0);
04:24:04:436;04:24:04:404;1448034002.44;(0.5732311248779297, 0.6858324898613823);69.3773651123;1.0;4;0;0;;0;0;();();(-2000.0, -2000.0);
04:24:04:453;04:24:04:444;1448034002.51;(0.573788833618164, 0.6874104181925456);68.9445953369;1.0;4;0;0;;0;0;();();(-2000.0, -2000.0);
04:24:04:469;04:24:04:444;1448034002.51;(0.573788833618164, 0.6874104181925456);68.9445953369;1.0;4;0;0;;0;0;();();(-2000.0, -2000.0);
04:24:04:486;04:24:04:444;1448034002.51;(0.573788833618164, 0.6874104181925456);68.9445953369;1.0;4;0;0;;0;0;();();(-2000.0, -2000.0);
04:24:04:501;04:24:04:488;1448034002.54;(0.5742368221282959, 0.6874016443888347);68.52784729;1.0;4;0;0;;0;0;();();(-2000.0, -2000.0);
04:24:04:536;04:24:04:528;1448034002.57;(0.572087574005127, 0.7002623240152994);68.7695846558;0.977452619189;4;0;0;;0;0;();();(-2000.0, -2000.0);
04:24:04:552;04:24:04:528;1448034002.57;(0.572087574005127, 0.7002623240152994);68.7695846558;0.977452619189;4;0;0;;0;0;();();(-2000.0, -2000.0);
04:24:04:569;04:24:04:567;1448034002.61;(0.5727132797241211, 0.7038039949205186);68.5569915771;1.0;4;0;0;;0;0;();();(-2000.0, -2000.0);
04:24:04:585;04:24:04:567;1448034002.61;(0.5727132797241211, 0.7038039949205186);68.5569915771;1.0;4;0;0;;0;0;();();(-2000.0, -2000.0);
04:24:04:602;04:24:04:567;1448034002.61;(0.5727132797241211, 0.7038039949205186);68.5569915771;1.0;4;0;0;;0;0;();();(-2000.0, -2000.0);
04:24:04:634;04:24:04:616;1448034002.67;(0.5731944084167481, 0.7043056911892361);68.4822540283;1.0;4;0;0;;0;0;();();(-2000.0, -2000.0);
04:24:04:651;04:24:04:616;1448034002.67;(0.5731944084167481, 0.7043056911892361);68.4822540283;1.0;4;0;0;;0;0;();();(-2000.0, -2000.0);
04:24:04:668;04:24:04:651;1448034002.71;(0.5733109474182129, 0.7037875493367514);68.4796524048;1.0;4;0;0;;0;0;();();(-2000.0, -2000.0);
04:24:04:684;04:24:04:651;1448034002.71;(0.5733109474182129, 0.7037875493367514);68.4796524048;1.0;4;0;0;;0;0;();();(-2000.0, -2000.0);
04:24:04:701;04:24:04:696;1448034002.77;(0.5735592365264892, 0.7036535051133898);67.6692276001;1.0;4;0;0;;0;0;();();(-2000.0, -2000.0);
04:24:04:734;04:24:04:696;1448034002.77;(0.5735592365264892, 0.7036535051133898);67.6692276001;1.0;4;0;0;;0;0;();();(-2000.0, -2000.0);
04:24:04:750;04:24:04:740;1448034002.81;(0.5739429473876954, 0.7035739050971137);68.020904541;1.0;4;0;0;;0;0;();();(-2000.0, -2000.0);
04:24:04:767;04:24:04:740;1448034002.81;(0.5739429473876954, 0.7035739050971137);68.020904541;1.0;4;0;0;;0;0;();();(-2000.0, -2000.0);
04:24:04:784;04:24:04:775;1448034002.84;(0.5741324424743652, 0.7033208847045899);67.5859222412;1.0;4;0;0;;0;0;();();(-2000.0, -2000.0);
04:24:04:801;04:24:04:775;1448034002.84;(0.5741324424743652, 0.7033208847045899);67.5859222412;1.0;4;0;0;;0;0;();();(-2000.0, -2000.0);
04:24:04:834;04:24:04:821;1448034002.87;(0.5743274688720703, 0.7032178666856554);66.8881759644;1.0;4;0;0;;0;0;();();(-2000.0, -2000.0);
04:24:04:851;04:24:04:821;1448034002.87;(0.5743274688720703, 0.7032178666856554);66.8881759644;1.0;4;0;0;;0;0;();();(-2000.0, -2000.0);
04:24:04:866;04:24:04:860;1448034002.91;(0.5744894981384278, 0.7032389534844292);67.2246780396;1.0;4;0;0;;0;0;();();(-2000.0, -2000.0);
04:24:04:883;04:24:04:860;1448034002.91;(0.5744894981384278, 0.7032389534844292);67.2246780396;1.0;4;0;0;;0;0;();();(-2000.0, -2000.0);
04:24:04:900;04:24:04:899;1448034002.94;(0, 0);0;0;4;0;0;;0;0;();();(-2000.0, -2000.0);
04:24:04:933;04:24:04:899;1448034002.94;(0, 0);0;0;4;0;0;;0;0;();();(-2000.0, -2000.0);
04:24:04:949;04:24:04:899;1448034002.94;(0, 0);0;0;4;0;0;;0;0;();();(-2000.0, -2000.0);
04:24:04:976;04:24:04:950;1448034002.97;(0.6253775596618653, 0.6498723559909396);46.4726638794;0.646531435649;6;0;0;;0;0;();();(-2000.0, -2000.0);
04:24:04:982;04:24:04:950;1448034002.97;(0.6253775596618653, 0.6498723559909396);46.4726638794;0.646531435649;6;0;0;;0;0;();();(-2000.0, -2000.0);
04:24:05:016;04:24:04:950;1448034002.97;(0.6253775596618653, 0.6498723559909396);46.4726638794;0.646531435649;6;0;0;;0;0;();();(-2000.0, -2000.0);
04:24:05:033;04:24:04:950;1448034002.97;(0.6253775596618653, 0.6498723559909396);46.4726638794;0.646531435649;6;0;0;;0;0;();();(-2000.0, -2000.0);
04:24:05:050;04:24:04:950;1448034002.97;(0.6253775596618653, 0.6498723559909396);46.4726638794;0.646531435649;6;0;0;;0;0;();();(-2000.0, -2000.0);
04:24:05:065;04:24:04:950;1448034002.97;(0.6253775596618653, 0.6498723559909396);46.4726638794;0.646531435649;6;0;0;;0;0;();();(-2000.0, -2000.0);
04:24:05:082;04:24:05:067;1448034003.01;(0.4157419204711914, 0.5989474826388889);33.2565383911;0.627485397432;6;0;0;;0;0;();();(-2000.0, -2000.0);
04:24:05:115;04:24:05:107;1448034003.17;(0.6255875110626221, 0.6541789796617297);66.6984024048;1.0;6;0;0;;0;0;();();(-2000.0, -2000.0);
04:24:05:132;04:24:05:107;1448034003.17;(0.6255875110626221, 0.6541789796617297);66.6984024048;1.0;6;0;0;;0;0;();();(-2000.0, -2000.0);
04:24:05:149;04:24:05:107;1448034003.17;(0.6255875110626221, 0.6541789796617297);66.6984024048;1.0;6;0;0;;0;0;();();(-2000.0, -2000.0);
04:24:05:165;04:24:05:151;1448034003.21;(0.625872802734375, 0.6544536802503798);66.6625366211;1.0;6;0;0;;0;0;();();(-2000.0, -2000.0);
04:24:05:181;04:24:05:151;1448034003.21;(0.625872802734375, 0.6544536802503798);66.6625366211;1.0;6;0;0;;0;0;();();(-2000.0, -2000.0);
04:24:05:215;04:24:05:192;1448034003.27;(0.6267010688781738, 0.6557510587904188);67.0658874512;1.0;6;0;0;;0;0;();();(-2000.0, -2000.0);
04:24:05:231;04:24:05:192;1448034003.27;(0.6267010688781738, 0.6557510587904188);67.0658874512;1.0;6;0;0;;0;0;();();(-2000.0, -2000.0);
04:24:05:248;04:24:05:232;1448034003.31;(0.6267886638641358, 0.6554208543565538);66.8803024292;1.0;6;0;0;;0;0;();();(-2000.0, -2000.0);
04:24:05:264;04:24:05:232;1448034003.31;(0.6267886638641358, 0.6554208543565538);66.8803024292;1.0;6;0;0;;0;0;();();(-2000.0, -2000.0);
04:24:05:280;04:24:05:276;1448034003.34;(0.6267973899841308, 0.6558042738172742);66.9584121704;1.0;6;0;0;;0;0;();();(-2000.0, -2000.0);
04:24:05:314;04:24:05:276;1448034003.34;(0.6267973899841308, 0.6558042738172742);66.9584121704;1.0;6;0;0;;0;0;();();(-2000.0, -2000.0);
04:24:05:330;04:24:05:315;1448034003.37;(0.34937191009521484, 0.7368941201104058);32.6186180115;0.694394495706;6;0;0;;0;0;();();(-2000.0, -2000.0);
04:24:05:346;04:24:05:315;1448034003.37;(0.34937191009521484, 0.7368941201104058);32.6186180115;0.694394495706;6;0;0;;0;0;();();(-2000.0, -2000.0);
04:24:05:364;04:24:05:357;1448034003.41;(0.34825878143310546, 0.7411874559190539);30.6227645874;0.701973661598;6;0;0;;0;0;();();(-2000.0, -2000.0);
04:24:05:380;04:24:05:357;1448034003.41;(0.34825878143310546, 0.7411874559190539);30.6227645874;0.701973661598;6;0;0;;0;0;();();(-2000.0, -2000.0);
04:24:05:414;04:24:05:400;1448034003.44;(0.615162467956543, 0.6444313473171658);67.7049407959;1.0;6;0;0;;0;0;();();(-2000.0, -2000.0);
04:24:05:430;04:24:05:400;1448034003.44;(0.615162467956543, 0.6444313473171658);67.7049407959;1.0;6;0;0;;0;0;();();(-2000.0, -2000.0);
04:24:05:446;04:24:05:440;1448034003.51;(0.6156545162200928, 0.6449975543551975);67.6296157837;1.0;6;0;0;;0;0;();();(-2000.0, -2000.0);
04:24:05:463;04:24:05:440;1448034003.51;(0.6156545162200928, 0.6449975543551975);67.6296157837;1.0;6;0;0;;0;0;();();(-2000.0, -2000.0);
04:24:05:480;04:24:05:440;1448034003.51;(0.6156545162200928, 0.6449975543551975);67.6296157837;1.0;6;0;0;;0;0;();();(-2000.0, -2000.0);
04:24:05:513;04:24:05:440;1448034003.51;(0.6156545162200928, 0.6449975543551975);67.6296157837;1.0;6;0;0;;0;0;();();(-2000.0, -2000.0);
04:24:05:529;04:24:05:524;1448034003.61;(0.6156163692474366, 0.645212279425727);68.7676620483;1.0;6;0;0;;0;0;();();(-2000.0, -2000.0);
04:24:05:545;04:24:05:524;1448034003.61;(0.6156163692474366, 0.645212279425727);68.7676620483;1.0;6;0;0;;0;0;();();(-2000.0, -2000.0);
04:24:05:563;04:24:05:524;1448034003.61;(0.6156163692474366, 0.645212279425727);68.7676620483;1.0;6;0;0;;0;0;();();(-2000.0, -2000.0);
04:24:05:596;04:24:05:564;1448034003.64;(0.6158908367156982, 0.6455451117621528);68.7883758545;1.0;6;0;0;;0;0;();();(-2000.0, -2000.0);
04:24:05:612;04:24:05:607;1448034003.67;(0.6159967422485352, 0.6451840082804362);68.9233703613;1.0;6;0;0;;0;0;();();(-2000.0, -2000.0);
04:24:05:629;04:24:05:607;1448034003.67;(0.6159967422485352, 0.6451840082804362);68.9233703613;1.0;6;0;0;;0;0;();();(-2000.0, -2000.0);
04:24:05:645;04:24:05:607;1448034003.67;(0.6159967422485352, 0.6451840082804362);68.9233703613;1.0;6;0;0;;0;0;();();(-2000.0, -2000.0);
04:24:05:661;04:24:05:647;1448034003.71;(0.615955400466919, 0.6452197604709201);68.8436279297;1.0;6;0;0;;0;0;();();(-2000.0, -2000.0);
04:24:05:695;04:24:05:688;1448034003.74;(0.34646878242492674, 0.7331630282931858);29.6055297852;0.830270560513;6;0;0;;0;0;();();(-2000.0, -2000.0);
04:24:05:711;04:24:05:688;1448034003.74;(0.34646878242492674, 0.7331630282931858);29.6055297852;0.830270560513;6;0;0;;0;0;();();(-2000.0, -2000.0);
04:24:05:728;04:24:05:688;1448034003.74;(0.34646878242492674, 0.7331630282931858);29.6055297852;0.830270560513;6;0;0;;0;0;();();(-2000.0, -2000.0);
04:24:05:745;04:24:05:732;1448034003.81;(0.5932224273681641, 0.647703742980957);69.9086227417;1.0;6;0;0;;0;0;();();(-2000.0, -2000.0);
04:24:05:761;04:24:05:732;1448034003.81;(0.5932224273681641, 0.647703742980957);69.9086227417;1.0;6;0;0;;0;0;();();(-2000.0, -2000.0);
04:24:05:794;04:24:05:772;1448034003.84;(0.5931550025939941, 0.6479810502794054);69.7555007935;1.0;6;0;0;;0;0;();();(-2000.0, -2000.0);
04:24:05:811;04:24:05:772;1448034003.84;(0.5931550025939941, 0.6479810502794054);69.7555007935;1.0;6;0;0;;0;0;();();(-2000.0, -2000.0);
04:24:05:828;04:24:05:815;1448034003.87;(0.5934354782104492, 0.6479940838283963);70.1219940186;1.0;6;0;0;;0;0;();();(-2000.0, -2000.0);
04:24:05:844;04:24:05:815;1448034003.87;(0.5934354782104492, 0.6479940838283963);70.1219940186;1.0;6;0;0;;0;0;();();(-2000.0, -2000.0);
04:24:05:861;04:24:05:815;1448034003.87;(0.5934354782104492, 0.6479940838283963);70.1219940186;1.0;6;0;0;;0;0;();();(-2000.0, -2000.0);
04:24:05:893;04:24:05:869;1448034003.91;(0.593422269821167, 0.6483013576931423);69.4973602295;1.0;6;0;0;;0;0;();();(-2000.0, -2000.0);
04:24:05:910;04:24:05:895;1448034003.94;(0.5933923244476318, 0.6483097500271268);69.9848556519;1.0;6;0;0;;0;0;();();(-2000.0, -2000.0);
04:24:05:926;04:24:05:895;1448034003.94;(0.5933923244476318, 0.6483097500271268);69.9848556519;1.0;6;0;0;;0;0;();();(-2000.0, -2000.0);
04:24:05:943;04:24:05:895;1448034003.94;(0.5933923244476318, 0.6483097500271268);69.9848556519;1.0;6;0;0;;0;0;();();(-2000.0, -2000.0);
04:24:05:959;04:24:05:951;1448034004.01;(0.5938753128051758, 0.6484704335530599);69.8700866699;1.0;6;0;0;;0;0;();();(-2000.0, -2000.0);
04:24:05:994;04:24:05:980;1448034004.04;(0.5935181617736817, 0.6484745025634766);69.5559005737;1.0;6;0;0;;0;0;();();(-2000.0, -2000.0);
04:24:06:010;04:24:05:980;1448034004.04;(0.5935181617736817, 0.6484745025634766);69.5559005737;1.0;6;0;0;;0;0;();();(-2000.0, -2000.0);
04:24:06:026;04:24:06:020;1448034004.07;(0.5932904720306397, 0.6483576456705729);69.6230392456;1.0;6;0;0;;0;0;();();(-2000.0, -2000.0);
04:24:06:042;04:24:06:020;1448034004.07;(0.5932904720306397, 0.6483576456705729);69.6230392456;1.0;6;0;0;;0;0;();();(-2000.0, -2000.0);
04:24:06:076;04:24:06:075;1448034004.11;(0.5930026054382325, 0.6482744852701823);69.4472885132;1.0;6;0;0;;0;0;();();(-2000.0, -2000.0);
04:24:06:093;04:24:06:075;1448034004.11;(0.5930026054382325, 0.6482744852701823);69.4472885132;1.0;6;0;0;;0;0;();();(-2000.0, -2000.0);
04:24:06:109;04:24:06:105;1448034004.14;(0.3460381507873535, 0.7288423538208008);29.8749504089;0.742679628608;6;0;0;;0;0;();();(-2000.0, -2000.0);
04:24:06:126;04:24:06:105;1448034004.14;(0.3460381507873535, 0.7288423538208008);29.8749504089;0.742679628608;6;0;0;;0;0;();();(-2000.0, -2000.0);
04:24:06:142;04:24:06:105;1448034004.14;(0.3460381507873535, 0.7288423538208008);29.8749504089;0.742679628608;6;0;0;;0;0;();();(-2000.0, -2000.0);
04:24:06:175;04:24:06:144;1448034004.17;(0.3457650184631348, 0.7267638948228624);28.9697761536;0.701791466937;6;0;0;;0;0;();();(-2000.0, -2000.0);
04:24:06:191;04:24:06:188;1448034004.24;(0.5785695552825928, 0.6670335557725695);67.4106826782;0.965233951071;6;0;0;;0;0;();();(-2000.0, -2000.0);
04:24:06:208;04:24:06:188;1448034004.24;(0.5785695552825928, 0.6670335557725695);67.4106826782;0.965233951071;6;0;0;;0;0;();();(-2000.0, -2000.0);
04:24:06:226;04:24:06:188;1448034004.24;(0.5785695552825928, 0.6670335557725695);67.4106826782;0.965233951071;6;0;0;;0;0;();();(-2000.0, -2000.0);
04:24:06:241;04:24:06:228;1448034004.27;(0.5788326740264893, 0.6669161054823134);67.2742767334;0.980555124897;6;0;0;;0;0;();();(-2000.0, -2000.0);
04:24:06:274;04:24:06:271;1448034004.34;(0.5791343688964844, 0.6668047163221571);66.6237106323;1.0;6;0;0;;0;0;();();(-2000.0, -2000.0);
04:24:06:292;04:24:06:271;1448034004.34;(0.5791343688964844, 0.6668047163221571);66.6237106323;1.0;6;0;0;;0;0;();();(-2000.0, -2000.0);
04:24:06:308;04:24:06:271;1448034004.34;(0.5791343688964844, 0.6668047163221571);66.6237106323;1.0;6;0;0;;0;0;();();(-2000.0, -2000.0);
04:24:06:325;04:24:06:312;1448034004.37;(0.5789641857147216, 0.6663601133558485);66.4169921875;1.0;6;0;0;;0;0;();();(-2000.0, -2000.0);
04:24:06:341;04:24:06:312;1448034004.37;(0.5789641857147216, 0.6663601133558485);66.4169921875;1.0;6;0;0;;0;0;();();(-2000.0, -2000.0);
04:24:06:375;04:24:06:352;1448034004.41;(0.579013729095459, 0.666008186340332);65.9233932495;1.0;6;0;0;;0;0;();();(-2000.0, -2000.0);
04:24:06:391;04:24:06:352;1448034004.41;(0.579013729095459, 0.666008186340332);65.9233932495;1.0;6;0;0;;0;0;();();(-2000.0, -2000.0);
04:24:06:407;04:24:06:396;1448034004.47;(0.5792177200317383, 0.66667906443278);65.8982009888;1.0;6;0;0;;0;0;();();(-2000.0, -2000.0);
04:24:06:423;04:24:06:396;1448034004.47;(0.5792177200317383, 0.66667906443278);65.8982009888;1.0;6;0;0;;0;0;();();(-2000.0, -2000.0);
04:24:06:440;04:24:06:435;1448034004.51;(0.5794105052947998, 0.6667730331420898);65.9449462891;1.0;6;0;0;;0;0;();();(-2000.0, -2000.0);
04:24:06:474;04:24:06:435;1448034004.51;(0.5794105052947998, 0.6667730331420898);65.9449462891;1.0;6;0;0;;0;0;();();(-2000.0, -2000.0);
04:24:06:490;04:24:06:483;1448034004.54;(0.5796545505523681, 0.6668132993910048);65.8912658691;0.991161187744;6;0;0;;0;0;();();(-2000.0, -2000.0);
04:24:06:506;04:24:06:483;1448034004.54;(0.5796545505523681, 0.6668132993910048);65.8912658691;0.991161187744;6;0;0;;0;0;();();(-2000.0, -2000.0);
04:24:06:523;04:24:06:483;1448034004.54;(0.5796545505523681, 0.6668132993910048);65.8912658691;0.991161187744;6;0;0;;0;0;();();(-2000.0, -2000.0);
04:24:06:539;04:24:06:530;1448034004.57;(0.5795363903045654, 0.6670468860202365);65.5105209351;1.0;6;0;0;;0;0;();();(-2000.0, -2000.0);
04:24:06:573;04:24:06:561;1448034004.61;(0.5795855045318603, 0.666342141893175);65.582359314;1.0;6;0;0;;0;0;();();(-2000.0, -2000.0);
04:24:06:589;04:24:06:561;1448034004.61;(0.5795855045318603, 0.666342141893175);65.582359314;1.0;6;0;0;;0;0;();();(-2000.0, -2000.0);
04:24:06:606;04:24:06:604;1448034004.64;(0.3550154209136963, 0.7119041019015842);35.7578964233;0.62778524513;6;0;0;;0;0;();();(-2000.0, -2000.0);
04:24:06:622;04:24:06:604;1448034004.64;(0.3550154209136963, 0.7119041019015842);35.7578964233;0.62778524513;6;0;0;;0;0;();();(-2000.0, -2000.0);
04:24:06:656;04:24:06:604;1448034004.64;(0.3550154209136963, 0.7119041019015842);35.7578964233;0.62778524513;6;0;0;;0;0;();();(-2000.0, -2000.0);
04:24:06:672;04:24:06:604;1448034004.64;(0.3550154209136963, 0.7119041019015842);35.7578964233;0.62778524513;6;0;0;;0;0;();();(-2000.0, -2000.0);
04:24:06:689;04:24:06:604;1448034004.64;(0.3550154209136963, 0.7119041019015842);35.7578964233;0.62778524513;6;0;0;;0;0;();();(-2000.0, -2000.0);
04:24:06:705;04:24:06:604;1448034004.64;(0.3550154209136963, 0.7119041019015842);35.7578964233;0.62778524513;6;0;0;;0;0;();();(-2000.0, -2000.0);
04:24:06:722;04:24:06:604;1448034004.64;(0.3550154209136963, 0.7119041019015842);35.7578964233;0.62778524513;6;0;0;;0;0;();();(-2000.0, -2000.0);
04:24:06:755;04:24:06:604;1448034004.64;(0.3550154209136963, 0.7119041019015842);35.7578964233;0.62778524513;6;0;0;;0;0;();();(-2000.0, -2000.0);
04:24:06:772;04:24:06:769;1448034004.83;(0.3533250093460083, 0.7261467615763346);30.617641449;0.71680707603;6;0;0;;0;0;();();(-2000.0, -2000.0);
04:24:06:788;04:24:06:769;1448034004.83;(0.3533250093460083, 0.7261467615763346);30.617641449;0.71680707603;6;0;0;;0;0;();();(-2000.0, -2000.0);
04:24:06:804;04:24:06:769;1448034004.83;(0.3533250093460083, 0.7261467615763346);30.617641449;0.71680707603;6;0;0;;0;0;();();(-2000.0, -2000.0);
04:24:06:822;04:24:06:769;1448034004.83;(0.3533250093460083, 0.7261467615763346);30.617641449;0.71680707603;6;0;0;;0;0;();();(-2000.0, -2000.0);
04:24:06:854;04:24:06:769;1448034004.83;(0.3533250093460083, 0.7261467615763346);30.617641449;0.71680707603;6;0;0;;0;0;();();(-2000.0, -2000.0);
04:24:06:871;04:24:06:769;1448034004.83;(0.3533250093460083, 0.7261467615763346);30.617641449;0.71680707603;6;0;0;;0;0;();();(-2000.0, -2000.0);
04:24:06:888;04:24:06:769;1448034004.83;(0.3533250093460083, 0.7261467615763346);30.617641449;0.71680707603;6;0;0;;0;0;();();(-2000.0, -2000.0);
04:24:06:904;04:24:06:769;1448034004.83;(0.3533250093460083, 0.7261467615763346);30.617641449;0.71680707603;6;0;0;;0;0;();();(-2000.0, -2000.0);
04:24:06:920;04:24:06:769;1448034004.83;(0.3533250093460083, 0.7261467615763346);30.617641449;0.71680707603;6;0;0;;0;0;();();(-2000.0, -2000.0);
04:24:06:954;04:24:06:932;1448034004.85;(0.6226884841918945, 0.643763796488444);63.4330101013;0.895341102833;6;0;0;;0;0;();();(-2000.0, -2000.0);
04:24:06:970;04:24:06:932;1448034004.85;(0.6226884841918945, 0.643763796488444);63.4330101013;0.895341102833;6;0;0;;0;0;();();(-2000.0, -2000.0);
04:24:06:987;04:24:06:976;1448034005.02;(0.3525339365005493, 0.7278274112277561);31.9232769012;0.660333302263;6;0;0;;0;0;();();(-2000.0, -2000.0);
04:24:07:003;04:24:06:976;1448034005.02;(0.3525339365005493, 0.7278274112277561);31.9232769012;0.660333302263;6;0;0;;0;0;();();(-2000.0, -2000.0);
04:24:07:020;04:24:06:976;1448034005.02;(0.3525339365005493, 0.7278274112277561);31.9232769012;0.660333302263;6;0;0;;0;0;();();(-2000.0, -2000.0);
04:24:07:053;04:24:07:024;1448034005.05;(0.6198433399200439, 0.6438152101304796);64.8008956909;0.918614773081;6;0;0;;0;0;();();(-2000.0, -2000.0);
04:24:07:070;04:24:07:068;1448034005.14;(0.6193685531616211, 0.6447230021158854);65.311706543;1.0;6;0;0;;0;0;();();(-2000.0, -2000.0);
04:24:07:086;04:24:07:068;1448034005.14;(0.6193685531616211, 0.6447230021158854);65.311706543;1.0;6;0;0;;0;0;();();(-2000.0, -2000.0);
04:24:07:103;04:24:07:100;1448034005.17;(0.6192793846130371, 0.644904899597168);65.8985671997;1.0;6;0;0;;0;0;();();(-2000.0, -2000.0);
04:24:07:119;04:24:07:100;1448034005.17;(0.6192793846130371, 0.644904899597168);65.8985671997;1.0;6;0;0;;0;0;();();(-2000.0, -2000.0);
04:24:07:153;04:24:07:140;1448034005.21;(0.6189830780029297, 0.6442767037285699);66.2410049438;0.967504824045;6;0;0;;0;0;();();(-2000.0, -2000.0);
04:24:07:170;04:24:07:140;1448034005.21;(0.6189830780029297, 0.6442767037285699);66.2410049438;0.967504824045;6;0;0;;0;0;();();(-2000.0, -2000.0);
04:24:07:186;04:24:07:184;1448034005.24;(0.6188100814819336, 0.6449213027954102);66.0659713745;0.982048924253;6;0;0;;0;0;();();(-2000.0, -2000.0);
04:24:07:203;04:24:07:184;1448034005.24;(0.6188100814819336, 0.6449213027954102);66.0659713745;0.982048924253;6;0;0;;0;0;();();(-2000.0, -2000.0);
04:24:07:236;04:24:07:224;1448034005.31;(0.6185623645782471, 0.6450096130371094);66.5766220093;1.0;6;0;0;;0;0;();();(-2000.0, -2000.0);
04:24:07:253;04:24:07:224;1448034005.31;(0.6185623645782471, 0.6450096130371094);66.5766220093;1.0;6;0;0;;0;0;();();(-2000.0, -2000.0);
04:24:07:268;04:24:07:264;1448034005.34;(0.6181678771972656, 0.644925922817654);67.0468902588;1.0;6;0;0;;0;0;();();(-2000.0, -2000.0);
04:24:07:285;04:24:07:264;1448034005.34;(0.6181678771972656, 0.644925922817654);67.0468902588;1.0;6;0;0;;0;0;();();(-2000.0, -2000.0);
04:24:07:301;04:24:07:264;1448034005.34;(0.6181678771972656, 0.644925922817654);67.0468902588;1.0;6;0;0;;0;0;();();(-2000.0, -2000.0);
04:24:07:336;04:24:07:313;1448034005.37;(0.6183284759521485, 0.6444325764973958);66.9674682617;1.0;6;0;0;;0;0;();();(-2000.0, -2000.0);
04:24:07:352;04:24:07:349;1448034005.41;(0.6181154251098633, 0.6451277414957682);67.3040771484;1.0;6;0;0;;0;0;();();(-2000.0, -2000.0);
04:24:07:368;04:24:07:349;1448034005.41;(0.6181154251098633, 0.6451277414957682);67.3040771484;1.0;6;0;0;;0;0;();();(-2000.0, -2000.0);
04:24:07:385;04:24:07:349;1448034005.41;(0.6181154251098633, 0.6451277414957682);67.3040771484;1.0;6;0;0;;0;0;();();(-2000.0, -2000.0);
04:24:07:401;04:24:07:349;1448034005.41;(0.6181154251098633, 0.6451277414957682);67.3040771484;1.0;6;0;0;;0;0;();();(-2000.0, -2000.0);
04:24:07:435;04:24:07:410;1448034005.47;(0.6180693149566651, 0.6443936030069988);67.4990692139;1.0;6;0;0;;0;0;();();(-2000.0, -2000.0);
04:24:07:460;04:24:07:410;1448034005.47;(0.6180693149566651, 0.6443936030069988);67.4990692139;1.0;8;0;0;;0;0;();();(-2000.0, -2000.0);
04:24:07:468;04:24:07:410;1448034005.47;(0.6180693149566651, 0.6443936030069988);67.4990692139;1.0;8;0;0;;0;0;();();(-2000.0, -2000.0);
04:24:07:485;04:24:07:471;1448034005.54;(0.34771313667297366, 0.7239140616522894);30.4415512085;0.670561508077;8;0;0;;0;0;();();(-2000.0, -2000.0);
04:24:07:502;04:24:07:471;1448034005.54;(0.34771313667297366, 0.7239140616522894);30.4415512085;0.670561508077;8;0;0;;0;0;();();(-2000.0, -2000.0);
04:24:07:535;04:24:07:518;1448034005.57;(0, 0);0;0;8;0;0;;0;0;();();(-2000.0, -2000.0);
04:24:07:552;04:24:07:518;1448034005.57;(0, 0);0;0;8;0;0;;0;0;();();(-2000.0, -2000.0);
04:24:07:568;04:24:07:556;1448034005.61;(0.5962074279785157, 0.6522285461425781);68.313117981;1.0;8;0;0;;0;0;();();(-2000.0, -2000.0);
04:24:07:586;04:24:07:556;1448034005.61;(0.5962074279785157, 0.6522285461425781);68.313117981;1.0;8;0;0;;0;0;();();(-2000.0, -2000.0);
04:24:07:601;04:24:07:596;1448034005.67;(0.5964971542358398, 0.6527937571207683);68.9039306641;1.0;8;0;0;;0;0;();();(-2000.0, -2000.0);
04:24:07:635;04:24:07:596;1448034005.67;(0.5964971542358398, 0.6527937571207683);68.9039306641;1.0;8;0;0;;0;0;();();(-2000.0, -2000.0);
04:24:07:650;04:24:07:640;1448034005.71;(0.5968264579772949, 0.6529158486260308);68.831703186;1.0;8;0;0;;0;0;();();(-2000.0, -2000.0);
04:24:07:667;04:24:07:640;1448034005.71;(0.5968264579772949, 0.6529158486260308);68.831703186;1.0;8;0;0;;0;0;();();(-2000.0, -2000.0);
04:24:07:685;04:24:07:680;1448034005.74;(0.5973374366760253, 0.6526138517591689);68.9933547974;1.0;8;0;0;;0;0;();();(-2000.0, -2000.0);
04:24:07:701;04:24:07:680;1448034005.74;(0.5973374366760253, 0.6526138517591689);68.9933547974;1.0;8;0;0;;0;0;();();(-2000.0, -2000.0);
04:24:07:734;04:24:07:724;1448034005.81;(0.5985110759735107, 0.6527684529622395);69.1250610352;1.0;8;0;0;;0;0;();();(-2000.0, -2000.0);
04:24:07:751;04:24:07:724;1448034005.81;(0.5985110759735107, 0.6527684529622395);69.1250610352;1.0;8;0;0;;0;0;();();(-2000.0, -2000.0);
04:24:07:768;04:24:07:764;1448034005.84;(0.599076509475708, 0.6534453286064996);69.2636642456;1.0;8;0;0;;0;0;();();(-2000.0, -2000.0);
04:24:07:783;04:24:07:764;1448034005.84;(0.599076509475708, 0.6534453286064996);69.2636642456;1.0;8;0;0;;0;0;();();(-2000.0, -2000.0);
04:24:07:800;04:24:07:764;1448034005.84;(0.599076509475708, 0.6534453286064996);69.2636642456;1.0;8;0;0;;0;0;();();(-2000.0, -2000.0);
04:24:07:833;04:24:07:811;1448034005.87;(0.5999315738677978, 0.6531061808268229);69.0726623535;0.968729546852;8;0;0;;0;0;();();(-2000.0, -2000.0);
04:24:07:850;04:24:07:848;1448034005.91;(0.6004385948181152, 0.6520641750759548);68.3905944824;1.0;8;0;0;;0;0;();();(-2000.0, -2000.0);
