%Timestamp,timestamp_write;timestamp_gotpupil;eyetrackertime;norm_pos;diameter;confidence;nplanes;lastaction;lastactiondetails;lastactionairplanenumber;positivescore;negativescore;collidedairplanenumbers;targetpositions;collision_point
04:27:26:420;04:27:26:389;1448034204.46;(0.6451868534088134, 0.609952163696289);65.7447052002;1.0;0;0;0;;0;0;();();(0.0, 0.0);
04:27:26:424;04:27:26:389;1448034204.46;(0.6451868534088134, 0.609952163696289);65.7447052002;1.0;0;0;0;;0;0;();();(-2000.0, -2000.0);
04:27:26:424;04:27:26:389;1448034204.46;(0.6451868534088134, 0.609952163696289);65.7447052002;1.0;0;0;0;;0;0;();();(-2000.0, -2000.0);
04:27:26:424;04:27:26:389;1448034204.46;(0.6451868534088134, 0.609952163696289);65.7447052002;1.0;0;0;0;;0;0;();();(-2000.0, -2000.0);
04:27:26:424;04:27:26:389;1448034204.46;(0.6451868534088134, 0.609952163696289);65.7447052002;1.0;0;0;0;;0;0;();();(-2000.0, -2000.0);
04:27:26:425;04:27:26:389;1448034204.46;(0.6451868534088134, 0.609952163696289);65.7447052002;1.0;0;0;0;;0;0;();();(-2000.0, -2000.0);
04:27:26:425;04:27:26:389;1448034204.46;(0.6451868534088134, 0.609952163696289);65.7447052002;1.0;0;0;0;;0;0;();();(-2000.0, -2000.0);
04:27:26:425;04:27:26:389;1448034204.46;(0.6451868534088134, 0.609952163696289);65.7447052002;1.0;0;0;0;;0;0;();();(-2000.0, -2000.0);
04:27:26:426;04:27:26:389;1448034204.46;(0.6451868534088134, 0.609952163696289);65.7447052002;1.0;0;0;0;;0;0;();();(-2000.0, -2000.0);
04:27:26:426;04:27:26:389;1448034204.46;(0.6451868534088134, 0.609952163696289);65.7447052002;1.0;0;0;0;;0;0;();();(-2000.0, -2000.0);
04:27:26:426;04:27:26:389;1448034204.46;(0.6451868534088134, 0.609952163696289);65.7447052002;1.0;0;0;0;;0;0;();();(-2000.0, -2000.0);
04:27:26:426;04:27:26:389;1448034204.46;(0.6451868534088134, 0.609952163696289);65.7447052002;1.0;0;0;0;;0;0;();();(-2000.0, -2000.0);
04:27:26:427;04:27:26:389;1448034204.46;(0.6451868534088134, 0.609952163696289);65.7447052002;1.0;0;0;0;;0;0;();();(-2000.0, -2000.0);
04:27:26:427;04:27:26:389;1448034204.46;(0.6451868534088134, 0.609952163696289);65.7447052002;1.0;0;0;0;;0;0;();();(-2000.0, -2000.0);
04:27:26:427;04:27:26:389;1448034204.46;(0.6451868534088134, 0.609952163696289);65.7447052002;1.0;0;0;0;;0;0;();();(-2000.0, -2000.0);
04:27:26:427;04:27:26:389;1448034204.46;(0.6451868534088134, 0.609952163696289);65.7447052002;1.0;0;0;0;;0;0;();();(-2000.0, -2000.0);
04:27:26:436;04:27:26:429;1448034204.49;(0.6450639247894288, 0.6098378075493707);65.844619751;1.0;0;0;0;;0;0;();();(-2000.0, -2000.0);
04:27:26:453;04:27:26:429;1448034204.49;(0.6450639247894288, 0.6098378075493707);65.844619751;1.0;0;0;0;;0;0;();();(-2000.0, -2000.0);
04:27:26:469;04:27:26:429;1448034204.49;(0.6450639247894288, 0.6098378075493707);65.844619751;1.0;0;0;0;;0;0;();();(-2000.0, -2000.0);
04:27:26:502;04:27:26:473;1448034204.53;(0.6452922821044922, 0.6099661933051215);65.4489364624;1.0;0;0;0;;0;0;();();(-2000.0, -2000.0);
04:27:26:519;04:27:26:513;1448034204.56;(0.6452487468719482, 0.610058339436849);66.0854797363;1.0;0;0;0;;0;0;();();(-2000.0, -2000.0);
04:27:26:536;04:27:26:513;1448034204.56;(0.6452487468719482, 0.610058339436849);66.0854797363;1.0;0;0;0;;0;0;();();(-2000.0, -2000.0);
04:27:26:552;04:27:26:513;1448034204.56;(0.6452487468719482, 0.610058339436849);66.0854797363;1.0;0;0;0;;0;0;();();(-2000.0, -2000.0);
04:27:26:568;04:27:26:558;1448034204.59;(0.5048580169677734, 0.9327117337120904);27.6855697632;0.721601743797;0;0;0;;0;0;();();(-2000.0, -2000.0);
04:27:26:601;04:27:26:596;1448034204.63;(0, 0);0;0;0;0;0;;0;0;();();(-2000.0, -2000.0);
04:27:26:618;04:27:26:596;1448034204.63;(0, 0);0;0;0;0;0;;0;0;();();(-2000.0, -2000.0);
04:27:26:635;04:27:26:596;1448034204.63;(0, 0);0;0;0;0;0;;0;0;();();(-2000.0, -2000.0);
04:27:26:652;04:27:26:637;1448034204.67;(0.6002750396728516, 0.6701774597167969);65.4493179321;1.0;0;0;0;;0;0;();();(-2000.0, -2000.0);
04:27:26:668;04:27:26:637;1448034204.67;(0.6002750396728516, 0.6701774597167969);65.4493179321;1.0;0;0;0;;0;0;();();(-2000.0, -2000.0);
04:27:26:701;04:27:26:637;1448034204.67;(0.6002750396728516, 0.6701774597167969);65.4493179321;1.0;0;0;0;;0;0;();();(-2000.0, -2000.0);
04:27:26:718;04:27:26:637;1448034204.67;(0.6002750396728516, 0.6701774597167969);65.4493179321;1.0;0;0;0;;0;0;();();(-2000.0, -2000.0);
04:27:26:733;04:27:26:721;1448034204.7;(0.6007761478424072, 0.6753016789754231);64.6270523071;0.919495625357;0;0;0;;0;0;();();(-2000.0, -2000.0);
04:27:26:751;04:27:26:721;1448034204.7;(0.6007761478424072, 0.6753016789754231);64.6270523071;0.919495625357;0;0;0;;0;0;();();(-2000.0, -2000.0);
04:27:26:768;04:27:26:761;1448034204.8;(0.6042594909667969, 0.6825241300794813);64.6207580566;0.981594648551;0;0;0;;0;0;();();(-2000.0, -2000.0);
04:27:26:800;04:27:26:761;1448034204.8;(0.6042594909667969, 0.6825241300794813);64.6207580566;0.981594648551;0;0;0;;0;0;();();(-2000.0, -2000.0);
04:27:26:817;04:27:26:806;1448034204.86;(0.60470552444458, 0.6831378089057074);64.2065811157;1.0;0;0;0;;0;0;();();(-2000.0, -2000.0);
04:27:26:834;04:27:26:806;1448034204.86;(0.60470552444458, 0.6831378089057074);64.2065811157;1.0;0;0;0;;0;0;();();(-2000.0, -2000.0);
04:27:26:853;04:27:26:853;1448034204.93;(0.6052240371704102, 0.6836466259426541);63.0097808838;1.0;0;0;0;;0;0;();();(-2000.0, -2000.0);
04:27:26:866;04:27:26:853;1448034204.93;(0.6052240371704102, 0.6836466259426541);63.0097808838;1.0;0;0;0;;0;0;();();(-2000.0, -2000.0);
04:27:26:899;04:27:26:853;1448034204.93;(0.6052240371704102, 0.6836466259426541);63.0097808838;1.0;0;0;0;;0;0;();();(-2000.0, -2000.0);
04:27:26:917;04:27:26:853;1448034204.93;(0.6052240371704102, 0.6836466259426541);63.0097808838;1.0;0;0;0;;0;0;();();(-2000.0, -2000.0);
04:27:26:933;04:27:26:930;1448034204.96;(0.6063920021057129, 0.6788142098320855);64.8293380737;0.821960239157;0;0;0;;0;0;();();(-2000.0, -2000.0);
04:27:26:950;04:27:26:930;1448034204.96;(0.6063920021057129, 0.6788142098320855);64.8293380737;0.821960239157;0;0;0;;0;0;();();(-2000.0, -2000.0);
04:27:26:965;04:27:26:930;1448034204.96;(0.6063920021057129, 0.6788142098320855);64.8293380737;0.821960239157;0;0;0;;0;0;();();(-2000.0, -2000.0);
04:27:26:999;04:27:26:969;1448034204.99;(0.6076313495635987, 0.6722439024183485);62.9046020508;1.0;0;0;0;;0;0;();();(-2000.0, -2000.0);
04:27:27:016;04:27:27:013;1448034205.09;(0.6079330444335938, 0.6725403467814128);62.6697387695;1.0;0;0;0;;0;0;();();(-2000.0, -2000.0);
04:27:27:032;04:27:27:013;1448034205.09;(0.6079330444335938, 0.6725403467814128);62.6697387695;1.0;0;0;0;;0;0;();();(-2000.0, -2000.0);
04:27:27:049;04:27:27:013;1448034205.09;(0.6079330444335938, 0.6725403467814128);62.6697387695;1.0;0;0;0;;0;0;();();(-2000.0, -2000.0);
04:27:27:082;04:27:27:053;1448034205.13;(0.6077606201171875, 0.6726839277479384);62.9669761658;1.0;0;0;0;;0;0;();();(-2000.0, -2000.0);
04:27:27:099;04:27:27:093;1448034205.16;(0.6078238010406494, 0.6725115458170573);63.376499176;1.0;0;0;0;;0;0;();();(-2000.0, -2000.0);
04:27:27:115;04:27:27:093;1448034205.16;(0.6078238010406494, 0.6725115458170573);63.376499176;1.0;0;0;0;;0;0;();();(-2000.0, -2000.0);
04:27:27:132;04:27:27:093;1448034205.16;(0.6078238010406494, 0.6725115458170573);63.376499176;1.0;0;0;0;;0;0;();();(-2000.0, -2000.0);
04:27:27:148;04:27:27:137;1448034205.19;(0.6076300621032715, 0.672284444173177);63.5228500366;1.0;0;0;0;;0;0;();();(-2000.0, -2000.0);
04:27:27:181;04:27:27:177;1448034205.23;(0.6075967311859131, 0.6715876049465603);63.896522522;1.0;0;0;0;;0;0;();();(-2000.0, -2000.0);
04:27:27:198;04:27:27:177;1448034205.23;(0.6075967311859131, 0.6715876049465603);63.896522522;1.0;0;0;0;;0;0;();();(-2000.0, -2000.0);
04:27:27:214;04:27:27:177;1448034205.23;(0.6075967311859131, 0.6715876049465603);63.896522522;1.0;0;0;0;;0;0;();();(-2000.0, -2000.0);
04:27:27:231;04:27:27:221;1448034205.26;(0.6077357769012451, 0.6721895429823134);64.0954742432;1.0;0;0;0;;0;0;();();(-2000.0, -2000.0);
04:27:27:248;04:27:27:221;1448034205.26;(0.6077357769012451, 0.6721895429823134);64.0954742432;1.0;0;0;0;;0;0;();();(-2000.0, -2000.0);
04:27:27:281;04:27:27:261;1448034205.33;(0.6078076362609863, 0.6718758053249783);64.8179168701;1.0;0;0;0;;0;0;();();(-2000.0, -2000.0);
04:27:27:298;04:27:27:261;1448034205.33;(0.6078076362609863, 0.6718758053249783);64.8179168701;1.0;0;0;0;;0;0;();();(-2000.0, -2000.0);
04:27:27:315;04:27:27:301;1448034205.36;(0.6151840686798096, 0.6648493025037978);65.5603256226;1.0;0;0;0;;0;0;();();(-2000.0, -2000.0);
04:27:27:330;04:27:27:301;1448034205.36;(0.6151840686798096, 0.6648493025037978);65.5603256226;1.0;0;0;0;;0;0;();();(-2000.0, -2000.0);
04:27:27:347;04:27:27:345;1448034205.43;(0.614304780960083, 0.6651496675279405);65.9054641724;1.0;0;0;0;;0;0;();();(-2000.0, -2000.0);
04:27:27:381;04:27:27:345;1448034205.43;(0.614304780960083, 0.6651496675279405);65.9054641724;1.0;0;0;0;;0;0;();();(-2000.0, -2000.0);
04:27:27:396;04:27:27:345;1448034205.43;(0.614304780960083, 0.6651496675279405);65.9054641724;1.0;0;0;0;;0;0;();();(-2000.0, -2000.0);
04:27:27:413;04:27:27:404;1448034205.46;(0.6146625518798828, 0.6653150770399305);66.2327651978;1.0;0;0;0;;0;0;();();(-2000.0, -2000.0);
04:27:27:430;04:27:27:425;1448034205.49;(0.6143273830413818, 0.6653555552164714);66.4447402954;1.0;0;0;0;;0;0;();();(-2000.0, -2000.0);
04:27:27:446;04:27:27:425;1448034205.49;(0.6143273830413818, 0.6653555552164714);66.4447402954;1.0;0;0;0;;0;0;();();(-2000.0, -2000.0);
04:27:27:479;04:27:27:469;1448034205.53;(0.6143561363220215, 0.6654356002807618);66.8698196411;1.0;0;0;0;;0;0;();();(-2000.0, -2000.0);
04:27:27:496;04:27:27:469;1448034205.53;(0.6143561363220215, 0.6654356002807618);66.8698196411;1.0;0;0;0;;0;0;();();(-2000.0, -2000.0);
04:27:27:513;04:27:27:509;1448034205.56;(0.613693380355835, 0.6657195621066623);66.9396820068;1.0;0;0;0;;0;0;();();(-2000.0, -2000.0);
04:27:27:529;04:27:27:509;1448034205.56;(0.613693380355835, 0.6657195621066623);66.9396820068;1.0;0;0;0;;0;0;();();(-2000.0, -2000.0);
04:27:27:562;04:27:27:549;1448034205.63;(0.6139110088348388, 0.6664045969645183);67.8399353027;1.0;0;0;0;;0;0;();();(-2000.0, -2000.0);
04:27:27:579;04:27:27:549;1448034205.63;(0.6139110088348388, 0.6664045969645183);67.8399353027;1.0;0;0;0;;0;0;();();(-2000.0, -2000.0);
04:27:27:595;04:27:27:549;1448034205.63;(0.6139110088348388, 0.6664045969645183);67.8399353027;1.0;0;0;0;;0;0;();();(-2000.0, -2000.0);
04:27:27:612;04:27:27:597;1448034205.66;(0.6137447834014893, 0.6659480412801106);67.6627426147;1.0;0;0;0;;0;0;();();(-2000.0, -2000.0);
04:27:27:628;04:27:27:597;1448034205.66;(0.6137447834014893, 0.6659480412801106);67.6627426147;1.0;0;0;0;;0;0;();();(-2000.0, -2000.0);
04:27:27:661;04:27:27:597;1448034205.66;(0.6137447834014893, 0.6659480412801106);67.6627426147;1.0;0;0;0;;0;0;();();(-2000.0, -2000.0);
04:27:27:678;04:27:27:597;1448034205.66;(0.6137447834014893, 0.6659480412801106);67.6627426147;1.0;0;0;0;;0;0;();();(-2000.0, -2000.0);
04:27:27:695;04:27:27:597;1448034205.66;(0.6137447834014893, 0.6659480412801106);67.6627426147;1.0;0;0;0;;0;0;();();(-2000.0, -2000.0);
04:27:27:711;04:27:27:597;1448034205.66;(0.6137447834014893, 0.6659480412801106);67.6627426147;1.0;0;0;0;;0;0;();();(-2000.0, -2000.0);
04:27:27:729;04:27:27:597;1448034205.66;(0.6137447834014893, 0.6659480412801106);67.6627426147;1.0;0;0;0;;0;0;();();(-2000.0, -2000.0);
04:27:27:761;04:27:27:757;1448034205.8;(0.6030661582946777, 0.6787065717909071);68.5691680908;1.0;0;0;0;;0;0;();();(-2000.0, -2000.0);
04:27:27:778;04:27:27:757;1448034205.8;(0.6030661582946777, 0.6787065717909071);68.5691680908;1.0;0;0;0;;0;0;();();(-2000.0, -2000.0);
04:27:27:794;04:27:27:757;1448034205.8;(0.6030661582946777, 0.6787065717909071);68.5691680908;1.0;0;0;0;;0;0;();();(-2000.0, -2000.0);
04:27:27:811;04:27:27:801;1448034205.86;(0.6031025886535645, 0.6798287285698785);68.9338378906;1.0;0;0;0;;0;0;();();(-2000.0, -2000.0);
04:27:27:828;04:27:27:801;1448034205.86;(0.6031025886535645, 0.6798287285698785);68.9338378906;1.0;0;0;0;;0;0;();();(-2000.0, -2000.0);
04:27:27:860;04:27:27:841;1448034205.89;(0.6034604072570801, 0.679679086473253);69.2884597778;1.0;0;0;0;;0;0;();();(-2000.0, -2000.0);
04:27:27:877;04:27:27:841;1448034205.89;(0.6034604072570801, 0.679679086473253);69.2884597778;1.0;0;0;0;;0;0;();();(-2000.0, -2000.0);
04:27:27:894;04:27:27:882;1448034205.93;(0, 0);0;0;0;0;0;;0;0;();();(-2000.0, -2000.0);
04:27:27:910;04:27:27:882;1448034205.93;(0, 0);0;0;0;0;0;;0;0;();();(-2000.0, -2000.0);
04:27:27:927;04:27:27:882;1448034205.93;(0, 0);0;0;0;0;0;;0;0;();();(-2000.0, -2000.0);
04:27:27:960;04:27:27:882;1448034205.93;(0, 0);0;0;0;0;0;;0;0;();();(-2000.0, -2000.0);
04:27:27:977;04:27:27:882;1448034205.93;(0, 0);0;0;0;0;0;;0;0;();();(-2000.0, -2000.0);
04:27:27:993;04:27:27:882;1448034205.93;(0, 0);0;0;0;0;0;;0;0;();();(-2000.0, -2000.0);
04:27:28:010;04:27:27:882;1448034205.93;(0, 0);0;0;0;0;0;;0;0;();();(-2000.0, -2000.0);
04:27:28:026;04:27:28:023;1448034206.07;(0.5763187408447266, 0.6877081129286025);69.2172546387;0.939002037014;0;0;0;;0;0;();();(-2000.0, -2000.0);
04:27:28:059;04:27:28:052;1448034206.09;(0.5760266304016113, 0.688127072652181);68.921257019;1.0;0;0;0;;0;0;();();(-2000.0, -2000.0);
04:27:28:076;04:27:28:052;1448034206.09;(0.5760266304016113, 0.688127072652181);68.921257019;1.0;0;0;0;;0;0;();();(-2000.0, -2000.0);
04:27:28:093;04:27:28:090;1448034206.16;(0.5760019302368165, 0.688443374633789);68.9154434204;1.0;0;0;0;;0;0;();();(-2000.0, -2000.0);
04:27:28:109;04:27:28:090;1448034206.16;(0.5760019302368165, 0.688443374633789);68.9154434204;1.0;0;0;0;;0;0;();();(-2000.0, -2000.0);
04:27:28:142;04:27:28:132;1448034206.19;(0.5761064052581787, 0.6887284384833442);68.5154495239;1.0;0;0;0;;0;0;();();(-2000.0, -2000.0);
04:27:28:159;04:27:28:132;1448034206.19;(0.5761064052581787, 0.6887284384833442);68.5154495239;1.0;0;0;0;;0;0;();();(-2000.0, -2000.0);
04:27:28:176;04:27:28:173;1448034206.23;(0.5761687278747558, 0.6884582307603624);68.0261993408;1.0;0;0;0;;0;0;();();(-2000.0, -2000.0);
04:27:28:191;04:27:28:173;1448034206.23;(0.5761687278747558, 0.6884582307603624);68.0261993408;1.0;0;0;0;;0;0;();();(-2000.0, -2000.0);
04:27:28:209;04:27:28:173;1448034206.23;(0.5761687278747558, 0.6884582307603624);68.0261993408;1.0;0;0;0;;0;0;();();(-2000.0, -2000.0);
04:27:28:242;04:27:28:215;1448034206.26;(0.5763972759246826, 0.6888346566094292);67.5327224731;1.0;0;0;0;;0;0;();();(-2000.0, -2000.0);
04:27:28:259;04:27:28:215;1448034206.26;(0.5763972759246826, 0.6888346566094292);67.5327224731;1.0;0;0;0;;0;0;();();(-2000.0, -2000.0);
04:27:28:274;04:27:28:260;1448034206.29;(0.5763175010681152, 0.6895186954074436);66.2247009277;1.0;0;0;0;;0;0;();();(-2000.0, -2000.0);
04:27:28:291;04:27:28:260;1448034206.29;(0.5763175010681152, 0.6895186954074436);66.2247009277;1.0;0;0;0;;0;0;();();(-2000.0, -2000.0);
04:27:28:308;04:27:28:260;1448034206.29;(0.5763175010681152, 0.6895186954074436);66.2247009277;1.0;0;0;0;;0;0;();();(-2000.0, -2000.0);
04:27:28:341;04:27:28:260;1448034206.29;(0.5763175010681152, 0.6895186954074436);66.2247009277;1.0;0;0;0;;0;0;();();(-2000.0, -2000.0);
04:27:28:358;04:27:28:260;1448034206.29;(0.5763175010681152, 0.6895186954074436);66.2247009277;1.0;0;0;0;;0;0;();();(-2000.0, -2000.0);
04:27:28:374;04:27:28:260;1448034206.29;(0.5763175010681152, 0.6895186954074436);66.2247009277;1.0;0;0;0;;0;0;();();(-2000.0, -2000.0);
04:27:28:391;04:27:28:260;1448034206.29;(0.5763175010681152, 0.6895186954074436);66.2247009277;1.0;0;0;0;;0;0;();();(-2000.0, -2000.0);
04:27:28:408;04:27:28:260;1448034206.29;(0.5763175010681152, 0.6895186954074436);66.2247009277;1.0;0;0;0;;0;0;();();(-2000.0, -2000.0);
04:27:28:440;04:27:28:260;1448034206.29;(0.5763175010681152, 0.6895186954074436);66.2247009277;1.0;0;0;0;;0;0;();();(-2000.0, -2000.0);
04:27:28:457;04:27:28:260;1448034206.29;(0.5763175010681152, 0.6895186954074436);66.2247009277;1.0;0;0;0;;0;0;();();(-2000.0, -2000.0);
04:27:28:473;04:27:28:465;1448034206.33;(0.5705793380737305, 0.6974269231160481);65.3947753906;1.0;0;0;0;;0;0;();();(-2000.0, -2000.0);
04:27:28:490;04:27:28:465;1448034206.33;(0.5705793380737305, 0.6974269231160481);65.3947753906;1.0;0;0;0;;0;0;();();(-2000.0, -2000.0);
04:27:28:507;04:27:28:505;1448034206.54;(0.5709667205810547, 0.7009809494018555);61.0659561157;0.86162564151;0;0;0;;0;0;();();(-2000.0, -2000.0);
04:27:28:540;04:27:28:505;1448034206.54;(0.5709667205810547, 0.7009809494018555);61.0659561157;0.86162564151;0;0;0;;0;0;();();(-2000.0, -2000.0);
04:27:28:556;04:27:28:545;1448034206.57;(0.5740574836730957, 0.702273432413737);60.0367012024;0.990798416896;0;0;0;;0;0;();();(-2000.0, -2000.0);
04:27:28:573;04:27:28:545;1448034206.57;(0.5740574836730957, 0.702273432413737);60.0367012024;0.990798416896;0;0;0;;0;0;();();(-2000.0, -2000.0);
04:27:28:589;04:27:28:545;1448034206.57;(0.5740574836730957, 0.702273432413737);60.0367012024;0.990798416896;0;0;0;;0;0;();();(-2000.0, -2000.0);
04:27:28:606;04:27:28:545;1448034206.57;(0.5740574836730957, 0.702273432413737);60.0367012024;0.990798416896;0;0;0;;0;0;();();(-2000.0, -2000.0);
04:27:28:639;04:27:28:545;1448034206.57;(0.5740574836730957, 0.702273432413737);60.0367012024;0.990798416896;0;0;0;;0;0;();();(-2000.0, -2000.0);
04:27:28:656;04:27:28:545;1448034206.57;(0.5740574836730957, 0.702273432413737);60.0367012024;0.990798416896;0;0;0;;0;0;();();(-2000.0, -2000.0);
04:27:28:672;04:27:28:545;1448034206.57;(0.5740574836730957, 0.702273432413737);60.0367012024;0.990798416896;0;0;0;;0;0;();();(-2000.0, -2000.0);
04:27:28:689;04:27:28:545;1448034206.57;(0.5740574836730957, 0.702273432413737);60.0367012024;0.990798416896;0;0;0;;0;0;();();(-2000.0, -2000.0);
04:27:28:706;04:27:28:545;1448034206.57;(0.5740574836730957, 0.702273432413737);60.0367012024;0.990798416896;0;0;0;;0;0;();();(-2000.0, -2000.0);
04:27:28:739;04:27:28:731;1448034206.77;(0, 0);0;0;0;0;0;;0;0;();();(-2000.0, -2000.0);
04:27:28:755;04:27:28:731;1448034206.77;(0, 0);0;0;0;0;0;;0;0;();();(-2000.0, -2000.0);
04:27:28:772;04:27:28:731;1448034206.77;(0, 0);0;0;0;0;0;;0;0;();();(-2000.0, -2000.0);
04:27:28:789;04:27:28:731;1448034206.77;(0, 0);0;0;0;0;0;;0;0;();();(-2000.0, -2000.0);
04:27:28:822;04:27:28:731;1448034206.77;(0, 0);0;0;0;0;0;;0;0;();();(-2000.0, -2000.0);
04:27:28:838;04:27:28:837;1448034206.8;(0.6410203456878663, 0.6897697872585721);56.2646217346;0.739261433289;0;0;0;;0;0;();();(-2000.0, -2000.0);
04:27:28:855;04:27:28:837;1448034206.8;(0.6410203456878663, 0.6897697872585721);56.2646217346;0.739261433289;0;0;0;;0;0;();();(-2000.0, -2000.0);
04:27:28:871;04:27:28:837;1448034206.8;(0.6410203456878663, 0.6897697872585721);56.2646217346;0.739261433289;0;0;0;;0;0;();();(-2000.0, -2000.0);
04:27:28:888;04:27:28:837;1448034206.8;(0.6410203456878663, 0.6897697872585721);56.2646217346;0.739261433289;0;0;0;;0;0;();();(-2000.0, -2000.0);
04:27:28:920;04:27:28:837;1448034206.8;(0.6410203456878663, 0.6897697872585721);56.2646217346;0.739261433289;0;0;0;;0;0;();();(-2000.0, -2000.0);
04:27:28:938;04:27:28:931;1448034206.99;(0.6586810111999511, 0.6814211739434136);60.1812858582;1.0;0;0;0;;0;0;();();(-2000.0, -2000.0);
04:27:28:954;04:27:28:931;1448034206.99;(0.6586810111999511, 0.6814211739434136);60.1812858582;1.0;0;0;0;;0;0;();();(-2000.0, -2000.0);
04:27:28:970;04:27:28:931;1448034206.99;(0.6586810111999511, 0.6814211739434136);60.1812858582;1.0;0;0;0;;0;0;();();(-2000.0, -2000.0);
04:27:28:987;04:27:28:931;1448034206.99;(0.6586810111999511, 0.6814211739434136);60.1812858582;1.0;0;0;0;;0;0;();();(-2000.0, -2000.0);
04:27:29:021;04:27:29:001;1448034207.03;(0.6662643909454345, 0.6874500274658203);61.1744537354;1.0;0;0;0;;0;0;();();(-2000.0, -2000.0);
04:27:29:037;04:27:29:001;1448034207.03;(0.6662643909454345, 0.6874500274658203);61.1744537354;1.0;0;0;0;;0;0;();();(-2000.0, -2000.0);
04:27:29:053;04:27:29:001;1448034207.03;(0.6662643909454345, 0.6874500274658203);61.1744537354;1.0;0;0;0;;0;0;();();(-2000.0, -2000.0);
04:27:29:070;04:27:29:060;1448034207.09;(0.6686413288116455, 0.6869597752888997);61.5722084045;1.0;0;0;0;;0;0;();();(-2000.0, -2000.0);
04:27:29:087;04:27:29:085;1448034207.16;(0.6686466217041016, 0.687791379292806);62.1523628235;1.0;0;0;0;;0;0;();();(-2000.0, -2000.0);
04:27:29:120;04:27:29:085;1448034207.16;(0.6686466217041016, 0.687791379292806);62.1523628235;1.0;0;0;0;;0;0;();();(-2000.0, -2000.0);
04:27:29:136;04:27:29:136;1448034207.19;(0.6688110828399658, 0.6876857545640733);62.2251091003;1.0;0;0;0;;0;0;();();(-2000.0, -2000.0);
04:27:29:153;04:27:29:136;1448034207.19;(0.6688110828399658, 0.6876857545640733);62.2251091003;1.0;0;0;0;;0;0;();();(-2000.0, -2000.0);
04:27:29:169;04:27:29:169;1448034207.23;(0.668651533126831, 0.6880559285481771);62.7145423889;1.0;0;0;0;;0;0;();();(-2000.0, -2000.0);
04:27:29:186;04:27:29:169;1448034207.23;(0.668651533126831, 0.6880559285481771);62.7145423889;1.0;0;0;0;;0;0;();();(-2000.0, -2000.0);
04:27:29:218;04:27:29:210;1448034207.26;(0.6683434009552002, 0.6880878024631076);63.1816635132;1.0;0;0;0;;0;0;();();(-2000.0, -2000.0);
04:27:29:235;04:27:29:210;1448034207.26;(0.6683434009552002, 0.6880878024631076);63.1816635132;1.0;0;0;0;;0;0;();();(-2000.0, -2000.0);
04:27:29:252;04:27:29:210;1448034207.26;(0.6683434009552002, 0.6880878024631076);63.1816635132;1.0;0;0;0;;0;0;();();(-2000.0, -2000.0);
04:27:29:269;04:27:29:253;1448034207.33;(0.6685680389404297, 0.6880340788099502);63.9919548035;1.0;0;0;0;;0;0;();();(-2000.0, -2000.0);
04:27:29:302;04:27:29:293;1448034207.36;(0.6687185287475585, 0.6879636976453993);64.7100753784;1.0;0;0;0;;0;0;();();(-2000.0, -2000.0);
04:27:29:318;04:27:29:293;1448034207.36;(0.6687185287475585, 0.6879636976453993);64.7100753784;1.0;0;0;0;;0;0;();();(-2000.0, -2000.0);
04:27:29:335;04:27:29:333;1448034207.39;(0.6687647819519043, 0.6880088594224718);64.4376296997;1.0;0;0;0;;0;0;();();(-2000.0, -2000.0);
04:27:29:352;04:27:29:333;1448034207.39;(0.6687647819519043, 0.6880088594224718);64.4376296997;1.0;0;0;0;;0;0;();();(-2000.0, -2000.0);
04:27:29:368;04:27:29:333;1448034207.39;(0.6687647819519043, 0.6880088594224718);64.4376296997;1.0;0;0;0;;0;0;();();(-2000.0, -2000.0);
04:27:29:402;04:27:29:376;1448034207.43;(0.6686268806457519, 0.6877113342285156);64.8534240723;1.0;0;0;0;;0;0;();();(-2000.0, -2000.0);
04:27:29:418;04:27:29:376;1448034207.43;(0.6686268806457519, 0.6877113342285156);64.8534240723;1.0;0;0;0;;0;0;();();(-2000.0, -2000.0);
04:27:29:435;04:27:29:419;1448034207.46;(0.6685447216033935, 0.6874088711208768);64.8728103638;1.0;0;0;0;;0;0;();();(-2000.0, -2000.0);
04:27:29:451;04:27:29:419;1448034207.46;(0.6685447216033935, 0.6874088711208768);64.8728103638;1.0;0;0;0;;0;0;();();(-2000.0, -2000.0);
04:27:29:468;04:27:29:458;1448034207.53;(0.6684388160705567, 0.687497075398763);65.1475830078;1.0;0;0;0;;0;0;();();(-2000.0, -2000.0);
04:27:29:500;04:27:29:458;1448034207.53;(0.6684388160705567, 0.687497075398763);65.1475830078;1.0;0;0;0;;0;0;();();(-2000.0, -2000.0);
04:27:29:518;04:27:29:500;1448034207.56;(0.6682108879089356, 0.6876517613728841);65.767364502;1.0;0;0;0;;0;0;();();(-2000.0, -2000.0);
04:27:29:534;04:27:29:500;1448034207.56;(0.6682108879089356, 0.6876517613728841);65.767364502;1.0;0;0;0;;0;0;();();(-2000.0, -2000.0);
04:27:29:551;04:27:29:543;1448034207.59;(0.66817307472229, 0.6874714109632705);65.471786499;1.0;0;0;0;;0;0;();();(-2000.0, -2000.0);
04:27:29:568;04:27:29:543;1448034207.59;(0.66817307472229, 0.6874714109632705);65.471786499;1.0;0;0;0;;0;0;();();(-2000.0, -2000.0);
04:27:29:600;04:27:29:589;1448034207.66;(0.6681110382080078, 0.6868590460883246);66.9308700562;1.0;0;0;0;;0;0;();();(-2000.0, -2000.0);
04:27:29:616;04:27:29:589;1448034207.66;(0.6681110382080078, 0.6868590460883246);66.9308700562;1.0;0;0;0;;0;0;();();(-2000.0, -2000.0);
04:27:29:633;04:27:29:589;1448034207.66;(0.6681110382080078, 0.6868590460883246);66.9308700562;1.0;0;0;0;;0;0;();();(-2000.0, -2000.0);
04:27:29:650;04:27:29:589;1448034207.66;(0.6681110382080078, 0.6868590460883246);66.9308700562;1.0;0;0;0;;0;0;();();(-2000.0, -2000.0);
04:27:29:666;04:27:29:589;1448034207.66;(0.6681110382080078, 0.6868590460883246);66.9308700562;1.0;0;0;0;;0;0;();();(-2000.0, -2000.0);
04:27:29:699;04:27:29:589;1448034207.66;(0.6681110382080078, 0.6868590460883246);66.9308700562;1.0;0;0;0;;0;0;();();(-2000.0, -2000.0);
04:27:29:716;04:27:29:708;1448034207.76;(0.6697272777557373, 0.6829022937350803);66.844581604;1.0;0;0;0;;0;0;();();(-2000.0, -2000.0);
04:27:29:733;04:27:29:708;1448034207.76;(0.6697272777557373, 0.6829022937350803);66.844581604;1.0;0;0;0;;0;0;();();(-2000.0, -2000.0);
04:27:29:749;04:27:29:708;1448034207.76;(0.6697272777557373, 0.6829022937350803);66.844581604;1.0;0;0;0;;0;0;();();(-2000.0, -2000.0);
04:27:29:782;04:27:29:708;1448034207.76;(0.6697272777557373, 0.6829022937350803);66.844581604;1.0;0;0;0;;0;0;();();(-2000.0, -2000.0);
04:27:29:798;04:27:29:789;1448034207.83;(0.6695174694061279, 0.6824658923678928);67.5618591309;1.0;0;0;0;;0;0;();();(-2000.0, -2000.0);
04:27:29:815;04:27:29:789;1448034207.83;(0.6695174694061279, 0.6824658923678928);67.5618591309;1.0;0;0;0;;0;0;();();(-2000.0, -2000.0);
04:27:29:832;04:27:29:789;1448034207.83;(0.6695174694061279, 0.6824658923678928);67.5618591309;1.0;0;0;0;;0;0;();();(-2000.0, -2000.0);
04:27:29:849;04:27:29:833;1448034207.89;(0.6691327095031738, 0.6831197950575087);67.9110336304;1.0;0;0;0;;0;0;();();(-2000.0, -2000.0);
04:27:29:881;04:27:29:873;1448034207.93;(0.6689238548278809, 0.6826900906032987);67.930015564;1.0;0;0;0;;0;0;();();(-2000.0, -2000.0);
04:27:29:898;04:27:29:873;1448034207.93;(0.6689238548278809, 0.6826900906032987);67.930015564;1.0;0;0;0;;0;0;();();(-2000.0, -2000.0);
04:27:29:915;04:27:29:873;1448034207.93;(0.6689238548278809, 0.6826900906032987);67.930015564;1.0;0;0;0;;0;0;();();(-2000.0, -2000.0);
04:27:29:931;04:27:29:917;1448034207.99;(0.6683947086334229, 0.6823239432440864);67.673034668;1.0;0;0;0;;0;0;();();(-2000.0, -2000.0);
04:27:29:948;04:27:29:917;1448034207.99;(0.6683947086334229, 0.6823239432440864);67.673034668;1.0;0;0;0;;0;0;();();(-2000.0, -2000.0);
04:27:29:981;04:27:29:957;1448034208.03;(0.6677797794342041, 0.682416280110677);68.0198974609;1.0;0;0;0;;0;0;();();(-2000.0, -2000.0);
04:27:29:998;04:27:29:997;1448034208.06;(0.6683745384216309, 0.6822415669759114);68.7359771729;1.0;0;0;0;;0;0;();();(-2000.0, -2000.0);
04:27:30:014;04:27:29:997;1448034208.06;(0.6683745384216309, 0.6822415669759114);68.7359771729;1.0;0;0;0;;0;0;();();(-2000.0, -2000.0);
04:27:30:030;04:27:29:997;1448034208.06;(0.6683745384216309, 0.6822415669759114);68.7359771729;1.0;0;0;0;;0;0;();();(-2000.0, -2000.0);
04:27:30:047;04:27:30:042;1448034208.09;(0.6698575496673584, 0.6798756917317708);68.1504974365;0.894436523385;0;0;0;;0;0;();();(-2000.0, -2000.0);
04:27:30:081;04:27:30:042;1448034208.09;(0.6698575496673584, 0.6798756917317708);68.1504974365;0.894436523385;0;0;0;;0;0;();();(-2000.0, -2000.0);
04:27:30:097;04:27:30:082;1448034208.13;(0.6698103427886963, 0.679411612616645);67.9852828979;1.0;0;0;0;;0;0;();();(-2000.0, -2000.0);
04:27:30:113;04:27:30:082;1448034208.13;(0.6698103427886963, 0.679411612616645);67.9852828979;1.0;0;0;0;;0;0;();();(-2000.0, -2000.0);
04:27:30:130;04:27:30:121;1448034208.19;(0.6690746307373047, 0.6790699217054579);68.417137146;1.0;0;0;0;;0;0;();();(-2000.0, -2000.0);
04:27:30:147;04:27:30:121;1448034208.19;(0.6690746307373047, 0.6790699217054579);68.417137146;1.0;0;0;0;;0;0;();();(-2000.0, -2000.0);
04:27:30:179;04:27:30:168;1448034208.23;(0.6688323497772217, 0.678576766120063);68.4184036255;1.0;0;0;0;;0;0;();();(-2000.0, -2000.0);
04:27:30:196;04:27:30:168;1448034208.23;(0.6688323497772217, 0.678576766120063);68.4184036255;1.0;0;0;0;;0;0;();();(-2000.0, -2000.0);
04:27:30:213;04:27:30:212;1448034208.26;(0.6683166027069092, 0.6784146202935113);68.211730957;1.0;0;0;0;;0;0;();();(-2000.0, -2000.0);
04:27:30:229;04:27:30:212;1448034208.26;(0.6683166027069092, 0.6784146202935113);68.211730957;1.0;0;0;0;;0;0;();();(-2000.0, -2000.0);
04:27:30:246;04:27:30:245;1448034208.29;(0.6675647735595703, 0.6788306554158529);68.3442687988;1.0;0;0;0;;0;0;();();(-2000.0, -2000.0);
04:27:30:279;04:27:30:245;1448034208.29;(0.6675647735595703, 0.6788306554158529);68.3442687988;1.0;0;0;0;;0;0;();();(-2000.0, -2000.0);
04:27:30:295;04:27:30:290;1448034208.33;(0.667063570022583, 0.6790087593926324);68.583114624;1.0;0;0;0;;0;0;();();(-2000.0, -2000.0);
04:27:30:312;04:27:30:290;1448034208.33;(0.667063570022583, 0.6790087593926324);68.583114624;1.0;0;0;0;;0;0;();();(-2000.0, -2000.0);
04:27:30:329;04:27:30:290;1448034208.33;(0.667063570022583, 0.6790087593926324);68.583114624;1.0;0;0;0;;0;0;();();(-2000.0, -2000.0);
04:27:30:362;04:27:30:329;1448034208.39;(0.6648979187011719, 0.6795459111531575);68.6590652466;0.94422642525;0;0;0;;0;0;();();(-2000.0, -2000.0);
04:27:30:379;04:27:30:373;1448034208.43;(0.6639224529266358, 0.6800316704644097);68.9234695435;1.0;0;0;0;;0;0;();();(-2000.0, -2000.0);
04:27:30:395;04:27:30:373;1448034208.43;(0.6639224529266358, 0.6800316704644097);68.9234695435;1.0;0;0;0;;0;0;();();(-2000.0, -2000.0);
04:27:30:412;04:27:30:373;1448034208.43;(0.6639224529266358, 0.6800316704644097);68.9234695435;1.0;0;0;0;;0;0;();();(-2000.0, -2000.0);
04:27:30:429;04:27:30:413;1448034208.49;(0.6628254413604736, 0.6798300637139214);69.3338546753;1.0;0;0;0;;0;0;();();(-2000.0, -2000.0);
04:27:30:461;04:27:30:413;1448034208.49;(0.6628254413604736, 0.6798300637139214);69.3338546753;1.0;0;0;0;;0;0;();();(-2000.0, -2000.0);
04:27:30:478;04:27:30:413;1448034208.49;(0.6628254413604736, 0.6798300637139214);69.3338546753;1.0;0;0;0;;0;0;();();(-2000.0, -2000.0);
04:27:30:495;04:27:30:413;1448034208.49;(0.6628254413604736, 0.6798300637139214);69.3338546753;1.0;0;0;0;;0;0;();();(-2000.0, -2000.0);
04:27:30:511;04:27:30:498;1448034208.56;(0.6625178813934326, 0.6798114352756076);69.5738067627;1.0;0;0;0;;0;0;();();(-2000.0, -2000.0);
04:27:30:528;04:27:30:498;1448034208.56;(0.6625178813934326, 0.6798114352756076);69.5738067627;1.0;0;0;0;;0;0;();();(-2000.0, -2000.0);
04:27:30:560;04:27:30:537;1448034208.59;(0.6621085643768311, 0.680507935418023);69.6883621216;1.0;0;0;0;;0;0;();();(-2000.0, -2000.0);
04:27:30:577;04:27:30:576;1448034208.63;(0.6590156555175781, 0.6780576282077365);69.060508728;1.0;0;0;0;;0;0;();();(-2000.0, -2000.0);
04:27:30:594;04:27:30:576;1448034208.63;(0.6590156555175781, 0.6780576282077365);69.060508728;1.0;0;0;0;;0;0;();();(-2000.0, -2000.0);
04:27:30:611;04:27:30:576;1448034208.63;(0.6590156555175781, 0.6780576282077365);69.060508728;1.0;0;0;0;;0;0;();();(-2000.0, -2000.0);
04:27:30:627;04:27:30:623;1448034208.66;(0.3666480541229248, 0.7274952994452583);22.753200531;0.600171093377;0;0;0;;0;0;();();(-2000.0, -2000.0);
04:27:30:661;04:27:30:661;1448034208.69;(0, 0);0;0;0;0;0;;0;0;();();(-2000.0, -2000.0);
04:27:30:677;04:27:30:661;1448034208.69;(0, 0);0;0;0;0;0;;0;0;();();(-2000.0, -2000.0);
04:27:30:694;04:27:30:661;1448034208.69;(0, 0);0;0;0;0;0;;0;0;();();(-2000.0, -2000.0);
04:27:30:710;04:27:30:705;1448034208.73;(0.3295526266098022, 0.5985076056586371);32.3729515076;0.791386055866;0;0;0;;0;0;();();(-2000.0, -2000.0);
04:27:30:726;04:27:30:705;1448034208.73;(0.3295526266098022, 0.5985076056586371);32.3729515076;0.791386055866;0;0;0;;0;0;();();(-2000.0, -2000.0);
04:27:30:761;04:27:30:705;1448034208.73;(0.3295526266098022, 0.5985076056586371);32.3729515076;0.791386055866;0;0;0;;0;0;();();(-2000.0, -2000.0);
04:27:30:776;04:27:30:705;1448034208.73;(0.3295526266098022, 0.5985076056586371);32.3729515076;0.791386055866;0;0;0;;0;0;();();(-2000.0, -2000.0);
04:27:30:793;04:27:30:785;1448034208.79;(0.2942948579788208, 0.6206028408474392);33.7250823975;0.756159245414;0;0;0;;0;0;();();(-2000.0, -2000.0);
04:27:30:810;04:27:30:785;1448034208.79;(0.2942948579788208, 0.6206028408474392);33.7250823975;0.756159245414;0;0;0;;0;0;();();(-2000.0, -2000.0);
04:27:30:826;04:27:30:785;1448034208.79;(0.2942948579788208, 0.6206028408474392);33.7250823975;0.756159245414;0;0;0;;0;0;();();(-2000.0, -2000.0);
04:27:30:859;04:27:30:829;1448034208.87;(0.34278857707977295, 0.7429279115464953);31.240530014;0.85965367385;0;0;0;;0;0;();();(-2000.0, -2000.0);
04:27:30:875;04:27:30:870;1448034208.93;(0.5928857326507568, 0.6631050957573785);70.4517745972;1.0;0;0;0;;0;0;();();(-2000.0, -2000.0);
04:27:30:892;04:27:30:870;1448034208.93;(0.5928857326507568, 0.6631050957573785);70.4517745972;1.0;0;0;0;;0;0;();();(-2000.0, -2000.0);
04:27:30:908;04:27:30:870;1448034208.93;(0.5928857326507568, 0.6631050957573785);70.4517745972;1.0;0;0;0;;0;0;();();(-2000.0, -2000.0);
04:27:30:942;04:27:30:909;1448034208.96;(0.5930095195770264, 0.6638043085734049);70.5227584839;1.0;0;0;0;;0;0;();();(-2000.0, -2000.0);
04:27:30:959;04:27:30:957;1448034209.03;(0.593243408203125, 0.6646171145968967);68.8230895996;1.0;0;0;0;;0;0;();();(-2000.0, -2000.0);
04:27:30:975;04:27:30:957;1448034209.03;(0.593243408203125, 0.6646171145968967);68.8230895996;1.0;0;0;0;;0;0;();();(-2000.0, -2000.0);
04:27:30:992;04:27:30:957;1448034209.03;(0.593243408203125, 0.6646171145968967);68.8230895996;1.0;0;0;0;;0;0;();();(-2000.0, -2000.0);
04:27:31:008;04:27:30:993;1448034209.06;(0.5934039115905761, 0.6648107316758898);67.9801025391;0.919833462563;0;0;0;;0;0;();();(-2000.0, -2000.0);
04:27:31:042;04:27:31:033;1448034209.09;(0.5935105323791504, 0.6650519688924154);66.9170455933;0.910468526263;0;0;0;;0;0;();();(-2000.0, -2000.0);
04:27:31:058;04:27:31:033;1448034209.09;(0.5935105323791504, 0.6650519688924154);66.9170455933;0.910468526263;0;0;0;;0;0;();();(-2000.0, -2000.0);
04:27:31:074;04:27:31:033;1448034209.09;(0.5935105323791504, 0.6650519688924154);66.9170455933;0.910468526263;0;0;0;;0;0;();();(-2000.0, -2000.0);
04:27:31:091;04:27:31:077;1448034209.13;(0.5937712669372559, 0.6655508677164714);65.6537399292;0.915177329184;0;0;0;;0;0;();();(-2000.0, -2000.0);
04:27:31:107;04:27:31:077;1448034209.13;(0.5937712669372559, 0.6655508677164714);65.6537399292;0.915177329184;0;0;0;;0;0;();();(-2000.0, -2000.0);
04:27:31:141;04:27:31:118;1448034209.16;(0.3438108921051025, 0.7632444169786241);29.3747215271;0.842270520502;0;0;0;;0;0;();();(-2000.0, -2000.0);
04:27:31:157;04:27:31:118;1448034209.16;(0.3438108921051025, 0.7632444169786241);29.3747215271;0.842270520502;0;0;0;;0;0;();();(-2000.0, -2000.0);
04:27:31:174;04:27:31:118;1448034209.16;(0.3438108921051025, 0.7632444169786241);29.3747215271;0.842270520502;0;0;0;;0;0;();();(-2000.0, -2000.0);
04:27:31:190;04:27:31:118;1448034209.16;(0.3438108921051025, 0.7632444169786241);29.3747215271;0.842270520502;0;0;0;;0;0;();();(-2000.0, -2000.0);
04:27:31:206;04:27:31:118;1448034209.16;(0.3438108921051025, 0.7632444169786241);29.3747215271;0.842270520502;0;0;0;;0;0;();();(-2000.0, -2000.0);
04:27:31:241;04:27:31:118;1448034209.16;(0.3438108921051025, 0.7632444169786241);29.3747215271;0.842270520502;0;0;0;;0;0;();();(-2000.0, -2000.0);
04:27:31:257;04:27:31:241;1448034209.29;(0.3449687957763672, 0.8490334722730848);43.1818580627;0.712390182563;0;0;0;;0;0;();();(-2000.0, -2000.0);
04:27:31:273;04:27:31:241;1448034209.29;(0.3449687957763672, 0.8490334722730848);43.1818580627;0.712390182563;0;0;0;;0;0;();();(-2000.0, -2000.0);
04:27:31:290;04:27:31:285;1448034209.33;(0.6084868431091308, 0.7152280595567491);62.0733261108;0.995103479234;0;0;0;;0;0;();();(-2000.0, -2000.0);
04:27:31:306;04:27:31:285;1448034209.33;(0.6084868431091308, 0.7152280595567491);62.0733261108;0.995103479234;0;0;0;;0;0;();();(-2000.0, -2000.0);
04:27:31:340;04:27:31:335;1448034209.39;(0.6081837177276611, 0.7154653125339084);62.4740791321;1.0;0;0;0;;0;0;();();(-2000.0, -2000.0);
04:27:31:356;04:27:31:335;1448034209.39;(0.6081837177276611, 0.7154653125339084);62.4740791321;1.0;0;0;0;;0;0;();();(-2000.0, -2000.0);
04:27:31:373;04:27:31:368;1448034209.43;(0.6085662841796875, 0.7158928977118598);62.0692558289;1.0;0;0;0;;0;0;();();(-2000.0, -2000.0);
04:27:31:390;04:27:31:368;1448034209.43;(0.6085662841796875, 0.7158928977118598);62.0692558289;1.0;0;0;0;;0;0;();();(-2000.0, -2000.0);
04:27:31:406;04:27:31:368;1448034209.43;(0.6085662841796875, 0.7158928977118598);62.0692558289;1.0;0;0;0;;0;0;();();(-2000.0, -2000.0);
04:27:31:438;04:27:31:409;1448034209.46;(0.6096753597259521, 0.7158567640516493);62.6355705261;0.856274143263;0;0;0;;0;0;();();(-2000.0, -2000.0);
04:27:31:455;04:27:31:449;1448034209.53;(0.6105521202087403, 0.7152068667941623);61.8410186768;1.0;0;0;0;;0;0;();();(-2000.0, -2000.0);
04:27:31:472;04:27:31:449;1448034209.53;(0.6105521202087403, 0.7152068667941623);61.8410186768;1.0;0;0;0;;0;0;();();(-2000.0, -2000.0);
04:27:31:488;04:27:31:449;1448034209.53;(0.6105521202087403, 0.7152068667941623);61.8410186768;1.0;0;0;0;;0;0;();();(-2000.0, -2000.0);
04:27:31:521;04:27:31:493;1448034209.56;(0.6108993530273438, 0.7151152504814995);61.4176826477;1.0;0;0;0;;0;0;();();(-2000.0, -2000.0);
04:27:31:539;04:27:31:534;1448034209.59;(0.6107319831848145, 0.7154865476820205);62.1355361938;1.0;0;0;0;;0;0;();();(-2000.0, -2000.0);
04:27:31:555;04:27:31:534;1448034209.59;(0.6107319831848145, 0.7154865476820205);62.1355361938;1.0;0;0;0;;0;0;();();(-2000.0, -2000.0);
04:27:31:571;04:27:31:534;1448034209.59;(0.6107319831848145, 0.7154865476820205);62.1355361938;1.0;0;0;0;;0;0;();();(-2000.0, -2000.0);
04:27:31:588;04:27:31:572;1448034209.63;(0.6106962203979492, 0.7150938457912869);62.1471748352;1.0;0;0;0;;0;0;();();(-2000.0, -2000.0);
04:27:31:622;04:27:31:617;1448034209.69;(0.6112529754638671, 0.7143585417005751);62.8311080933;1.0;0;0;0;;0;0;();();(-2000.0, -2000.0);
04:27:31:638;04:27:31:617;1448034209.69;(0.6112529754638671, 0.7143585417005751);62.8311080933;1.0;0;0;0;;0;0;();();(-2000.0, -2000.0);
04:27:31:654;04:27:31:617;1448034209.69;(0.6112529754638671, 0.7143585417005751);62.8311080933;1.0;0;0;0;;0;0;();();(-2000.0, -2000.0);
04:27:31:670;04:27:31:664;1448034209.73;(0.6110811710357666, 0.7143109003702799);62.90076828;1.0;0;0;0;;0;0;();();(-2000.0, -2000.0);
04:27:31:687;04:27:31:664;1448034209.73;(0.6110811710357666, 0.7143109003702799);62.90076828;1.0;0;0;0;;0;0;();();(-2000.0, -2000.0);
04:27:31:721;04:27:31:697;1448034209.76;(0.6113436698913575, 0.7142267651028104);63.3437576294;1.0;0;0;0;;0;0;();();(-2000.0, -2000.0);
04:27:31:738;04:27:31:697;1448034209.76;(0.6113436698913575, 0.7142267651028104);63.3437576294;1.0;0;0;0;;0;0;();();(-2000.0, -2000.0);
04:27:31:754;04:27:31:697;1448034209.76;(0.6113436698913575, 0.7142267651028104);63.3437576294;1.0;0;0;0;;0;0;();();(-2000.0, -2000.0);
04:27:31:770;04:27:31:697;1448034209.76;(0.6113436698913575, 0.7142267651028104);63.3437576294;1.0;0;0;0;;0;0;();();(-2000.0, -2000.0);
04:27:31:787;04:27:31:782;1448034209.83;(0.6113842487335205, 0.7135354148017036);63.6297683716;1.0;0;0;0;;0;0;();();(-2000.0, -2000.0);
04:27:31:820;04:27:31:782;1448034209.83;(0.6113842487335205, 0.7135354148017036);63.6297683716;1.0;0;0;0;;0;0;();();(-2000.0, -2000.0);
04:27:31:851;04:27:31:825;1448034209.89;(0.6110696792602539, 0.7136373731825087);64.9660186768;1.0;2;0;0;;0;0;();();(-2000.0, -2000.0);
04:27:31:860;04:27:31:825;1448034209.89;(0.6110696792602539, 0.7136373731825087);64.9660186768;1.0;2;0;0;;0;0;();();(-2000.0, -2000.0);
04:27:31:877;04:27:31:865;1448034209.93;(0.6113711833953858, 0.7132837507459853);65.4847869873;1.0;2;0;0;;0;0;();();(-2000.0, -2000.0);
04:27:31:894;04:27:31:865;1448034209.93;(0.6113711833953858, 0.7132837507459853);65.4847869873;1.0;2;0;0;;0;0;();();(-2000.0, -2000.0);
04:27:31:911;04:27:31:865;1448034209.93;(0.6113711833953858, 0.7132837507459853);65.4847869873;1.0;2;0;0;;0;0;();();(-2000.0, -2000.0);
04:27:31:926;04:27:31:920;1448034209.96;(0.6112617015838623, 0.7132882648044162);65.6534957886;1.0;2;0;0;;0;0;();();(-2000.0, -2000.0);
04:27:31:960;04:27:31:950;1448034209.99;(0.611210298538208, 0.7129947662353515);66.2533416748;1.0;2;0;0;;0;0;();();(-2000.0, -2000.0);
04:27:31:976;04:27:31:950;1448034209.99;(0.611210298538208, 0.7129947662353515);66.2533416748;1.0;2;0;0;;0;0;();();(-2000.0, -2000.0);
04:27:31:993;04:27:31:989;1448034210.06;(0.610785436630249, 0.7159668392605252);66.6095581055;0.849206194899;2;0;0;;0;0;();();(-2000.0, -2000.0);
04:27:32:009;04:27:31:989;1448034210.06;(0.610785436630249, 0.7159668392605252);66.6095581055;0.849206194899;2;0;0;;0;0;();();(-2000.0, -2000.0);
04:27:32:025;04:27:31:989;1448034210.06;(0.610785436630249, 0.7159668392605252);66.6095581055;0.849206194899;2;0;0;;0;0;();();(-2000.0, -2000.0);
04:27:32:059;04:27:32:029;1448034210.09;(0.6114834785461426, 0.7165041393703885);67.2542648315;0.99833378858;2;0;0;;0;0;();();(-2000.0, -2000.0);
04:27:32:076;04:27:32:073;1448034210.13;(0.6116303443908692, 0.7170916451348199);67.1423568726;1.0;2;0;0;;0;0;();();(-2000.0, -2000.0);
04:27:32:093;04:27:32:073;1448034210.13;(0.6116303443908692, 0.7170916451348199);67.1423568726;1.0;2;0;0;;0;0;();();(-2000.0, -2000.0);
04:27:32:108;04:27:32:073;1448034210.13;(0.6116303443908692, 0.7170916451348199);67.1423568726;1.0;2;0;0;;0;0;();();(-2000.0, -2000.0);
