%Timestamp,timestamp_write;timestamp_gotpupil;eyetrackertime;norm_pos;diameter;confidence;timestamp_gotbitdata;CRC;SEQ;AnalogOutp1;AnalogOutp2;AnalogOutp3;AnalogOutp4;AnalogOutp5;AnalogOutp6;DigitalOutp1;DigitalOutp2;igitalOutp3;DigitalOutp4;nplanes;lastaction;lastactiondetails;lastactionairplanenumber;positivescore;negativescore;collidedairplanenumbers;targetpositions;collision_point
11:00:09:422;1448057766.82;(0.5383328437805176, 0.6858750237358942);68.6494598389;0.688218398319;;;;;;;;;;;;;;0;0;0;;0;0;();();(0.0, 0.0);
11:00:09:428;1448057766.82;(0.5383328437805176, 0.6858750237358942);68.6494598389;0.688218398319;;;;;;;;;;;;;;0;0;0;;0;0;();();(-2000.0, -2000.0);
11:00:09:430;1448057766.82;(0.5383328437805176, 0.6858750237358942);68.6494598389;0.688218398319;;;;;;;;;;;;;;0;0;0;;0;0;();();(-2000.0, -2000.0);
11:00:09:433;1448057766.82;(0.5383328437805176, 0.6858750237358942);68.6494598389;0.688218398319;;;;;;;;;;;;;;0;0;0;;0;0;();();(-2000.0, -2000.0);
11:00:09:435;1448057766.82;(0.5383328437805176, 0.6858750237358942);68.6494598389;0.688218398319;;;;;;;;;;;;;;0;0;0;;0;0;();();(-2000.0, -2000.0);
11:00:09:437;1448057766.82;(0.5383328437805176, 0.6858750237358942);68.6494598389;0.688218398319;;;;;;;;;;;;;;0;0;0;;0;0;();();(-2000.0, -2000.0);
11:00:09:440;1448057766.82;(0.5383328437805176, 0.6858750237358942);68.6494598389;0.688218398319;;;;;;;;;;;;;;0;0;0;;0;0;();();(-2000.0, -2000.0);
11:00:09:442;1448057766.82;(0.5383328437805176, 0.6858750237358942);68.6494598389;0.688218398319;;;;;;;;;;;;;;0;0;0;;0;0;();();(-2000.0, -2000.0);
11:00:09:444;1448057766.82;(0.5383328437805176, 0.6858750237358942);68.6494598389;0.688218398319;;;;;;;;;;;;;;0;0;0;;0;0;();();(-2000.0, -2000.0);
11:00:09:446;1448057766.82;(0.5383328437805176, 0.6858750237358942);68.6494598389;0.688218398319;;;;;;;;;;;;;;0;0;0;;0;0;();();(-2000.0, -2000.0);
11:00:09:448;1448057766.82;(0.5383328437805176, 0.6858750237358942);68.6494598389;0.688218398319;;;;;;;;;;;;;;0;0;0;;0;0;();();(-2000.0, -2000.0);
11:00:09:451;1448057766.82;(0.5383328437805176, 0.6858750237358942);68.6494598389;0.688218398319;;;;;;;;;;;;;;0;0;0;;0;0;();();(-2000.0, -2000.0);
11:00:09:453;1448057766.82;(0.5383328437805176, 0.6858750237358942);68.6494598389;0.688218398319;;;;;;;;;;;;;;0;0;0;;0;0;();();(-2000.0, -2000.0);
11:00:09:455;1448057766.82;(0.5383328437805176, 0.6858750237358942);68.6494598389;0.688218398319;;;;;;;;;;;;;;0;0;0;;0;0;();();(-2000.0, -2000.0);
11:00:09:457;1448057766.82;(0.5383328437805176, 0.6858750237358942);68.6494598389;0.688218398319;;;;;;;;;;;;;;0;0;0;;0;0;();();(-2000.0, -2000.0);
11:00:09:459;1448057766.82;(0.5383328437805176, 0.6858750237358942);68.6494598389;0.688218398319;;;;;;;;;;;;;;0;0;0;;0;0;();();(-2000.0, -2000.0);
11:00:09:463;1448057766.82;(0.5383328437805176, 0.6858750237358942);68.6494598389;0.688218398319;;;;;;;;;;;;;;0;0;0;;0;0;();();(-2000.0, -2000.0);
11:00:09:466;1448057766.82;(0.5383328437805176, 0.6858750237358942);68.6494598389;0.688218398319;;;;;;;;;;;;;;0;0;0;;0;0;();();(-2000.0, -2000.0);
11:00:09:479;1448057766.82;(0.5383328437805176, 0.6858750237358942);68.6494598389;0.688218398319;;;;;;;;;;;;;;0;0;0;;0;0;();();(-2000.0, -2000.0);
11:00:09:497;1448057766.82;(0.5383328437805176, 0.6858750237358942);68.6494598389;0.688218398319;;;;;;;;;;;;;;0;0;0;;0;0;();();(-2000.0, -2000.0);
11:00:09:512;1448057766.82;(0.5383328437805176, 0.6858750237358942);68.6494598389;0.688218398319;;;;;;;;;;;;;;0;0;0;;0;0;();();(-2000.0, -2000.0);
11:00:09:529;1448057766.82;(0.5383328437805176, 0.6858750237358942);68.6494598389;0.688218398319;;;;;;;;;;;;;;0;0;0;;0;0;();();(-2000.0, -2000.0);
11:00:09:562;11:00:09:558;1448057767.02;(0.5408362865447998, 0.6771565119425456);69.605506897;0.865765096137;;;;;;;;;;;;;;0;0;0;;0;0;();();(-2000.0, -2000.0);
11:00:09:579;11:00:09:558;1448057767.02;(0.5408362865447998, 0.6771565119425456);69.605506897;0.865765096137;;;;;;;;;;;;;;0;0;0;;0;0;();();(-2000.0, -2000.0);
11:00:14:709;11:00:14:670;1448057772.16;(0.5353471755981445, 0.7033949534098307);68.478225708;0.994623899011;;;;;;;;;;;;;;2;0;0;;0;0;();();(-2000.0, -2000.0);
11:00:14:721;11:00:14:670;1448057772.16;(0.5353471755981445, 0.7033949534098307);68.478225708;0.994623899011;;;;;;;;;;;;;;2;0;0;;0;0;();();(-2000.0, -2000.0);
11:00:14:729;11:00:14:670;1448057772.16;(0.5353471755981445, 0.7033949534098307);68.478225708;0.994623899011;;;;;;;;;;;;;;2;0;0;;0;0;();();(-2000.0, -2000.0);
11:00:14:735;11:00:14:735;1448057772.22;(0.5355923175811768, 0.7038415273030598);67.7739181519;1.0;;;;;;;;;;;;;;2;0;0;;0;0;();();(-2000.0, -2000.0);
11:00:14:740;11:00:14:735;1448057772.22;(0.5355923175811768, 0.7038415273030598);67.7739181519;1.0;;;;;;;;;;;;;;2;0;0;;0;0;();();(-2000.0, -2000.0);
11:00:14:744;11:00:14:735;1448057772.22;(0.5355923175811768, 0.7038415273030598);67.7739181519;1.0;;;;;;;;;;;;;;2;0;0;;0;0;();();(-2000.0, -2000.0);
11:00:14:749;11:00:14:735;1448057772.22;(0.5355923175811768, 0.7038415273030598);67.7739181519;1.0;;;;;;;;;;;;;;2;0;0;;0;0;();();(-2000.0, -2000.0);
11:00:14:752;11:00:14:735;1448057772.22;(0.5355923175811768, 0.7038415273030598);67.7739181519;1.0;;;;;;;;;;;;;;2;0;0;;0;0;();();(-2000.0, -2000.0);
11:00:14:754;11:00:14:735;1448057772.22;(0.5355923175811768, 0.7038415273030598);67.7739181519;1.0;;;;;;;;;;;;;;2;0;0;;0;0;();();(-2000.0, -2000.0);
11:00:14:756;11:00:14:735;1448057772.22;(0.5355923175811768, 0.7038415273030598);67.7739181519;1.0;;;;;;;;;;;;;;2;0;0;;0;0;();();(-2000.0, -2000.0);
11:00:14:758;11:00:14:735;1448057772.22;(0.5355923175811768, 0.7038415273030598);67.7739181519;1.0;;;;;;;;;;;;;;2;0;0;;0;0;();();(-2000.0, -2000.0);
11:00:14:760;11:00:14:735;1448057772.22;(0.5355923175811768, 0.7038415273030598);67.7739181519;1.0;;;;;;;;;;;;;;2;0;0;;0;0;();();(-2000.0, -2000.0);
11:00:14:763;11:00:14:735;1448057772.22;(0.5355923175811768, 0.7038415273030598);67.7739181519;1.0;;;;;;;;;;;;;;2;0;0;;0;0;();();(-2000.0, -2000.0);
11:00:14:765;11:00:14:735;1448057772.22;(0.5355923175811768, 0.7038415273030598);67.7739181519;1.0;;;;;;;;;;;;;;2;0;0;;0;0;();();(-2000.0, -2000.0);
11:00:14:767;11:00:14:735;1448057772.22;(0.5355923175811768, 0.7038415273030598);67.7739181519;1.0;;;;;;;;;;;;;;2;0;0;;0;0;();();(-2000.0, -2000.0);
11:00:14:769;11:00:14:735;1448057772.22;(0.5355923175811768, 0.7038415273030598);67.7739181519;1.0;;;;;;;;;;;;;;2;0;0;;0;0;();();(-2000.0, -2000.0);
11:00:14:771;11:00:14:735;1448057772.22;(0.5355923175811768, 0.7038415273030598);67.7739181519;1.0;;;;;;;;;;;;;;2;0;0;;0;0;();();(-2000.0, -2000.0);
11:00:14:776;11:00:14:735;1448057772.22;(0.5355923175811768, 0.7038415273030598);67.7739181519;1.0;;;;;;;;;;;;;;2;0;0;;0;0;();();(-2000.0, -2000.0);
11:00:14:779;11:00:14:735;1448057772.22;(0.5355923175811768, 0.7038415273030598);67.7739181519;1.0;;;;;;;;;;;;;;2;0;0;;0;0;();();(-2000.0, -2000.0);
11:00:14:781;11:00:14:735;1448057772.22;(0.5355923175811768, 0.7038415273030598);67.7739181519;1.0;;;;;;;;;;;;;;2;0;0;;0;0;();();(-2000.0, -2000.0);
11:00:14:783;11:00:14:735;1448057772.22;(0.5355923175811768, 0.7038415273030598);67.7739181519;1.0;;;;;;;;;;;;;;2;0;0;;0;0;();();(-2000.0, -2000.0);
11:00:14:793;11:00:14:735;1448057772.22;(0.5355923175811768, 0.7038415273030598);67.7739181519;1.0;;;;;;;;;;;;;;2;0;0;;0;0;();();(-2000.0, -2000.0);
11:00:14:826;11:00:14:806;1448057772.29;(0.5357306480407715, 0.7036163753933377);67.3246002197;1.0;;;;;;;;;;;;;;2;0;0;;0;0;();();(-2000.0, -2000.0);
11:00:14:843;11:00:14:806;1448057772.29;(0.5357306480407715, 0.7036163753933377);67.3246002197;1.0;;;;;;;;;;;;;;2;0;0;;0;0;();();(-2000.0, -2000.0);
11:00:14:859;11:00:14:806;1448057772.29;(0.5357306480407715, 0.7036163753933377);67.3246002197;1.0;;;;;;;;;;;;;;2;0;0;;0;0;();();(-2000.0, -2000.0);
11:00:14:876;11:00:14:872;1448057772.32;(0.5358763694763183, 0.7034643809000651);67.0164794922;1.0;;;;;;;;;;;;;;2;0;0;;0;0;();();(-2000.0, -2000.0);
11:00:14:893;11:00:14:876;1448057772.36;(0.5356468200683594, 0.7033015569051106);66.9964141846;1.0;;;;;;;;;;;;;;2;0;0;;0;0;();();(-2000.0, -2000.0);
11:00:14:926;11:00:14:876;1448057772.36;(0.5356468200683594, 0.7033015569051106);66.9964141846;1.0;;;;;;;;;;;;;;2;0;0;;0;0;();();(-2000.0, -2000.0);
11:00:14:943;11:00:14:934;1448057772.42;(0.5356648445129395, 0.7040958404541016);66.6499404907;1.0;;;;;;;;;;;;;;2;0;0;;0;0;();();(-2000.0, -2000.0);
11:00:14:958;11:00:14:934;1448057772.42;(0.5356648445129395, 0.7040958404541016);66.6499404907;1.0;;;;;;;;;;;;;;2;0;0;;0;0;();();(-2000.0, -2000.0);
11:00:14:975;11:00:14:934;1448057772.42;(0.5356648445129395, 0.7040958404541016);66.6499404907;1.0;;;;;;;;;;;;;;2;0;0;;0;0;();();(-2000.0, -2000.0);
11:00:14:992;11:00:14:934;1448057772.42;(0.5356648445129395, 0.7040958404541016);66.6499404907;1.0;;;;;;;;;;;;;;2;0;0;;0;0;();();(-2000.0, -2000.0);
11:00:15:025;11:00:14:934;1448057772.42;(0.5356648445129395, 0.7040958404541016);66.6499404907;1.0;;;;;;;;;;;;;;2;0;0;;0;0;();();(-2000.0, -2000.0);
11:00:15:042;11:00:14:934;1448057772.42;(0.5356648445129395, 0.7040958404541016);66.6499404907;1.0;;;;;;;;;;;;;;2;0;0;;0;0;();();(-2000.0, -2000.0);
11:00:15:059;11:00:14:934;1448057772.42;(0.5356648445129395, 0.7040958404541016);66.6499404907;1.0;;;;;;;;;;;;;;2;0;0;;0;0;();();(-2000.0, -2000.0);
11:00:15:075;11:00:15:067;1448057772.56;(0.5426724433898926, 0.7090023676554362);66.6120605469;1.0;;;;;;;;;;;;;;2;0;0;;0;0;();();(-2000.0, -2000.0);
11:00:15:092;11:00:15:067;1448057772.56;(0.5426724433898926, 0.7090023676554362);66.6120605469;1.0;;;;;;;;;;;;;;2;0;0;;0;0;();();(-2000.0, -2000.0);
11:00:15:124;11:00:15:067;1448057772.56;(0.5426724433898926, 0.7090023676554362);66.6120605469;1.0;;;;;;;;;;;;;;2;0;0;;0;0;();();(-2000.0, -2000.0);
11:00:15:141;11:00:15:135;1448057772.62;(0.2707850933074951, 0.6983087751600477);18.246717453;0.906657130674;;;;;;;;;;;;;;2;0;0;;0;0;();();(-2000.0, -2000.0);
11:00:15:157;11:00:15:135;1448057772.62;(0.2707850933074951, 0.6983087751600477);18.246717453;0.906657130674;;;;;;;;;;;;;;2;0;0;;0;0;();();(-2000.0, -2000.0);
11:00:15:174;11:00:15:135;1448057772.62;(0.2707850933074951, 0.6983087751600477);18.246717453;0.906657130674;;;;;;;;;;;;;;2;0;0;;0;0;();();(-2000.0, -2000.0);
11:00:15:190;11:00:15:135;1448057772.62;(0.2707850933074951, 0.6983087751600477);18.246717453;0.906657130674;;;;;;;;;;;;;;2;0;0;;0;0;();();(-2000.0, -2000.0);
11:00:15:224;11:00:15:202;1448057772.66;(0.530734634399414, 0.6781412760416667);66.7949676514;0.994484069307;;;;;;;;;;;;;;2;0;0;;0;0;();();(-2000.0, -2000.0);
11:00:15:240;11:00:15:202;1448057772.66;(0.530734634399414, 0.6781412760416667);66.7949676514;0.994484069307;;;;;;;;;;;;;;2;0;0;;0;0;();();(-2000.0, -2000.0);
11:00:15:256;11:00:15:202;1448057772.66;(0.530734634399414, 0.6781412760416667);66.7949676514;0.994484069307;;;;;;;;;;;;;;2;0;0;;0;0;();();(-2000.0, -2000.0);
11:00:15:273;11:00:15:273;1448057772.76;(0.5298343181610108, 0.6776293012830946);66.8155593872;1.0;;;;;;;;;;;;;;2;0;0;;0;0;();();(-2000.0, -2000.0);
11:00:15:307;11:00:15:273;1448057772.76;(0.5298343181610108, 0.6776293012830946);66.8155593872;1.0;;;;;;;;;;;;;;2;0;0;;0;0;();();(-2000.0, -2000.0);
11:00:15:323;11:00:15:273;1448057772.76;(0.5298343181610108, 0.6776293012830946);66.8155593872;1.0;;;;;;;;;;;;;;2;0;0;;0;0;();();(-2000.0, -2000.0);
11:00:15:339;11:00:15:334;1448057772.82;(0.529897928237915, 0.678049914042155);67.1878967285;1.0;;;;;;;;;;;;;;2;0;0;;0;0;();();(-2000.0, -2000.0);
11:00:15:357;11:00:15:334;1448057772.82;(0.529897928237915, 0.678049914042155);67.1878967285;1.0;;;;;;;;;;;;;;2;0;0;;0;0;();();(-2000.0, -2000.0);
11:00:15:373;11:00:15:334;1448057772.82;(0.529897928237915, 0.678049914042155);67.1878967285;1.0;;;;;;;;;;;;;;2;0;0;;0;0;();();(-2000.0, -2000.0);
11:00:15:921;11:00:15:866;1448057773.36;(0.5389288425445556, 0.6608935250176324);66.3286590576;1.0;11:00:15:920;0;9;0.196774193548387;1;0.293255131964809;0;0;0;1;1;1;1;2;0;0;;0;0;();();(-2000.0, -2000.0);
11:00:15:924;11:00:15:866;1448057773.36;(0.5389288425445556, 0.6608935250176324);66.3286590576;1.0;11:00:15:924;0;9;0.196774193548387;1;0.293255131964809;0;0;0;1;1;1;1;2;0;0;;0;0;();();(-2000.0, -2000.0);
11:00:15:926;11:00:15:866;1448057773.36;(0.5389288425445556, 0.6608935250176324);66.3286590576;1.0;11:00:15:926;0;9;0.196774193548387;1;0.293255131964809;0;0;0;1;1;1;1;2;0;0;;0;0;();();(-2000.0, -2000.0);
11:00:15:928;11:00:15:866;1448057773.36;(0.5389288425445556, 0.6608935250176324);66.3286590576;1.0;11:00:15:928;0;9;0.196774193548387;1;0.293255131964809;0;0;0;1;1;1;1;2;0;0;;0;0;();();(-2000.0, -2000.0);
11:00:15:931;11:00:15:929;1448057773.39;(0.5386628150939942, 0.6606609556410048);66.3438873291;1.0;11:00:15:931;0;9;0.196774193548387;1;0.293255131964809;0;0;0;1;1;1;1;2;0;0;;0;0;();();(-2000.0, -2000.0);
11:00:15:933;11:00:15:929;1448057773.39;(0.5386628150939942, 0.6606609556410048);66.3438873291;1.0;11:00:15:933;0;13;0.2;1;0.0977517106549365;0;0;0;1;1;1;1;2;0;0;;0;0;();();(-2000.0, -2000.0);
11:00:15:937;11:00:15:929;1448057773.39;(0.5386628150939942, 0.6606609556410048);66.3438873291;1.0;11:00:15:937;0;7;1.19354838709677;1;0.293255131964809;0;0;0;1;1;1;1;2;0;0;;0;0;();();(-2000.0, -2000.0);
11:00:15:941;11:00:15:929;1448057773.39;(0.5386628150939942, 0.6606609556410048);66.3438873291;1.0;11:00:15:941;0;15;0.819354838709677;1;0.0977517106549365;0;0;0;1;1;1;1;2;0;0;;0;0;();();(-2000.0, -2000.0);
11:00:15:946;11:00:15:929;1448057773.39;(0.5386628150939942, 0.6606609556410048);66.3438873291;1.0;11:00:15:946;0;15;0.819354838709677;1;0.0977517106549365;0;0;0;1;1;1;1;2;0;0;;0;0;();();(-2000.0, -2000.0);
11:00:15:952;11:00:15:929;1448057773.39;(0.5386628150939942, 0.6606609556410048);66.3438873291;1.0;11:00:15:952;0;3;0.248387096774193;1;0.293255131964809;0;0;0;1;1;1;1;2;0;0;;0;0;();();(-2000.0, -2000.0);
11:00:15:957;11:00:15:929;1448057773.39;(0.5386628150939942, 0.6606609556410048);66.3438873291;1.0;11:00:15:956;0;9;-0.470967741935484;1;0.293255131964809;0;0;0;1;1;1;1;2;0;0;;0;0;();();(-2000.0, -2000.0);
11:00:15:961;11:00:15:929;1448057773.39;(0.5386628150939942, 0.6606609556410048);66.3438873291;1.0;11:00:15:961;0;9;-0.470967741935484;1;0.293255131964809;0;0;0;1;1;1;1;2;0;0;;0;0;();();(-2000.0, -2000.0);
11:00:15:965;11:00:15:929;1448057773.39;(0.5386628150939942, 0.6606609556410048);66.3438873291;1.0;11:00:15:965;0;9;-0.470967741935484;1;0.293255131964809;0;0;0;1;1;1;1;2;0;0;;0;0;();();(-2000.0, -2000.0);
11:00:15:967;11:00:15:929;1448057773.39;(0.5386628150939942, 0.6606609556410048);66.3438873291;1.0;11:00:15:967;0;5;-0.390322580645161;1;0.293255131964809;0;0;0;1;1;1;1;2;0;0;;0;0;();();(-2000.0, -2000.0);
11:00:15:969;11:00:15:929;1448057773.39;(0.5386628150939942, 0.6606609556410048);66.3438873291;1.0;11:00:15:969;0;5;-0.390322580645161;1;0.293255131964809;0;0;0;1;1;1;1;2;0;0;;0;0;();();(-2000.0, -2000.0);
11:00:15:971;11:00:15:929;1448057773.39;(0.5386628150939942, 0.6606609556410048);66.3438873291;1.0;11:00:15:971;0;5;-0.390322580645161;1;0.293255131964809;0;0;0;1;1;1;1;2;0;0;;0;0;();();(-2000.0, -2000.0);
11:00:15:973;11:00:15:929;1448057773.39;(0.5386628150939942, 0.6606609556410048);66.3438873291;1.0;11:00:15:973;0;15;-0.00645161290322593;1;0.0977517106549365;0;0;0;1;1;1;1;2;0;0;;0;0;();();(-2000.0, -2000.0);
11:00:15:978;11:00:15:929;1448057773.39;(0.5386628150939942, 0.6606609556410048);66.3438873291;1.0;11:00:15:978;0;15;-0.00645161290322593;1;0.0977517106549365;0;0;0;1;1;1;1;2;0;0;;0;0;();();(-2000.0, -2000.0);
11:00:15:980;11:00:15:929;1448057773.39;(0.5386628150939942, 0.6606609556410048);66.3438873291;1.0;11:00:15:980;0;15;-0.00645161290322593;1;0.0977517106549365;0;0;0;1;1;1;1;2;0;0;;0;0;();();(-2000.0, -2000.0);
11:00:15:983;11:00:15:929;1448057773.39;(0.5386628150939942, 0.6606609556410048);66.3438873291;1.0;11:00:15:983;0;15;-0.00645161290322593;1;0.0977517106549365;0;0;0;1;1;1;1;2;0;0;;0;0;();();(-2000.0, -2000.0);
11:00:15:995;11:00:15:929;1448057773.39;(0.5386628150939942, 0.6606609556410048);66.3438873291;1.0;11:00:15:995;0;4;0.0483870967741935;1;0.293255131964809;0;0;0;1;1;1;1;2;0;0;;0;0;();();(-2000.0, -2000.0);
11:00:16:011;11:00:15:998;1448057773.49;(0.6670712471008301, 0.43478893703884547);33.3974609375;0.701158466648;11:00:16:011;0;9;-0.00645161290322593;1;0.0977517106549365;0;0;0;1;1;1;1;2;0;0;;0;0;();();(-2000.0, -2000.0);
11:00:16:028;11:00:15:998;1448057773.49;(0.6670712471008301, 0.43478893703884547);33.3974609375;0.701158466648;11:00:16:028;0;9;-0.00645161290322593;1;0.0977517106549365;0;0;0;1;1;1;1;2;0;0;;0;0;();();(-2000.0, -2000.0);
11:00:16:061;11:00:15:998;1448057773.49;(0.6670712471008301, 0.43478893703884547);33.3974609375;0.701158466648;11:00:16:061;0;10;1.10322580645161;1;0.0977517106549365;0;0;0;1;1;1;1;2;0;0;;0;0;();();(-2000.0, -2000.0);
11:00:16:078;11:00:16:062;1448057773.52;(0.3754990816116333, 0.5536187065972222);34.1646575928;0.721562114481;11:00:16:078;0;10;-1.27096774193548;1;0.293255131964809;0;0;0;1;1;1;1;2;0;0;;0;0;();();(-2000.0, -2000.0);
11:00:16:095;11:00:16:062;1448057773.52;(0.3754990816116333, 0.5536187065972222);34.1646575928;0.721562114481;11:00:16:095;0;15;-1.5;1;0.293255131964809;0;0;0;1;1;1;1;2;0;0;;0;0;();();(-2000.0, -2000.0);
11:00:16:111;11:00:16:062;1448057773.52;(0.3754990816116333, 0.5536187065972222);34.1646575928;0.721562114481;11:00:16:111;0;6;-1.33548387096774;1;0.0977517106549365;0;0;0;1;1;1;1;2;0;0;;0;0;();();(-2000.0, -2000.0);
11:00:16:143;11:00:16:062;1448057773.52;(0.3754990816116333, 0.5536187065972222);34.1646575928;0.721562114481;11:00:16:143;0;15;-1.5;1;0.0977517106549365;0;0;0;1;1;1;1;2;0;0;;0;0;();();(-2000.0, -2000.0);
11:00:16:161;11:00:16:062;1448057773.52;(0.3754990816116333, 0.5536187065972222);34.1646575928;0.721562114481;11:00:16:161;0;4;-1.5;1;0.0977517106549365;0;0;0;1;1;1;1;2;0;0;;0;0;();();(-2000.0, -2000.0);
11:00:16:178;11:00:16:062;1448057773.52;(0.3754990816116333, 0.5536187065972222);34.1646575928;0.721562114481;11:00:16:178;0;9;-0.0516129032258066;1;0.0977517106549365;0;0;0;1;1;1;1;2;0;0;;0;0;();();(-2000.0, -2000.0);
11:00:16:193;11:00:16:062;1448057773.52;(0.3754990816116333, 0.5536187065972222);34.1646575928;0.721562114481;11:00:16:193;0;4;0.980645161290323;1;0.293255131964809;0;0;0;1;1;1;1;2;0;0;;0;0;();();(-2000.0, -2000.0);
11:00:16:210;11:00:16:198;1448057773.67;(0.5408074855804443, 0.6213340123494466);65.5140762329;1.0;11:00:16:210;0;10;1.78064516129032;1;0.0977517106549365;0;0;0;1;1;1;1;2;0;0;;0;0;();();(-2000.0, -2000.0);
11:00:16:243;11:00:16:198;1448057773.67;(0.5408074855804443, 0.6213340123494466);65.5140762329;1.0;11:00:16:243;0;10;1.77741935483871;1;0.0977517106549365;0;0;0;1;1;1;1;2;0;0;;0;0;();();(-2000.0, -2000.0);
11:00:16:259;11:00:16:198;1448057773.67;(0.5408074855804443, 0.6213340123494466);65.5140762329;1.0;11:00:16:259;0;4;1.77741935483871;1;0.0977517106549365;0;0;0;1;1;1;1;2;0;0;;0;0;();();(-2000.0, -2000.0);
11:00:16:276;11:00:16:262;1448057773.72;(0.5407655715942383, 0.6221453984578451);65.502456665;1.0;11:00:16:276;0;9;0.977419354838709;1;0.0977517106549365;0;0;0;1;1;1;1;2;0;0;;0;0;();();(-2000.0, -2000.0);
11:00:16:293;11:00:16:262;1448057773.72;(0.5407655715942383, 0.6221453984578451);65.502456665;1.0;11:00:16:293;0;6;0.0516129032258064;1;0.293255131964809;0;0;0;1;1;1;1;2;0;0;;0;0;();();(-2000.0, -2000.0);
11:00:16:309;11:00:16:262;1448057773.72;(0.5407655715942383, 0.6221453984578451);65.502456665;1.0;11:00:16:309;0;10;-1.5;1;0.293255131964809;0;0;0;1;1;1;1;2;0;0;;0;0;();();(-2000.0, -2000.0);
11:00:16:342;11:00:16:333;1448057773.82;(0.5408645153045655, 0.6238284005059136);64.9884643555;1.0;11:00:16:342;0;4;-1.5;1;0.293255131964809;0;0;0;1;1;1;1;2;0;0;;0;0;();();(-2000.0, -2000.0);
11:00:16:359;11:00:16:333;1448057773.82;(0.5408645153045655, 0.6238284005059136);64.9884643555;1.0;11:00:16:359;0;0;-1.5;1;0.0977517106549365;0;0;0;1;1;1;1;2;0;0;;0;0;();();(-2000.0, -2000.0);
11:00:16:376;11:00:16:333;1448057773.82;(0.5408645153045655, 0.6238284005059136);64.9884643555;1.0;11:00:16:376;0;10;-1.5;1;0.293255131964809;0;0;0;1;1;1;1;2;0;0;;0;0;();();(-2000.0, -2000.0);
11:00:16:392;11:00:16:333;1448057773.82;(0.5408645153045655, 0.6238284005059136);64.9884643555;1.0;11:00:16:392;0;15;-1.5;1;0.0977517106549365;0;0;0;1;1;1;1;2;0;0;;0;0;();();(-2000.0, -2000.0);
11:00:16:408;11:00:16:394;1448057773.86;(0.5407764911651611, 0.6240343305799696);64.9656448364;1.0;11:00:16:408;0;10;-1.5;1;0.0977517106549365;0;0;0;1;1;1;1;2;0;0;;0;0;();();(-2000.0, -2000.0);
11:00:16:442;11:00:16:394;1448057773.86;(0.5407764911651611, 0.6240343305799696);64.9656448364;1.0;11:00:16:442;0;9;-1.5;1;0.293255131964809;0;0;0;1;1;1;1;2;0;0;;0;0;();();(-2000.0, -2000.0);
11:00:16:460;11:00:16:394;1448057773.86;(0.5407764911651611, 0.6240343305799696);64.9656448364;1.0;11:00:16:460;0;5;-1.5;1;0.293255131964809;0;0;0;1;1;1;1;2;0;0;;0;0;();();(-2000.0, -2000.0);
11:00:16:475;11:00:16:463;1448057773.96;(0.5400199890136719, 0.6258872985839844);64.4870376587;1.0;11:00:16:475;0;4;-1.5;1;0.0977517106549365;0;0;0;1;1;1;1;2;0;0;;0;0;();();(-2000.0, -2000.0);
11:00:16:493;11:00:16:463;1448057773.96;(0.5400199890136719, 0.6258872985839844);64.4870376587;1.0;11:00:16:493;0;15;-1.5;1;0.293255131964809;0;0;0;1;1;1;1;2;0;0;;0;0;();();(-2000.0, -2000.0);
11:00:16:509;11:00:16:463;1448057773.96;(0.5400199890136719, 0.6258872985839844);64.4870376587;1.0;11:00:16:509;0;15;-1.5;1;0.293255131964809;0;0;0;1;1;1;1;2;0;0;;0;0;();();(-2000.0, -2000.0);
11:00:16:541;11:00:16:530;1448057774.02;(0.5420161724090576, 0.6245893902248807);65.0612716675;1.0;11:00:16:541;0;4;-1.5;1;0.0977517106549365;0;0;0;1;1;1;1;2;0;0;;0;0;();();(-2000.0, -2000.0);
11:00:16:559;11:00:16:530;1448057774.02;(0.5420161724090576, 0.6245893902248807);65.0612716675;1.0;11:00:16:559;0;15;-1.5;1;0.293255131964809;0;0;0;1;1;1;1;2;0;0;;0;0;();();(-2000.0, -2000.0);
11:00:16:574;11:00:16:530;1448057774.02;(0.5420161724090576, 0.6245893902248807);65.0612716675;1.0;11:00:16:574;0;4;-1.5;1;0.293255131964809;0;0;0;1;1;1;1;2;0;0;;0;0;();();(-2000.0, -2000.0);
11:00:16:592;11:00:16:530;1448057774.02;(0.5420161724090576, 0.6245893902248807);65.0612716675;1.0;11:00:16:592;0;15;-1.5;1;0.293255131964809;0;0;0;1;1;1;1;2;0;0;;0;0;();();(-2000.0, -2000.0);
11:00:16:607;11:00:16:607;1448057774.09;(0.5414223194122314, 0.62665892706977);65.2107849121;1.0;11:00:16:607;0;5;-1.5;1;0.293255131964809;0;0;0;1;1;1;1;2;0;0;;0;0;();();(-2000.0, -2000.0);
11:00:16:640;11:00:16:607;1448057774.09;(0.5414223194122314, 0.62665892706977);65.2107849121;1.0;11:00:16:640;0;10;-1.5;1;0.0977517106549365;0;0;0;1;1;1;1;2;0;0;;0;0;();();(-2000.0, -2000.0);
11:00:16:657;11:00:16:607;1448057774.09;(0.5414223194122314, 0.62665892706977);65.2107849121;1.0;11:00:16:657;0;5;-1.5;1;0.293255131964809;0;0;0;1;1;1;1;2;0;0;;0;0;();();(-2000.0, -2000.0);
11:00:16:674;11:00:16:662;1448057774.16;(0.540355920791626, 0.628495619032118);65.239112854;1.0;11:00:16:674;0;5;-1.5;1;0.293255131964809;0;0;0;1;1;1;1;2;0;0;;0;0;();();(-2000.0, -2000.0);
11:00:16:690;11:00:16:662;1448057774.16;(0.540355920791626, 0.628495619032118);65.239112854;1.0;11:00:16:690;0;0;-1.5;1;0.293255131964809;0;0;0;1;1;1;1;2;0;0;;0;0;();();(-2000.0, -2000.0);
11:00:16:708;11:00:16:662;1448057774.16;(0.540355920791626, 0.628495619032118);65.239112854;1.0;11:00:16:708;0;5;-1.5;1;0.0977517106549365;0;0;0;1;1;1;1;2;0;0;;0;0;();();(-2000.0, -2000.0);
11:00:16:740;11:00:16:726;1448057774.22;(0.5391678810119629, 0.6302712546454536);64.9088745117;1.0;11:00:16:740;0;15;1.78064516129032;1;0.0977517106549365;0;0;0;1;1;1;1;2;0;0;;0;0;();();(-2000.0, -2000.0);
11:00:16:757;11:00:16:726;1448057774.22;(0.5391678810119629, 0.6302712546454536);64.9088745117;1.0;11:00:16:757;0;9;1.77741935483871;1;0.293255131964809;0;0;0;1;1;1;1;2;0;0;;0;0;();();(-2000.0, -2000.0);
11:00:16:774;11:00:16:726;1448057774.22;(0.5391678810119629, 0.6302712546454536);64.9088745117;1.0;11:00:16:774;0;5;1.77741935483871;1;0.293255131964809;0;0;0;1;1;1;1;2;0;0;;0;0;();();(-2000.0, -2000.0);
11:00:16:790;11:00:16:726;1448057774.22;(0.5391678810119629, 0.6302712546454536);64.9088745117;1.0;11:00:16:790;0;10;1.78064516129032;1;0.0977517106549365;0;0;0;1;1;1;1;2;0;0;;0;0;();();(-2000.0, -2000.0);
11:00:16:823;11:00:16:794;1448057774.29;(0.5383365631103516, 0.6321785185072157);64.6368026733;1.0;11:00:16:823;0;10;1.78064516129032;1;0.293255131964809;0;0;0;1;1;1;1;2;0;0;;0;0;();();(-2000.0, -2000.0);
11:00:16:840;11:00:16:794;1448057774.29;(0.5383365631103516, 0.6321785185072157);64.6368026733;1.0;11:00:16:840;0;4;1.78064516129032;1;0.293255131964809;0;0;0;1;1;1;1;2;0;0;;0;0;();();(-2000.0, -2000.0);
11:00:16:857;11:00:16:794;1448057774.29;(0.5383365631103516, 0.6321785185072157);64.6368026733;1.0;11:00:16:857;0;10;1.78064516129032;1;0.293255131964809;0;0;0;1;1;1;1;2;0;0;;0;0;();();(-2000.0, -2000.0);
11:00:16:873;11:00:16:862;1448057774.36;(0.5368738174438477, 0.6337535858154297);64.7174682617;1.0;11:00:16:873;0;15;1.78064516129032;1;0.293255131964809;0;0;0;1;1;1;1;2;0;0;;0;0;();();(-2000.0, -2000.0);
11:00:16:890;11:00:16:862;1448057774.36;(0.5368738174438477, 0.6337535858154297);64.7174682617;1.0;11:00:16:890;0;4;1.79032258064516;1;0.0977517106549365;0;0;0;1;1;1;1;2;0;0;;0;0;();();(-2000.0, -2000.0);
11:00:16:923;11:00:16:862;1448057774.36;(0.5368738174438477, 0.6337535858154297);64.7174682617;1.0;11:00:16:923;0;0;1.78064516129032;1;0.293255131964809;0;0;0;1;1;1;1;2;0;0;;0;0;();();(-2000.0, -2000.0);
11:00:16:939;11:00:16:926;1448057774.39;(0.5363714218139648, 0.634926160176595);64.5534667969;1.0;11:00:16:939;0;15;1.77741935483871;1;0.0977517106549365;0;0;0;1;1;1;1;2;0;0;;0;0;();();(-2000.0, -2000.0);
11:00:16:956;11:00:16:926;1448057774.39;(0.5363714218139648, 0.634926160176595);64.5534667969;1.0;11:00:16:956;0;11;1.78064516129032;1;0.293255131964809;0;0;0;1;1;1;1;2;0;0;;0;0;();();(-2000.0, -2000.0);
11:00:16:972;11:00:16:926;1448057774.39;(0.5363714218139648, 0.634926160176595);64.5534667969;1.0;11:00:16:972;0;15;1.78064516129032;1;0.293255131964809;0;0;0;1;1;1;1;2;0;0;;0;0;();();(-2000.0, -2000.0);
11:00:16:989;11:00:16:926;1448057774.39;(0.5363714218139648, 0.634926160176595);64.5534667969;1.0;11:00:16:989;0;4;1.78064516129032;1;0.293255131964809;0;0;0;1;1;1;1;2;0;0;;0;0;();();(-2000.0, -2000.0);
11:00:17:022;11:00:16:994;1448057774.46;(0.5358723640441895, 0.6365222295125326);64.8179855347;1.0;11:00:17:022;0;4;1.79032258064516;1;0.293255131964809;0;0;0;1;1;1;1;2;0;0;;0;0;();();(-2000.0, -2000.0);
11:00:17:039;11:00:16:994;1448057774.46;(0.5358723640441895, 0.6365222295125326);64.8179855347;1.0;11:00:17:039;0;2;1.78064516129032;1;0.0977517106549365;0;0;0;1;1;1;1;2;0;0;;0;0;();();(-2000.0, -2000.0);
11:00:17:055;11:00:16:994;1448057774.46;(0.5358723640441895, 0.6365222295125326);64.8179855347;1.0;11:00:17:055;0;4;1.78064516129032;1;0.0977517106549365;0;0;0;1;1;1;1;2;0;0;;0;0;();();(-2000.0, -2000.0);
11:00:17:072;11:00:17:058;1448057774.52;(0.5462646484375, 0.6326608233981662);63.6031608582;1.0;11:00:17:072;0;9;1.78064516129032;1;0.293255131964809;0;0;0;1;1;1;1;2;0;0;;0;0;();();(-2000.0, -2000.0);
11:00:17:088;11:00:17:058;1448057774.52;(0.5462646484375, 0.6326608233981662);63.6031608582;1.0;11:00:17:088;0;5;1.77741935483871;1;0.293255131964809;0;0;0;1;1;1;1;2;0;0;;0;0;();();(-2000.0, -2000.0);
11:00:17:121;11:00:17:058;1448057774.52;(0.5462646484375, 0.6326608233981662);63.6031608582;1.0;11:00:17:121;0;12;1.77741935483871;1;0.0977517106549365;0;0;0;1;1;1;1;2;0;0;;0;0;();();(-2000.0, -2000.0);
11:00:17:139;11:00:17:126;1448057774.62;(0.5450989723205566, 0.6349586910671658);63.3553619385;1.0;11:00:17:139;0;10;1.77741935483871;1;0.293255131964809;0;0;0;1;1;1;1;2;0;0;;0;0;();();(-2000.0, -2000.0);
11:00:17:154;11:00:17:126;1448057774.62;(0.5450989723205566, 0.6349586910671658);63.3553619385;1.0;11:00:17:154;0;4;1.78064516129032;1;0.293255131964809;0;0;0;1;1;1;1;2;0;0;;0;0;();();(-2000.0, -2000.0);
11:00:17:171;11:00:17:126;1448057774.62;(0.5450989723205566, 0.6349586910671658);63.3553619385;1.0;11:00:17:171;0;10;1.77741935483871;1;0.293255131964809;0;0;0;1;1;1;1;2;0;0;;0;0;();();(-2000.0, -2000.0);
11:00:17:187;11:00:17:126;1448057774.62;(0.5450989723205566, 0.6349586910671658);63.3553619385;1.0;11:00:17:187;0;14;1.78064516129032;1;0.293255131964809;0;0;0;1;1;1;1;2;0;0;;0;0;();();(-2000.0, -2000.0);
11:00:17:221;11:00:17:189;1448057774.69;(0.5443756580352783, 0.6362209531995986);63.087272644;1.0;11:00:17:221;0;14;1.76129032258065;1;0.293255131964809;0;0;0;1;1;1;1;2;0;0;;0;0;();();(-2000.0, -2000.0);
11:00:17:237;11:00:17:189;1448057774.69;(0.5443756580352783, 0.6362209531995986);63.087272644;1.0;11:00:17:237;0;10;1.78064516129032;1;0.0977517106549365;0;0;0;1;1;1;1;2;0;0;;0;0;();();(-2000.0, -2000.0);
11:00:17:255;11:00:17:189;1448057774.69;(0.5443756580352783, 0.6362209531995986);63.087272644;1.0;11:00:17:255;0;15;1.78064516129032;1;0.293255131964809;0;0;0;1;1;1;1;2;0;0;;0;0;();();(-2000.0, -2000.0);
11:00:17:271;11:00:17:258;1448057774.72;(0.5440571784973145, 0.6368499332004123);63.3161468506;1.0;11:00:17:271;0;10;1.77741935483871;1;0.0977517106549365;0;0;0;1;1;1;1;2;0;0;;0;0;();();(-2000.0, -2000.0);
11:00:17:288;11:00:17:258;1448057774.72;(0.5440571784973145, 0.6368499332004123);63.3161468506;1.0;11:00:17:288;0;15;1.77741935483871;1;0.293255131964809;0;0;0;1;1;1;1;2;0;0;;0;0;();();(-2000.0, -2000.0);
11:00:17:320;11:00:17:258;1448057774.72;(0.5440571784973145, 0.6368499332004123);63.3161468506;1.0;11:00:17:320;0;9;1.76129032258065;1;0.293255131964809;0;0;0;1;1;1;1;2;0;0;;0;0;();();(-2000.0, -2000.0);
11:00:17:337;11:00:17:328;1448057774.82;(0.5436708450317382, 0.6381651984320746);63.9517784119;1.0;11:00:17:337;0;4;1.77741935483871;1;0.293255131964809;0;0;0;1;1;1;1;2;0;0;;0;0;();();(-2000.0, -2000.0);
11:00:17:354;11:00:17:328;1448057774.82;(0.5436708450317382, 0.6381651984320746);63.9517784119;1.0;11:00:17:354;0;15;1.78064516129032;1;0.293255131964809;0;0;0;1;1;1;1;2;0;0;;0;0;();();(-2000.0, -2000.0);
11:00:17:370;11:00:17:328;1448057774.82;(0.5436708450317382, 0.6381651984320746);63.9517784119;1.0;11:00:17:370;0;4;1.78064516129032;1;0.293255131964809;0;0;0;1;1;1;1;2;0;0;;0;0;();();(-2000.0, -2000.0);
11:00:17:403;11:00:17:391;1448057774.86;(0.5436254501342773, 0.6386424382527669);64.1534500122;1.0;11:00:17:403;0;5;1.78064516129032;1;0.293255131964809;0;0;0;1;1;1;1;2;0;0;;0;0;();();(-2000.0, -2000.0);
11:00:17:420;11:00:17:391;1448057774.86;(0.5436254501342773, 0.6386424382527669);64.1534500122;1.0;11:00:17:420;0;9;1.78064516129032;1;0.0977517106549365;0;0;0;1;1;1;1;2;0;0;;0;0;();();(-2000.0, -2000.0);
11:00:17:437;11:00:17:391;1448057774.86;(0.5436254501342773, 0.6386424382527669);64.1534500122;1.0;11:00:17:437;0;4;1.77741935483871;1;0.293255131964809;0;0;0;1;1;1;1;2;0;0;;0;0;();();(-2000.0, -2000.0);
11:00:17:454;11:00:17:391;1448057774.86;(0.5436254501342773, 0.6386424382527669);64.1534500122;1.0;11:00:17:454;0;15;1.77741935483871;1;0.293255131964809;0;0;0;1;1;1;1;2;0;0;;0;0;();();(-2000.0, -2000.0);
11:00:17:469;11:00:17:391;1448057774.86;(0.5436254501342773, 0.6386424382527669);64.1534500122;1.0;11:00:17:469;0;9;1.78064516129032;1;0.293255131964809;0;0;0;1;1;1;1;2;0;0;;0;0;();();(-2000.0, -2000.0);
11:00:17:503;11:00:17:391;1448057774.86;(0.5436254501342773, 0.6386424382527669);64.1534500122;1.0;11:00:17:503;0;4;1.78064516129032;1;0.293255131964809;0;0;0;1;1;1;1;2;0;0;;0;0;();();(-2000.0, -2000.0);
11:00:17:519;11:00:17:391;1448057774.86;(0.5436254501342773, 0.6386424382527669);64.1534500122;1.0;11:00:17:519;0;10;1.78064516129032;1;0.293255131964809;0;0;0;1;1;1;1;2;0;0;;0;0;();();(-2000.0, -2000.0);
11:00:17:536;11:00:17:391;1448057774.86;(0.5436254501342773, 0.6386424382527669);64.1534500122;1.0;11:00:17:536;0;4;1.78064516129032;1;0.293255131964809;0;0;0;1;1;1;1;2;0;0;;0;0;();();(-2000.0, -2000.0);
11:00:17:553;11:00:17:391;1448057774.86;(0.5436254501342773, 0.6386424382527669);64.1534500122;1.0;11:00:17:553;0;15;1.78064516129032;1;0.0977517106549365;0;0;0;1;1;1;1;2;0;0;;0;0;();();(-2000.0, -2000.0);
11:00:17:568;11:00:17:391;1448057774.86;(0.5436254501342773, 0.6386424382527669);64.1534500122;1.0;11:00:17:568;0;5;1.78064516129032;1;0.293255131964809;0;0;0;1;1;1;1;2;0;0;;0;0;();();(-2000.0, -2000.0);
11:00:17:602;11:00:17:591;1448057775.09;(0.5305953025817871, 0.6454203499688043);65.8417205811;1.0;11:00:17:602;0;7;1.78064516129032;1;0.293255131964809;0;0;0;1;1;1;1;2;0;0;;0;0;();();(-2000.0, -2000.0);
11:00:17:619;11:00:17:591;1448057775.09;(0.5305953025817871, 0.6454203499688043);65.8417205811;1.0;11:00:17:619;0;10;1.78064516129032;1;0.293255131964809;0;0;0;1;1;1;1;2;0;0;;0;0;();();(-2000.0, -2000.0);
11:00:17:636;11:00:17:591;1448057775.09;(0.5305953025817871, 0.6454203499688043);65.8417205811;1.0;11:00:17:636;0;0;1.77741935483871;1;0.293255131964809;0;0;0;1;1;1;1;2;0;0;;0;0;();();(-2000.0, -2000.0);
11:00:17:652;11:00:17:591;1448057775.09;(0.5305953025817871, 0.6454203499688043);65.8417205811;1.0;11:00:17:652;0;10;1.78064516129032;1;0.0977517106549365;0;0;0;1;1;1;1;2;0;0;;0;0;();();(-2000.0, -2000.0);
11:00:17:669;11:00:17:658;1448057775.12;(0.5307912349700927, 0.6456940756903755);65.5193252563;1.0;11:00:17:669;0;15;1.79032258064516;1;0.293255131964809;0;0;0;1;1;1;1;2;0;0;;0;0;();();(-2000.0, -2000.0);
11:00:17:702;11:00:17:658;1448057775.12;(0.5307912349700927, 0.6456940756903755);65.5193252563;1.0;11:00:17:702;0;15;1.78064516129032;1;0.0977517106549365;0;0;0;1;1;1;1;2;0;0;;0;0;();();(-2000.0, -2000.0);
11:00:17:718;11:00:17:658;1448057775.12;(0.5307912349700927, 0.6456940756903755);65.5193252563;1.0;11:00:17:718;0;10;1.78064516129032;1;0.293255131964809;0;0;0;1;1;1;1;2;0;0;;0;0;();();(-2000.0, -2000.0);
11:00:17:735;11:00:17:722;1448057775.19;(0.5309637546539306, 0.6457763036092122);65.5945510864;1.0;11:00:17:735;0;5;1.79032258064516;1;0.0977517106549365;0;0;0;1;1;1;1;2;0;0;;0;0;();();(-2000.0, -2000.0);
11:00:17:752;11:00:17:722;1448057775.19;(0.5309637546539306, 0.6457763036092122);65.5945510864;1.0;11:00:17:752;0;10;1.78064516129032;1;0.293255131964809;0;0;0;1;1;1;1;2;0;0;;0;0;();();(-2000.0, -2000.0);
11:00:17:767;11:00:17:722;1448057775.19;(0.5309637546539306, 0.6457763036092122);65.5945510864;1.0;11:00:17:767;0;15;1.78064516129032;1;0.293255131964809;0;0;0;1;1;1;1;2;0;0;;0;0;();();(-2000.0, -2000.0);
11:00:17:800;11:00:17:790;1448057775.29;(0.531346607208252, 0.6458738538953993);65.3558197021;1.0;11:00:17:800;0;0;0.27741935483871;1;0.293255131964809;0;0;0;1;1;1;1;2;0;0;;0;0;();();(-2000.0, -2000.0);
11:00:17:818;11:00:17:790;1448057775.29;(0.531346607208252, 0.6458738538953993);65.3558197021;1.0;11:00:17:818;0;4;1.79032258064516;1;0.0977517106549365;0;0;0;1;1;1;1;2;0;0;;0;0;();();(-2000.0, -2000.0);
11:00:17:835;11:00:17:790;1448057775.29;(0.531346607208252, 0.6458738538953993);65.3558197021;1.0;11:00:17:835;0;15;1.78064516129032;1;0.293255131964809;0;0;0;1;1;1;1;2;0;0;;0;0;();();(-2000.0, -2000.0);
11:00:17:851;11:00:17:790;1448057775.29;(0.531346607208252, 0.6458738538953993);65.3558197021;1.0;11:00:17:851;0;4;1.78064516129032;1;0.293255131964809;0;0;0;1;1;1;1;2;0;0;;0;0;();();(-2000.0, -2000.0);
11:00:17:868;11:00:17:854;1448057775.32;(0.5313161849975586, 0.6465023888481988);65.3094406128;1.0;11:00:17:868;0;9;1.78064516129032;1;0.293255131964809;0;0;0;1;1;1;1;2;0;0;;0;0;();();(-2000.0, -2000.0);
11:00:17:900;11:00:17:854;1448057775.32;(0.5313161849975586, 0.6465023888481988);65.3094406128;1.0;11:00:17:900;0;15;1.77741935483871;1;0.0977517106549365;0;0;0;1;1;1;1;2;0;0;;0;0;();();(-2000.0, -2000.0);
11:00:17:917;11:00:17:854;1448057775.32;(0.5313161849975586, 0.6465023888481988);65.3094406128;1.0;11:00:17:917;0;10;1.78064516129032;1;0.293255131964809;0;0;0;1;1;1;1;2;0;0;;0;0;();();(-2000.0, -2000.0);
11:00:17:934;11:00:17:922;1448057775.39;(0.5317804336547851, 0.6459126154581706);65.0243988037;1.0;11:00:17:934;0;14;1.78064516129032;1;0.0977517106549365;0;0;0;1;1;1;1;2;0;0;;0;0;();();(-2000.0, -2000.0);
11:00:17:950;11:00:17:922;1448057775.39;(0.5317804336547851, 0.6459126154581706);65.0243988037;1.0;11:00:17:950;0;4;1.76129032258065;1;0.0977517106549365;0;0;0;1;1;1;1;2;0;0;;0;0;();();(-2000.0, -2000.0);
11:00:17:984;11:00:17:922;1448057775.39;(0.5317804336547851, 0.6459126154581706);65.0243988037;1.0;11:00:17:984;0;4;0.538709677419355;1;0.293255131964809;0;0;0;1;1;1;1;2;0;0;;0;0;();();(-2000.0, -2000.0);
11:00:17:999;11:00:17:991;1448057775.46;(0.5210341453552246, 0.6499825159708659);65.1048812866;0.996269322652;11:00:17:999;0;9;1.77741935483871;1;0.0977517106549365;0;0;0;1;1;1;1;2;0;0;;0;0;();();(-2000.0, -2000.0);
11:00:18:017;11:00:17:991;1448057775.46;(0.5210341453552246, 0.6499825159708659);65.1048812866;0.996269322652;11:00:18:017;0;4;1.78064516129032;1;0.0977517106549365;0;0;0;1;1;1;1;2;0;0;;0;0;();();(-2000.0, -2000.0);
11:00:18:034;11:00:17:991;1448057775.46;(0.5210341453552246, 0.6499825159708659);65.1048812866;0.996269322652;11:00:18:034;0;10;1.78064516129032;1;0.293255131964809;0;0;0;1;1;1;1;2;0;0;;0;0;();();(-2000.0, -2000.0);
11:00:18:049;11:00:17:991;1448057775.46;(0.5210341453552246, 0.6499825159708659);65.1048812866;0.996269322652;11:00:18:049;0;5;1.78064516129032;1;0.0977517106549365;0;0;0;1;1;1;1;2;0;0;;0;0;();();(-2000.0, -2000.0);
11:00:18:082;11:00:18:055;1448057775.52;(0.5217031002044678, 0.6503839916653104);65.2294311523;1.0;11:00:18:082;0;4;1.77741935483871;1;0.0977517106549365;0;0;0;1;1;1;1;2;0;0;;0;0;();();(-2000.0, -2000.0);
11:00:18:099;11:00:18:055;1448057775.52;(0.5217031002044678, 0.6503839916653104);65.2294311523;1.0;11:00:18:099;0;10;1.69354838709677;1;0.293255131964809;0;0;0;1;1;1;1;2;0;0;;0;0;();();(-2000.0, -2000.0);
11:00:18:116;11:00:18:055;1448057775.52;(0.5217031002044678, 0.6503839916653104);65.2294311523;1.0;11:00:18:116;0;4;1.26129032258065;1;0.0977517106549365;0;0;0;1;1;1;1;2;0;0;;0;0;();();(-2000.0, -2000.0);
11:00:18:132;11:00:18:123;1448057775.59;(0.5217905044555664, 0.6509925842285156);65.6406097412;1.0;11:00:18:132;0;10;0.229032258064516;1;0.293255131964809;0;0;0;1;1;1;1;2;0;0;;0;0;();();(-2000.0, -2000.0);
11:00:18:149;11:00:18:123;1448057775.59;(0.5217905044555664, 0.6509925842285156);65.6406097412;1.0;11:00:18:149;0;5;1.78064516129032;1;0.0977517106549365;0;0;0;1;1;1;1;2;0;0;;0;0;();();(-2000.0, -2000.0);
11:00:18:182;11:00:18:123;1448057775.59;(0.5217905044555664, 0.6509925842285156);65.6406097412;1.0;11:00:18:182;0;4;-1.5;1;0.293255131964809;0;0;0;1;1;1;1;2;0;0;;0;0;();();(-2000.0, -2000.0);
11:00:18:198;11:00:18:187;1448057775.66;(0.5222901344299317, 0.6508773379855686);65.2806472778;1.0;11:00:18:198;0;9;1;1;0.0977517106549365;0;0;0;1;1;1;1;2;0;0;;0;0;();();(-2000.0, -2000.0);
11:00:18:215;11:00:18:187;1448057775.66;(0.5222901344299317, 0.6508773379855686);65.2806472778;1.0;11:00:18:215;0;15;1.77741935483871;1;0.293255131964809;0;0;0;1;1;1;1;2;0;0;;0;0;();();(-2000.0, -2000.0);
11:00:18:232;11:00:18:187;1448057775.66;(0.5222901344299317, 0.6508773379855686);65.2806472778;1.0;11:00:18:232;0;4;1.78064516129032;1;0.293255131964809;0;0;0;1;1;1;1;2;0;0;;0;0;();();(-2000.0, -2000.0);
11:00:18:248;11:00:18:187;1448057775.66;(0.5222901344299317, 0.6508773379855686);65.2806472778;1.0;11:00:18:248;0;15;-0.106451612903226;1;0.293255131964809;0;0;0;1;1;1;1;2;0;0;;0;0;();();(-2000.0, -2000.0);
11:00:18:281;11:00:18:260;1448057775.72;(0.522317361831665, 0.6510373221503364);65.7287597656;1.0;11:00:18:281;0;15;1.79032258064516;1;0.293255131964809;0;0;0;1;1;1;1;2;0;0;;0;0;();();(-2000.0, -2000.0);
11:00:18:298;11:00:18:260;1448057775.72;(0.522317361831665, 0.6510373221503364);65.7287597656;1.0;11:00:18:298;0;5;-0.161290322580645;1;0.0977517106549365;0;0;0;1;1;1;1;2;0;0;;0;0;();();(-2000.0, -2000.0);
11:00:18:314;11:00:18:260;1448057775.72;(0.522317361831665, 0.6510373221503364);65.7287597656;1.0;11:00:18:314;0;15;-1.13548387096774;1;0.0977517106549365;0;0;0;1;1;1;1;2;0;0;;0;0;();();(-2000.0, -2000.0);
11:00:18:331;11:00:18:323;1448057775.79;(0.5228078365325928, 0.651063495212131);65.1838912964;1.0;11:00:18:331;0;4;0.977419354838709;1;0.293255131964809;0;0;0;1;1;1;1;2;0;0;;0;0;();();(-2000.0, -2000.0);
11:00:18:348;11:00:18:323;1448057775.79;(0.5228078365325928, 0.651063495212131);65.1838912964;1.0;11:00:18:348;0;15;0.0870967741935482;1;0.0977517106549365;0;0;0;1;1;1;1;2;0;0;;0;0;();();(-2000.0, -2000.0);
11:00:18:380;11:00:18:323;1448057775.79;(0.5228078365325928, 0.651063495212131);65.1838912964;1.0;11:00:18:380;0;15;0.977419354838709;1;0.0977517106549365;0;0;0;1;1;1;1;2;0;0;;0;0;();();(-2000.0, -2000.0);
11:00:18:397;11:00:18:387;1448057775.86;(0.5228818893432617, 0.6509727054172092);64.9532546997;1.0;11:00:18:397;0;4;1.59677419354839;1;0.293255131964809;0;0;0;1;1;1;1;2;0;0;;0;0;();();(-2000.0, -2000.0);
11:00:18:414;11:00:18:387;1448057775.86;(0.5228818893432617, 0.6509727054172092);64.9532546997;1.0;11:00:18:414;0;10;0.316129032258064;1;0.0977517106549365;0;0;0;1;1;1;1;2;0;0;;0;0;();();(-2000.0, -2000.0);
11:00:18:431;11:00:18:387;1448057775.86;(0.5228818893432617, 0.6509727054172092);64.9532546997;1.0;11:00:18:431;0;5;-0.312903225806452;1;0.0977517106549365;0;0;0;1;1;1;1;2;0;0;;0;0;();();(-2000.0, -2000.0);
11:00:18:448;11:00:18:387;1448057775.86;(0.5228818893432617, 0.6509727054172092);64.9532546997;1.0;11:00:18:448;0;15;0.480645161290322;1;0.293255131964809;0;0;0;1;1;1;1;2;0;0;;0;0;();();(-2000.0, -2000.0);
11:00:18:480;11:00:18:454;1448057775.92;(0.5228362560272217, 0.6510754691229926);64.2679290771;1.0;11:00:18:480;0;0;-0.2;1;0.293255131964809;0;0;0;1;1;1;1;2;0;0;;0;0;();();(-2000.0, -2000.0);
11:00:18:497;11:00:18:454;1448057775.92;(0.5228362560272217, 0.6510754691229926);64.2679290771;1.0;11:00:18:497;0;4;0.27741935483871;1;0.0977517106549365;0;0;0;1;1;1;1;2;0;0;;0;0;();();(-2000.0, -2000.0);
11:00:18:513;11:00:18:454;1448057775.92;(0.5228362560272217, 0.6510754691229926);64.2679290771;1.0;11:00:18:513;0;10;0.896774193548387;1;0.293255131964809;0;0;0;1;1;1;1;2;0;0;;0;0;();();(-2000.0, -2000.0);
11:00:18:530;11:00:18:519;1448057775.99;(0.5232625961303711, 0.6511312060885959);63.742980957;1.0;11:00:18:530;0;5;0.645161290322581;1;0.0977517106549365;0;0;0;1;1;1;1;2;0;0;;0;0;();();(-2000.0, -2000.0);
11:00:18:567;11:00:18:519;1448057775.99;(0.5232625961303711, 0.6511312060885959);63.742980957;1.0;11:00:18:567;0;15;0.419354838709677;1;0.293255131964809;0;0;0;1;1;1;1;4;0;0;;0;0;();();(-2000.0, -2000.0);
11:00:18:579;11:00:18:519;1448057775.99;(0.5232625961303711, 0.6511312060885959);63.742980957;1.0;11:00:18:579;0;10;0.125806451612903;1;0.0977517106549365;0;0;0;1;1;1;1;4;0;0;;0;0;();();(-2000.0, -2000.0);
11:00:18:597;11:00:18:587;1448057776.06;(0.5230412483215332, 0.650983789232042);63.9167671204;1.0;11:00:18:597;0;10;0.125806451612903;1;0.0977517106549365;0;0;0;1;1;1;1;4;0;0;;0;0;();();(-2000.0, -2000.0);
11:00:18:613;11:00:18:587;1448057776.06;(0.5230412483215332, 0.650983789232042);63.9167671204;1.0;11:00:18:613;0;10;0.587096774193548;1;0.0977517106549365;0;0;0;1;1;1;1;4;0;0;;0;0;();();(-2000.0, -2000.0);
11:00:18:629;11:00:18:587;1448057776.06;(0.5230412483215332, 0.650983789232042);63.9167671204;1.0;11:00:18:629;0;15;0.174193548387097;1;0.293255131964809;0;0;0;1;1;1;1;4;0;0;;0;0;();();(-2000.0, -2000.0);
11:00:18:662;11:00:18:654;1448057776.09;(0.5270749568939209, 0.6494812859429253);63.5702705383;1.0;11:00:18:662;0;4;1.13548387096774;1;0.0977517106549365;0;0;0;1;1;1;1;4;0;0;;0;0;();();(-2000.0, -2000.0);
11:00:18:679;11:00:18:654;1448057776.09;(0.5270749568939209, 0.6494812859429253);63.5702705383;1.0;11:00:18:679;0;4;0.406451612903226;1;0.293255131964809;0;0;0;1;1;1;1;4;0;0;;0;0;();();(-2000.0, -2000.0);
11:00:18:696;11:00:18:654;1448057776.09;(0.5270749568939209, 0.6494812859429253);63.5702705383;1.0;11:00:18:696;0;5;0.380645161290323;1;0.293255131964809;0;0;0;1;1;1;1;4;0;0;;0;0;();();(-2000.0, -2000.0);
11:00:18:712;11:00:18:654;1448057776.09;(0.5270749568939209, 0.6494812859429253);63.5702705383;1.0;11:00:18:712;0;10;-0.987096774193548;1;0.293255131964809;0;0;0;1;1;1;1;4;0;0;;0;0;();();(-2000.0, -2000.0);
11:00:18:728;11:00:18:718;1448057776.19;(0.5147425651550293, 0.6534468332926433);63.8259735107;1.0;11:00:18:728;0;15;1.07741935483871;1;0.0977517106549365;0;0;0;1;1;1;1;4;0;0;;0;0;();();(-2000.0, -2000.0);
11:00:18:761;11:00:18:718;1448057776.19;(0.5147425651550293, 0.6534468332926433);63.8259735107;1.0;11:00:18:761;0;4;-0.303225806451613;1;0.293255131964809;0;0;0;1;1;1;1;4;0;0;;0;0;();();(-2000.0, -2000.0);
11:00:18:779;11:00:18:718;1448057776.19;(0.5147425651550293, 0.6534468332926433);63.8259735107;1.0;11:00:18:779;0;10;-0.406451612903226;1;0.0977517106549365;0;0;0;1;1;1;1;4;0;0;;0;0;();();(-2000.0, -2000.0);
11:00:18:794;11:00:18:786;1448057776.26;(0.5147243976593018, 0.6542888853285047);64.0128173828;1.0;11:00:18:794;0;15;-0.238709677419355;1;0.293255131964809;0;0;0;1;1;1;1;4;0;0;;0;0;();();(-2000.0, -2000.0);
11:00:18:811;11:00:18:786;1448057776.26;(0.5147243976593018, 0.6542888853285047);64.0128173828;1.0;11:00:18:811;0;10;-0.096774193548387;1;0.0977517106549365;0;0;0;1;1;1;1;4;0;0;;0;0;();();(-2000.0, -2000.0);
11:00:18:828;11:00:18:786;1448057776.26;(0.5147243976593018, 0.6542888853285047);64.0128173828;1.0;11:00:18:828;0;15;-0.593548387096774;1;0.293255131964809;0;0;0;1;1;1;1;4;0;0;;0;0;();();(-2000.0, -2000.0);
11:00:18:862;11:00:18:850;1448057776.32;(0.5147908687591553, 0.6545548968844943);64.4680786133;1.0;11:00:18:862;0;0;0.0419354838709676;1;0.293255131964809;0;0;0;1;1;1;1;4;0;0;;0;0;();();(-2000.0, -2000.0);
11:00:18:879;11:00:18:850;1448057776.32;(0.5147908687591553, 0.6545548968844943);64.4680786133;1.0;11:00:18:879;0;15;-0.241935483870968;1;0.0977517106549365;0;0;0;1;1;1;1;4;0;0;;0;0;();();(-2000.0, -2000.0);
11:00:18:894;11:00:18:850;1448057776.32;(0.5147908687591553, 0.6545548968844943);64.4680786133;1.0;11:00:18:894;0;10;-0.22258064516129;1;0.293255131964809;0;0;0;1;1;1;1;4;0;0;;0;0;();();(-2000.0, -2000.0);
11:00:18:911;11:00:18:850;1448057776.32;(0.5147908687591553, 0.6545548968844943);64.4680786133;1.0;11:00:18:911;0;5;-0.0806451612903225;1;0.0977517106549365;0;0;0;1;1;1;1;4;0;0;;0;0;();();(-2000.0, -2000.0);
11:00:18:928;11:00:18:918;1448057776.39;(0.5152265548706054, 0.6542411804199219);64.8408813477;1.0;11:00:18:928;0;10;-0.574193548387097;1;0.293255131964809;0;0;0;1;1;1;1;4;0;0;;0;0;();();(-2000.0, -2000.0);
11:00:18:961;11:00:18:918;1448057776.39;(0.5152265548706054, 0.6542411804199219);64.8408813477;1.0;11:00:18:961;0;15;-0.00645161290322593;1;0.0977517106549365;0;0;0;1;1;1;1;4;0;0;;0;0;();();(-2000.0, -2000.0);
11:00:18:977;11:00:18:918;1448057776.39;(0.5152265548706054, 0.6542411804199219);64.8408813477;1.0;11:00:18:977;0;4;-1.5;1;0.293255131964809;0;0;0;1;1;1;1;4;0;0;;0;0;();();(-2000.0, -2000.0);
11:00:18:994;11:00:18:986;1448057776.46;(0.5155656814575196, 0.6545739067925347);64.7019119263;1.0;11:00:18:994;0;9;-0.354838709677419;1;0.0977517106549365;0;0;0;1;1;1;1;4;0;0;;0;0;();();(-2000.0, -2000.0);
11:00:19:011;11:00:18:986;1448057776.46;(0.5155656814575196, 0.6545739067925347);64.7019119263;1.0;11:00:19:011;0;8;-0.987096774193548;1;0.293255131964809;0;0;0;1;1;1;1;4;0;0;;0;0;();();(-2000.0, -2000.0);
11:00:19:044;11:00:18:986;1448057776.46;(0.5155656814575196, 0.6545739067925347);64.7019119263;1.0;11:00:19:044;0;4;1.72258064516129;1;0.0977517106549365;0;0;0;1;1;1;1;4;0;0;;0;0;();();(-2000.0, -2000.0);
11:00:19:060;11:00:19:053;1448057776.52;(0.5157097339630127, 0.6543335384792752);64.5668792725;1.0;11:00:19:060;0;9;0.641935483870967;1;0.293255131964809;0;0;0;1;1;1;1;4;0;0;;0;0;();();(-2000.0, -2000.0);
11:00:19:077;11:00:19:053;1448057776.52;(0.5157097339630127, 0.6543335384792752);64.5668792725;1.0;11:00:19:077;0;4;1.05483870967742;1;0.0977517106549365;0;0;0;1;1;1;1;4;0;0;;0;0;();();(-2000.0, -2000.0);
11:00:19:093;11:00:19:053;1448057776.52;(0.5157097339630127, 0.6543335384792752);64.5668792725;1.0;11:00:19:093;0;10;0.612903225806452;1;0.293255131964809;0;0;0;1;1;1;1;4;0;0;;0;0;();();(-2000.0, -2000.0);
11:00:19:110;11:00:19:053;1448057776.52;(0.5157097339630127, 0.6543335384792752);64.5668792725;1.0;11:00:19:110;0;15;1.77741935483871;1;0.0977517106549365;0;0;0;1;1;1;1;4;0;0;;0;0;();();(-2000.0, -2000.0);
11:00:19:143;11:00:19:118;1448057776.59;(0.5159188747406006, 0.6545872582329644);64.4593658447;1.0;11:00:19:143;0;4;1.6;1;0.293255131964809;0;0;0;1;1;1;1;4;0;0;;0;0;();();(-2000.0, -2000.0);
11:00:19:159;11:00:19:118;1448057776.59;(0.5159188747406006, 0.6545872582329644);64.4593658447;1.0;11:00:19:159;0;9;1.77741935483871;1;0.0977517106549365;0;0;0;1;1;1;1;4;0;0;;0;0;();();(-2000.0, -2000.0);
11:00:19:176;11:00:19:118;1448057776.59;(0.5159188747406006, 0.6545872582329644);64.4593658447;1.0;11:00:19:176;0;15;1.26129032258065;1;0.293255131964809;0;0;0;1;1;1;1;4;0;0;;0;0;();();(-2000.0, -2000.0);
11:00:19:193;11:00:19:182;1448057776.66;(0.5158607482910156, 0.6548275629679362);63.847743988;1.0;11:00:19:193;0;10;1.4;1;0.293255131964809;0;0;0;1;1;1;1;4;0;0;;0;0;();();(-2000.0, -2000.0);
11:00:19:208;11:00:19:182;1448057776.66;(0.5158607482910156, 0.6548275629679362);63.847743988;1.0;11:00:19:208;0;10;1.4;1;0.293255131964809;0;0;0;1;1;1;1;4;0;0;;0;0;();();(-2000.0, -2000.0);
11:00:19:242;11:00:19:182;1448057776.66;(0.5158607482910156, 0.6548275629679362);63.847743988;1.0;11:00:19:242;0;15;1.6741935483871;1;0.293255131964809;0;0;0;1;1;1;1;4;0;0;;0;0;();();(-2000.0, -2000.0);
11:00:19:259;11:00:19:250;1448057776.72;(0.5158802032470703, 0.6549278471204969);63.9523239136;1.0;11:00:19:259;0;10;1.22903225806452;1;0.0977517106549365;0;0;0;1;1;1;1;4;0;0;;0;0;();();(-2000.0, -2000.0);
11:00:19:276;11:00:19:250;1448057776.72;(0.5158802032470703, 0.6549278471204969);63.9523239136;1.0;11:00:19:276;0;15;1.15806451612903;1;0.0977517106549365;0;0;0;1;1;1;1;4;0;0;;0;0;();();(-2000.0, -2000.0);
11:00:19:291;11:00:19:250;1448057776.72;(0.5158802032470703, 0.6549278471204969);63.9523239136;1.0;11:00:19:291;0;4;0.819354838709677;1;0.0977517106549365;0;0;0;1;1;1;1;4;0;0;;0;0;();();(-2000.0, -2000.0);
11:00:19:308;11:00:19:250;1448057776.72;(0.5158802032470703, 0.6549278471204969);63.9523239136;1.0;11:00:19:308;0;15;0.380645161290323;1;0.0977517106549365;0;0;0;1;1;1;1;4;0;0;;0;0;();();(-2000.0, -2000.0);
11:00:19:341;11:00:19:318;1448057776.79;(0.5268545627593995, 0.6515377468532986);63.6050758362;0.898813365692;11:00:19:341;0;10;0.403225806451613;1;0.0977517106549365;0;0;0;1;1;1;1;4;0;0;;0;0;();();(-2000.0, -2000.0);
11:00:19:358;11:00:19:318;1448057776.79;(0.5268545627593995, 0.6515377468532986);63.6050758362;0.898813365692;11:00:19:358;0;5;0.309677419354839;1;0.293255131964809;0;0;0;1;1;1;1;4;0;0;;0;0;();();(-2000.0, -2000.0);
11:00:19:375;11:00:19:318;1448057776.79;(0.5268545627593995, 0.6515377468532986);63.6050758362;0.898813365692;11:00:19:375;0;10;0.464516129032258;1;0.0977517106549365;0;0;0;1;1;1;1;4;0;0;;0;0;();();(-2000.0, -2000.0);
11:00:19:391;11:00:19:382;1448057776.86;(0.5271811485290527, 0.6515353732638889);62.99792099;1.0;11:00:19:391;0;10;0.464516129032258;1;0.0977517106549365;0;0;0;1;1;1;1;4;0;0;;0;0;();();(-2000.0, -2000.0);
11:00:19:408;11:00:19:382;1448057776.86;(0.5271811485290527, 0.6515353732638889);62.99792099;1.0;11:00:19:408;0;15;-1.5;1;0.293255131964809;0;0;0;1;1;1;1;4;0;0;;0;0;();();(-2000.0, -2000.0);
11:00:19:441;11:00:19:382;1448057776.86;(0.5271811485290527, 0.6515353732638889);62.99792099;1.0;11:00:19:441;0;10;1.72903225806452;1;0.0977517106549365;0;0;0;1;1;1;1;4;0;0;;0;0;();();(-2000.0, -2000.0);
11:00:19:458;11:00:19:450;1448057776.92;(0.5272636890411377, 0.6519628736707899);62.9245033264;1.0;11:00:19:458;0;4;1.49032258064516;1;0.0977517106549365;0;0;0;1;1;1;1;4;0;0;;0;0;();();(-2000.0, -2000.0);
11:00:19:475;11:00:19:450;1448057776.92;(0.5272636890411377, 0.6519628736707899);62.9245033264;1.0;11:00:19:475;0;9;1.77741935483871;1;0.293255131964809;0;0;0;1;1;1;1;4;0;0;;0;0;();();(-2000.0, -2000.0);
11:00:19:490;11:00:19:450;1448057776.92;(0.5272636890411377, 0.6519628736707899);62.9245033264;1.0;11:00:19:490;0;5;1.1;1;0.293255131964809;0;0;0;1;1;1;1;4;0;0;;0;0;();();(-2000.0, -2000.0);
11:00:19:524;11:00:19:515;1448057776.99;(0.52766432762146, 0.6525072945488823);63.5156097412;1.0;11:00:19:524;0;14;1.77741935483871;1;0.0977517106549365;0;0;0;1;1;1;1;4;0;0;;0;0;();();(-2000.0, -2000.0);
11:00:19:540;11:00:19:515;1448057776.99;(0.52766432762146, 0.6525072945488823);63.5156097412;1.0;11:00:19:540;0;15;1.78064516129032;1;0.0977517106549365;0;0;0;1;1;1;1;4;0;0;;0;0;();();(-2000.0, -2000.0);
11:00:19:557;11:00:19:515;1448057776.99;(0.52766432762146, 0.6525072945488823);63.5156097412;1.0;11:00:19:557;0;4;1.06774193548387;1;0.293255131964809;0;0;0;1;1;1;1;4;0;0;;0;0;();();(-2000.0, -2000.0);
11:00:19:573;11:00:19:515;1448057776.99;(0.52766432762146, 0.6525072945488823);63.5156097412;1.0;11:00:19:573;0;10;1.77741935483871;1;0.293255131964809;0;0;0;1;1;1;1;4;0;0;;0;0;();();(-2000.0, -2000.0);
11:00:19:590;11:00:19:582;1448057777.06;(0.5276550769805908, 0.652300198872884);63.5433425903;1.0;11:00:19:590;0;5;1.34838709677419;1;0.293255131964809;0;0;0;1;1;1;1;4;0;0;;0;0;();();(-2000.0, -2000.0);
11:00:19:623;11:00:19:582;1448057777.06;(0.5276550769805908, 0.652300198872884);63.5433425903;1.0;11:00:19:623;0;15;1.01612903225806;1;0.293255131964809;0;0;0;1;1;1;1;4;0;0;;0;0;();();(-2000.0, -2000.0);
11:00:19:640;11:00:19:582;1448057777.06;(0.5276550769805908, 0.652300198872884);63.5433425903;1.0;11:00:19:640;0;10;1.34838709677419;1;0.293255131964809;0;0;0;1;1;1;1;4;0;0;;0;0;();();(-2000.0, -2000.0);
11:00:19:657;11:00:19:650;1448057777.12;(0.5281027793884278, 0.6520390828450521);64.4435958862;1.0;11:00:19:657;0;15;-0.0677419354838711;1;0.293255131964809;0;0;0;1;1;1;1;4;0;0;;0;0;();();(-2000.0, -2000.0);
11:00:19:678;11:00:19:650;1448057777.12;(0.5281027793884278, 0.6520390828450521);64.4435958862;1.0;11:00:19:673;0;10;0.587096774193548;1;0.293255131964809;0;0;0;1;1;1;1;4;0;0;;0;0;();();(-2000.0, -2000.0);
11:00:19:689;11:00:19:650;1448057777.12;(0.5281027793884278, 0.6520390828450521);64.4435958862;1.0;11:00:19:689;0;14;0.354838709677419;1;0.0977517106549365;0;0;0;1;1;1;1;4;0;0;;0;0;();();(-2000.0, -2000.0);
11:00:19:722;11:00:19:715;1448057777.19;(0.5279319763183594, 0.6523800320095486);64.4507064819;1.0;11:00:19:722;0;0;0.664516129032258;1;0.293255131964809;0;0;0;1;1;1;1;4;0;0;;0;0;();();(-2000.0, -2000.0);
11:00:19:739;11:00:19:715;1448057777.19;(0.5279319763183594, 0.6523800320095486);64.4507064819;1.0;11:00:19:739;0;10;0.770967741935484;1;0.0977517106549365;0;0;0;1;1;1;1;4;0;0;;0;0;();();(-2000.0, -2000.0);
11:00:19:755;11:00:19:715;1448057777.19;(0.5279319763183594, 0.6523800320095486);64.4507064819;1.0;11:00:19:755;0;15;0.0677419354838709;1;0.293255131964809;0;0;0;1;1;1;1;4;0;0;;0;0;();();(-2000.0, -2000.0);
11:00:19:772;11:00:19:715;1448057777.19;(0.5279319763183594, 0.6523800320095486);64.4507064819;1.0;11:00:19:772;0;4;-0.096774193548387;1;0.293255131964809;0;0;0;1;1;1;1;4;0;0;;0;0;();();(-2000.0, -2000.0);
11:00:19:789;11:00:19:782;1448057777.26;(0.5262059211730957, 0.651951535542806);64.8514328003;1.0;11:00:19:789;0;9;1.07741935483871;1;0.0977517106549365;0;0;0;1;1;1;1;4;0;0;;0;0;();();(-2000.0, -2000.0);
11:00:19:822;11:00:19:782;1448057777.26;(0.5262059211730957, 0.651951535542806);64.8514328003;1.0;11:00:19:822;0;15;-0.032258064516129;1;0.293255131964809;0;0;0;1;1;1;1;4;0;0;;0;0;();();(-2000.0, -2000.0);
11:00:19:839;11:00:19:782;1448057777.26;(0.5262059211730957, 0.651951535542806);64.8514328003;1.0;11:00:19:839;0;4;1.70322580645161;1;0.293255131964809;0;0;0;1;1;1;1;4;0;0;;0;0;();();(-2000.0, -2000.0);
11:00:19:856;11:00:19:846;1448057777.32;(0.5261394500732421, 0.6522200266520182);65.3101654053;1.0;11:00:19:856;0;15;1.45161290322581;1;0.293255131964809;0;0;0;1;1;1;1;4;0;0;;0;0;();();(-2000.0, -2000.0);
11:00:19:872;11:00:19:846;1448057777.32;(0.5261394500732421, 0.6522200266520182);65.3101654053;1.0;11:00:19:872;0;15;1.45161290322581;1;0.293255131964809;0;0;0;1;1;1;1;4;0;0;;0;0;();();(-2000.0, -2000.0);
11:00:19:889;11:00:19:846;1448057777.32;(0.5261394500732421, 0.6522200266520182);65.3101654053;1.0;11:00:19:889;0;4;-0.212903225806452;1;0.293255131964809;0;0;0;1;1;1;1;4;0;0;;0;0;();();(-2000.0, -2000.0);
11:00:19:921;11:00:19:916;1448057777.39;(0.5263397216796875, 0.651363288031684);65.6398010254;1.0;11:00:19:921;0;15;-0.37741935483871;1;0.0977517106549365;0;0;0;1;1;1;1;4;0;0;;0;0;();();(-2000.0, -2000.0);
11:00:19:938;11:00:19:916;1448057777.39;(0.5263397216796875, 0.651363288031684);65.6398010254;1.0;11:00:19:938;0;4;-1.29677419354839;1;0.293255131964809;0;0;0;1;1;1;1;4;0;0;;0;0;();();(-2000.0, -2000.0);
11:00:19:955;11:00:19:916;1448057777.39;(0.5263397216796875, 0.651363288031684);65.6398010254;1.0;11:00:19:955;0;9;-1.5;1;0.0977517106549365;0;0;0;1;1;1;1;4;0;0;;0;0;();();(-2000.0, -2000.0);
11:00:19:972;11:00:19:916;1448057777.39;(0.5263397216796875, 0.651363288031684);65.6398010254;1.0;11:00:19:972;0;15;-1.5;1;0.293255131964809;0;0;0;1;1;1;1;4;0;0;;0;0;();();(-2000.0, -2000.0);
11:00:19:988;11:00:19:983;1448057777.46;(0.5268486499786377, 0.6516363991631402);65.5239334106;1.0;11:00:19:988;0;15;-1.5;1;0.293255131964809;0;0;0;1;1;1;1;4;0;0;;0;0;();();(-2000.0, -2000.0);
11:00:20:021;11:00:19:983;1448057777.46;(0.5268486499786377, 0.6516363991631402);65.5239334106;1.0;11:00:20:021;0;10;-1.5;1;0.0977517106549365;0;0;0;1;1;1;1;4;0;0;;0;0;();();(-2000.0, -2000.0);
11:00:20:038;11:00:19:983;1448057777.46;(0.5268486499786377, 0.6516363991631402);65.5239334106;1.0;11:00:20:038;0;15;-1.5;1;0.293255131964809;0;0;0;1;1;1;1;4;0;0;;0;0;();();(-2000.0, -2000.0);
11:00:20:054;11:00:20:046;1448057777.52;(0.5266043663024902, 0.651482794019911);65.8119277954;1.0;11:00:20:054;0;9;-1.5;1;0.293255131964809;0;0;0;1;1;1;1;4;0;0;;0;0;();();(-2000.0, -2000.0);
11:00:20:071;11:00:20:046;1448057777.52;(0.5266043663024902, 0.651482794019911);65.8119277954;1.0;11:00:20:071;0;15;-1.5;1;0.0977517106549365;0;0;0;1;1;1;1;4;0;0;;0;0;();();(-2000.0, -2000.0);
11:00:20:088;11:00:20:046;1448057777.52;(0.5266043663024902, 0.651482794019911);65.8119277954;1.0;11:00:20:088;0;4;-1.5;1;0.293255131964809;0;0;0;1;1;1;1;4;0;0;;0;0;();();(-2000.0, -2000.0);
11:00:20:120;11:00:20:114;1448057777.59;(0.5266690731048584, 0.6512641059027777);65.7987365723;1.0;11:00:20:120;0;10;1.77741935483871;1;0.293255131964809;0;0;0;1;1;1;1;4;0;0;;0;0;();();(-2000.0, -2000.0);
11:00:20:137;11:00:20:114;1448057777.59;(0.5266690731048584, 0.6512641059027777);65.7987365723;1.0;11:00:20:137;0;15;-1.21612903225806;1;0.0977517106549365;0;0;0;1;1;1;1;4;0;0;;0;0;();();(-2000.0, -2000.0);
11:00:20:153;11:00:20:114;1448057777.59;(0.5266690731048584, 0.6512641059027777);65.7987365723;1.0;11:00:20:153;0;4;-0.596774193548387;1;0.293255131964809;0;0;0;1;1;1;1;4;0;0;;0;0;();();(-2000.0, -2000.0);
11:00:20:171;11:00:20:114;1448057777.59;(0.5266690731048584, 0.6512641059027777);65.7987365723;1.0;11:00:20:171;0;0;0.461290322580645;1;0.293255131964809;0;0;0;1;1;1;1;4;0;0;;0;0;();();(-2000.0, -2000.0);
11:00:20:203;11:00:20:179;1448057777.66;(0.52723388671875, 0.6511200586954753);66.2230606079;1.0;11:00:20:203;0;0;-1.5;1;0.293255131964809;0;0;0;1;1;1;1;4;0;0;;0;0;();();(-2000.0, -2000.0);
11:00:20:220;11:00:20:179;1448057777.66;(0.52723388671875, 0.6511200586954753);66.2230606079;1.0;11:00:20:220;0;4;-1.5;1;0.0977517106549365;0;0;0;1;1;1;1;4;0;0;;0;0;();();(-2000.0, -2000.0);
11:00:20:237;11:00:20:179;1448057777.66;(0.52723388671875, 0.6511200586954753);66.2230606079;1.0;11:00:20:237;0;10;-1.5;1;0.293255131964809;0;0;0;1;1;1;1;4;0;0;;0;0;();();(-2000.0, -2000.0);
11:00:20:253;11:00:20:246;1448057777.69;(0.5349934101104736, 0.6474067687988281);65.2588729858;0.961666989991;11:00:20:253;0;4;-1.5;1;0.293255131964809;0;0;0;1;1;1;1;4;0;0;;0;0;();();(-2000.0, -2000.0);
11:00:20:270;11:00:20:246;1448057777.69;(0.5349934101104736, 0.6474067687988281);65.2588729858;0.961666989991;11:00:20:270;0;9;-1.5;1;0.293255131964809;0;0;0;1;1;1;1;4;0;0;;0;0;();();(-2000.0, -2000.0);
11:00:20:302;11:00:20:246;1448057777.69;(0.5349934101104736, 0.6474067687988281);65.2588729858;0.961666989991;11:00:20:302;0;10;-1.5;1;0.293255131964809;0;0;0;1;1;1;1;4;0;0;;0;0;();();(-2000.0, -2000.0);
11:00:20:319;11:00:20:311;1448057777.79;(0.5347549438476562, 0.6478235880533854);65.8022689819;1.0;11:00:20:319;0;4;-1.5;1;0.293255131964809;0;0;0;1;1;1;1;4;0;0;;0;0;();();(-2000.0, -2000.0);
11:00:20:336;11:00:20:311;1448057777.79;(0.5347549438476562, 0.6478235880533854);65.8022689819;1.0;11:00:20:336;0;10;-1.5;1;0.0977517106549365;0;0;0;1;1;1;1;4;0;0;;0;0;();();(-2000.0, -2000.0);
11:00:20:353;11:00:20:311;1448057777.79;(0.5347549438476562, 0.6478235880533854);65.8022689819;1.0;11:00:20:353;0;5;-1.5;1;0.293255131964809;0;0;0;1;1;1;1;4;0;0;;0;0;();();(-2000.0, -2000.0);
11:00:20:368;11:00:20:311;1448057777.79;(0.5347549438476562, 0.6478235880533854);65.8022689819;1.0;11:00:20:368;0;10;-1.5;1;0.293255131964809;0;0;0;1;1;1;1;4;0;0;;0;0;();();(-2000.0, -2000.0);
11:00:20:402;11:00:20:378;1448057777.86;(0.5347291469573975, 0.6479975170559353);65.2492446899;1.0;11:00:20:402;0;10;-1.5;1;0.0977517106549365;0;0;0;1;1;1;1;4;0;0;;0;0;();();(-2000.0, -2000.0);
11:00:20:418;11:00:20:378;1448057777.86;(0.5347291469573975, 0.6479975170559353);65.2492446899;1.0;11:00:20:418;0;4;-1.5;1;0.0977517106549365;0;0;0;1;1;1;1;4;0;0;;0;0;();();(-2000.0, -2000.0);
11:00:20:436;11:00:20:378;1448057777.86;(0.5347291469573975, 0.6479975170559353);65.2492446899;1.0;11:00:20:436;0;9;-1.5;1;0.293255131964809;0;0;0;1;1;1;1;4;0;0;;0;0;();();(-2000.0, -2000.0);
11:00:20:451;11:00:20:446;1448057777.92;(0.5349549293518067, 0.6478553983900281);65.3499908447;1.0;11:00:20:451;0;5;-1.5;1;0.0977517106549365;0;0;0;1;1;1;1;4;0;0;;0;0;();();(-2000.0, -2000.0);
11:00:20:468;11:00:20:446;1448057777.92;(0.5349549293518067, 0.6478553983900281);65.3499908447;1.0;11:00:20:468;0;10;1.77741935483871;1;0.293255131964809;0;0;0;1;1;1;1;4;0;0;;0;0;();();(-2000.0, -2000.0);
11:00:20:501;11:00:20:446;1448057777.92;(0.5349549293518067, 0.6478553983900281);65.3499908447;1.0;11:00:20:501;0;10;1.77741935483871;1;0.293255131964809;0;0;0;1;1;1;1;4;0;0;;0;0;();();(-2000.0, -2000.0);
11:00:20:518;11:00:20:510;1448057777.99;(0.5353293895721436, 0.6477790620591906);64.9809875488;1.0;11:00:20:518;0;5;1.79032258064516;1;0.0977517106549365;0;0;0;1;1;1;1;4;0;0;;0;0;();();(-2000.0, -2000.0);
11:00:20:534;11:00:20:510;1448057777.99;(0.5353293895721436, 0.6477790620591906);64.9809875488;1.0;11:00:20:534;0;10;1.77741935483871;1;0.0977517106549365;0;0;0;1;1;1;1;4;0;0;;0;0;();();(-2000.0, -2000.0);
11:00:20:552;11:00:20:510;1448057777.99;(0.5353293895721436, 0.6477790620591906);64.9809875488;1.0;11:00:20:552;0;4;1.78064516129032;1;0.293255131964809;0;0;0;1;1;1;1;4;0;0;;0;0;();();(-2000.0, -2000.0);
11:00:20:568;11:00:20:510;1448057777.99;(0.5353293895721436, 0.6477790620591906);64.9809875488;1.0;11:00:20:568;0;4;1.78064516129032;1;0.293255131964809;0;0;0;1;1;1;1;4;0;0;;0;0;();();(-2000.0, -2000.0);
11:00:20:600;11:00:20:578;1448057778.06;(0.5355824947357177, 0.6483611212836371);64.3984832764;1.0;11:00:20:600;0;9;1.77741935483871;1;0.0977517106549365;0;0;0;1;1;1;1;4;0;0;;0;0;();();(-2000.0, -2000.0);
11:00:20:617;11:00:20:578;1448057778.06;(0.5355824947357177, 0.6483611212836371);64.3984832764;1.0;11:00:20:617;0;5;1.78064516129032;1;0.293255131964809;0;0;0;1;1;1;1;4;0;0;;0;0;();();(-2000.0, -2000.0);
11:00:20:634;11:00:20:578;1448057778.06;(0.5355824947357177, 0.6483611212836371);64.3984832764;1.0;11:00:20:634;0;4;1.76129032258065;1;0.0977517106549365;0;0;0;1;1;1;1;4;0;0;;0;0;();();(-2000.0, -2000.0);
11:00:20:650;11:00:20:642;1448057778.12;(0.535291337966919, 0.6480157852172852);64.7739334106;1.0;11:00:20:650;0;4;1.76129032258065;1;0.0977517106549365;0;0;0;1;1;1;1;4;0;0;;0;0;();();(-2000.0, -2000.0);
11:00:20:684;11:00:20:642;1448057778.12;(0.535291337966919, 0.6480157852172852);64.7739334106;1.0;11:00:20:684;0;15;1.77741935483871;1;0.0977517106549365;0;0;0;1;1;1;1;4;0;0;;0;0;();();(-2000.0, -2000.0);
11:00:20:700;11:00:20:642;1448057778.12;(0.535291337966919, 0.6480157852172852);64.7739334106;1.0;11:00:20:700;0;4;1.78064516129032;1;0.293255131964809;0;0;0;1;1;1;1;4;0;0;;0;0;();();(-2000.0, -2000.0);
11:00:20:717;11:00:20:710;1448057778.19;(0.5353168964385986, 0.648762321472168);64.7589035034;1.0;11:00:20:717;0;15;1.78064516129032;1;0.0977517106549365;0;0;0;1;1;1;1;4;0;0;;0;0;();();(-2000.0, -2000.0);
11:00:20:732;11:00:20:710;1448057778.19;(0.5353168964385986, 0.648762321472168);64.7589035034;1.0;11:00:20:732;0;4;1.77741935483871;1;0.293255131964809;0;0;0;1;1;1;1;4;0;0;;0;0;();();(-2000.0, -2000.0);
11:00:20:750;11:00:20:710;1448057778.19;(0.5353168964385986, 0.648762321472168);64.7589035034;1.0;11:00:20:750;0;8;1.78064516129032;1;0.293255131964809;0;0;0;1;1;1;1;4;0;0;;0;0;();();(-2000.0, -2000.0);
11:00:20:783;11:00:20:778;1448057778.26;(0.5353053092956543, 0.6480955759684245);64.8832397461;1.0;11:00:20:783;0;15;1.77741935483871;1;0.293255131964809;0;0;0;1;1;1;1;4;0;0;;0;0;();();(-2000.0, -2000.0);
11:00:20:800;11:00:20:778;1448057778.26;(0.5353053092956543, 0.6480955759684245);64.8832397461;1.0;11:00:20:800;0;4;1.77741935483871;1;0.0977517106549365;0;0;0;1;1;1;1;4;0;0;;0;0;();();(-2000.0, -2000.0);
11:00:20:817;11:00:20:778;1448057778.26;(0.5353053092956543, 0.6480955759684245);64.8832397461;1.0;11:00:20:817;0;15;1.7;1;0.293255131964809;0;0;0;1;1;1;1;4;0;0;;0;0;();();(-2000.0, -2000.0);
11:00:20:833;11:00:20:778;1448057778.26;(0.5353053092956543, 0.6480955759684245);64.8832397461;1.0;11:00:20:833;0;4;1.77741935483871;1;0.0977517106549365;0;0;0;1;1;1;1;4;0;0;;0;0;();();(-2000.0, -2000.0);
11:00:20:849;11:00:20:842;1448057778.32;(0.53529052734375, 0.6484628677368164);65.1820907593;1.0;11:00:20:849;0;10;0.819354838709677;1;0.293255131964809;0;0;0;1;1;1;1;4;0;0;;0;0;();();(-2000.0, -2000.0);
11:00:20:882;11:00:20:842;1448057778.32;(0.53529052734375, 0.6484628677368164);65.1820907593;1.0;11:00:20:882;0;15;1.78064516129032;1;0.293255131964809;0;0;0;1;1;1;1;4;0;0;;0;0;();();(-2000.0, -2000.0);
11:00:20:899;11:00:20:842;1448057778.32;(0.53529052734375, 0.6484628677368164);65.1820907593;1.0;11:00:20:899;0;4;1.77741935483871;1;0.293255131964809;0;0;0;1;1;1;1;4;0;0;;0;0;();();(-2000.0, -2000.0);
11:00:20:915;11:00:20:910;1448057778.39;(0.5354418754577637, 0.6483084572686089);65.5517196655;1.0;11:00:20:915;0;9;1.76129032258065;1;0.0977517106549365;0;0;0;1;1;1;1;4;0;0;;0;0;();();(-2000.0, -2000.0);
11:00:20:933;11:00:20:910;1448057778.39;(0.5354418754577637, 0.6483084572686089);65.5517196655;1.0;11:00:20:933;0;5;1.77741935483871;1;0.293255131964809;0;0;0;1;1;1;1;4;0;0;;0;0;();();(-2000.0, -2000.0);
11:00:20:949;11:00:20:910;1448057778.39;(0.5354418754577637, 0.6483084572686089);65.5517196655;1.0;11:00:20:949;0;10;1.77741935483871;1;0.0977517106549365;0;0;0;1;1;1;1;4;0;0;;0;0;();();(-2000.0, -2000.0);
11:00:20:982;11:00:20:974;1448057778.46;(0.5351014137268066, 0.6484129587809244);65.6240310669;1.0;11:00:20:982;0;9;1.77741935483871;1;0.0977517106549365;0;0;0;1;1;1;1;4;0;0;;0;0;();();(-2000.0, -2000.0);
11:00:20:999;11:00:20:974;1448057778.46;(0.5351014137268066, 0.6484129587809244);65.6240310669;1.0;11:00:20:999;0;0;1.78064516129032;1;0.293255131964809;0;0;0;1;1;1;1;4;0;0;;0;0;();();(-2000.0, -2000.0);
11:00:21:015;11:00:20:974;1448057778.46;(0.5351014137268066, 0.6484129587809244);65.6240310669;1.0;11:00:21:015;0;10;1.77741935483871;1;0.0977517106549365;0;0;0;1;1;1;1;4;0;0;;0;0;();();(-2000.0, -2000.0);
11:00:21:031;11:00:20:974;1448057778.46;(0.5351014137268066, 0.6484129587809244);65.6240310669;1.0;11:00:21:031;0;15;1.76129032258065;1;0.0977517106549365;0;0;0;1;1;1;1;4;0;0;;0;0;();();(-2000.0, -2000.0);
11:00:21:049;11:00:21:043;1448057778.52;(0.5356364727020264, 0.6488465203179253);65.5987243652;1.0;11:00:21:049;0;4;1.77741935483871;1;0.293255131964809;0;0;0;1;1;1;1;4;0;0;;0;0;();();(-2000.0, -2000.0);
11:00:21:081;11:00:21:043;1448057778.52;(0.5356364727020264, 0.6488465203179253);65.5987243652;1.0;11:00:21:081;0;9;1.77741935483871;1;0.293255131964809;0;0;0;1;1;1;1;4;0;0;;0;0;();();(-2000.0, -2000.0);
11:00:21:098;11:00:21:043;1448057778.52;(0.5356364727020264, 0.6488465203179253);65.5987243652;1.0;11:00:21:098;0;15;1.76129032258065;1;0.0977517106549365;0;0;0;1;1;1;1;4;0;0;;0;0;();();(-2000.0, -2000.0);
11:00:21:114;11:00:21:114;1448057778.59;(0.535325574874878, 0.6487581888834635);66.0102539062;1.0;11:00:21:114;0;10;1.76129032258065;1;0.0977517106549365;0;0;0;1;1;1;1;4;0;0;;0;0;();();(-2000.0, -2000.0);
11:00:21:131;11:00:21:114;1448057778.59;(0.535325574874878, 0.6487581888834635);66.0102539062;1.0;11:00:21:131;0;15;1.77741935483871;1;0.0977517106549365;0;0;0;1;1;1;1;4;0;0;;0;0;();();(-2000.0, -2000.0);
11:00:21:148;11:00:21:114;1448057778.59;(0.535325574874878, 0.6487581888834635);66.0102539062;1.0;11:00:21:148;0;15;1.77741935483871;1;0.0977517106549365;0;0;0;1;1;1;1;4;0;0;;0;0;();();(-2000.0, -2000.0);
11:00:21:180;11:00:21:174;1448057778.66;(0.535380744934082, 0.6487890667385525);65.2960281372;1.0;11:00:21:180;0;4;1.79032258064516;1;0.0977517106549365;0;0;0;1;1;1;1;4;0;0;;0;0;();();(-2000.0, -2000.0);
11:00:21:197;11:00:21:174;1448057778.66;(0.535380744934082, 0.6487890667385525);65.2960281372;1.0;11:00:21:197;0;15;1.78064516129032;1;0.293255131964809;0;0;0;1;1;1;1;4;0;0;;0;0;();();(-2000.0, -2000.0);
11:00:21:214;11:00:21:174;1448057778.66;(0.535380744934082, 0.6487890667385525);65.2960281372;1.0;11:00:21:214;0;4;1.79032258064516;1;0.0977517106549365;0;0;0;1;1;1;1;4;0;0;;0;0;();();(-2000.0, -2000.0);
11:00:21:230;11:00:21:174;1448057778.66;(0.535380744934082, 0.6487890667385525);65.2960281372;1.0;11:00:21:230;0;9;1.77741935483871;1;0.293255131964809;0;0;0;1;1;1;1;4;0;0;;0;0;();();(-2000.0, -2000.0);
11:00:21:264;11:00:21:242;1448057778.72;(0.5356504917144775, 0.6492414262559678);64.8191223145;1.0;11:00:21:264;0;10;1.30967741935484;1;0.293255131964809;0;0;0;1;1;1;1;4;0;0;;0;0;();();(-2000.0, -2000.0);
11:00:21:281;11:00:21:242;1448057778.72;(0.5356504917144775, 0.6492414262559678);64.8191223145;1.0;11:00:21:281;0;4;0.593548387096774;1;0.293255131964809;0;0;0;1;1;1;1;4;0;0;;0;0;();();(-2000.0, -2000.0);
11:00:21:297;11:00:21:242;1448057778.72;(0.5356504917144775, 0.6492414262559678);64.8191223145;1.0;11:00:21:297;0;10;0.770967741935484;1;0.293255131964809;0;0;0;1;1;1;1;4;0;0;;0;0;();();(-2000.0, -2000.0);
11:00:21:314;11:00:21:306;1448057778.76;(0.5384270191192627, 0.6475564532809788);65.1741790771;0.912157747089;11:00:21:314;0;4;1.77741935483871;1;0.293255131964809;0;0;0;1;1;1;1;4;0;0;;0;0;();();(-2000.0, -2000.0);
11:00:21:331;11:00:21:306;1448057778.76;(0.5384270191192627, 0.6475564532809788);65.1741790771;0.912157747089;11:00:21:331;0;10;0.690322580645161;1;0.0977517106549365;0;0;0;1;1;1;1;4;0;0;;0;0;();();(-2000.0, -2000.0);
11:00:21:363;11:00:21:306;1448057778.76;(0.5384270191192627, 0.6475564532809788);65.1741790771;0.912157747089;11:00:21:363;0;15;1.49032258064516;1;0.293255131964809;0;0;0;1;1;1;1;4;0;0;;0;0;();();(-2000.0, -2000.0);
11:00:21:381;11:00:21:374;1448057778.86;(0.5412580013275147, 0.645448260837131);64.8591995239;1.0;11:00:21:381;0;4;0.587096774193548;1;0.293255131964809;0;0;0;1;1;1;1;4;0;0;;0;0;();();(-2000.0, -2000.0);
11:00:21:397;11:00:21:374;1448057778.86;(0.5412580013275147, 0.645448260837131);64.8591995239;1.0;11:00:21:397;0;9;0.52258064516129;1;0.293255131964809;0;0;0;1;1;1;1;4;0;0;;0;0;();();(-2000.0, -2000.0);
11:00:21:413;11:00:21:374;1448057778.86;(0.5412580013275147, 0.645448260837131);64.8591995239;1.0;11:00:21:413;0;5;0.770967741935484;1;0.293255131964809;0;0;0;1;1;1;1;4;0;0;;0;0;();();(-2000.0, -2000.0);
11:00:21:431;11:00:21:374;1448057778.86;(0.5412580013275147, 0.645448260837131);64.8591995239;1.0;11:00:21:431;0;10;0.612903225806452;1;0.293255131964809;0;0;0;1;1;1;1;4;0;0;;0;0;();();(-2000.0, -2000.0);
11:00:21:462;11:00:21:442;1448057778.92;(0.5415970802307128, 0.6457219229804145);64.4265060425;1.0;11:00:21:462;0;4;0.896774193548387;1;0.293255131964809;0;0;0;1;1;1;1;4;0;0;;0;0;();();(-2000.0, -2000.0);
11:00:21:479;11:00:21:442;1448057778.92;(0.5415970802307128, 0.6457219229804145);64.4265060425;1.0;11:00:21:479;0;0;0.925806451612903;1;0.0977517106549365;0;0;0;1;1;1;1;4;0;0;;0;0;();();(-2000.0, -2000.0);
11:00:21:497;11:00:21:442;1448057778.92;(0.5415970802307128, 0.6457219229804145);64.4265060425;1.0;11:00:21:497;0;5;-0.212903225806452;1;0.293255131964809;0;0;0;1;1;1;1;4;0;0;;0;0;();();(-2000.0, -2000.0);
11:00:21:512;11:00:21:506;1448057778.99;(0.5413559436798095, 0.64576293097602);64.4964141846;1.0;11:00:21:512;0;15;0.293548387096774;1;0.0977517106549365;0;0;0;1;1;1;1;4;0;0;;0;0;();();(-2000.0, -2000.0);
11:00:21:530;11:00:21:506;1448057778.99;(0.5413559436798095, 0.64576293097602);64.4964141846;1.0;11:00:21:530;0;9;-0.0258064516129033;1;0.293255131964809;0;0;0;1;1;1;1;4;0;0;;0;0;();();(-2000.0, -2000.0);
11:00:21:562;11:00:21:506;1448057778.99;(0.5413559436798095, 0.64576293097602);64.4964141846;1.0;11:00:21:562;0;5;-1.5;1;0.293255131964809;0;0;0;1;1;1;1;4;0;0;;0;0;();();(-2000.0, -2000.0);
11:00:21:579;11:00:21:574;1448057779.06;(0.5411736011505127, 0.6457770665486653);64.0552978516;1.0;11:00:21:579;0;15;-1.5;1;0.293255131964809;0;0;0;1;1;1;1;4;0;0;;0;0;();();(-2000.0, -2000.0);
11:00:21:596;11:00:21:574;1448057779.06;(0.5411736011505127, 0.6457770665486653);64.0552978516;1.0;11:00:21:596;0;4;-1.5;1;0.0977517106549365;0;0;0;1;1;1;1;4;0;0;;0;0;();();(-2000.0, -2000.0);
11:00:21:612;11:00:21:574;1448057779.06;(0.5411736011505127, 0.6457770665486653);64.0552978516;1.0;11:00:21:612;0;15;-1.5;1;0.293255131964809;0;0;0;1;1;1;1;4;0;0;;0;0;();();(-2000.0, -2000.0);
11:00:21:629;11:00:21:574;1448057779.06;(0.5411736011505127, 0.6457770665486653);64.0552978516;1.0;11:00:21:629;0;10;0.561290322580645;1;0.293255131964809;0;0;0;1;1;1;1;4;0;0;;0;0;();();(-2000.0, -2000.0);
11:00:21:666;11:00:21:638;1448057779.12;(0.5414205074310303, 0.6454244825575086);63.76121521;1.0;11:00:21:665;0;15;1.78064516129032;1;0.293255131964809;0;0;0;1;1;1;1;6;0;0;;0;0;();();(-2000.0, -2000.0);
11:00:21:678;11:00:21:638;1448057779.12;(0.5414205074310303, 0.6454244825575086);63.76121521;1.0;11:00:21:678;0;15;1.78064516129032;1;0.293255131964809;0;0;0;1;1;1;1;6;0;0;;0;0;();();(-2000.0, -2000.0);
11:00:21:694;11:00:21:638;1448057779.12;(0.5414205074310303, 0.6454244825575086);63.76121521;1.0;11:00:21:694;0;4;1.79032258064516;1;0.293255131964809;0;0;0;1;1;1;1;6;0;0;;0;0;();();(-2000.0, -2000.0);
11:00:21:711;11:00:21:706;1448057779.19;(0.5413664817810059, 0.6455606672498915);63.4735641479;1.0;11:00:21:711;0;9;1.77741935483871;1;0.0977517106549365;0;0;0;1;1;1;1;6;0;0;;0;0;();();(-2000.0, -2000.0);
11:00:21:728;11:00:21:706;1448057779.19;(0.5413664817810059, 0.6455606672498915);63.4735641479;1.0;11:00:21:728;0;5;1.76129032258065;1;0.293255131964809;0;0;0;1;1;1;1;6;0;0;;0;0;();();(-2000.0, -2000.0);
11:00:21:762;11:00:21:706;1448057779.19;(0.5413664817810059, 0.6455606672498915);63.4735641479;1.0;11:00:21:762;0;10;1.78064516129032;1;0.0977517106549365;0;0;0;1;1;1;1;6;0;0;;0;0;();();(-2000.0, -2000.0);
11:00:21:778;11:00:21:773;1448057779.26;(0.5414520740509033, 0.645861456129286);63.3581047058;1.0;11:00:21:778;0;4;1.78064516129032;1;0.0977517106549365;0;0;0;1;1;1;1;6;0;0;;0;0;();();(-2000.0, -2000.0);
11:00:21:794;11:00:21:773;1448057779.26;(0.5414520740509033, 0.645861456129286);63.3581047058;1.0;11:00:21:794;0;4;1.78064516129032;1;0.0977517106549365;0;0;0;1;1;1;1;6;0;0;;0;0;();();(-2000.0, -2000.0);
11:00:21:810;11:00:21:773;1448057779.26;(0.5414520740509033, 0.645861456129286);63.3581047058;1.0;11:00:21:810;0;10;1.79032258064516;1;0.293255131964809;0;0;0;1;1;1;1;6;0;0;;0;0;();();(-2000.0, -2000.0);
11:00:21:844;11:00:21:838;1448057779.32;(0.5416301250457763, 0.6457446628146701);63.1994628906;1.0;11:00:21:844;0;9;-0.583870967741936;1;0.293255131964809;0;0;0;1;1;1;1;6;0;0;;0;0;();();(-2000.0, -2000.0);
11:00:21:861;11:00:21:838;1448057779.32;(0.5416301250457763, 0.6457446628146701);63.1994628906;1.0;11:00:21:860;0;4;-1.04838709677419;1;0.293255131964809;0;0;0;1;1;1;1;6;0;0;;0;0;();();(-2000.0, -2000.0);
11:00:21:877;11:00:21:838;1448057779.32;(0.5416301250457763, 0.6457446628146701);63.1994628906;1.0;11:00:21:877;0;9;0.448387096774193;1;0.0977517106549365;0;0;0;1;1;1;1;6;0;0;;0;0;();();(-2000.0, -2000.0);
11:00:21:893;11:00:21:838;1448057779.32;(0.5416301250457763, 0.6457446628146701);63.1994628906;1.0;11:00:21:893;0;5;-0.312903225806452;1;0.293255131964809;0;0;0;1;1;1;1;6;0;0;;0;0;();();(-2000.0, -2000.0);
11:00:21:910;11:00:21:906;1448057779.39;(0.5415733814239502, 0.6459370930989583);63.2474098206;1.0;11:00:21:909;0;10;-1.5;1;0.293255131964809;0;0;0;1;1;1;1;6;0;0;;0;0;();();(-2000.0, -2000.0);
11:00:21:943;11:00:21:906;1448057779.39;(0.5415733814239502, 0.6459370930989583);63.2474098206;1.0;11:00:21:943;0;9;-1.5;1;0.293255131964809;0;0;0;1;1;1;1;6;0;0;;0;0;();();(-2000.0, -2000.0);
11:00:21:960;11:00:21:906;1448057779.39;(0.5415733814239502, 0.6459370930989583);63.2474098206;1.0;11:00:21:959;0;0;1.78064516129032;1;0.293255131964809;0;0;0;1;1;1;1;6;0;0;;0;0;();();(-2000.0, -2000.0);
11:00:21:977;11:00:21:970;1448057779.46;(0.541590690612793, 0.6458112716674804);63.8060493469;1.0;11:00:21:977;0;10;1.77741935483871;1;0.0977517106549365;0;0;0;1;1;1;1;6;0;0;;0;0;();();(-2000.0, -2000.0);
11:00:21:993;11:00:21:970;1448057779.46;(0.541590690612793, 0.6458112716674804);63.8060493469;1.0;11:00:21:993;0;15;1.78064516129032;1;0.293255131964809;0;0;0;1;1;1;1;6;0;0;;0;0;();();(-2000.0, -2000.0);
11:00:22:009;11:00:21:970;1448057779.46;(0.541590690612793, 0.6458112716674804);63.8060493469;1.0;11:00:22:009;0;10;1.78064516129032;1;0.293255131964809;0;0;0;1;1;1;1;6;0;0;;0;0;();();(-2000.0, -2000.0);
11:00:22:047;11:00:22:038;1448057779.52;(0.5416487693786621, 0.6459590276082356);63.7385940552;1.0;11:00:22:047;0;3;1.78064516129032;1;0.293255131964809;0;0;0;1;1;1;1;6;0;0;;0;0;();();(-2000.0, -2000.0);
11:00:22:059;11:00:22:038;1448057779.52;(0.5416487693786621, 0.6459590276082356);63.7385940552;1.0;11:00:22:059;0;15;1.77741935483871;1;0.0977517106549365;0;0;0;1;1;1;1;6;0;0;;0;0;();();(-2000.0, -2000.0);
11:00:22:076;11:00:22:038;1448057779.52;(0.5416487693786621, 0.6459590276082356);63.7385940552;1.0;11:00:22:076;0;10;1.77741935483871;1;0.293255131964809;0;0;0;1;1;1;1;6;0;0;;0;0;();();(-2000.0, -2000.0);
11:00:22:092;11:00:22:038;1448057779.52;(0.5416487693786621, 0.6459590276082356);63.7385940552;1.0;11:00:22:092;0;15;1.78064516129032;1;0.293255131964809;0;0;0;1;1;1;1;6;0;0;;0;0;();();(-2000.0, -2000.0);
11:00:22:109;11:00:22:106;1448057779.59;(0.5398274898529053, 0.6473184585571289);63.7755966187;1.0;11:00:22:109;0;4;1.60645161290323;1;0.293255131964809;0;0;0;1;1;1;1;6;0;0;;0;0;();();(-2000.0, -2000.0);
11:00:22:141;11:00:22:106;1448057779.59;(0.5398274898529053, 0.6473184585571289);63.7755966187;1.0;11:00:22:141;0;5;-1.5;1;0.293255131964809;0;0;0;1;1;1;1;6;0;0;;0;0;();();(-2000.0, -2000.0);
11:00:22:158;11:00:22:106;1448057779.59;(0.5398274898529053, 0.6473184585571289);63.7755966187;1.0;11:00:22:158;0;15;-1.5;1;0.293255131964809;0;0;0;1;1;1;1;6;0;0;;0;0;();();(-2000.0, -2000.0);
11:00:22:175;11:00:22:170;1448057779.66;(0.5396251201629638, 0.6472534603542752);64.2006988525;1.0;11:00:22:175;0;4;-1.5;1;0.293255131964809;0;0;0;1;1;1;1;6;0;0;;0;0;();();(-2000.0, -2000.0);
11:00:22:191;11:00:22:170;1448057779.66;(0.5396251201629638, 0.6472534603542752);64.2006988525;1.0;11:00:22:191;0;10;-1.00967741935484;1;0.293255131964809;0;0;0;1;1;1;1;6;0;0;;0;0;();();(-2000.0, -2000.0);
11:00:22:208;11:00:22:170;1448057779.66;(0.5396251201629638, 0.6472534603542752);64.2006988525;1.0;11:00:22:208;0;5;-0.961290322580645;1;0.293255131964809;0;0;0;1;1;1;1;6;0;0;;0;0;();();(-2000.0, -2000.0);
11:00:22:242;11:00:22:238;1448057779.72;(0.5395124435424805, 0.6476192474365234);64.5976867676;1.0;11:00:22:242;0;14;0.690322580645161;1;0.0977517106549365;0;0;0;1;1;1;1;6;0;0;;0;0;();();(-2000.0, -2000.0);
11:00:22:259;11:00:22:238;1448057779.72;(0.5395124435424805, 0.6476192474365234);64.5976867676;1.0;11:00:22:259;0;10;-1.5;1;0.293255131964809;0;0;0;1;1;1;1;6;0;0;;0;0;();();(-2000.0, -2000.0);
11:00:22:275;11:00:22:238;1448057779.72;(0.5395124435424805, 0.6476192474365234);64.5976867676;1.0;11:00:22:275;0;5;-1.5;1;0.293255131964809;0;0;0;1;1;1;1;6;0;0;;0;0;();();(-2000.0, -2000.0);
11:00:22:291;11:00:22:238;1448057779.72;(0.5395124435424805, 0.6476192474365234);64.5976867676;1.0;11:00:22:291;0;10;-1.5;1;0.0977517106549365;0;0;0;1;1;1;1;6;0;0;;0;0;();();(-2000.0, -2000.0);
11:00:22:307;11:00:22:302;1448057779.79;(0.5394203186035156, 0.6473428302341038);64.5406036377;1.0;11:00:22:307;0;5;-1.5;1;0.293255131964809;0;0;0;1;1;1;1;6;0;0;;0;0;();();(-2000.0, -2000.0);
11:00:22:341;11:00:22:302;1448057779.79;(0.5394203186035156, 0.6473428302341038);64.5406036377;1.0;11:00:22:341;0;4;-1.5;1;0.0977517106549365;0;0;0;1;1;1;1;6;0;0;;0;0;();();(-2000.0, -2000.0);
11:00:22:357;11:00:22:302;1448057779.79;(0.5394203186035156, 0.6473428302341038);64.5406036377;1.0;11:00:22:357;0;10;-1.5;1;0.293255131964809;0;0;0;1;1;1;1;6;0;0;;0;0;();();(-2000.0, -2000.0);
11:00:22:373;11:00:22:370;1448057779.86;(0.5392036437988281, 0.6475095748901367);64.7832641602;1.0;11:00:22:373;0;5;-1.5;1;0.0977517106549365;0;0;0;1;1;1;1;6;0;0;;0;0;();();(-2000.0, -2000.0);
11:00:22:390;11:00:22:370;1448057779.86;(0.5392036437988281, 0.6475095748901367);64.7832641602;1.0;11:00:22:390;0;10;-1.5;1;0.293255131964809;0;0;0;1;1;1;1;6;0;0;;0;0;();();(-2000.0, -2000.0);
11:00:22:423;11:00:22:370;1448057779.86;(0.5392036437988281, 0.6475095748901367);64.7832641602;1.0;11:00:22:423;0;15;-1.5;1;0.0977517106549365;0;0;0;1;1;1;1;6;0;0;;0;0;();();(-2000.0, -2000.0);
11:00:22:440;11:00:22:370;1448057779.86;(0.5392036437988281, 0.6475095748901367);64.7832641602;1.0;11:00:22:440;0;3;-1.5;1;0.293255131964809;0;0;0;1;1;1;1;6;0;0;;0;0;();();(-2000.0, -2000.0);
11:00:22:457;11:00:22:441;1448057779.92;(0.5391637325286865, 0.6472786797417535);64.8696670532;1.0;11:00:22:457;0;4;1.78064516129032;1;0.293255131964809;0;0;0;1;1;1;1;6;0;0;;0;0;();();(-2000.0, -2000.0);
11:00:22:473;11:00:22:441;1448057779.92;(0.5391637325286865, 0.6472786797417535);64.8696670532;1.0;11:00:22:473;0;15;1.77741935483871;1;0.293255131964809;0;0;0;1;1;1;1;6;0;0;;0;0;();();(-2000.0, -2000.0);
11:00:22:490;11:00:22:441;1448057779.92;(0.5391637325286865, 0.6472786797417535);64.8696670532;1.0;11:00:22:490;0;9;1.77741935483871;1;0.0977517106549365;0;0;0;1;1;1;1;6;0;0;;0;0;();();(-2000.0, -2000.0);
11:00:22:523;11:00:22:502;1448057779.99;(0.5391853809356689, 0.6473187764485677);65.1834793091;1.0;11:00:22:523;0;5;-1.5;1;0.293255131964809;0;0;0;1;1;1;1;6;0;0;;0;0;();();(-2000.0, -2000.0);
11:00:22:539;11:00:22:502;1448057779.99;(0.5391853809356689, 0.6473187764485677);65.1834793091;1.0;11:00:22:539;0;15;-1.5;1;0.293255131964809;0;0;0;1;1;1;1;6;0;0;;0;0;();();(-2000.0, -2000.0);
11:00:22:556;11:00:22:502;1448057779.99;(0.5391853809356689, 0.6473187764485677);65.1834793091;1.0;11:00:22:556;0;10;1.78064516129032;1;0.0977517106549365;0;0;0;1;1;1;1;6;0;0;;0;0;();();(-2000.0, -2000.0);
11:00:22:573;11:00:22:570;1448057780.06;(0.5391788005828857, 0.6470512602064344);65.2698135376;1.0;11:00:22:573;0;9;-0.241935483870968;1;0.293255131964809;0;0;0;1;1;1;1;6;0;0;;0;0;();();(-2000.0, -2000.0);
11:00:22:589;11:00:22:570;1448057780.06;(0.5391788005828857, 0.6470512602064344);65.2698135376;1.0;11:00:22:589;0;4;0.306451612903226;1;0.293255131964809;0;0;0;1;1;1;1;6;0;0;;0;0;();();(-2000.0, -2000.0);
11:00:22:622;11:00:22:570;1448057780.06;(0.5391788005828857, 0.6470512602064344);65.2698135376;1.0;11:00:22:622;0;4;1.22258064516129;1;0.293255131964809;0;0;0;1;1;1;1;6;0;0;;0;0;();();(-2000.0, -2000.0);
11:00:22:639;11:00:22:637;1448057780.12;(0.5389742851257324, 0.6468946033053928);65.0940170288;1.0;11:00:22:639;0;10;1.34193548387097;1;0.293255131964809;0;0;0;1;1;1;1;6;0;0;;0;0;();();(-2000.0, -2000.0);
11:00:22:655;11:00:22:637;1448057780.12;(0.5389742851257324, 0.6468946033053928);65.0940170288;1.0;11:00:22:655;0;4;-1.5;1;0.293255131964809;0;0;0;1;1;1;1;6;0;0;;0;0;();();(-2000.0, -2000.0);
11:00:22:672;11:00:22:637;1448057780.12;(0.5389742851257324, 0.6468946033053928);65.0940170288;1.0;11:00:22:672;0;15;-1.5;1;0.0977517106549365;0;0;0;1;1;1;1;6;0;0;;0;0;();();(-2000.0, -2000.0);
11:00:22:689;11:00:22:637;1448057780.12;(0.5389742851257324, 0.6468946033053928);65.0940170288;1.0;11:00:22:689;0;5;-1.5;1;0.293255131964809;0;0;0;1;1;1;1;6;0;0;;0;0;();();(-2000.0, -2000.0);
11:00:22:722;11:00:22:702;1448057780.19;(0.5390357494354248, 0.6471538755628798);65.9272766113;1.0;11:00:22:722;0;4;-0.406451612903226;1;0.293255131964809;0;0;0;1;1;1;1;6;0;0;;0;0;();();(-2000.0, -2000.0);
11:00:22:739;11:00:22:702;1448057780.19;(0.5390357494354248, 0.6471538755628798);65.9272766113;1.0;11:00:22:739;0;9;-1.5;1;0.293255131964809;0;0;0;1;1;1;1;6;0;0;;0;0;();();(-2000.0, -2000.0);
11:00:22:754;11:00:22:702;1448057780.19;(0.5390357494354248, 0.6471538755628798);65.9272766113;1.0;11:00:22:754;0;0;0.2;1;0.293255131964809;0;0;0;1;1;1;1;6;0;0;;0;0;();();(-2000.0, -2000.0);
11:00:22:772;11:00:22:770;1448057780.26;(0.5391996383666993, 0.646973991394043);65.8617706299;1.0;11:00:22:772;0;10;1.78064516129032;1;0.293255131964809;0;0;0;1;1;1;1;6;0;0;;0;0;();();(-2000.0, -2000.0);
11:00:22:787;11:00:22:770;1448057780.26;(0.5391996383666993, 0.646973991394043);65.8617706299;1.0;11:00:22:787;0;5;1.78064516129032;1;0.0977517106549365;0;0;0;1;1;1;1;6;0;0;;0;0;();();(-2000.0, -2000.0);
11:00:22:821;11:00:22:770;1448057780.26;(0.5391996383666993, 0.646973991394043);65.8617706299;1.0;11:00:22:821;0;15;1.77741935483871;1;0.293255131964809;0;0;0;1;1;1;1;6;0;0;;0;0;();();(-2000.0, -2000.0);
11:00:22:843;11:00:22:834;1448057780.29;(0.5384543895721435, 0.645587412516276);65.7056503296;0.978364590568;11:00:22:843;0;11;1.77741935483871;1;0.293255131964809;0;0;0;1;1;1;1;6;0;0;;0;0;();();(-2000.0, -2000.0);
11:00:22:854;11:00:22:834;1448057780.29;(0.5384543895721435, 0.645587412516276);65.7056503296;0.978364590568;11:00:22:854;0;15;1.78064516129032;1;0.293255131964809;0;0;0;1;1;1;1;6;0;0;;0;0;();();(-2000.0, -2000.0);
11:00:22:871;11:00:22:834;1448057780.29;(0.5384543895721435, 0.645587412516276);65.7056503296;0.978364590568;11:00:22:871;0;10;1.78064516129032;1;0.293255131964809;0;0;0;1;1;1;1;6;0;0;;0;0;();();(-2000.0, -2000.0);
11:00:22:888;11:00:22:834;1448057780.29;(0.5384543895721435, 0.645587412516276);65.7056503296;0.978364590568;11:00:22:888;0;15;1.78064516129032;1;0.293255131964809;0;0;0;1;1;1;1;6;0;0;;0;0;();();(-2000.0, -2000.0);
11:00:22:920;11:00:22:902;1448057780.39;(0.3681140422821045, 0.6309244579739041);23.1858329773;0.889369427775;11:00:22:920;0;0;1.78064516129032;1;0.293255131964809;0;0;0;1;1;1;1;6;0;0;;0;0;();();(-2000.0, -2000.0);
11:00:22:938;11:00:22:902;1448057780.39;(0.3681140422821045, 0.6309244579739041);23.1858329773;0.889369427775;11:00:22:938;0;5;1.78064516129032;1;0.293255131964809;0;0;0;1;1;1;1;6;0;0;;0;0;();();(-2000.0, -2000.0);
11:00:22:954;11:00:22:902;1448057780.39;(0.3681140422821045, 0.6309244579739041);23.1858329773;0.889369427775;11:00:22:954;0;15;1.78064516129032;1;0.293255131964809;0;0;0;1;1;1;1;6;0;0;;0;0;();();(-2000.0, -2000.0);
11:00:22:970;11:00:22:902;1448057780.39;(0.3681140422821045, 0.6309244579739041);23.1858329773;0.889369427775;11:00:22:970;0;4;1.78064516129032;1;0.293255131964809;0;0;0;1;1;1;1;6;0;0;;0;0;();();(-2000.0, -2000.0);
11:00:23:004;11:00:22:902;1448057780.39;(0.3681140422821045, 0.6309244579739041);23.1858329773;0.889369427775;11:00:23:004;0;5;1.78064516129032;1;0.293255131964809;0;0;0;1;1;1;1;6;0;0;;0;0;();();(-2000.0, -2000.0);
11:00:23:020;11:00:22:902;1448057780.39;(0.3681140422821045, 0.6309244579739041);23.1858329773;0.889369427775;11:00:23:020;0;10;1.77741935483871;1;0.293255131964809;0;0;0;1;1;1;1;6;0;0;;0;0;();();(-2000.0, -2000.0);
11:00:23:037;11:00:23:034;1448057780.42;(0.5378269195556641, 0.646945063273112);64.195022583;0.921970542661;11:00:23:037;0;10;1.77741935483871;1;0.293255131964809;0;0;0;1;1;1;1;6;0;0;;0;0;();();(-2000.0, -2000.0);
11:00:23:053;11:00:23:034;1448057780.42;(0.5378269195556641, 0.646945063273112);64.195022583;0.921970542661;11:00:23:053;0;10;1.77741935483871;1;0.293255131964809;0;0;0;1;1;1;1;6;0;0;;0;0;();();(-2000.0, -2000.0);
11:00:23:069;11:00:23:034;1448057780.42;(0.5378269195556641, 0.646945063273112);64.195022583;0.921970542661;11:00:23:069;0;10;1.77741935483871;1;0.293255131964809;0;0;0;1;1;1;1;6;0;0;;0;0;();();(-2000.0, -2000.0);
11:00:23:103;11:00:23:099;1448057780.59;(0.5398725509643555, 0.647802225748698);65.9775085449;1.0;11:00:23:103;0;4;1.76129032258065;1;0.293255131964809;0;0;0;1;1;1;1;6;0;0;;0;0;();();(-2000.0, -2000.0);
11:00:23:120;11:00:23:099;1448057780.59;(0.5398725509643555, 0.647802225748698);65.9775085449;1.0;11:00:23:120;0;10;-0.67741935483871;1;0.293255131964809;0;0;0;1;1;1;1;6;0;0;;0;0;();();(-2000.0, -2000.0);
11:00:23:136;11:00:23:099;1448057780.59;(0.5398725509643555, 0.647802225748698);65.9775085449;1.0;11:00:23:136;0;4;-1.04193548387097;1;0.0977517106549365;0;0;0;1;1;1;1;6;0;0;;0;0;();();(-2000.0, -2000.0);
11:00:23:153;11:00:23:099;1448057780.59;(0.5398725509643555, 0.647802225748698);65.9775085449;1.0;11:00:23:153;0;15;1.76129032258065;1;0.293255131964809;0;0;0;1;1;1;1;6;0;0;;0;0;();();(-2000.0, -2000.0);
11:00:23:169;11:00:23:166;1448057780.66;(0.5400472640991211, 0.6481136745876737);65.7607955933;1.0;11:00:23:169;0;5;1.79032258064516;1;0.0977517106549365;0;0;0;1;1;1;1;6;0;0;;0;0;();();(-2000.0, -2000.0);
11:00:23:202;11:00:23:166;1448057780.66;(0.5400472640991211, 0.6481136745876737);65.7607955933;1.0;11:00:23:202;0;15;1.78064516129032;1;0.0977517106549365;0;0;0;1;1;1;1;6;0;0;;0;0;();();(-2000.0, -2000.0);
11:00:23:218;11:00:23:166;1448057780.66;(0.5400472640991211, 0.6481136745876737);65.7607955933;1.0;11:00:23:218;0;10;1.79032258064516;1;0.293255131964809;0;0;0;1;1;1;1;6;0;0;;0;0;();();(-2000.0, -2000.0);
11:00:23:236;11:00:23:234;1448057780.72;(0.5402231216430664, 0.648010508219401);65.861000061;1.0;11:00:23:235;0;5;1.37741935483871;1;0.0977517106549365;0;0;0;1;1;1;1;6;0;0;;0;0;();();(-2000.0, -2000.0);
11:00:23:251;11:00:23:234;1448057780.72;(0.5402231216430664, 0.648010508219401);65.861000061;1.0;11:00:23:251;0;10;1.77741935483871;1;0.293255131964809;0;0;0;1;1;1;1;6;0;0;;0;0;();();(-2000.0, -2000.0);
11:00:23:268;11:00:23:234;1448057780.72;(0.5402231216430664, 0.648010508219401);65.861000061;1.0;11:00:23:268;0;5;0.977419354838709;1;0.293255131964809;0;0;0;1;1;1;1;6;0;0;;0;0;();();(-2000.0, -2000.0);
11:00:23:302;11:00:23:299;1448057780.79;(0.540283489227295, 0.6484915203518338);66.3020935059;1.0;11:00:23:302;0;15;1.77741935483871;1;0.293255131964809;0;0;0;1;1;1;1;6;0;0;;0;0;();();(-2000.0, -2000.0);
11:00:23:318;11:00:23:299;1448057780.79;(0.540283489227295, 0.6484915203518338);66.3020935059;1.0;11:00:23:318;0;10;1.77741935483871;1;0.0977517106549365;0;0;0;1;1;1;1;6;0;0;;0;0;();();(-2000.0, -2000.0);
11:00:23:335;11:00:23:299;1448057780.79;(0.540283489227295, 0.6484915203518338);66.3020935059;1.0;11:00:23:335;0;5;1.78064516129032;1;0.293255131964809;0;0;0;1;1;1;1;6;0;0;;0;0;();();(-2000.0, -2000.0);
11:00:23:351;11:00:23:299;1448057780.79;(0.540283489227295, 0.6484915203518338);66.3020935059;1.0;11:00:23:351;0;10;1;1;0.0977517106549365;0;0;0;1;1;1;1;6;0;0;;0;0;();();(-2000.0, -2000.0);
11:00:23:368;11:00:23:366;1448057780.86;(0.5402791976928711, 0.6483650631374783);66.4462890625;1.0;11:00:23:368;0;15;1.24516129032258;1;0.293255131964809;0;0;0;1;1;1;1;6;0;0;;0;0;();();(-2000.0, -2000.0);
11:00:23:401;11:00:23:366;1448057780.86;(0.5402791976928711, 0.6483650631374783);66.4462890625;1.0;11:00:23:401;0;15;1.05806451612903;1;0.0977517106549365;0;0;0;1;1;1;1;6;0;0;;0;0;();();(-2000.0, -2000.0);
11:00:23:418;11:00:23:366;1448057780.86;(0.5402791976928711, 0.6483650631374783);66.4462890625;1.0;11:00:23:418;0;5;1.17096774193548;1;0.293255131964809;0;0;0;1;1;1;1;6;0;0;;0;0;();();(-2000.0, -2000.0);
11:00:23:434;11:00:23:430;1448057780.89;(0.5405318737030029, 0.6482949150933159);66.2571868896;1.0;11:00:23:434;0;15;1.42903225806452;1;0.0977517106549365;0;0;0;1;1;1;1;6;0;0;;0;0;();();(-2000.0, -2000.0);
11:00:23:451;11:00:23:430;1448057780.89;(0.5405318737030029, 0.6482949150933159);66.2571868896;1.0;11:00:23:451;0;4;1.57096774193548;1;0.293255131964809;0;0;0;1;1;1;1;6;0;0;;0;0;();();(-2000.0, -2000.0);
11:00:23:468;11:00:23:430;1448057780.89;(0.5405318737030029, 0.6482949150933159);66.2571868896;1.0;11:00:23:468;0;15;1.74516129032258;1;0.0977517106549365;0;0;0;1;1;1;1;6;0;0;;0;0;();();(-2000.0, -2000.0);
11:00:23:501;11:00:23:500;1448057780.99;(0.5405306816101074, 0.6486186133490668);66.3554611206;1.0;11:00:23:501;0;10;1.78064516129032;1;0.293255131964809;0;0;0;1;1;1;1;6;0;0;;0;0;();();(-2000.0, -2000.0);
11:00:23:517;11:00:23:500;1448057780.99;(0.5405306816101074, 0.6486186133490668);66.3554611206;1.0;11:00:23:517;0;10;1.78064516129032;1;0.293255131964809;0;0;0;1;1;1;1;6;0;0;;0;0;();();(-2000.0, -2000.0);
11:00:23:533;11:00:23:500;1448057780.99;(0.5405306816101074, 0.6486186133490668);66.3554611206;1.0;11:00:23:533;0;15;1.78064516129032;1;0.293255131964809;0;0;0;1;1;1;1;6;0;0;;0;0;();();(-2000.0, -2000.0);
11:00:23:550;11:00:23:500;1448057780.99;(0.5405306816101074, 0.6486186133490668);66.3554611206;1.0;11:00:23:550;0;4;1.79032258064516;1;0.0977517106549365;0;0;0;1;1;1;1;6;0;0;;0;0;();();(-2000.0, -2000.0);
11:00:23:584;11:00:23:567;1448057781.06;(0.54066162109375, 0.6480318281385633);66.5415420532;1.0;11:00:23:584;0;5;1.77741935483871;1;0.0977517106549365;0;0;0;1;1;1;1;6;0;0;;0;0;();();(-2000.0, -2000.0);
11:00:23:600;11:00:23:567;1448057781.06;(0.54066162109375, 0.6480318281385633);66.5415420532;1.0;11:00:23:600;0;15;1.77741935483871;1;0.0977517106549365;0;0;0;1;1;1;1;6;0;0;;0;0;();();(-2000.0, -2000.0);
11:00:23:617;11:00:23:567;1448057781.06;(0.54066162109375, 0.6480318281385633);66.5415420532;1.0;11:00:23:617;0;4;1.78064516129032;1;0.0977517106549365;0;0;0;1;1;1;1;6;0;0;;0;0;();();(-2000.0, -2000.0);
11:00:23:638;11:00:23:630;1448057781.12;(0.5405356407165527, 0.6481650670369465);66.4212188721;1.0;11:00:23:632;0;15;1.78064516129032;1;0.293255131964809;0;0;0;1;1;1;1;6;0;0;;0;0;();();(-2000.0, -2000.0);
11:00:23:649;11:00:23:630;1448057781.12;(0.5405356407165527, 0.6481650670369465);66.4212188721;1.0;11:00:23:649;0;5;1.78064516129032;1;0.293255131964809;0;0;0;1;1;1;1;6;0;0;;0;0;();();(-2000.0, -2000.0);
11:00:23:682;11:00:23:630;1448057781.12;(0.5405356407165527, 0.6481650670369465);66.4212188721;1.0;11:00:23:682;0;4;1.76129032258065;1;0.293255131964809;0;0;0;1;1;1;1;6;0;0;;0;0;();();(-2000.0, -2000.0);
11:00:23:699;11:00:23:698;1448057781.19;(0.5405872821807861, 0.6482222239176432);66.9187469482;1.0;11:00:23:699;0;9;1.77741935483871;1;0.0977517106549365;0;0;0;1;1;1;1;6;0;0;;0;0;();();(-2000.0, -2000.0);
11:00:23:716;11:00:23:698;1448057781.19;(0.5405872821807861, 0.6482222239176432);66.9187469482;1.0;11:00:23:716;0;9;1.77741935483871;1;0.0977517106549365;0;0;0;1;1;1;1;6;0;0;;0;0;();();(-2000.0, -2000.0);
11:00:23:732;11:00:23:698;1448057781.19;(0.5405872821807861, 0.6482222239176432);66.9187469482;1.0;11:00:23:732;0;10;0.780645161290323;1;0.0977517106549365;0;0;0;1;1;1;1;6;0;0;;0;0;();();(-2000.0, -2000.0);
11:00:23:749;11:00:23:698;1448057781.19;(0.5405872821807861, 0.6482222239176432);66.9187469482;1.0;11:00:23:749;0;5;0.512903225806451;1;0.293255131964809;0;0;0;1;1;1;1;6;0;0;;0;0;();();(-2000.0, -2000.0);
11:00:23:783;11:00:23:763;1448057781.22;(0.5406739234924316, 0.6482621722751194);66.4682769775;1.0;11:00:23:783;0;0;1.39032258064516;1;0.293255131964809;0;0;0;1;1;1;1;6;0;0;;0;0;();();(-2000.0, -2000.0);
11:00:23:798;11:00:23:763;1448057781.22;(0.5406739234924316, 0.6482621722751194);66.4682769775;1.0;11:00:23:798;0;9;1.77741935483871;1;0.293255131964809;0;0;0;1;1;1;1;6;0;0;;0;0;();();(-2000.0, -2000.0);
11:00:23:816;11:00:23:763;1448057781.22;(0.5406739234924316, 0.6482621722751194);66.4682769775;1.0;11:00:23:816;0;5;1.4;1;0.293255131964809;0;0;0;1;1;1;1;6;0;0;;0;0;();();(-2000.0, -2000.0);
11:00:23:832;11:00:23:830;1448057781.32;(0.5406516551971435, 0.6489776187472873);67.0353012085;1.0;11:00:23:832;0;10;0.332258064516129;1;0.293255131964809;0;0;0;1;1;1;1;6;0;0;;0;0;();();(-2000.0, -2000.0);
11:00:23:849;11:00:23:830;1448057781.32;(0.5406516551971435, 0.6489776187472873);67.0353012085;1.0;11:00:23:849;0;15;0.74516129032258;1;0.0977517106549365;0;0;0;1;1;1;1;6;0;0;;0;0;();();(-2000.0, -2000.0);
11:00:23:882;11:00:23:830;1448057781.32;(0.5406516551971435, 0.6489776187472873);67.0353012085;1.0;11:00:23:882;0;0;1.03225806451613;1;0.0977517106549365;0;0;0;1;1;1;1;6;0;0;;0;0;();();(-2000.0, -2000.0);
11:00:23:898;11:00:23:898;1448057781.36;(0.5406070232391358, 0.6493782891167534);67.0314483643;1.0;11:00:23:898;0;5;0.690322580645161;1;0.293255131964809;0;0;0;1;1;1;1;6;0;0;;0;0;();();(-2000.0, -2000.0);
11:00:23:914;11:00:23:898;1448057781.39;(0.5404487609863281, 0.6491256290011935);66.9501342773;1.0;11:00:23:914;0;15;0.912903225806452;1;0.293255131964809;0;0;0;1;1;1;1;6;0;0;;0;0;();();(-2000.0, -2000.0);
11:00:23:931;11:00:23:898;1448057781.39;(0.5404487609863281, 0.6491256290011935);66.9501342773;1.0;11:00:23:931;0;4;1.68709677419355;1;0.0977517106549365;0;0;0;1;1;1;1;6;0;0;;0;0;();();(-2000.0, -2000.0);
11:00:23:947;11:00:23:898;1448057781.39;(0.5404487609863281, 0.6491256290011935);66.9501342773;1.0;11:00:23:947;0;15;1.77741935483871;1;0.293255131964809;0;0;0;1;1;1;1;6;0;0;;0;0;();();(-2000.0, -2000.0);
11:00:23:981;11:00:23:962;1448057781.46;(0.5404902458190918, 0.6491561889648437);66.2958145142;1.0;11:00:23:981;0;15;0.793548387096774;1;0.293255131964809;0;0;0;1;1;1;1;6;0;0;;0;0;();();(-2000.0, -2000.0);
11:00:23:998;11:00:23:962;1448057781.46;(0.5404902458190918, 0.6491561889648437);66.2958145142;1.0;11:00:23:998;0;4;1.36451612903226;1;0.0977517106549365;0;0;0;1;1;1;1;6;0;0;;0;0;();();(-2000.0, -2000.0);
11:00:24:014;11:00:23:962;1448057781.46;(0.5404902458190918, 0.6491561889648437);66.2958145142;1.0;11:00:24:014;0;9;1.51290322580645;1;0.293255131964809;0;0;0;1;1;1;1;6;0;0;;0;0;();();(-2000.0, -2000.0);
11:00:24:030;11:00:24:030;1448057781.52;(0.5404638290405274, 0.6492901060316298);66.5297241211;1.0;11:00:24:030;0;5;1.07741935483871;1;0.0977517106549365;0;0;0;1;1;1;1;6;0;0;;0;0;();();(-2000.0, -2000.0);
11:00:24:064;11:00:24:030;1448057781.52;(0.5404638290405274, 0.6492901060316298);66.5297241211;1.0;11:00:24:064;0;10;1.28709677419355;1;0.0977517106549365;0;0;0;1;1;1;1;6;0;0;;0;0;();();(-2000.0, -2000.0);
11:00:24:081;11:00:24:030;1448057781.52;(0.5404638290405274, 0.6492901060316298);66.5297241211;1.0;11:00:24:081;0;15;1.55483870967742;1;0.293255131964809;0;0;0;1;1;1;1;6;0;0;;0;0;();();(-2000.0, -2000.0);
11:00:24:097;11:00:24:094;1448057781.59;(0.540478515625, 0.649494997660319);66.9572296143;1.0;11:00:24:097;0;4;0.380645161290323;1;0.293255131964809;0;0;0;1;1;1;1;6;0;0;;0;0;();();(-2000.0, -2000.0);
11:00:24:113;11:00:24:094;1448057781.59;(0.540478515625, 0.649494997660319);66.9572296143;1.0;11:00:24:113;0;9;1.77741935483871;1;0.0977517106549365;0;0;0;1;1;1;1;6;0;0;;0;0;();();(-2000.0, -2000.0);
11:00:24:130;11:00:24:094;1448057781.59;(0.540478515625, 0.649494997660319);66.9572296143;1.0;11:00:24:130;0;4;1.46774193548387;1;0.0977517106549365;0;0;0;1;1;1;1;6;0;0;;0;0;();();(-2000.0, -2000.0);
11:00:24:164;11:00:24:162;1448057781.66;(0.5406547069549561, 0.6491362465752495);67.1335678101;1.0;11:00:24:164;0;4;0.977419354838709;1;0.293255131964809;0;0;0;1;1;1;1;6;0;0;;0;0;();();(-2000.0, -2000.0);
11:00:24:180;11:00:24:162;1448057781.66;(0.5406547069549561, 0.6491362465752495);67.1335678101;1.0;11:00:24:180;0;7;0.0709677419354837;1;0.293255131964809;0;0;0;1;1;1;1;6;0;0;;0;0;();();(-2000.0, -2000.0);
11:00:24:197;11:00:24:162;1448057781.66;(0.5406547069549561, 0.6491362465752495);67.1335678101;1.0;11:00:24:197;0;5;0.0870967741935482;1;0.0977517106549365;0;0;0;1;1;1;1;6;0;0;;0;0;();();(-2000.0, -2000.0);
11:00:24:213;11:00:24:162;1448057781.66;(0.5406547069549561, 0.6491362465752495);67.1335678101;1.0;11:00:24:213;0;10;0.138709677419355;1;0.293255131964809;0;0;0;1;1;1;1;6;0;0;;0;0;();();(-2000.0, -2000.0);
11:00:24:230;11:00:24:162;1448057781.66;(0.5406547069549561, 0.6491362465752495);67.1335678101;1.0;11:00:24:230;0;5;-0.364516129032258;1;0.293255131964809;0;0;0;1;1;1;1;6;0;0;;0;0;();();(-2000.0, -2000.0);
11:00:24:262;11:00:24:231;1448057781.72;(0.5409370422363281, 0.6489394929673937);67.6474227905;1.0;11:00:24:262;0;15;-0.832258064516129;1;0.0977517106549365;0;0;0;1;1;1;1;6;0;0;;0;0;();();(-2000.0, -2000.0);
11:00:24:279;11:00:24:231;1448057781.72;(0.5409370422363281, 0.6489394929673937);67.6474227905;1.0;11:00:24:279;0;10;-0.341935483870968;1;0.0977517106549365;0;0;0;1;1;1;1;6;0;0;;0;0;();();(-2000.0, -2000.0);
11:00:24:296;11:00:24:294;1448057781.79;(0.540763521194458, 0.6494937472873263);67.5768585205;1.0;11:00:24:296;0;15;-0.945161290322581;1;0.293255131964809;0;0;0;1;1;1;1;6;0;0;;0;0;();();(-2000.0, -2000.0);
11:00:24:312;11:00:24:294;1448057781.79;(0.540763521194458, 0.6494937472873263);67.5768585205;1.0;11:00:24:312;0;10;-0.906451612903226;1;0.0977517106549365;0;0;0;1;1;1;1;6;0;0;;0;0;();();(-2000.0, -2000.0);
11:00:24:328;11:00:24:294;1448057781.79;(0.540763521194458, 0.6494937472873263);67.5768585205;1.0;11:00:24:328;0;10;-0.906451612903226;1;0.0977517106549365;0;0;0;1;1;1;1;6;0;0;;0;0;();();(-2000.0, -2000.0);
11:00:24:362;11:00:24:362;1448057781.86;(0.5408898830413819, 0.6494650522867839);67.8160247803;1.0;11:00:24:362;0;0;-1.5;1;0.293255131964809;0;0;0;1;1;1;1;6;0;0;;0;0;();();(-2000.0, -2000.0);
11:00:24:379;11:00:24:362;1448057781.86;(0.5408898830413819, 0.6494650522867839);67.8160247803;1.0;11:00:24:379;0;10;-1.04838709677419;1;0.293255131964809;0;0;0;1;1;1;1;6;0;0;;0;0;();();(-2000.0, -2000.0);
11:00:24:395;11:00:24:362;1448057781.86;(0.5408898830413819, 0.6494650522867839);67.8160247803;1.0;11:00:24:395;0;15;-0.77741935483871;1;0.0977517106549365;0;0;0;1;1;1;1;6;0;0;;0;0;();();(-2000.0, -2000.0);
11:00:24:411;11:00:24:362;1448057781.86;(0.5408898830413819, 0.6494650522867839);67.8160247803;1.0;11:00:24:411;0;4;-0.880645161290323;1;0.293255131964809;0;0;0;1;1;1;1;6;0;0;;0;0;();();(-2000.0, -2000.0);
11:00:24:431;11:00:24:426;1448057781.92;(0.5409188747406006, 0.6498651504516602);67.2651596069;1.0;11:00:24:431;0;0;-1.13548387096774;1;0.0977517106549365;0;0;0;1;1;1;1;6;0;0;;0;0;();();(-2000.0, -2000.0);
11:00:24:461;11:00:24:426;1448057781.92;(0.5409188747406006, 0.6498651504516602);67.2651596069;1.0;11:00:24:461;0;15;-0.87741935483871;1;0.0977517106549365;0;0;0;1;1;1;1;6;0;0;;0;0;();();(-2000.0, -2000.0);
11:00:24:478;11:00:24:426;1448057781.92;(0.5409188747406006, 0.6498651504516602);67.2651596069;1.0;11:00:24:478;0;4;-1.12903225806452;1;0.293255131964809;0;0;0;1;1;1;1;6;0;0;;0;0;();();(-2000.0, -2000.0);
11:00:24:494;11:00:24:494;1448057781.99;(0.5410654544830322, 0.6493727366129558);67.1161422729;1.0;11:00:24:494;0;15;0.0709677419354837;1;0.293255131964809;0;0;0;1;1;1;1;6;0;0;;0;0;();();(-2000.0, -2000.0);
11:00:24:511;11:00:24:494;1448057781.99;(0.5410654544830322, 0.6493727366129558);67.1161422729;1.0;11:00:24:511;0;4;-0.67741935483871;1;0.293255131964809;0;0;0;1;1;1;1;6;0;0;;0;0;();();(-2000.0, -2000.0);
11:00:24:528;11:00:24:494;1448057781.99;(0.5410654544830322, 0.6493727366129558);67.1161422729;1.0;11:00:24:528;0;0;-0.754838709677419;1;0.293255131964809;0;0;0;1;1;1;1;6;0;0;;0;0;();();(-2000.0, -2000.0);
11:00:24:561;11:00:24:494;1448057781.99;(0.5410654544830322, 0.6493727366129558);67.1161422729;1.0;11:00:24:561;0;15;-0.148387096774194;1;0.293255131964809;0;0;0;1;1;1;1;6;0;0;;0;0;();();(-2000.0, -2000.0);
11:00:24:577;11:00:24:562;1448057782.06;(0.5408037662506103, 0.6493747499254015);67.0509185791;1.0;11:00:24:577;0;4;-0.419354838709677;1;0.0977517106549365;0;0;0;1;1;1;1;6;0;0;;0;0;();();(-2000.0, -2000.0);
11:00:24:593;11:00:24:562;1448057782.06;(0.5408037662506103, 0.6493747499254015);67.0509185791;1.0;11:00:24:593;0;10;-0.470967741935484;1;0.293255131964809;0;0;0;1;1;1;1;6;0;0;;0;0;();();(-2000.0, -2000.0);
11:00:24:610;11:00:24:562;1448057782.06;(0.5408037662506103, 0.6493747499254015);67.0509185791;1.0;11:00:24:610;0;5;-0.725806451612903;1;0.293255131964809;0;0;0;1;1;1;1;6;0;0;;0;0;();();(-2000.0, -2000.0);
11:00:24:644;11:00:24:627;1448057782.09;(0.5408787727355957, 0.6495185428195529);66.9659423828;1.0;11:00:24:644;0;4;0.232258064516129;1;0.293255131964809;0;0;0;1;1;1;1;6;0;0;;0;0;();();(-2000.0, -2000.0);
11:00:24:660;11:00:24:627;1448057782.09;(0.5408787727355957, 0.6495185428195529);66.9659423828;1.0;11:00:24:660;0;9;-0.77741935483871;1;0.293255131964809;0;0;0;1;1;1;1;6;0;0;;0;0;();();(-2000.0, -2000.0);
11:00:24:677;11:00:24:627;1448057782.09;(0.5408787727355957, 0.6495185428195529);66.9659423828;1.0;11:00:24:677;0;15;-0.303225806451613;1;0.293255131964809;0;0;0;1;1;1;1;6;0;0;;0;0;();();(-2000.0, -2000.0);
11:00:24:694;11:00:24:627;1448057782.09;(0.5408787727355957, 0.6495185428195529);66.9659423828;1.0;11:00:24:694;0;15;-0.303225806451613;1;0.293255131964809;0;0;0;1;1;1;1;6;0;0;;0;0;();();(-2000.0, -2000.0);
11:00:24:709;11:00:24:697;1448057782.19;(0.5411628246307373, 0.6496072133382161);66.6042251587;1.0;11:00:24:709;0;15;-0.429032258064516;1;0.293255131964809;0;0;0;1;1;1;1;6;0;0;;0;0;();();(-2000.0, -2000.0);
11:00:24:743;11:00:24:697;1448057782.19;(0.5411628246307373, 0.6496072133382161);66.6042251587;1.0;11:00:24:743;0;0;-0.548387096774194;1;0.293255131964809;0;0;0;1;1;1;1;6;0;0;;0;0;();();(-2000.0, -2000.0);
11:00:24:760;11:00:24:758;1448057782.26;(0.5409546852111816, 0.6496370527479384);66.7470474243;1.0;11:00:24:760;0;9;-0.593548387096774;1;0.293255131964809;0;0;0;1;1;1;1;6;0;0;;0;0;();();(-2000.0, -2000.0);
11:00:24:776;11:00:24:758;1448057782.26;(0.5409546852111816, 0.6496370527479384);66.7470474243;1.0;11:00:24:776;0;5;-0.312903225806452;1;0.0977517106549365;0;0;0;1;1;1;1;6;0;0;;0;0;();();(-2000.0, -2000.0);
11:00:24:792;11:00:24:758;1448057782.26;(0.5409546852111816, 0.6496370527479384);66.7470474243;1.0;11:00:24:792;0;4;-1.5;1;0.293255131964809;0;0;0;1;1;1;1;6;0;0;;0;0;();();(-2000.0, -2000.0);
11:00:24:809;11:00:24:758;1448057782.26;(0.5409546852111816, 0.6496370527479384);66.7470474243;1.0;11:00:24:809;0;15;-1.5;1;0.0977517106549365;0;0;0;1;1;1;1;6;0;0;;0;0;();();(-2000.0, -2000.0);
11:00:24:842;11:00:24:826;1448057782.32;(0.5411320686340332, 0.6493030760023328);66.8128814697;1.0;11:00:24:842;0;15;-1.5;1;0.293255131964809;0;0;0;1;1;1;1;6;0;0;;0;0;();();(-2000.0, -2000.0);
11:00:24:859;11:00:24:826;1448057782.32;(0.5411320686340332, 0.6493030760023328);66.8128814697;1.0;11:00:24:859;0;9;-1.5;1;0.0977517106549365;0;0;0;1;1;1;1;6;0;0;;0;0;();();(-2000.0, -2000.0);
11:00:24:875;11:00:24:826;1448057782.32;(0.5411320686340332, 0.6493030760023328);66.8128814697;1.0;11:00:24:875;0;15;0.0225806451612902;1;0.293255131964809;0;0;0;1;1;1;1;6;0;0;;0;0;();();(-2000.0, -2000.0);
11:00:24:892;11:00:24:826;1448057782.32;(0.5411320686340332, 0.6493030760023328);66.8128814697;1.0;11:00:24:892;0;4;-1.00967741935484;1;0.293255131964809;0;0;0;1;1;1;1;6;0;0;;0;0;();();(-2000.0, -2000.0);
11:00:24:908;11:00:24:895;1448057782.39;(0.5409410953521728, 0.6497451782226562);66.920249939;1.0;11:00:24:908;0;0;-0.161290322580645;1;0.293255131964809;0;0;0;1;1;1;1;6;0;0;;0;0;();();(-2000.0, -2000.0);
11:00:24:942;11:00:24:895;1448057782.39;(0.5409410953521728, 0.6497451782226562);66.920249939;1.0;11:00:24:942;0;15;0.0225806451612902;1;0.293255131964809;0;0;0;1;1;1;1;6;0;0;;0;0;();();(-2000.0, -2000.0);
11:00:24:958;11:00:24:895;1448057782.39;(0.5409410953521728, 0.6497451782226562);66.920249939;1.0;11:00:24:958;0;4;-0.212903225806452;1;0.0977517106549365;0;0;0;1;1;1;1;6;0;0;;0;0;();();(-2000.0, -2000.0);
11:00:24:975;11:00:24:959;1448057782.42;(0.5410097599029541, 0.6496166441175673);67.2800292969;1.0;11:00:24:975;0;15;-0.00967741935483879;1;0.0977517106549365;0;0;0;1;1;1;1;6;0;0;;0;0;();();(-2000.0, -2000.0);
11:00:24:992;11:00:24:959;1448057782.42;(0.5410097599029541, 0.6496166441175673);67.2800292969;1.0;11:00:24:992;0;15;-0.00967741935483879;1;0.0977517106549365;0;0;0;1;1;1;1;6;0;0;;0;0;();();(-2000.0, -2000.0);
11:00:25:008;11:00:24:959;1448057782.42;(0.5410097599029541, 0.6496166441175673);67.2800292969;1.0;11:00:25:008;0;10;-0.170967741935484;1;0.293255131964809;0;0;0;1;1;1;1;6;0;0;;0;0;();();(-2000.0, -2000.0);
11:00:25:041;11:00:25:026;1448057782.52;(0.5363338947296142, 0.6450455771552193);64.2007064819;0.873255323218;11:00:25:041;0;15;-0.106451612903226;1;0.0977517106549365;0;0;0;1;1;1;1;6;0;0;;0;0;();();(-2000.0, -2000.0);
11:00:25:057;11:00:25:026;1448057782.52;(0.5363338947296142, 0.6450455771552193);64.2007064819;0.873255323218;11:00:25:057;0;15;-0.106451612903226;1;0.0977517106549365;0;0;0;1;1;1;1;6;0;0;;0;0;();();(-2000.0, -2000.0);
11:00:25:074;11:00:25:026;1448057782.52;(0.5363338947296142, 0.6450455771552193);64.2007064819;0.873255323218;11:00:25:074;0;10;-0.57741935483871;1;0.293255131964809;0;0;0;1;1;1;1;6;0;0;;0;0;();();(-2000.0, -2000.0);
11:00:25:091;11:00:25:026;1448057782.52;(0.5363338947296142, 0.6450455771552193);64.2007064819;0.873255323218;11:00:25:091;0;5;-0.312903225806452;1;0.293255131964809;0;0;0;1;1;1;1;6;0;0;;0;0;();();(-2000.0, -2000.0);
11:00:25:108;11:00:25:095;1448057782.56;(0, 0);0;0;11:00:25:108;0;10;-0.341935483870968;1;0.0977517106549365;0;0;0;1;1;1;1;6;0;0;;0;0;();();(-2000.0, -2000.0);
11:00:25:140;11:00:25:095;1448057782.56;(0, 0);0;0;11:00:25:140;0;9;-1.18709677419355;1;0.293255131964809;0;0;0;1;1;1;1;6;0;0;;0;0;();();(-2000.0, -2000.0);
11:00:25:157;11:00:25:095;1448057782.56;(0, 0);0;0;11:00:25:157;0;0;-1.40967741935484;1;0.293255131964809;0;0;0;1;1;1;1;6;0;0;;0;0;();();(-2000.0, -2000.0);
11:00:25:174;11:00:25:158;1448057782.62;(0.5237475872039795, 0.6185974968804253);39.2211685181;0.615812187874;11:00:25:174;0;10;-1.12903225806452;1;0.293255131964809;0;0;0;1;1;1;1;6;0;0;;0;0;();();(-2000.0, -2000.0);
11:00:25:191;11:00:25:158;1448057782.62;(0.5237475872039795, 0.6185974968804253);39.2211685181;0.615812187874;11:00:25:191;0;15;-0.238709677419355;1;0.0977517106549365;0;0;0;1;1;1;1;6;0;0;;0;0;();();(-2000.0, -2000.0);
11:00:25:223;11:00:25:158;1448057782.62;(0.5237475872039795, 0.6185974968804253);39.2211685181;0.615812187874;11:00:25:223;0;8;0.874193548387097;1;0.0977517106549365;0;0;0;1;1;1;1;6;0;0;;0;0;();();(-2000.0, -2000.0);
11:00:25:239;11:00:25:158;1448057782.62;(0.5237475872039795, 0.6185974968804253);39.2211685181;0.615812187874;11:00:25:239;0;9;0.587096774193548;1;0.0977517106549365;0;0;0;1;1;1;1;6;0;0;;0;0;();();(-2000.0, -2000.0);
11:00:25:257;11:00:25:158;1448057782.62;(0.5237475872039795, 0.6185974968804253);39.2211685181;0.615812187874;11:00:25:257;0;15;0.654838709677419;1;0.293255131964809;0;0;0;1;1;1;1;6;0;0;;0;0;();();(-2000.0, -2000.0);
11:00:25:273;11:00:25:158;1448057782.62;(0.5237475872039795, 0.6185974968804253);39.2211685181;0.615812187874;11:00:25:273;0;10;-0.445161290322581;1;0.0977517106549365;0;0;0;1;1;1;1;6;0;0;;0;0;();();(-2000.0, -2000.0);
11:00:25:289;11:00:25:158;1448057782.62;(0.5237475872039795, 0.6185974968804253);39.2211685181;0.615812187874;11:00:25:289;0;15;1.06774193548387;1;0.293255131964809;0;0;0;1;1;1;1;6;0;0;;0;0;();();(-2000.0, -2000.0);
11:00:25:323;11:00:25:290;1448057782.79;(0.531757116317749, 0.6532609727647569);65.0601196289;1.0;11:00:25:323;0;15;0.612903225806452;1;0.293255131964809;0;0;0;1;1;1;1;6;0;0;;0;0;();();(-2000.0, -2000.0);
11:00:25:339;11:00:25:290;1448057782.79;(0.531757116317749, 0.6532609727647569);65.0601196289;1.0;11:00:25:339;0;5;0.977419354838709;1;0.293255131964809;0;0;0;1;1;1;1;6;0;0;;0;0;();();(-2000.0, -2000.0);
11:00:25:355;11:00:25:290;1448057782.79;(0.531757116317749, 0.6532609727647569);65.0601196289;1.0;11:00:25:355;0;15;1.61935483870968;1;0.0977517106549365;0;0;0;1;1;1;1;6;0;0;;0;0;();();(-2000.0, -2000.0);
11:00:25:372;11:00:25:357;1448057782.86;(0.532927417755127, 0.6536475499471028);64.5904846191;1.0;11:00:25:372;0;4;1.55483870967742;1;0.293255131964809;0;0;0;1;1;1;1;6;0;0;;0;0;();();(-2000.0, -2000.0);
11:00:25:390;11:00:25:357;1448057782.86;(0.532927417755127, 0.6536475499471028);64.5904846191;1.0;11:00:25:390;0;15;1.33870967741936;1;0.0977517106549365;0;0;0;1;1;1;1;6;0;0;;0;0;();();(-2000.0, -2000.0);
11:00:25:422;11:00:25:422;1448057782.89;(0.5328303337097168, 0.6537704467773438);65.1190261841;1.0;11:00:25:422;0;2;1.17096774193548;1;0.293255131964809;0;0;0;1;1;1;1;6;0;0;;0;0;();();(-2000.0, -2000.0);
11:00:25:439;11:00:25:422;1448057782.89;(0.5328303337097168, 0.6537704467773438);65.1190261841;1.0;11:00:25:439;0;4;1.71935483870968;1;0.293255131964809;0;0;0;1;1;1;1;6;0;0;;0;0;();();(-2000.0, -2000.0);
11:00:25:455;11:00:25:422;1448057782.89;(0.5328303337097168, 0.6537704467773438);65.1190261841;1.0;11:00:25:455;0;15;1.58387096774194;1;0.0977517106549365;0;0;0;1;1;1;1;6;0;0;;0;0;();();(-2000.0, -2000.0);
11:00:25:472;11:00:25:422;1448057782.89;(0.5328303337097168, 0.6537704467773438);65.1190261841;1.0;11:00:25:472;0;4;1.61612903225806;1;0.293255131964809;0;0;0;1;1;1;1;6;0;0;;0;0;();();(-2000.0, -2000.0);
11:00:25:488;11:00:25:422;1448057782.89;(0.5328303337097168, 0.6537704467773438);65.1190261841;1.0;11:00:25:488;0;0;1.64193548387097;1;0.293255131964809;0;0;0;1;1;1;1;6;0;0;;0;0;();();(-2000.0, -2000.0);
11:00:25:522;11:00:25:491;1448057782.96;(0.5331161499023438, 0.6537710401746961);65.5077438354;1.0;11:00:25:522;0;15;1.15161290322581;1;0.293255131964809;0;0;0;1;1;1;1;6;0;0;;0;0;();();(-2000.0, -2000.0);
11:00:25:538;11:00:25:491;1448057782.96;(0.5331161499023438, 0.6537710401746961);65.5077438354;1.0;11:00:25:538;0;9;0.316129032258064;1;0.293255131964809;0;0;0;1;1;1;1;6;0;0;;0;0;();();(-2000.0, -2000.0);
11:00:25:554;11:00:25:491;1448057782.96;(0.5331161499023438, 0.6537710401746961);65.5077438354;1.0;11:00:25:554;0;10;0.0999999999999999;1;0.293255131964809;0;0;0;1;1;1;1;6;0;0;;0;0;();();(-2000.0, -2000.0);
11:00:25:571;11:00:25:558;1448057783.02;(0.5332785606384277, 0.6535614649454753);65.8274841309;1.0;11:00:25:571;0;15;1.78064516129032;1;0.293255131964809;0;0;0;1;1;1;1;6;0;0;;0;0;();();(-2000.0, -2000.0);
11:00:25:588;11:00:25:558;1448057783.02;(0.5332785606384277, 0.6535614649454753);65.8274841309;1.0;11:00:25:588;0;10;1.76129032258065;1;0.293255131964809;0;0;0;1;1;1;1;6;0;0;;0;0;();();(-2000.0, -2000.0);
11:00:25:621;11:00:25:558;1448057783.02;(0.5332785606384277, 0.6535614649454753);65.8274841309;1.0;11:00:25:621;0;4;1.77741935483871;1;0.293255131964809;0;0;0;1;1;1;1;6;0;0;;0;0;();();(-2000.0, -2000.0);
11:00:25:637;11:00:25:625;1448057783.12;(0.5337811946868897, 0.6530302895439996);66.2304458618;1.0;11:00:25:637;0;4;1.77741935483871;1;0.293255131964809;0;0;0;1;1;1;1;6;0;0;;0;0;();();(-2000.0, -2000.0);
11:00:25:654;11:00:25:625;1448057783.12;(0.5337811946868897, 0.6530302895439996);66.2304458618;1.0;11:00:25:654;0;10;1.77741935483871;1;0.0977517106549365;0;0;0;1;1;1;1;6;0;0;;0;0;();();(-2000.0, -2000.0);
11:00:25:671;11:00:25:625;1448057783.12;(0.5337811946868897, 0.6530302895439996);66.2304458618;1.0;11:00:25:671;0;15;1.64516129032258;1;0.293255131964809;0;0;0;1;1;1;1;6;0;0;;0;0;();();(-2000.0, -2000.0);
11:00:25:688;11:00:25:625;1448057783.12;(0.5337811946868897, 0.6530302895439996);66.2304458618;1.0;11:00:25:688;0;10;0.538709677419355;1;0.0977517106549365;0;0;0;1;1;1;1;6;0;0;;0;0;();();(-2000.0, -2000.0);
11:00:25:720;11:00:25:691;1448057783.16;(0.5336961269378662, 0.6527106391059028);66.2501525879;1.0;11:00:25:720;0;9;0.561290322580645;1;0.293255131964809;0;0;0;1;1;1;1;6;0;0;;0;0;();();(-2000.0, -2000.0);
11:00:25:738;11:00:25:691;1448057783.16;(0.5336961269378662, 0.6527106391059028);66.2501525879;1.0;11:00:25:738;0;4;0.861290322580645;1;0.293255131964809;0;0;0;1;1;1;1;6;0;0;;0;0;();();(-2000.0, -2000.0);
11:00:25:754;11:00:25:754;1448057783.19;(0.5337469100952148, 0.6524357265896268);66.2049789429;1.0;11:00:25:754;0;4;1.78064516129032;1;0.293255131964809;0;0;0;1;1;1;1;6;0;0;;0;0;();();(-2000.0, -2000.0);
11:00:25:770;11:00:25:754;1448057783.22;(0.5336816310882568, 0.6529588275485568);66.1096420288;1.0;11:00:25:770;0;15;1.78064516129032;1;0.0977517106549365;0;0;0;1;1;1;1;6;0;0;;0;0;();();(-2000.0, -2000.0);
11:00:25:803;11:00:25:754;1448057783.22;(0.5336816310882568, 0.6529588275485568);66.1096420288;1.0;11:00:25:803;0;0;0.37741935483871;1;0.0977517106549365;0;0;0;1;1;1;1;6;0;0;;0;0;();();(-2000.0, -2000.0);
11:00:25:820;11:00:25:754;1448057783.22;(0.5336816310882568, 0.6529588275485568);66.1096420288;1.0;11:00:25:820;0;4;-0.596774193548387;1;0.293255131964809;0;0;0;1;1;1;1;6;0;0;;0;0;();();(-2000.0, -2000.0);
11:00:25:837;11:00:25:823;1448057783.29;(0.5316088676452637, 0.6527152591281467);65.9837646484;1.0;11:00:25:837;0;15;-1.3;1;0.0977517106549365;0;0;0;1;1;1;1;6;0;0;;0;0;();();(-2000.0, -2000.0);
11:00:25:853;11:00:25:823;1448057783.29;(0.5316088676452637, 0.6527152591281467);65.9837646484;1.0;11:00:25:853;0;4;-1.5;1;0.293255131964809;0;0;0;1;1;1;1;6;0;0;;0;0;();();(-2000.0, -2000.0);
11:00:25:870;11:00:25:823;1448057783.29;(0.5316088676452637, 0.6527152591281467);65.9837646484;1.0;11:00:25:870;0;15;-1.2741935483871;1;0.293255131964809;0;0;0;1;1;1;1;6;0;0;;0;0;();();(-2000.0, -2000.0);
11:00:25:903;11:00:25:886;1448057783.36;(0.5316216945648193, 0.6529465357462565);66.2524261475;1.0;11:00:25:903;0;15;-0.67741935483871;1;0.293255131964809;0;0;0;1;1;1;1;6;0;0;;0;0;();();(-2000.0, -2000.0);
11:00:25:919;11:00:25:886;1448057783.36;(0.5316216945648193, 0.6529465357462565);66.2524261475;1.0;11:00:25:919;0;4;-0.725806451612903;1;0.0977517106549365;0;0;0;1;1;1;1;6;0;0;;0;0;();();(-2000.0, -2000.0);
11:00:25:935;11:00:25:886;1448057783.36;(0.5316216945648193, 0.6529465357462565);66.2524261475;1.0;11:00:25:935;0;15;-0.364516129032258;1;0.293255131964809;0;0;0;1;1;1;1;6;0;0;;0;0;();();(-2000.0, -2000.0);
11:00:25:953;11:00:25:886;1448057783.36;(0.5316216945648193, 0.6529465357462565);66.2524261475;1.0;11:00:25:953;0;5;0.512903225806451;1;0.0977517106549365;0;0;0;1;1;1;1;6;0;0;;0;0;();();(-2000.0, -2000.0);
11:00:25:969;11:00:25:954;1448057783.42;(0.5315975666046142, 0.6536583158704969);66.194984436;1.0;11:00:25:969;0;10;0.512903225806451;1;0.293255131964809;0;0;0;1;1;1;1;6;0;0;;0;0;();();(-2000.0, -2000.0);
11:00:26:002;11:00:25:954;1448057783.42;(0.5315975666046142, 0.6536583158704969);66.194984436;1.0;11:00:26:002;0;9;-1.5;1;0.0977517106549365;0;0;0;1;1;1;1;6;0;0;;0;0;();();(-2000.0, -2000.0);
11:00:26:019;11:00:25:954;1448057783.42;(0.5315975666046142, 0.6536583158704969);66.194984436;1.0;11:00:26:018;0;4;-1.46129032258065;1;0.293255131964809;0;0;0;1;1;1;1;6;0;0;;0;0;();();(-2000.0, -2000.0);
11:00:26:035;11:00:26:023;1448057783.52;(0.5316812038421631, 0.653068733215332);65.3736953735;1.0;11:00:26:035;0;9;1.77741935483871;1;0.0977517106549365;0;0;0;1;1;1;1;6;0;0;;0;0;();();(-2000.0, -2000.0);
11:00:26:052;11:00:26:023;1448057783.52;(0.5316812038421631, 0.653068733215332);65.3736953735;1.0;11:00:26:052;0;5;1.76129032258065;1;0.293255131964809;0;0;0;1;1;1;1;6;0;0;;0;0;();();(-2000.0, -2000.0);
11:00:26:069;11:00:26:023;1448057783.52;(0.5316812038421631, 0.653068733215332);65.3736953735;1.0;11:00:26:069;0;10;0.151612903225806;1;0.0977517106549365;0;0;0;1;1;1;1;6;0;0;;0;0;();();(-2000.0, -2000.0);
11:00:26:101;11:00:26:087;1448057783.56;(0.5317257404327392, 0.6535769356621637);65.9728622437;1.0;11:00:26:101;0;9;-0.0548387096774194;1;0.293255131964809;0;0;0;1;1;1;1;6;0;0;;0;0;();();(-2000.0, -2000.0);
11:00:26:118;11:00:26:087;1448057783.56;(0.5317257404327392, 0.6535769356621637);65.9728622437;1.0;11:00:26:118;0;0;-0.783870967741936;1;0.293255131964809;0;0;0;1;1;1;1;6;0;0;;0;0;();();(-2000.0, -2000.0);
11:00:26:134;11:00:26:087;1448057783.56;(0.5317257404327392, 0.6535769356621637);65.9728622437;1.0;11:00:26:134;0;10;1.6741935483871;1;0.293255131964809;0;0;0;1;1;1;1;6;0;0;;0;0;();();(-2000.0, -2000.0);
11:00:26:151;11:00:26:087;1448057783.56;(0.5317257404327392, 0.6535769356621637);65.9728622437;1.0;11:00:26:151;0;10;1.6741935483871;1;0.293255131964809;0;0;0;1;1;1;1;6;0;0;;0;0;();();(-2000.0, -2000.0);
11:00:26:168;11:00:26:154;1448057783.62;(0.2850841999053955, 0.700370364718967);27.5902194977;0.716761099213;11:00:26:168;0;10;1.07741935483871;1;0.293255131964809;0;0;0;1;1;1;1;6;0;0;;0;0;();();(-2000.0, -2000.0);
11:00:26:202;11:00:26:154;1448057783.62;(0.2850841999053955, 0.700370364718967);27.5902194977;0.716761099213;11:00:26:202;0;5;1.13225806451613;1;0.293255131964809;0;0;0;1;1;1;1;6;0;0;;0;0;();();(-2000.0, -2000.0);
11:00:26:217;11:00:26:154;1448057783.62;(0.2850841999053955, 0.700370364718967);27.5902194977;0.716761099213;11:00:26:217;0;5;1.13225806451613;1;0.293255131964809;0;0;0;1;1;1;1;6;0;0;;0;0;();();(-2000.0, -2000.0);
