%Timestamp,timestamp_write;timestamp_gotpupil;eyetrackertime;norm_pos;diameter;confidence;nplanes;lastaction;lastactiondetails;lastactionairplanenumber;positivescore;negativescore;collidedairplanenumbers;targetpositions;collision_point
04:07:51:967;04:07:51:958;1448033030.03;(0.6678330898284912, 0.6550413131713867);57.6647262573;0.750451897385;0;0;0;;0;0;();();(0.0, 0.0);
04:07:51:969;04:07:51:958;1448033030.03;(0.6678330898284912, 0.6550413131713867);57.6647262573;0.750451897385;0;0;0;;0;0;();();(-2000.0, -2000.0);
04:07:51:969;04:07:51:958;1448033030.03;(0.6678330898284912, 0.6550413131713867);57.6647262573;0.750451897385;0;0;0;;0;0;();();(-2000.0, -2000.0);
04:07:51:969;04:07:51:958;1448033030.03;(0.6678330898284912, 0.6550413131713867);57.6647262573;0.750451897385;0;0;0;;0;0;();();(-2000.0, -2000.0);
04:07:51:969;04:07:51:958;1448033030.03;(0.6678330898284912, 0.6550413131713867);57.6647262573;0.750451897385;0;0;0;;0;0;();();(-2000.0, -2000.0);
04:07:51:970;04:07:51:958;1448033030.03;(0.6678330898284912, 0.6550413131713867);57.6647262573;0.750451897385;0;0;0;;0;0;();();(-2000.0, -2000.0);
04:07:51:970;04:07:51:958;1448033030.03;(0.6678330898284912, 0.6550413131713867);57.6647262573;0.750451897385;0;0;0;;0;0;();();(-2000.0, -2000.0);
04:07:51:970;04:07:51:958;1448033030.03;(0.6678330898284912, 0.6550413131713867);57.6647262573;0.750451897385;0;0;0;;0;0;();();(-2000.0, -2000.0);
04:07:51:970;04:07:51:958;1448033030.03;(0.6678330898284912, 0.6550413131713867);57.6647262573;0.750451897385;0;0;0;;0;0;();();(-2000.0, -2000.0);
04:07:51:970;04:07:51:958;1448033030.03;(0.6678330898284912, 0.6550413131713867);57.6647262573;0.750451897385;0;0;0;;0;0;();();(-2000.0, -2000.0);
04:07:51:970;04:07:51:958;1448033030.03;(0.6678330898284912, 0.6550413131713867);57.6647262573;0.750451897385;0;0;0;;0;0;();();(-2000.0, -2000.0);
04:07:51:970;04:07:51:958;1448033030.03;(0.6678330898284912, 0.6550413131713867);57.6647262573;0.750451897385;0;0;0;;0;0;();();(-2000.0, -2000.0);
04:07:51:970;04:07:51:958;1448033030.03;(0.6678330898284912, 0.6550413131713867);57.6647262573;0.750451897385;0;0;0;;0;0;();();(-2000.0, -2000.0);
04:07:51:971;04:07:51:958;1448033030.03;(0.6678330898284912, 0.6550413131713867);57.6647262573;0.750451897385;0;0;0;;0;0;();();(-2000.0, -2000.0);
04:07:51:971;04:07:51:958;1448033030.03;(0.6678330898284912, 0.6550413131713867);57.6647262573;0.750451897385;0;0;0;;0;0;();();(-2000.0, -2000.0);
04:07:51:971;04:07:51:958;1448033030.03;(0.6678330898284912, 0.6550413131713867);57.6647262573;0.750451897385;0;0;0;;0;0;();();(-2000.0, -2000.0);
04:07:51:984;04:07:51:958;1448033030.03;(0.6678330898284912, 0.6550413131713867);57.6647262573;0.750451897385;0;0;0;;0;0;();();(-2000.0, -2000.0);
04:07:52:000;04:07:51:958;1448033030.03;(0.6678330898284912, 0.6550413131713867);57.6647262573;0.750451897385;0;0;0;;0;0;();();(-2000.0, -2000.0);
04:07:52:016;04:07:51:958;1448033030.03;(0.6678330898284912, 0.6550413131713867);57.6647262573;0.750451897385;0;0;0;;0;0;();();(-2000.0, -2000.0);
04:07:52:049;04:07:51:958;1448033030.03;(0.6678330898284912, 0.6550413131713867);57.6647262573;0.750451897385;0;0;0;;0;0;();();(-2000.0, -2000.0);
04:07:52:066;04:07:51:958;1448033030.03;(0.6678330898284912, 0.6550413131713867);57.6647262573;0.750451897385;0;0;0;;0;0;();();(-2000.0, -2000.0);
04:07:52:084;04:07:51:958;1448033030.03;(0.6678330898284912, 0.6550413131713867);57.6647262573;0.750451897385;0;0;0;;0;0;();();(-2000.0, -2000.0);
04:07:52:099;04:07:51:958;1448033030.03;(0.6678330898284912, 0.6550413131713867);57.6647262573;0.750451897385;0;0;0;;0;0;();();(-2000.0, -2000.0);
04:07:52:116;04:07:52:108;1448033030.06;(0.6661727905273438, 0.6558697170681423);60.9220123291;0.75784885945;0;0;0;;0;0;();();(-2000.0, -2000.0);
04:07:52:149;04:07:52:108;1448033030.06;(0.6661727905273438, 0.6558697170681423);60.9220123291;0.75784885945;0;0;0;;0;0;();();(-2000.0, -2000.0);
04:07:52:167;04:07:52:157;1448033030.2;(0.666323184967041, 0.6550106896294488);58.5050163269;0.926056623635;0;0;0;;0;0;();();(-2000.0, -2000.0);
04:07:52:182;04:07:52:157;1448033030.2;(0.666323184967041, 0.6550106896294488);58.5050163269;0.926056623635;0;0;0;;0;0;();();(-2000.0, -2000.0);
04:07:52:199;04:07:52:157;1448033030.2;(0.666323184967041, 0.6550106896294488);58.5050163269;0.926056623635;0;0;0;;0;0;();();(-2000.0, -2000.0);
04:07:52:215;04:07:52:207;1448033030.29;(0.6666637420654297, 0.654106076558431);58.6677513123;1.0;0;0;0;;0;0;();();(-2000.0, -2000.0);
04:07:52:248;04:07:52:207;1448033030.29;(0.6666637420654297, 0.654106076558431);58.6677513123;1.0;0;0;0;;0;0;();();(-2000.0, -2000.0);
04:07:52:266;04:07:52:256;1448033030.33;(0.6664091110229492, 0.6538663016425239);59.2893028259;1.0;0;0;0;;0;0;();();(-2000.0, -2000.0);
04:07:52:282;04:07:52:256;1448033030.33;(0.6664091110229492, 0.6538663016425239);59.2893028259;1.0;0;0;0;;0;0;();();(-2000.0, -2000.0);
04:07:52:298;04:07:52:256;1448033030.33;(0.6664091110229492, 0.6538663016425239);59.2893028259;1.0;0;0;0;;0;0;();();(-2000.0, -2000.0);
04:07:52:315;04:07:52:256;1448033030.33;(0.6664091110229492, 0.6538663016425239);59.2893028259;1.0;0;0;0;;0;0;();();(-2000.0, -2000.0);
04:07:52:348;04:07:52:256;1448033030.33;(0.6664091110229492, 0.6538663016425239);59.2893028259;1.0;0;0;0;;0;0;();();(-2000.0, -2000.0);
04:07:52:365;04:07:52:256;1448033030.33;(0.6664091110229492, 0.6538663016425239);59.2893028259;1.0;0;0;0;;0;0;();();(-2000.0, -2000.0);
04:07:52:381;04:07:52:256;1448033030.33;(0.6664091110229492, 0.6538663016425239);59.2893028259;1.0;0;0;0;;0;0;();();(-2000.0, -2000.0);
04:07:52:398;04:07:52:256;1448033030.33;(0.6664091110229492, 0.6538663016425239);59.2893028259;1.0;0;0;0;;0;0;();();(-2000.0, -2000.0);
04:07:52:415;04:07:52:407;1448033030.36;(0.3129077672958374, 0.812492921617296);19.2847366333;0.605996596478;0;0;0;;0;0;();();(-2000.0, -2000.0);
04:07:52:447;04:07:52:407;1448033030.36;(0.3129077672958374, 0.812492921617296);19.2847366333;0.605996596478;0;0;0;;0;0;();();(-2000.0, -2000.0);
04:07:52:464;04:07:52:457;1448033030.52;(0.6240718841552735, 0.6630642784966363);61.0008659363;1.0;0;0;0;;0;0;();();(-2000.0, -2000.0);
04:07:52:481;04:07:52:457;1448033030.52;(0.6240718841552735, 0.6630642784966363);61.0008659363;1.0;0;0;0;;0;0;();();(-2000.0, -2000.0);
04:07:52:497;04:07:52:457;1448033030.52;(0.6240718841552735, 0.6630642784966363);61.0008659363;1.0;0;0;0;;0;0;();();(-2000.0, -2000.0);
04:07:52:514;04:07:52:505;1448033030.56;(0.624630355834961, 0.6629451751708985);61.4622344971;1.0;0;0;0;;0;0;();();(-2000.0, -2000.0);
04:07:52:547;04:07:52:505;1448033030.56;(0.624630355834961, 0.6629451751708985);61.4622344971;1.0;0;0;0;;0;0;();();(-2000.0, -2000.0);
04:07:52:563;04:07:52:557;1448033030.63;(0.3622403621673584, 0.7857406616210938);31.5501174927;0.762472666108;0;0;0;;0;0;();();(-2000.0, -2000.0);
04:07:52:580;04:07:52:557;1448033030.63;(0.3622403621673584, 0.7857406616210938);31.5501174927;0.762472666108;0;0;0;;0;0;();();(-2000.0, -2000.0);
04:07:52:597;04:07:52:557;1448033030.63;(0.3622403621673584, 0.7857406616210938);31.5501174927;0.762472666108;0;0;0;;0;0;();();(-2000.0, -2000.0);
04:07:52:629;04:07:52:557;1448033030.63;(0.3622403621673584, 0.7857406616210938);31.5501174927;0.762472666108;0;0;0;;0;0;();();(-2000.0, -2000.0);
04:07:52:646;04:07:52:557;1448033030.63;(0.3622403621673584, 0.7857406616210938);31.5501174927;0.762472666108;0;0;0;;0;0;();();(-2000.0, -2000.0);
04:07:52:664;04:07:52:557;1448033030.63;(0.3622403621673584, 0.7857406616210938);31.5501174927;0.762472666108;0;0;0;;0;0;();();(-2000.0, -2000.0);
04:07:52:680;04:07:52:557;1448033030.63;(0.3622403621673584, 0.7857406616210938);31.5501174927;0.762472666108;0;0;0;;0;0;();();(-2000.0, -2000.0);
04:07:52:696;04:07:52:557;1448033030.63;(0.3622403621673584, 0.7857406616210938);31.5501174927;0.762472666108;0;0;0;;0;0;();();(-2000.0, -2000.0);
04:07:52:729;04:07:52:705;1448033030.66;(0.6452595233917237, 0.6085117763943142);61.5500946045;0.954865163117;0;0;0;;0;0;();();(-2000.0, -2000.0);
04:07:52:746;04:07:52:705;1448033030.66;(0.6452595233917237, 0.6085117763943142);61.5500946045;0.954865163117;0;0;0;;0;0;();();(-2000.0, -2000.0);
04:07:52:762;04:07:52:753;1448033030.78;(0.3630171537399292, 0.7324480056762696);29.5797786713;0.702268463714;0;0;0;;0;0;();();(-2000.0, -2000.0);
04:07:52:779;04:07:52:753;1448033030.78;(0.3630171537399292, 0.7324480056762696);29.5797786713;0.702268463714;0;0;0;;0;0;();();(-2000.0, -2000.0);
04:07:52:795;04:07:52:753;1448033030.78;(0.3630171537399292, 0.7324480056762696);29.5797786713;0.702268463714;0;0;0;;0;0;();();(-2000.0, -2000.0);
04:07:52:829;04:07:52:806;1448033030.89;(0.6441163539886474, 0.6046429951985677);61.2548561096;1.0;0;0;0;;0;0;();();(-2000.0, -2000.0);
04:07:52:845;04:07:52:806;1448033030.89;(0.6441163539886474, 0.6046429951985677);61.2548561096;1.0;0;0;0;;0;0;();();(-2000.0, -2000.0);
04:07:52:862;04:07:52:806;1448033030.89;(0.6441163539886474, 0.6046429951985677);61.2548561096;1.0;0;0;0;;0;0;();();(-2000.0, -2000.0);
04:07:52:878;04:07:52:806;1448033030.89;(0.6441163539886474, 0.6046429951985677);61.2548561096;1.0;0;0;0;;0;0;();();(-2000.0, -2000.0);
04:07:52:894;04:07:52:806;1448033030.89;(0.6441163539886474, 0.6046429951985677);61.2548561096;1.0;0;0;0;;0;0;();();(-2000.0, -2000.0);
04:07:52:928;04:07:52:906;1448033030.99;(0.6528851509094238, 0.592925304836697);60.338104248;1.0;0;0;0;;0;0;();();(-2000.0, -2000.0);
04:07:52:945;04:07:52:906;1448033030.99;(0.6528851509094238, 0.592925304836697);60.338104248;1.0;0;0;0;;0;0;();();(-2000.0, -2000.0);
04:07:52:961;04:07:52:956;1448033031.03;(0.6526997566223145, 0.5935504489474827);60.5362281799;1.0;0;0;0;;0;0;();();(-2000.0, -2000.0);
04:07:52:978;04:07:52:956;1448033031.03;(0.6526997566223145, 0.5935504489474827);60.5362281799;1.0;0;0;0;;0;0;();();(-2000.0, -2000.0);
04:07:52:994;04:07:52:956;1448033031.03;(0.6526997566223145, 0.5935504489474827);60.5362281799;1.0;0;0;0;;0;0;();();(-2000.0, -2000.0);
04:07:53:027;04:07:53:005;1448033031.09;(0.6524385452270508, 0.5948585086398654);59.9479637146;1.0;0;0;0;;0;0;();();(-2000.0, -2000.0);
04:07:53:044;04:07:53:005;1448033031.09;(0.6524385452270508, 0.5948585086398654);59.9479637146;1.0;0;0;0;;0;0;();();(-2000.0, -2000.0);
04:07:53:060;04:07:53:053;1448033031.13;(0.6521808624267578, 0.595466571384006);59.9061775208;1.0;0;0;0;;0;0;();();(-2000.0, -2000.0);
04:07:53:077;04:07:53:053;1448033031.13;(0.6521808624267578, 0.595466571384006);59.9061775208;1.0;0;0;0;;0;0;();();(-2000.0, -2000.0);
04:07:53:110;04:07:53:102;1448033031.16;(0.6519857883453369, 0.5959114498562283);60.0520706177;1.0;0;0;0;;0;0;();();(-2000.0, -2000.0);
04:07:53:126;04:07:53:102;1448033031.16;(0.6519857883453369, 0.5959114498562283);60.0520706177;1.0;0;0;0;;0;0;();();(-2000.0, -2000.0);
04:07:53:143;04:07:53:102;1448033031.16;(0.6519857883453369, 0.5959114498562283);60.0520706177;1.0;0;0;0;;0;0;();();(-2000.0, -2000.0);
04:07:53:159;04:07:53:157;1448033031.23;(0.6517878532409668, 0.5972488403320313);60.207736969;1.0;0;0;0;;0;0;();();(-2000.0, -2000.0);
04:07:53:176;04:07:53:157;1448033031.23;(0.6517878532409668, 0.5972488403320313);60.207736969;1.0;0;0;0;;0;0;();();(-2000.0, -2000.0);
04:07:53:209;04:07:53:157;1448033031.23;(0.6517878532409668, 0.5972488403320313);60.207736969;1.0;0;0;0;;0;0;();();(-2000.0, -2000.0);
04:07:53:226;04:07:53:212;1448033031.26;(0.6514776706695556, 0.5976043701171875);60.3340988159;1.0;0;0;0;;0;0;();();(-2000.0, -2000.0);
04:07:53:243;04:07:53:212;1448033031.26;(0.6514776706695556, 0.5976043701171875);60.3340988159;1.0;0;0;0;;0;0;();();(-2000.0, -2000.0);
04:07:53:259;04:07:53:257;1448033031.33;(0.6507732391357421, 0.5985891554090712);60.5466537476;1.0;0;0;0;;0;0;();();(-2000.0, -2000.0);
04:07:53:275;04:07:53:257;1448033031.33;(0.6507732391357421, 0.5985891554090712);60.5466537476;1.0;0;0;0;;0;0;();();(-2000.0, -2000.0);
04:07:53:309;04:07:53:300;1448033031.36;(0.6498311996459961, 0.5995296902126737);60.8953437805;1.0;0;0;0;;0;0;();();(-2000.0, -2000.0);
04:07:53:326;04:07:53:300;1448033031.36;(0.6498311996459961, 0.5995296902126737);60.8953437805;1.0;0;0;0;;0;0;();();(-2000.0, -2000.0);
04:07:53:342;04:07:53:300;1448033031.36;(0.6498311996459961, 0.5995296902126737);60.8953437805;1.0;0;0;0;;0;0;();();(-2000.0, -2000.0);
04:07:53:359;04:07:53:356;1448033031.43;(0.5608996391296387, 0.4864825354682074);59.3198814392;0.610369357401;0;0;0;;0;0;();();(-2000.0, -2000.0);
04:07:53:375;04:07:53:356;1448033031.43;(0.5608996391296387, 0.4864825354682074);59.3198814392;0.610369357401;0;0;0;;0;0;();();(-2000.0, -2000.0);
04:07:53:409;04:07:53:402;1448033031.46;(0.645235824584961, 0.5896923065185546);49.825969696;0.623985247485;0;0;0;;0;0;();();(-2000.0, -2000.0);
04:07:53:425;04:07:53:402;1448033031.46;(0.645235824584961, 0.5896923065185546);49.825969696;0.623985247485;0;0;0;;0;0;();();(-2000.0, -2000.0);
04:07:53:441;04:07:53:402;1448033031.46;(0.645235824584961, 0.5896923065185546);49.825969696;0.623985247485;0;0;0;;0;0;();();(-2000.0, -2000.0);
04:07:53:458;04:07:53:453;1448033031.49;(0.6480387210845947, 0.6030462900797526);55.6237564087;0.744963491857;0;0;0;;0;0;();();(-2000.0, -2000.0);
04:07:53:474;04:07:53:453;1448033031.49;(0.6480387210845947, 0.6030462900797526);55.6237564087;0.744963491857;0;0;0;;0;0;();();(-2000.0, -2000.0);
04:07:53:508;04:07:53:502;1448033031.56;(0.6464701652526855, 0.606621339586046);61.1779785156;1.0;0;0;0;;0;0;();();(-2000.0, -2000.0);
04:07:53:524;04:07:53:502;1448033031.56;(0.6464701652526855, 0.606621339586046);61.1779785156;1.0;0;0;0;;0;0;();();(-2000.0, -2000.0);
04:07:53:541;04:07:53:502;1448033031.56;(0.6464701652526855, 0.606621339586046);61.1779785156;1.0;0;0;0;;0;0;();();(-2000.0, -2000.0);
04:07:53:557;04:07:53:552;1448033031.63;(0.6468216419219971, 0.6064637925889758);61.5061302185;1.0;0;0;0;;0;0;();();(-2000.0, -2000.0);
04:07:53:574;04:07:53:552;1448033031.63;(0.6468216419219971, 0.6064637925889758);61.5061302185;1.0;0;0;0;;0;0;();();(-2000.0, -2000.0);
04:07:53:606;04:07:53:601;1448033031.69;(0.6471737861633301, 0.6065550486246745);61.3044471741;1.0;0;0;0;;0;0;();();(-2000.0, -2000.0);
04:07:53:624;04:07:53:601;1448033031.69;(0.6471737861633301, 0.6065550486246745);61.3044471741;1.0;0;0;0;;0;0;();();(-2000.0, -2000.0);
04:07:53:640;04:07:53:601;1448033031.69;(0.6471737861633301, 0.6065550486246745);61.3044471741;1.0;0;0;0;;0;0;();();(-2000.0, -2000.0);
04:07:53:656;04:07:53:649;1448033031.73;(0.6470889568328857, 0.6069073147243924);61.2614860535;1.0;0;0;0;;0;0;();();(-2000.0, -2000.0);
04:07:53:690;04:07:53:649;1448033031.73;(0.6470889568328857, 0.6069073147243924);61.2614860535;1.0;0;0;0;;0;0;();();(-2000.0, -2000.0);
04:07:53:707;04:07:53:701;1448033031.76;(0.6471221923828125, 0.6069807688395182);61.2978782654;1.0;0;0;0;;0;0;();();(-2000.0, -2000.0);
04:07:53:723;04:07:53:701;1448033031.76;(0.6471221923828125, 0.6069807688395182);61.2978782654;1.0;0;0;0;;0;0;();();(-2000.0, -2000.0);
04:07:53:740;04:07:53:701;1448033031.76;(0.6471221923828125, 0.6069807688395182);61.2978782654;1.0;0;0;0;;0;0;();();(-2000.0, -2000.0);
04:07:53:756;04:07:53:753;1448033031.83;(0.6469199180603027, 0.6072034200032552);61.4251785278;1.0;0;0;0;;0;0;();();(-2000.0, -2000.0);
04:07:53:789;04:07:53:753;1448033031.83;(0.6469199180603027, 0.6072034200032552);61.4251785278;1.0;0;0;0;;0;0;();();(-2000.0, -2000.0);
04:07:53:806;04:07:53:802;1448033031.86;(0.6468245029449463, 0.6074236551920573);61.8354034424;1.0;0;0;0;;0;0;();();(-2000.0, -2000.0);
04:07:53:822;04:07:53:802;1448033031.86;(0.6468245029449463, 0.6074236551920573);61.8354034424;1.0;0;0;0;;0;0;();();(-2000.0, -2000.0);
04:07:53:839;04:07:53:802;1448033031.86;(0.6468245029449463, 0.6074236551920573);61.8354034424;1.0;0;0;0;;0;0;();();(-2000.0, -2000.0);
04:07:53:856;04:07:53:849;1448033031.93;(0.6465672969818115, 0.6078288184271918);61.7849273682;1.0;0;0;0;;0;0;();();(-2000.0, -2000.0);
04:07:53:889;04:07:53:849;1448033031.93;(0.6465672969818115, 0.6078288184271918);61.7849273682;1.0;0;0;0;;0;0;();();(-2000.0, -2000.0);
04:07:53:905;04:07:53:901;1448033031.96;(0.6465913772583007, 0.6070245954725477);61.9145622253;1.0;0;0;0;;0;0;();();(-2000.0, -2000.0);
04:07:53:922;04:07:53:901;1448033031.96;(0.6465913772583007, 0.6070245954725477);61.9145622253;1.0;0;0;0;;0;0;();();(-2000.0, -2000.0);
04:07:53:939;04:07:53:901;1448033031.96;(0.6465913772583007, 0.6070245954725477);61.9145622253;1.0;0;0;0;;0;0;();();(-2000.0, -2000.0);
04:07:53:955;04:07:53:949;1448033032.03;(0.6465113162994385, 0.6070079379611545);61.9125518799;1.0;0;0;0;;0;0;();();(-2000.0, -2000.0);
04:07:53:988;04:07:53:949;1448033032.03;(0.6465113162994385, 0.6070079379611545);61.9125518799;1.0;0;0;0;;0;0;();();(-2000.0, -2000.0);
04:07:54:004;04:07:53:997;1448033032.06;(0.5163256645202636, 0.8603231324089898);24.9351482391;0.953125257915;0;0;0;;0;0;();();(-2000.0, -2000.0);
04:07:54:021;04:07:53:997;1448033032.06;(0.5163256645202636, 0.8603231324089898);24.9351482391;0.953125257915;0;0;0;;0;0;();();(-2000.0, -2000.0);
04:07:54:038;04:07:53:997;1448033032.06;(0.5163256645202636, 0.8603231324089898);24.9351482391;0.953125257915;0;0;0;;0;0;();();(-2000.0, -2000.0);
04:07:54:054;04:07:54:049;1448033032.09;(0.5167195320129394, 0.8604412502712674);25.8464164734;0.969279923303;0;0;0;;0;0;();();(-2000.0, -2000.0);
04:07:54:087;04:07:54:049;1448033032.09;(0.5167195320129394, 0.8604412502712674);25.8464164734;0.969279923303;0;0;0;;0;0;();();(-2000.0, -2000.0);
04:07:54:104;04:07:54:097;1448033032.16;(0.3635594606399536, 0.6949570126003689);21.3802375793;0.81836723502;0;0;0;;0;0;();();(-2000.0, -2000.0);
04:07:54:120;04:07:54:097;1448033032.16;(0.3635594606399536, 0.6949570126003689);21.3802375793;0.81836723502;0;0;0;;0;0;();();(-2000.0, -2000.0);
04:07:54:137;04:07:54:097;1448033032.16;(0.3635594606399536, 0.6949570126003689);21.3802375793;0.81836723502;0;0;0;;0;0;();();(-2000.0, -2000.0);
04:07:54:154;04:07:54:097;1448033032.16;(0.3635594606399536, 0.6949570126003689);21.3802375793;0.81836723502;0;0;0;;0;0;();();(-2000.0, -2000.0);
04:07:54:187;04:07:54:156;1448033032.23;(0.3649538278579712, 0.695535871717665);23.6783256531;0.877756563263;0;0;0;;0;0;();();(-2000.0, -2000.0);
04:07:54:204;04:07:54:197;1448033032.26;(0.36425180435180665, 0.6961473041110569);23.5814418793;0.973150022596;0;0;0;;0;0;();();(-2000.0, -2000.0);
04:07:54:220;04:07:54:197;1448033032.26;(0.36425180435180665, 0.6961473041110569);23.5814418793;0.973150022596;0;0;0;;0;0;();();(-2000.0, -2000.0);
04:07:54:237;04:07:54:197;1448033032.26;(0.36425180435180665, 0.6961473041110569);23.5814418793;0.973150022596;0;0;0;;0;0;();();(-2000.0, -2000.0);
04:07:54:270;04:07:54:249;1448033032.33;(0.36442222595214846, 0.6976653628879124);25.3010673523;0.993613042084;0;0;0;;0;0;();();(-2000.0, -2000.0);
04:07:54:286;04:07:54:249;1448033032.33;(0.36442222595214846, 0.6976653628879124);25.3010673523;0.993613042084;0;0;0;;0;0;();();(-2000.0, -2000.0);
04:07:54:303;04:07:54:298;1448033032.36;(0.3641366720199585, 0.6987546708848742);24.3924102783;0.809949563675;0;0;0;;0;0;();();(-2000.0, -2000.0);
04:07:54:320;04:07:54:298;1448033032.36;(0.3641366720199585, 0.6987546708848742);24.3924102783;0.809949563675;0;0;0;;0;0;();();(-2000.0, -2000.0);
04:07:54:336;04:07:54:298;1448033032.36;(0.3641366720199585, 0.6987546708848742);24.3924102783;0.809949563675;0;0;0;;0;0;();();(-2000.0, -2000.0);
04:07:54:369;04:07:54:349;1448033032.43;(0.3653175592422485, 0.7009664535522461);25.2738285065;0.877406092151;0;0;0;;0;0;();();(-2000.0, -2000.0);
04:07:54:386;04:07:54:349;1448033032.43;(0.3653175592422485, 0.7009664535522461);25.2738285065;0.877406092151;0;0;0;;0;0;();();(-2000.0, -2000.0);
04:07:54:402;04:07:54:397;1448033032.46;(0.6527912139892578, 0.6058695475260416);60.5295295715;1.0;0;0;0;;0;0;();();(-2000.0, -2000.0);
04:07:54:419;04:07:54:397;1448033032.46;(0.6527912139892578, 0.6058695475260416);60.5295295715;1.0;0;0;0;;0;0;();();(-2000.0, -2000.0);
04:07:54:435;04:07:54:397;1448033032.46;(0.6527912139892578, 0.6058695475260416);60.5295295715;1.0;0;0;0;;0;0;();();(-2000.0, -2000.0);
04:07:54:468;04:07:54:445;1448033032.49;(0.6521286487579345, 0.60576171875);60.4897232056;0.967452479462;0;0;0;;0;0;();();(-2000.0, -2000.0);
04:07:54:485;04:07:54:445;1448033032.49;(0.6521286487579345, 0.60576171875);60.4897232056;0.967452479462;0;0;0;;0;0;();();(-2000.0, -2000.0);
04:07:54:502;04:07:54:497;1448033032.56;(0.6326021194458008, 0.618505859375);61.2933044434;0.910913939781;0;0;0;;0;0;();();(-2000.0, -2000.0);
04:07:54:519;04:07:54:497;1448033032.56;(0.6326021194458008, 0.618505859375);61.2933044434;0.910913939781;0;0;0;;0;0;();();(-2000.0, -2000.0);
04:07:54:534;04:07:54:497;1448033032.56;(0.6326021194458008, 0.618505859375);61.2933044434;0.910913939781;0;0;0;;0;0;();();(-2000.0, -2000.0);
04:07:54:568;04:07:54:549;1448033032.63;(0.6341231346130372, 0.6189083099365235);61.4797973633;1.0;0;0;0;;0;0;();();(-2000.0, -2000.0);
04:07:54:585;04:07:54:549;1448033032.63;(0.6341231346130372, 0.6189083099365235);61.4797973633;1.0;0;0;0;;0;0;();();(-2000.0, -2000.0);
04:07:54:601;04:07:54:598;1448033032.66;(0.6341842174530029, 0.6190543704562717);61.6456604004;1.0;0;0;0;;0;0;();();(-2000.0, -2000.0);
04:07:54:618;04:07:54:598;1448033032.66;(0.6341842174530029, 0.6190543704562717);61.6456604004;1.0;0;0;0;;0;0;();();(-2000.0, -2000.0);
04:07:54:635;04:07:54:598;1448033032.66;(0.6341842174530029, 0.6190543704562717);61.6456604004;1.0;0;0;0;;0;0;();();(-2000.0, -2000.0);
04:07:54:667;04:07:54:654;1448033032.69;(0.6339964389801025, 0.6191727108425564);61.8916969299;1.0;0;0;0;;0;0;();();(-2000.0, -2000.0);
04:07:54:684;04:07:54:654;1448033032.69;(0.6339964389801025, 0.6191727108425564);61.8916969299;1.0;0;0;0;;0;0;();();(-2000.0, -2000.0);
04:07:54:707;04:07:54:698;1448033032.76;(0.633900260925293, 0.6190212673611111);62.3306274414;1.0;0;0;0;;0;0;();();(-2000.0, -2000.0);
04:07:54:717;04:07:54:698;1448033032.76;(0.633900260925293, 0.6190212673611111);62.3306274414;1.0;0;0;0;;0;0;();();(-2000.0, -2000.0);
04:07:54:734;04:07:54:698;1448033032.76;(0.633900260925293, 0.6190212673611111);62.3306274414;1.0;0;0;0;;0;0;();();(-2000.0, -2000.0);
04:07:54:766;04:07:54:753;1448033032.83;(0.6342313766479493, 0.6184691958957248);62.2542419434;1.0;0;0;0;;0;0;();();(-2000.0, -2000.0);
04:07:54:784;04:07:54:753;1448033032.83;(0.6342313766479493, 0.6184691958957248);62.2542419434;1.0;0;0;0;;0;0;();();(-2000.0, -2000.0);
04:07:54:800;04:07:54:797;1448033032.86;(0.63453049659729, 0.6181611802842881);62.1637802124;1.0;0;0;0;;0;0;();();(-2000.0, -2000.0);
04:07:54:817;04:07:54:797;1448033032.86;(0.63453049659729, 0.6181611802842881);62.1637802124;1.0;0;0;0;;0;0;();();(-2000.0, -2000.0);
04:07:54:849;04:07:54:844;1448033032.93;(0.6351237773895264, 0.6190585242377387);62.1057624817;1.0;0;0;0;;0;0;();();(-2000.0, -2000.0);
04:07:54:866;04:07:54:844;1448033032.93;(0.6351237773895264, 0.6190585242377387);62.1057624817;1.0;0;0;0;;0;0;();();(-2000.0, -2000.0);
04:07:54:883;04:07:54:844;1448033032.93;(0.6351237773895264, 0.6190585242377387);62.1057624817;1.0;0;0;0;;0;0;();();(-2000.0, -2000.0);
04:07:54:900;04:07:54:893;1448033032.96;(0.6349174022674561, 0.619466569688585);62.0230255127;1.0;0;0;0;;0;0;();();(-2000.0, -2000.0);
04:07:54:915;04:07:54:893;1448033032.96;(0.6349174022674561, 0.619466569688585);62.0230255127;1.0;0;0;0;;0;0;();();(-2000.0, -2000.0);
04:07:54:949;04:07:54:945;1448033033.03;(0.6349760055541992, 0.6201176113552518);62.277545929;1.0;0;0;0;;0;0;();();(-2000.0, -2000.0);
04:07:54:966;04:07:54:945;1448033033.03;(0.6349760055541992, 0.6201176113552518);62.277545929;1.0;0;0;0;;0;0;();();(-2000.0, -2000.0);
04:07:54:983;04:07:54:945;1448033033.03;(0.6349760055541992, 0.6201176113552518);62.277545929;1.0;0;0;0;;0;0;();();(-2000.0, -2000.0);
04:07:54:999;04:07:54:993;1448033033.06;(0.6352409839630127, 0.6200549655490452);61.877368927;1.0;0;0;0;;0;0;();();(-2000.0, -2000.0);
04:07:55:015;04:07:54:993;1448033033.06;(0.6352409839630127, 0.6200549655490452);61.877368927;1.0;0;0;0;;0;0;();();(-2000.0, -2000.0);
04:07:55:048;04:07:54:993;1448033033.06;(0.6352409839630127, 0.6200549655490452);61.877368927;1.0;0;0;0;;0;0;();();(-2000.0, -2000.0);
04:07:55:065;04:07:54:993;1448033033.06;(0.6352409839630127, 0.6200549655490452);61.877368927;1.0;0;0;0;;0;0;();();(-2000.0, -2000.0);
04:07:55:082;04:07:54:993;1448033033.06;(0.6352409839630127, 0.6200549655490452);61.877368927;1.0;0;0;0;;0;0;();();(-2000.0, -2000.0);
04:07:55:098;04:07:54:993;1448033033.06;(0.6352409839630127, 0.6200549655490452);61.877368927;1.0;0;0;0;;0;0;();();(-2000.0, -2000.0);
04:07:55:114;04:07:54:993;1448033033.06;(0.6352409839630127, 0.6200549655490452);61.877368927;1.0;0;0;0;;0;0;();();(-2000.0, -2000.0);
04:07:55:148;04:07:55:145;1448033033.09;(0.6439155578613281, 0.6139113532172309);68.2567367554;0.830826258147;0;0;0;;0;0;();();(-2000.0, -2000.0);
04:07:55:165;04:07:55:145;1448033033.09;(0.6439155578613281, 0.6139113532172309);68.2567367554;0.830826258147;0;0;0;;0;0;();();(-2000.0, -2000.0);
04:07:55:180;04:07:55:145;1448033033.09;(0.6439155578613281, 0.6139113532172309);68.2567367554;0.830826258147;0;0;0;;0;0;();();(-2000.0, -2000.0);
04:07:55:197;04:07:55:194;1448033033.25;(0.6529261589050293, 0.6064027574327258);61.5271987915;1.0;0;0;0;;0;0;();();(-2000.0, -2000.0);
04:07:55:214;04:07:55:198;1448033033.26;(0.652784776687622, 0.6068614112006294);61.2251815796;1.0;0;0;0;;0;0;();();(-2000.0, -2000.0);
04:07:55:246;04:07:55:244;1448033033.33;(0.6527815818786621, 0.6067680358886719);60.7982025146;1.0;0;0;0;;0;0;();();(-2000.0, -2000.0);
04:07:55:263;04:07:55:244;1448033033.33;(0.6527815818786621, 0.6067680358886719);60.7982025146;1.0;0;0;0;;0;0;();();(-2000.0, -2000.0);
04:07:55:281;04:07:55:244;1448033033.33;(0.6527815818786621, 0.6067680358886719);60.7982025146;1.0;0;0;0;;0;0;();();(-2000.0, -2000.0);
04:07:55:297;04:07:55:293;1448033033.36;(0.653030252456665, 0.6061724344889323);60.8273010254;1.0;0;0;0;;0;0;();();(-2000.0, -2000.0);
04:07:55:330;04:07:55:293;1448033033.36;(0.653030252456665, 0.6061724344889323);60.8273010254;1.0;0;0;0;;0;0;();();(-2000.0, -2000.0);
04:07:55:346;04:07:55:341;1448033033.43;(0.653437614440918, 0.6068638271755642);60.0691986084;1.0;0;0;0;;0;0;();();(-2000.0, -2000.0);
04:07:55:363;04:07:55:341;1448033033.43;(0.653437614440918, 0.6068638271755642);60.0691986084;1.0;0;0;0;;0;0;();();(-2000.0, -2000.0);
04:07:55:380;04:07:55:341;1448033033.43;(0.653437614440918, 0.6068638271755642);60.0691986084;1.0;0;0;0;;0;0;();();(-2000.0, -2000.0);
04:07:55:396;04:07:55:396;1448033033.46;(0.6535234928131104, 0.6070835961235894);59.782623291;1.0;0;0;0;;0;0;();();(-2000.0, -2000.0);
04:07:55:429;04:07:55:396;1448033033.46;(0.6535234928131104, 0.6070835961235894);59.782623291;1.0;0;0;0;;0;0;();();(-2000.0, -2000.0);
04:07:55:445;04:07:55:441;1448033033.53;(0.6529358863830567, 0.6080400254991319);60.0674362183;1.0;0;0;0;;0;0;();();(-2000.0, -2000.0);
04:07:55:462;04:07:55:441;1448033033.53;(0.6529358863830567, 0.6080400254991319);60.0674362183;1.0;0;0;0;;0;0;();();(-2000.0, -2000.0);
04:07:55:479;04:07:55:441;1448033033.53;(0.6529358863830567, 0.6080400254991319);60.0674362183;1.0;0;0;0;;0;0;();();(-2000.0, -2000.0);
04:07:55:496;04:07:55:493;1448033033.56;(0.6527798652648926, 0.607806650797526);60.371761322;1.0;0;0;0;;0;0;();();(-2000.0, -2000.0);
04:07:55:530;04:07:55:493;1448033033.56;(0.6527798652648926, 0.607806650797526);60.371761322;1.0;0;0;0;;0;0;();();(-2000.0, -2000.0);
04:07:55:545;04:07:55:542;1448033033.59;(0.6527381896972656, 0.6078618791368273);60.4250450134;1.0;0;0;0;;0;0;();();(-2000.0, -2000.0);
04:07:55:561;04:07:55:542;1448033033.59;(0.6527381896972656, 0.6078618791368273);60.4250450134;1.0;0;0;0;;0;0;();();(-2000.0, -2000.0);
04:07:55:578;04:07:55:542;1448033033.59;(0.6527381896972656, 0.6078618791368273);60.4250450134;1.0;0;0;0;;0;0;();();(-2000.0, -2000.0);
04:07:55:595;04:07:55:594;1448033033.66;(0.3671807050704956, 0.7201244142320421);28.278263092;0.876171740854;0;0;0;;0;0;();();(-2000.0, -2000.0);
04:07:55:628;04:07:55:594;1448033033.66;(0.3671807050704956, 0.7201244142320421);28.278263092;0.876171740854;0;0;0;;0;0;();();(-2000.0, -2000.0);
04:07:55:644;04:07:55:641;1448033033.73;(0.3673187494277954, 0.7222073025173611);28.4167556763;0.967651498446;0;0;0;;0;0;();();(-2000.0, -2000.0);
04:07:55:661;04:07:55:641;1448033033.73;(0.3673187494277954, 0.7222073025173611);28.4167556763;0.967651498446;0;0;0;;0;0;();();(-2000.0, -2000.0);
04:07:55:678;04:07:55:641;1448033033.73;(0.3673187494277954, 0.7222073025173611);28.4167556763;0.967651498446;0;0;0;;0;0;();();(-2000.0, -2000.0);
04:07:55:694;04:07:55:641;1448033033.73;(0.3673187494277954, 0.7222073025173611);28.4167556763;0.967651498446;0;0;0;;0;0;();();(-2000.0, -2000.0);
04:07:55:728;04:07:55:696;1448033033.76;(0.3669412851333618, 0.7221716139051649);28.1334877014;0.966217468804;0;0;0;;0;0;();();(-2000.0, -2000.0);
04:07:55:745;04:07:55:741;1448033033.83;(0.3665283679962158, 0.7213965098063151);27.8663539886;0.857833517908;0;0;0;;0;0;();();(-2000.0, -2000.0);
04:07:55:761;04:07:55:741;1448033033.83;(0.3665283679962158, 0.7213965098063151);27.8663539886;0.857833517908;0;0;0;;0;0;();();(-2000.0, -2000.0);
04:07:55:777;04:07:55:741;1448033033.83;(0.3665283679962158, 0.7213965098063151);27.8663539886;0.857833517908;0;0;0;;0;0;();();(-2000.0, -2000.0);
04:07:55:793;04:07:55:789;1448033033.86;(0.3666461706161499, 0.7210679160224067);27.9739551544;1.0;0;0;0;;0;0;();();(-2000.0, -2000.0);
04:07:56:068;04:07:56:041;1448033034.13;(0.36675348281860354, 0.7231898837619357);28.3480358124;0.990465495888;0;0;0;;0;0;();();(-2000.0, -2000.0);
04:07:56:068;04:07:56:041;1448033034.13;(0.36675348281860354, 0.7231898837619357);28.3480358124;0.990465495888;0;0;0;;0;0;();();(-2000.0, -2000.0);
04:07:56:069;04:07:56:041;1448033034.13;(0.36675348281860354, 0.7231898837619357);28.3480358124;0.990465495888;0;0;0;;0;0;();();(-2000.0, -2000.0);
04:07:56:069;04:07:56:041;1448033034.13;(0.36675348281860354, 0.7231898837619357);28.3480358124;0.990465495888;0;0;0;;0;0;();();(-2000.0, -2000.0);
04:07:56:069;04:07:56:041;1448033034.13;(0.36675348281860354, 0.7231898837619357);28.3480358124;0.990465495888;0;0;0;;0;0;();();(-2000.0, -2000.0);
04:07:56:069;04:07:56:041;1448033034.13;(0.36675348281860354, 0.7231898837619357);28.3480358124;0.990465495888;0;0;0;;0;0;();();(-2000.0, -2000.0);
04:07:56:070;04:07:56:041;1448033034.13;(0.36675348281860354, 0.7231898837619357);28.3480358124;0.990465495888;0;0;0;;0;0;();();(-2000.0, -2000.0);
04:07:56:070;04:07:56:041;1448033034.13;(0.36675348281860354, 0.7231898837619357);28.3480358124;0.990465495888;0;0;0;;0;0;();();(-2000.0, -2000.0);
04:07:56:070;04:07:56:041;1448033034.13;(0.36675348281860354, 0.7231898837619357);28.3480358124;0.990465495888;0;0;0;;0;0;();();(-2000.0, -2000.0);
04:07:56:070;04:07:56:041;1448033034.13;(0.36675348281860354, 0.7231898837619357);28.3480358124;0.990465495888;0;0;0;;0;0;();();(-2000.0, -2000.0);
04:07:56:071;04:07:56:041;1448033034.13;(0.36675348281860354, 0.7231898837619357);28.3480358124;0.990465495888;0;0;0;;0;0;();();(-2000.0, -2000.0);
04:07:56:071;04:07:56:041;1448033034.13;(0.36675348281860354, 0.7231898837619357);28.3480358124;0.990465495888;0;0;0;;0;0;();();(-2000.0, -2000.0);
04:07:56:071;04:07:56:041;1448033034.13;(0.36675348281860354, 0.7231898837619357);28.3480358124;0.990465495888;0;0;0;;0;0;();();(-2000.0, -2000.0);
04:07:56:084;04:07:56:041;1448033034.13;(0.36675348281860354, 0.7231898837619357);28.3480358124;0.990465495888;0;0;0;;0;0;();();(-2000.0, -2000.0);
04:07:56:101;04:07:56:089;1448033034.16;(0.36262104511260984, 0.7110610961914062);27.4993610382;0.8636777422;0;0;0;;0;0;();();(-2000.0, -2000.0);
04:07:56:118;04:07:56:089;1448033034.16;(0.36262104511260984, 0.7110610961914062);27.4993610382;0.8636777422;0;0;0;;0;0;();();(-2000.0, -2000.0);
04:07:56:134;04:07:56:089;1448033034.16;(0.36262104511260984, 0.7110610961914062);27.4993610382;0.8636777422;0;0;0;;0;0;();();(-2000.0, -2000.0);
04:07:56:167;04:07:56:141;1448033034.19;(0.36246914863586427, 0.7161528905232748);27.8394165039;0.872700532662;0;0;0;;0;0;();();(-2000.0, -2000.0);
04:07:56:183;04:07:56:141;1448033034.19;(0.36246914863586427, 0.7161528905232748);27.8394165039;0.872700532662;0;0;0;;0;0;();();(-2000.0, -2000.0);
04:07:56:200;04:07:56:189;1448033034.26;(0.6283308506011963, 0.6255513085259332);63.2350234985;1.0;0;0;0;;0;0;();();(-2000.0, -2000.0);
04:07:56:217;04:07:56:189;1448033034.26;(0.6283308506011963, 0.6255513085259332);63.2350234985;1.0;0;0;0;;0;0;();();(-2000.0, -2000.0);
04:07:56:233;04:07:56:189;1448033034.26;(0.6283308506011963, 0.6255513085259332);63.2350234985;1.0;0;0;0;;0;0;();();(-2000.0, -2000.0);
04:07:56:267;04:07:56:189;1448033034.26;(0.6283308506011963, 0.6255513085259332);63.2350234985;1.0;0;0;0;;0;0;();();(-2000.0, -2000.0);
04:07:56:283;04:07:56:189;1448033034.26;(0.6283308506011963, 0.6255513085259332);63.2350234985;1.0;0;0;0;;0;0;();();(-2000.0, -2000.0);
04:07:56:300;04:07:56:289;1448033034.36;(0.6284922599792481, 0.6250837961832683);63.3499488831;1.0;0;0;0;;0;0;();();(-2000.0, -2000.0);
04:07:56:316;04:07:56:289;1448033034.36;(0.6284922599792481, 0.6250837961832683);63.3499488831;1.0;0;0;0;;0;0;();();(-2000.0, -2000.0);
04:07:56:350;04:07:56:337;1448033034.43;(0.6287050247192383, 0.6259646521674262);63.2943954468;1.0;0;0;0;;0;0;();();(-2000.0, -2000.0);
04:07:56:366;04:07:56:337;1448033034.43;(0.6287050247192383, 0.6259646521674262);63.2943954468;1.0;0;0;0;;0;0;();();(-2000.0, -2000.0);
04:07:56:382;04:07:56:337;1448033034.43;(0.6287050247192383, 0.6259646521674262);63.2943954468;1.0;0;0;0;;0;0;();();(-2000.0, -2000.0);
04:07:56:400;04:07:56:390;1448033034.46;(0.6287805557250976, 0.6259008195665148);63.1113433838;1.0;0;0;0;;0;0;();();(-2000.0, -2000.0);
04:07:56:416;04:07:56:390;1448033034.46;(0.6287805557250976, 0.6259008195665148);63.1113433838;1.0;0;0;0;;0;0;();();(-2000.0, -2000.0);
04:07:56:449;04:07:56:437;1448033034.53;(0.6291555881500244, 0.6257515377468533);62.9579620361;1.0;0;0;0;;0;0;();();(-2000.0, -2000.0);
04:07:56:466;04:07:56:437;1448033034.53;(0.6291555881500244, 0.6257515377468533);62.9579620361;1.0;0;0;0;;0;0;();();(-2000.0, -2000.0);
04:07:56:482;04:07:56:437;1448033034.53;(0.6291555881500244, 0.6257515377468533);62.9579620361;1.0;0;0;0;;0;0;();();(-2000.0, -2000.0);
04:07:56:499;04:07:56:488;1448033034.56;(0.6277575016021728, 0.6257652282714844);62.6285972595;0.963619599435;0;0;0;;0;0;();();(-2000.0, -2000.0);
04:07:56:515;04:07:56:488;1448033034.56;(0.6277575016021728, 0.6257652282714844);62.6285972595;0.963619599435;0;0;0;;0;0;();();(-2000.0, -2000.0);
04:07:56:548;04:07:56:537;1448033034.63;(0.6271390438079834, 0.6251750098334419);62.1171226501;1.0;0;0;0;;0;0;();();(-2000.0, -2000.0);
04:07:56:564;04:07:56:537;1448033034.63;(0.6271390438079834, 0.6251750098334419);62.1171226501;1.0;0;0;0;;0;0;();();(-2000.0, -2000.0);
04:07:56:581;04:07:56:537;1448033034.63;(0.6271390438079834, 0.6251750098334419);62.1171226501;1.0;0;0;0;;0;0;();();(-2000.0, -2000.0);
04:07:56:598;04:07:56:588;1448033034.66;(0.6273085117340088, 0.6253431108262804);61.8136940002;1.0;0;0;0;;0;0;();();(-2000.0, -2000.0);
04:07:56:614;04:07:56:588;1448033034.66;(0.6273085117340088, 0.6253431108262804);61.8136940002;1.0;0;0;0;;0;0;();();(-2000.0, -2000.0);
04:07:56:648;04:07:56:637;1448033034.69;(0.6274511337280273, 0.6246432834201389);61.4344291687;1.0;0;0;0;;0;0;();();(-2000.0, -2000.0);
04:07:56:664;04:07:56:637;1448033034.69;(0.6274511337280273, 0.6246432834201389);61.4344291687;1.0;0;0;0;;0;0;();();(-2000.0, -2000.0);
04:07:56:681;04:07:56:637;1448033034.69;(0.6274511337280273, 0.6246432834201389);61.4344291687;1.0;0;0;0;;0;0;();();(-2000.0, -2000.0);
04:07:56:698;04:07:56:685;1448033034.76;(0.6278060436248779, 0.6243890126546223);60.6053123474;1.0;0;0;0;;0;0;();();(-2000.0, -2000.0);
04:07:56:714;04:07:56:685;1448033034.76;(0.6278060436248779, 0.6243890126546223);60.6053123474;1.0;0;0;0;;0;0;();();(-2000.0, -2000.0);
04:07:56:747;04:07:56:743;1448033034.79;(0.6280133247375488, 0.623938708835178);60.2089309692;1.0;0;0;0;;0;0;();();(-2000.0, -2000.0);
04:07:56:763;04:07:56:743;1448033034.79;(0.6280133247375488, 0.623938708835178);60.2089309692;1.0;0;0;0;;0;0;();();(-2000.0, -2000.0);
04:07:56:780;04:07:56:743;1448033034.79;(0.6280133247375488, 0.623938708835178);60.2089309692;1.0;0;0;0;;0;0;();();(-2000.0, -2000.0);
04:07:56:796;04:07:56:785;1448033034.86;(0.6286005496978759, 0.6233061048719618);60.0092773438;1.0;0;0;0;;0;0;();();(-2000.0, -2000.0);
04:07:56:831;04:07:56:785;1448033034.86;(0.6286005496978759, 0.6233061048719618);60.0092773438;1.0;0;0;0;;0;0;();();(-2000.0, -2000.0);
04:07:56:846;04:07:56:785;1448033034.86;(0.6286005496978759, 0.6233061048719618);60.0092773438;1.0;0;0;0;;0;0;();();(-2000.0, -2000.0);
04:07:56:863;04:07:56:785;1448033034.86;(0.6286005496978759, 0.6233061048719618);60.0092773438;1.0;0;0;0;;0;0;();();(-2000.0, -2000.0);
04:07:56:879;04:07:56:785;1448033034.86;(0.6286005496978759, 0.6233061048719618);60.0092773438;1.0;0;0;0;;0;0;();();(-2000.0, -2000.0);
04:07:56:896;04:07:56:885;1448033034.93;(0, 0);0;0;0;0;0;;0;0;();();(-2000.0, -2000.0);
04:07:56:930;04:07:56:885;1448033034.93;(0, 0);0;0;0;0;0;;0;0;();();(-2000.0, -2000.0);
04:07:56:946;04:07:56:885;1448033034.93;(0, 0);0;0;0;0;0;;0;0;();();(-2000.0, -2000.0);
04:07:56:963;04:07:56:961;1448033034.99;(0, 0);0;0;0;0;0;;0;0;();();(-2000.0, -2000.0);
04:07:56:979;04:07:56:961;1448033034.99;(0, 0);0;0;0;0;0;;0;0;();();(-2000.0, -2000.0);
04:07:56:995;04:07:56:985;1448033035.06;(0.598105001449585, 0.6905961990356445);59.8833847046;0.926252646415;0;0;0;;0;0;();();(-2000.0, -2000.0);
04:07:57:029;04:07:56:985;1448033035.06;(0.598105001449585, 0.6905961990356445);59.8833847046;0.926252646415;0;0;0;;0;0;();();(-2000.0, -2000.0);
04:07:57:045;04:07:57:037;1448033035.09;(0.36332035064697266, 0.7637772454155816);30.2437286377;0.752864195537;0;0;0;;0;0;();();(-2000.0, -2000.0);
04:07:57:062;04:07:57:037;1448033035.09;(0.36332035064697266, 0.7637772454155816);30.2437286377;0.752864195537;0;0;0;;0;0;();();(-2000.0, -2000.0);
04:07:57:079;04:07:57:037;1448033035.09;(0.36332035064697266, 0.7637772454155816);30.2437286377;0.752864195537;0;0;0;;0;0;();();(-2000.0, -2000.0);
04:07:57:095;04:07:57:084;1448033035.13;(0.7433212280273438, 0.9303506003485785);34.9836158752;0.678679549049;0;0;0;;0;0;();();(-2000.0, -2000.0);
04:07:57:128;04:07:57:084;1448033035.13;(0.7433212280273438, 0.9303506003485785);34.9836158752;0.678679549049;0;0;0;;0;0;();();(-2000.0, -2000.0);
04:07:57:144;04:07:57:084;1448033035.13;(0.7433212280273438, 0.9303506003485785);34.9836158752;0.678679549049;0;0;0;;0;0;();();(-2000.0, -2000.0);
04:07:57:161;04:07:57:084;1448033035.13;(0.7433212280273438, 0.9303506003485785);34.9836158752;0.678679549049;0;0;0;;0;0;();();(-2000.0, -2000.0);
04:07:57:178;04:07:57:084;1448033035.13;(0.7433212280273438, 0.9303506003485785);34.9836158752;0.678679549049;0;0;0;;0;0;();();(-2000.0, -2000.0);
04:07:57:194;04:07:57:084;1448033035.13;(0.7433212280273438, 0.9303506003485785);34.9836158752;0.678679549049;0;0;0;;0;0;();();(-2000.0, -2000.0);
04:07:57:228;04:07:57:084;1448033035.13;(0.7433212280273438, 0.9303506003485785);34.9836158752;0.678679549049;0;0;0;;0;0;();();(-2000.0, -2000.0);
04:07:57:244;04:07:57:234;1448033035.29;(0.260853910446167, 0.9160085943010118);19.4495487213;1.0;0;0;0;;0;0;();();(-2000.0, -2000.0);
04:07:57:261;04:07:57:234;1448033035.29;(0.260853910446167, 0.9160085943010118);19.4495487213;1.0;0;0;0;;0;0;();();(-2000.0, -2000.0);
04:07:57:277;04:07:57:234;1448033035.29;(0.260853910446167, 0.9160085943010118);19.4495487213;1.0;0;0;0;;0;0;();();(-2000.0, -2000.0);
04:07:57:294;04:07:57:234;1448033035.29;(0.260853910446167, 0.9160085943010118);19.4495487213;1.0;0;0;0;;0;0;();();(-2000.0, -2000.0);
04:07:57:327;04:07:57:234;1448033035.29;(0.260853910446167, 0.9160085943010118);19.4495487213;1.0;0;0;0;;0;0;();();(-2000.0, -2000.0);
04:07:57:344;04:07:57:234;1448033035.29;(0.260853910446167, 0.9160085943010118);19.4495487213;1.0;0;0;0;;0;0;();();(-2000.0, -2000.0);
04:07:57:360;04:07:57:234;1448033035.29;(0.260853910446167, 0.9160085943010118);19.4495487213;1.0;0;0;0;;0;0;();();(-2000.0, -2000.0);
04:07:57:376;04:07:57:234;1448033035.29;(0.260853910446167, 0.9160085943010118);19.4495487213;1.0;0;0;0;;0;0;();();(-2000.0, -2000.0);
04:07:57:410;04:07:57:385;1448033035.44;(0.3635851860046387, 0.821597523159451);35.0132026672;0.828065584856;0;0;0;;0;0;();();(-2000.0, -2000.0);
04:07:57:427;04:07:57:385;1448033035.44;(0.3635851860046387, 0.821597523159451);35.0132026672;0.828065584856;0;0;0;;0;0;();();(-2000.0, -2000.0);
04:07:57:443;04:07:57:433;1448033035.51;(0.6134699821472168, 0.6961884180704753);59.8942375183;0.936203449705;0;0;0;;0;0;();();(-2000.0, -2000.0);
04:07:57:459;04:07:57:433;1448033035.51;(0.6134699821472168, 0.6961884180704753);59.8942375183;0.936203449705;0;0;0;;0;0;();();(-2000.0, -2000.0);
04:07:57:491;04:07:57:485;1448033035.56;(0.6144577503204346, 0.6933179219563802);59.8525238037;0.979975991909;2;0;0;;0;0;();();(-2000.0, -2000.0);
04:07:57:503;04:07:57:485;1448033035.56;(0.6144577503204346, 0.6933179219563802);59.8525238037;0.979975991909;2;0;0;;0;0;();();(-2000.0, -2000.0);
04:07:57:519;04:07:57:485;1448033035.56;(0.6144577503204346, 0.6933179219563802);59.8525238037;0.979975991909;2;0;0;;0;0;();();(-2000.0, -2000.0);
04:07:57:536;04:07:57:485;1448033035.56;(0.6144577503204346, 0.6933179219563802);59.8525238037;0.979975991909;2;0;0;;0;0;();();(-2000.0, -2000.0);
04:07:57:569;04:07:57:565;1448033035.59;(0.3582362174987793, 0.7493879530164931);18.9299297333;0.796475958697;2;0;0;;0;0;();();(-2000.0, -2000.0);
04:07:57:587;04:07:57:565;1448033035.59;(0.3582362174987793, 0.7493879530164931);18.9299297333;0.796475958697;2;0;0;;0;0;();();(-2000.0, -2000.0);
04:07:57:602;04:07:57:565;1448033035.59;(0.3582362174987793, 0.7493879530164931);18.9299297333;0.796475958697;2;0;0;;0;0;();();(-2000.0, -2000.0);
04:07:57:619;04:07:57:609;1448033035.68;(0.5933531284332275, 0.691584947374132);60.2717285156;0.957394400507;2;0;0;;0;0;();();(-2000.0, -2000.0);
04:07:57:636;04:07:57:609;1448033035.68;(0.5933531284332275, 0.691584947374132);60.2717285156;0.957394400507;2;0;0;;0;0;();();(-2000.0, -2000.0);
04:07:57:669;04:07:57:649;1448033035.73;(0.5940460681915283, 0.6896350648668077);60.8877182007;1.0;2;0;0;;0;0;();();(-2000.0, -2000.0);
04:07:57:685;04:07:57:649;1448033035.73;(0.5940460681915283, 0.6896350648668077);60.8877182007;1.0;2;0;0;;0;0;();();(-2000.0, -2000.0);
04:07:57:702;04:07:57:689;1448033035.76;(0.5942814350128174, 0.6892279518975152);60.9304351807;1.0;2;0;0;;0;0;();();(-2000.0, -2000.0);
04:07:57:719;04:07:57:689;1448033035.76;(0.5942814350128174, 0.6892279518975152);60.9304351807;1.0;2;0;0;;0;0;();();(-2000.0, -2000.0);
04:07:57:735;04:07:57:732;1448033035.79;(0.5944287776947021, 0.6889154222276476);61.1247215271;1.0;2;0;0;;0;0;();();(-2000.0, -2000.0);
04:07:57:768;04:07:57:732;1448033035.79;(0.5944287776947021, 0.6889154222276476);61.1247215271;1.0;2;0;0;;0;0;();();(-2000.0, -2000.0);
04:07:57:785;04:07:57:773;1448033035.86;(0.5948990821838379, 0.6885417090521919);61.4925231934;1.0;2;0;0;;0;0;();();(-2000.0, -2000.0);
04:07:57:801;04:07:57:773;1448033035.86;(0.5948990821838379, 0.6885417090521919);61.4925231934;1.0;2;0;0;;0;0;();();(-2000.0, -2000.0);
04:07:57:818;04:07:57:773;1448033035.86;(0.5948990821838379, 0.6885417090521919);61.4925231934;1.0;2;0;0;;0;0;();();(-2000.0, -2000.0);
04:07:57:834;04:07:57:773;1448033035.86;(0.5948990821838379, 0.6885417090521919);61.4925231934;1.0;2;0;0;;0;0;();();(-2000.0, -2000.0);
04:07:57:868;04:07:57:773;1448033035.86;(0.5948990821838379, 0.6885417090521919);61.4925231934;1.0;2;0;0;;0;0;();();(-2000.0, -2000.0);
04:07:57:884;04:07:57:773;1448033035.86;(0.5948990821838379, 0.6885417090521919);61.4925231934;1.0;2;0;0;;0;0;();();(-2000.0, -2000.0);
04:07:57:901;04:07:57:897;1448033035.89;(0.813135814666748, 0.45087254842122393);39.5515365601;0.697484660663;2;0;0;;0;0;();();(-2000.0, -2000.0);
04:07:57:916;04:07:57:897;1448033035.89;(0.813135814666748, 0.45087254842122393);39.5515365601;0.697484660663;2;0;0;;0;0;();();(-2000.0, -2000.0);
04:07:57:934;04:07:57:897;1448033035.89;(0.813135814666748, 0.45087254842122393);39.5515365601;0.697484660663;2;0;0;;0;0;();();(-2000.0, -2000.0);
04:07:57:967;04:07:57:942;1448033036.02;(0.6164261817932128, 0.6306875864664714);62.0505142212;1.0;2;0;0;;0;0;();();(-2000.0, -2000.0);
04:07:57:984;04:07:57:981;1448033036.06;(0.6152823448181153, 0.6317116631401909);62.2629051208;1.0;2;0;0;;0;0;();();(-2000.0, -2000.0);
04:07:58:000;04:07:57:981;1448033036.06;(0.6152823448181153, 0.6317116631401909);62.2629051208;1.0;2;0;0;;0;0;();();(-2000.0, -2000.0);
04:07:58:016;04:07:57:981;1448033036.06;(0.6152823448181153, 0.6317116631401909);62.2629051208;1.0;2;0;0;;0;0;();();(-2000.0, -2000.0);
04:07:58:050;04:07:57:981;1448033036.06;(0.6152823448181153, 0.6317116631401909);62.2629051208;1.0;2;0;0;;0;0;();();(-2000.0, -2000.0);
04:07:58:066;04:07:57:981;1448033036.06;(0.6152823448181153, 0.6317116631401909);62.2629051208;1.0;2;0;0;;0;0;();();(-2000.0, -2000.0);
04:07:58:082;04:07:57:981;1448033036.06;(0.6152823448181153, 0.6317116631401909);62.2629051208;1.0;2;0;0;;0;0;();();(-2000.0, -2000.0);
04:07:58:100;04:07:57:981;1448033036.06;(0.6152823448181153, 0.6317116631401909);62.2629051208;1.0;2;0;0;;0;0;();();(-2000.0, -2000.0);
04:07:58:116;04:07:58:105;1448033036.17;(0.6396660327911377, 0.6085361480712891);61.2110862732;1.0;2;0;0;;0;0;();();(-2000.0, -2000.0);
04:07:58:150;04:07:58:145;1448033036.23;(0.6387053966522217, 0.6120800018310547);61.2297782898;1.0;2;0;0;;0;0;();();(-2000.0, -2000.0);
04:07:58:166;04:07:58:145;1448033036.23;(0.6387053966522217, 0.6120800018310547);61.2297782898;1.0;2;0;0;;0;0;();();(-2000.0, -2000.0);
04:07:58:182;04:07:58:145;1448033036.23;(0.6387053966522217, 0.6120800018310547);61.2297782898;1.0;2;0;0;;0;0;();();(-2000.0, -2000.0);
04:07:58:199;04:07:58:189;1448033036.26;(0.6392816066741943, 0.611055416531033);61.7936859131;1.0;2;0;0;;0;0;();();(-2000.0, -2000.0);
04:07:58:216;04:07:58:189;1448033036.26;(0.6392816066741943, 0.611055416531033);61.7936859131;1.0;2;0;0;;0;0;();();(-2000.0, -2000.0);
04:07:58:249;04:07:58:229;1448033036.29;(0.6675548553466797, 0.5622998131646051);59.4940071106;0.997916552953;2;0;0;;0;0;();();(-2000.0, -2000.0);
04:07:58:266;04:07:58:229;1448033036.29;(0.6675548553466797, 0.5622998131646051);59.4940071106;0.997916552953;2;0;0;;0;0;();();(-2000.0, -2000.0);
04:07:58:281;04:07:58:273;1448033036.33;(0.6615289211273193, 0.5530731625027127);58.6358299255;1.0;2;0;0;;0;0;();();(-2000.0, -2000.0);
04:07:58:298;04:07:58:273;1448033036.33;(0.6615289211273193, 0.5530731625027127);58.6358299255;1.0;2;0;0;;0;0;();();(-2000.0, -2000.0);
04:07:58:322;04:07:58:313;1448033036.39;(0.6592364311218262, 0.5586515638563367);59.4425735474;0.876750140868;2;0;0;;0;0;();();(-2000.0, -2000.0);
04:07:58:348;04:07:58:313;1448033036.39;(0.6592364311218262, 0.5586515638563367);59.4425735474;0.876750140868;2;0;0;;0;0;();();(-2000.0, -2000.0);
04:07:58:364;04:07:58:353;1448033036.43;(0.6582674026489258, 0.5612560696072049);59.4970359802;0.803978430022;2;0;0;;0;0;();();(-2000.0, -2000.0);
04:07:58:381;04:07:58:353;1448033036.43;(0.6582674026489258, 0.5612560696072049);59.4970359802;0.803978430022;2;0;0;;0;0;();();(-2000.0, -2000.0);
04:07:58:398;04:07:58:397;1448033036.46;(0.6573868274688721, 0.5636455959743923);58.9345092773;0.919717435872;2;0;0;;0;0;();();(-2000.0, -2000.0);
04:07:58:413;04:07:58:397;1448033036.46;(0.6573868274688721, 0.5636455959743923);58.9345092773;0.919717435872;2;0;0;;0;0;();();(-2000.0, -2000.0);
04:07:58:447;04:07:58:437;1448033036.53;(0.6555272579193115, 0.5676324632432725);58.8824615479;1.0;2;0;0;;0;0;();();(-2000.0, -2000.0);
04:07:58:465;04:07:58:437;1448033036.53;(0.6555272579193115, 0.5676324632432725);58.8824615479;1.0;2;0;0;;0;0;();();(-2000.0, -2000.0);
04:07:58:480;04:07:58:477;1448033036.56;(0.654770803451538, 0.5691336313883464);59.0568771362;1.0;2;0;0;;0;0;();();(-2000.0, -2000.0);
04:07:58:497;04:07:58:477;1448033036.56;(0.654770803451538, 0.5691336313883464);59.0568771362;1.0;2;0;0;;0;0;();();(-2000.0, -2000.0);
04:07:58:529;04:07:58:521;1448033036.59;(0.6543406009674072, 0.5705828348795573);59.0532836914;1.0;2;0;0;;0;0;();();(-2000.0, -2000.0);
04:07:58:547;04:07:58:521;1448033036.59;(0.6543406009674072, 0.5705828348795573);59.0532836914;1.0;2;0;0;;0;0;();();(-2000.0, -2000.0);
04:07:58:563;04:07:58:521;1448033036.59;(0.6543406009674072, 0.5705828348795573);59.0532836914;1.0;2;0;0;;0;0;();();(-2000.0, -2000.0);
04:07:58:580;04:07:58:521;1448033036.59;(0.6543406009674072, 0.5705828348795573);59.0532836914;1.0;2;0;0;;0;0;();();(-2000.0, -2000.0);
04:07:58:596;04:07:58:582;1448033036.63;(0.6537935256958007, 0.5716280619303385);59.2439689636;1.0;2;0;0;;0;0;();();(-2000.0, -2000.0);
04:07:58:629;04:07:58:605;1448033036.66;(0.6531814098358154, 0.5722798665364583);59.2836875916;1.0;2;0;0;;0;0;();();(-2000.0, -2000.0);
04:07:58:646;04:07:58:605;1448033036.66;(0.6531814098358154, 0.5722798665364583);59.2836875916;1.0;2;0;0;;0;0;();();(-2000.0, -2000.0);
04:07:58:663;04:07:58:605;1448033036.66;(0.6531814098358154, 0.5722798665364583);59.2836875916;1.0;2;0;0;;0;0;();();(-2000.0, -2000.0);
04:07:58:679;04:07:58:605;1448033036.66;(0.6531814098358154, 0.5722798665364583);59.2836875916;1.0;2;0;0;;0;0;();();(-2000.0, -2000.0);
04:07:58:696;04:07:58:605;1448033036.66;(0.6531814098358154, 0.5722798665364583);59.2836875916;1.0;2;0;0;;0;0;();();(-2000.0, -2000.0);
04:07:58:730;04:07:58:605;1448033036.66;(0.6531814098358154, 0.5722798665364583);59.2836875916;1.0;2;0;0;;0;0;();();(-2000.0, -2000.0);
04:07:58:745;04:07:58:605;1448033036.66;(0.6531814098358154, 0.5722798665364583);59.2836875916;1.0;2;0;0;;0;0;();();(-2000.0, -2000.0);
04:07:58:762;04:07:58:605;1448033036.66;(0.6531814098358154, 0.5722798665364583);59.2836875916;1.0;2;0;0;;0;0;();();(-2000.0, -2000.0);
04:07:58:779;04:07:58:605;1448033036.66;(0.6531814098358154, 0.5722798665364583);59.2836875916;1.0;2;0;0;;0;0;();();(-2000.0, -2000.0);
04:07:58:795;04:07:58:605;1448033036.66;(0.6531814098358154, 0.5722798665364583);59.2836875916;1.0;2;0;0;;0;0;();();(-2000.0, -2000.0);
04:07:58:828;04:07:58:809;1448033036.69;(0.6469973087310791, 0.5771112653944228);59.363899231;1.0;2;0;0;;0;0;();();(-2000.0, -2000.0);
04:07:58:845;04:07:58:809;1448033036.69;(0.6469973087310791, 0.5771112653944228);59.363899231;1.0;2;0;0;;0;0;();();(-2000.0, -2000.0);
04:07:58:861;04:07:58:809;1448033036.69;(0.6469973087310791, 0.5771112653944228);59.363899231;1.0;2;0;0;;0;0;();();(-2000.0, -2000.0);
04:07:58:878;04:07:58:809;1448033036.69;(0.6469973087310791, 0.5771112653944228);59.363899231;1.0;2;0;0;;0;0;();();(-2000.0, -2000.0);
04:07:58:895;04:07:58:809;1448033036.69;(0.6469973087310791, 0.5771112653944228);59.363899231;1.0;2;0;0;;0;0;();();(-2000.0, -2000.0);
04:07:58:928;04:07:58:809;1448033036.69;(0.6469973087310791, 0.5771112653944228);59.363899231;1.0;2;0;0;;0;0;();();(-2000.0, -2000.0);
04:07:58:944;04:07:58:809;1448033036.69;(0.6469973087310791, 0.5771112653944228);59.363899231;1.0;2;0;0;;0;0;();();(-2000.0, -2000.0);
04:07:58:961;04:07:58:809;1448033036.69;(0.6469973087310791, 0.5771112653944228);59.363899231;1.0;2;0;0;;0;0;();();(-2000.0, -2000.0);
04:07:58:978;04:07:58:977;1448033036.88;(0.6456696510314941, 0.58322876824273);60.7989425659;1.0;2;0;0;;0;0;();();(-2000.0, -2000.0);
04:07:58:993;04:07:58:977;1448033036.88;(0.6456696510314941, 0.58322876824273);60.7989425659;1.0;2;0;0;;0;0;();();(-2000.0, -2000.0);
04:07:59:027;04:07:59:016;1448033037.06;(0.6446719169616699, 0.5879537370469835);61.6877212524;1.0;2;0;0;;0;0;();();(-2000.0, -2000.0);
04:07:59:044;04:07:59:016;1448033037.06;(0.6446719169616699, 0.5879537370469835);61.6877212524;1.0;2;0;0;;0;0;();();(-2000.0, -2000.0);
04:07:59:060;04:07:59:016;1448033037.06;(0.6446719169616699, 0.5879537370469835);61.6877212524;1.0;2;0;0;;0;0;();();(-2000.0, -2000.0);
04:07:59:077;04:07:59:061;1448033037.13;(0.6571342468261718, 0.5790598551432291);60.8975563049;0.946959667339;2;0;0;;0;0;();();(-2000.0, -2000.0);
04:07:59:110;04:07:59:101;1448033037.19;(0.6573637008666993, 0.579885991414388);61.0817756653;1.0;2;0;0;;0;0;();();(-2000.0, -2000.0);
04:07:59:127;04:07:59:101;1448033037.19;(0.6573637008666993, 0.579885991414388);61.0817756653;1.0;2;0;0;;0;0;();();(-2000.0, -2000.0);
04:07:59:144;04:07:59:141;1448033037.23;(0.6569748401641846, 0.5806237962510851);61.0033302307;1.0;2;0;0;;0;0;();();(-2000.0, -2000.0);
04:07:59:160;04:07:59:141;1448033037.23;(0.6569748401641846, 0.5806237962510851);61.0033302307;1.0;2;0;0;;0;0;();();(-2000.0, -2000.0);
04:07:59:175;04:07:59:141;1448033037.23;(0.6569748401641846, 0.5806237962510851);61.0033302307;1.0;2;0;0;;0;0;();();(-2000.0, -2000.0);
04:07:59:209;04:07:59:184;1448033037.26;(0.6568304538726807, 0.5817292955186633);61.3613815308;1.0;2;0;0;;0;0;();();(-2000.0, -2000.0);
04:07:59:226;04:07:59:224;1448033037.29;(0.6568481922149658, 0.5826975080702039);61.2596130371;1.0;2;0;0;;0;0;();();(-2000.0, -2000.0);
04:07:59:242;04:07:59:224;1448033037.29;(0.6568481922149658, 0.5826975080702039);61.2596130371;1.0;2;0;0;;0;0;();();(-2000.0, -2000.0);
04:07:59:259;04:07:59:224;1448033037.29;(0.6568481922149658, 0.5826975080702039);61.2596130371;1.0;2;0;0;;0;0;();();(-2000.0, -2000.0);
04:07:59:275;04:07:59:265;1448033037.33;(0.6563098907470704, 0.583144293891059);60.72240448;1.0;2;0;0;;0;0;();();(-2000.0, -2000.0);
04:07:59:309;04:07:59:309;1448033037.36;(0.656263017654419, 0.5840462154812283);60.7042617798;1.0;2;0;0;;0;0;();();(-2000.0, -2000.0);
04:07:59:326;04:07:59:309;1448033037.39;(0.6560611724853516, 0.5846435970730252);60.3675994873;1.0;2;0;0;;0;0;();();(-2000.0, -2000.0);
04:07:59:342;04:07:59:309;1448033037.39;(0.6560611724853516, 0.5846435970730252);60.3675994873;1.0;2;0;0;;0;0;();();(-2000.0, -2000.0);
04:07:59:359;04:07:59:356;1448033037.43;(0.6572895526885987, 0.5840079413519965);60.5432815552;0.960648228765;2;0;0;;0;0;();();(-2000.0, -2000.0);
04:07:59:375;04:07:59:356;1448033037.43;(0.6572895526885987, 0.5840079413519965);60.5432815552;0.960648228765;2;0;0;;0;0;();();(-2000.0, -2000.0);
04:07:59:408;04:07:59:393;1448033037.46;(0.6574379920959472, 0.5846751319037544);60.124458313;1.0;2;0;0;;0;0;();();(-2000.0, -2000.0);
04:07:59:425;04:07:59:393;1448033037.46;(0.6574379920959472, 0.5846751319037544);60.124458313;1.0;2;0;0;;0;0;();();(-2000.0, -2000.0);
04:07:59:441;04:07:59:432;1448033037.49;(0.6574834823608399, 0.5857567257351346);59.753200531;1.0;2;0;0;;0;0;();();(-2000.0, -2000.0);
04:07:59:458;04:07:59:432;1448033037.49;(0.6574834823608399, 0.5857567257351346);59.753200531;1.0;2;0;0;;0;0;();();(-2000.0, -2000.0);
04:07:59:475;04:07:59:473;1448033037.56;(0.6572577953338623, 0.5872824774848091);59.2350654602;1.0;2;0;0;;0;0;();();(-2000.0, -2000.0);
04:07:59:508;04:07:59:473;1448033037.56;(0.6572577953338623, 0.5872824774848091);59.2350654602;1.0;2;0;0;;0;0;();();(-2000.0, -2000.0);
04:07:59:524;04:07:59:516;1448033037.59;(0.6570221900939941, 0.588211186726888);59.3543510437;1.0;2;0;0;;0;0;();();(-2000.0, -2000.0);
04:07:59:541;04:07:59:516;1448033037.59;(0.6570221900939941, 0.588211186726888);59.3543510437;1.0;2;0;0;;0;0;();();(-2000.0, -2000.0);
04:07:59:558;04:07:59:557;1448033037.63;(0.6561622619628906, 0.589476818508572);59.1736412048;1.0;2;0;0;;0;0;();();(-2000.0, -2000.0);
04:07:59:573;04:07:59:557;1448033037.63;(0.6561622619628906, 0.589476818508572);59.1736412048;1.0;2;0;0;;0;0;();();(-2000.0, -2000.0);
04:07:59:606;04:07:59:557;1448033037.63;(0.6561622619628906, 0.589476818508572);59.1736412048;1.0;2;0;0;;0;0;();();(-2000.0, -2000.0);
04:07:59:623;04:07:59:617;1448033037.66;(0, 0);0;0;2;0;0;;0;0;();();(-2000.0, -2000.0);
04:07:59:641;04:07:59:617;1448033037.66;(0, 0);0;0;2;0;0;;0;0;();();(-2000.0, -2000.0);
04:07:59:657;04:07:59:617;1448033037.66;(0, 0);0;0;2;0;0;;0;0;();();(-2000.0, -2000.0);
04:07:59:690;04:07:59:658;1448033037.69;(0.5652246475219727, 0.49172418382432725);24.7682762146;0.634897714971;2;0;0;;0;0;();();(-2000.0, -2000.0);
04:07:59:707;04:07:59:705;1448033037.73;(0.6483232498168945, 0.5886755625406901);50.6581954956;0.723932131984;2;0;0;;0;0;();();(-2000.0, -2000.0);
04:07:59:723;04:07:59:705;1448033037.73;(0.6483232498168945, 0.5886755625406901);50.6581954956;0.723932131984;2;0;0;;0;0;();();(-2000.0, -2000.0);
04:07:59:740;04:07:59:705;1448033037.73;(0.6483232498168945, 0.5886755625406901);50.6581954956;0.723932131984;2;0;0;;0;0;();();(-2000.0, -2000.0);
04:07:59:756;04:07:59:705;1448033037.73;(0.6483232498168945, 0.5886755625406901);50.6581954956;0.723932131984;2;0;0;;0;0;();();(-2000.0, -2000.0);
04:07:59:789;04:07:59:757;1448033037.83;(0.6482571125030517, 0.6038825141059028);60.0419807434;1.0;2;0;0;;0;0;();();(-2000.0, -2000.0);
04:07:59:806;04:07:59:757;1448033037.83;(0.6482571125030517, 0.6038825141059028);60.0419807434;1.0;2;0;0;;0;0;();();(-2000.0, -2000.0);
04:07:59:823;04:07:59:814;1448033037.89;(0.6485044002532959, 0.6043039957682292);60.5406761169;1.0;2;0;0;;0;0;();();(-2000.0, -2000.0);
04:07:59:839;04:07:59:814;1448033037.89;(0.6485044002532959, 0.6043039957682292);60.5406761169;1.0;2;0;0;;0;0;();();(-2000.0, -2000.0);
04:07:59:856;04:07:59:814;1448033037.89;(0.6485044002532959, 0.6043039957682292);60.5406761169;1.0;2;0;0;;0;0;();();(-2000.0, -2000.0);
04:07:59:888;04:07:59:860;1448033037.93;(0.648537015914917, 0.6042302025689019);60.9412498474;1.0;2;0;0;;0;0;();();(-2000.0, -2000.0);
04:07:59:906;04:07:59:905;1448033037.96;(0.6487088680267334, 0.6042109595404731);61.06665802;1.0;2;0;0;;0;0;();();(-2000.0, -2000.0);
04:07:59:922;04:07:59:905;1448033037.96;(0.6487088680267334, 0.6042109595404731);61.06665802;1.0;2;0;0;;0;0;();();(-2000.0, -2000.0);
04:07:59:938;04:07:59:905;1448033037.96;(0.6487088680267334, 0.6042109595404731);61.06665802;1.0;2;0;0;;0;0;();();(-2000.0, -2000.0);
04:07:59:955;04:07:59:905;1448033037.96;(0.6487088680267334, 0.6042109595404731);61.06665802;1.0;2;0;0;;0;0;();();(-2000.0, -2000.0);
04:07:59:988;04:07:59:957;1448033038.03;(0.639723825454712, 0.6067910936143663);61.8327407837;1.0;2;0;0;;0;0;();();(-2000.0, -2000.0);
04:08:00:005;04:07:59:957;1448033038.03;(0.639723825454712, 0.6067910936143663);61.8327407837;1.0;2;0;0;;0;0;();();(-2000.0, -2000.0);
04:08:00:021;04:08:00:005;1448033038.09;(0.6400975227355957, 0.6067223866780599);61.8401374817;1.0;2;0;0;;0;0;();();(-2000.0, -2000.0);
04:08:00:038;04:08:00:005;1448033038.09;(0.6400975227355957, 0.6067223866780599);61.8401374817;1.0;2;0;0;;0;0;();();(-2000.0, -2000.0);
04:08:00:055;04:08:00:053;1448033038.13;(0.6399875164031983, 0.6072880215115017);62.3900756836;1.0;2;0;0;;0;0;();();(-2000.0, -2000.0);
04:08:00:087;04:08:00:053;1448033038.13;(0.6399875164031983, 0.6072880215115017);62.3900756836;1.0;2;0;0;;0;0;();();(-2000.0, -2000.0);
04:08:00:104;04:08:00:053;1448033038.13;(0.6399875164031983, 0.6072880215115017);62.3900756836;1.0;2;0;0;;0;0;();();(-2000.0, -2000.0);
04:08:00:120;04:08:00:105;1448033038.16;(0.6400249004364014, 0.6075534820556641);62.3731384277;1.0;2;0;0;;0;0;();();(-2000.0, -2000.0);
04:08:00:138;04:08:00:105;1448033038.16;(0.6400249004364014, 0.6075534820556641);62.3731384277;1.0;2;0;0;;0;0;();();(-2000.0, -2000.0);
04:08:00:154;04:08:00:153;1448033038.23;(0.6399102687835694, 0.6073389689127604);62.524143219;1.0;2;0;0;;0;0;();();(-2000.0, -2000.0);
04:08:00:186;04:08:00:153;1448033038.23;(0.6399102687835694, 0.6073389689127604);62.524143219;1.0;2;0;0;;0;0;();();(-2000.0, -2000.0);
04:08:00:203;04:08:00:153;1448033038.23;(0.6399102687835694, 0.6073389689127604);62.524143219;1.0;2;0;0;;0;0;();();(-2000.0, -2000.0);
04:08:00:220;04:08:00:206;1448033038.29;(0.6401226043701171, 0.6081786261664497);62.4025802612;1.0;2;0;0;;0;0;();();(-2000.0, -2000.0);
04:08:00:236;04:08:00:206;1448033038.29;(0.6401226043701171, 0.6081786261664497);62.4025802612;1.0;2;0;0;;0;0;();();(-2000.0, -2000.0);
04:08:00:269;04:08:00:253;1448033038.33;(0.6391319274902344, 0.6086386362711589);63.0308036804;1.0;2;0;0;;0;0;();();(-2000.0, -2000.0);
04:08:00:287;04:08:00:253;1448033038.33;(0.6391319274902344, 0.6086386362711589);63.0308036804;1.0;2;0;0;;0;0;();();(-2000.0, -2000.0);
04:08:00:303;04:08:00:253;1448033038.33;(0.6391319274902344, 0.6086386362711589);63.0308036804;1.0;2;0;0;;0;0;();();(-2000.0, -2000.0);
04:08:00:319;04:08:00:304;1448033038.36;(0.6388260841369628, 0.6088494618733724);63.0671730042;1.0;2;0;0;;0;0;();();(-2000.0, -2000.0);
04:08:00:336;04:08:00:304;1448033038.36;(0.6388260841369628, 0.6088494618733724);63.0671730042;1.0;2;0;0;;0;0;();();(-2000.0, -2000.0);
04:08:00:368;04:08:00:353;1448033038.43;(0.6387344837188721, 0.6089870452880859);63.1082878113;1.0;2;0;0;;0;0;();();(-2000.0, -2000.0);
04:08:00:385;04:08:00:353;1448033038.43;(0.6387344837188721, 0.6089870452880859);63.1082878113;1.0;2;0;0;;0;0;();();(-2000.0, -2000.0);
04:08:00:403;04:08:00:353;1448033038.43;(0.6387344837188721, 0.6089870452880859);63.1082878113;1.0;2;0;0;;0;0;();();(-2000.0, -2000.0);
04:08:00:418;04:08:00:406;1448033038.46;(0.6386934280395508, 0.6092447492811415);63.2754058838;1.0;2;0;0;;0;0;();();(-2000.0, -2000.0);
04:08:00:435;04:08:00:406;1448033038.46;(0.6386934280395508, 0.6092447492811415);63.2754058838;1.0;2;0;0;;0;0;();();(-2000.0, -2000.0);
04:08:00:468;04:08:00:453;1448033038.53;(0.6392726898193359, 0.6091115315755209);62.6896209717;1.0;2;0;0;;0;0;();();(-2000.0, -2000.0);
04:08:00:485;04:08:00:453;1448033038.53;(0.6392726898193359, 0.6091115315755209);62.6896209717;1.0;2;0;0;;0;0;();();(-2000.0, -2000.0);
04:08:00:502;04:08:00:500;1448033038.56;(0.4067106246948242, 0.7198178821139866);19.3708782196;0.770566160993;2;0;0;;0;0;();();(-2000.0, -2000.0);
04:08:00:518;04:08:00:500;1448033038.56;(0.4067106246948242, 0.7198178821139866);19.3708782196;0.770566160993;2;0;0;;0;0;();();(-2000.0, -2000.0);
04:08:00:535;04:08:00:500;1448033038.56;(0.4067106246948242, 0.7198178821139866);19.3708782196;0.770566160993;2;0;0;;0;0;();();(-2000.0, -2000.0);
04:08:00:568;04:08:00:553;1448033038.63;(0.6135313987731934, 0.6653471840752496);63.8542404175;0.810709796825;2;0;0;;0;0;();();(-2000.0, -2000.0);
04:08:00:584;04:08:00:553;1448033038.63;(0.6135313987731934, 0.6653471840752496);63.8542404175;0.810709796825;2;0;0;;0;0;();();(-2000.0, -2000.0);
04:08:00:601;04:08:00:600;1448033038.66;(0.6136130332946778, 0.6661284128824869);63.8860855103;1.0;2;0;0;;0;0;();();(-2000.0, -2000.0);
04:08:00:618;04:08:00:600;1448033038.66;(0.6136130332946778, 0.6661284128824869);63.8860855103;1.0;2;0;0;;0;0;();();(-2000.0, -2000.0);
04:08:00:633;04:08:00:600;1448033038.66;(0.6136130332946778, 0.6661284128824869);63.8860855103;1.0;2;0;0;;0;0;();();(-2000.0, -2000.0);
04:08:00:667;04:08:00:653;1448033038.73;(0.6138435363769531, 0.6666931788126628);64.0359649658;1.0;2;0;0;;0;0;();();(-2000.0, -2000.0);
04:08:00:684;04:08:00:653;1448033038.73;(0.6138435363769531, 0.6666931788126628);64.0359649658;1.0;2;0;0;;0;0;();();(-2000.0, -2000.0);
04:08:00:701;04:08:00:701;1448033038.76;(0.6138654232025147, 0.6674296061197917);64.4730453491;1.0;2;0;0;;0;0;();();(-2000.0, -2000.0);
04:08:00:717;04:08:00:701;1448033038.76;(0.6138654232025147, 0.6674296061197917);64.4730453491;1.0;2;0;0;;0;0;();();(-2000.0, -2000.0);
04:08:00:750;04:08:00:701;1448033038.76;(0.6138654232025147, 0.6674296061197917);64.4730453491;1.0;2;0;0;;0;0;();();(-2000.0, -2000.0);
04:08:00:766;04:08:00:753;1448033038.83;(0.6141097068786621, 0.6682416915893554);64.2693481445;1.0;2;0;0;;0;0;();();(-2000.0, -2000.0);
04:08:00:784;04:08:00:753;1448033038.83;(0.6141097068786621, 0.6682416915893554);64.2693481445;1.0;2;0;0;;0;0;();();(-2000.0, -2000.0);
04:08:00:799;04:08:00:753;1448033038.83;(0.6141097068786621, 0.6682416915893554);64.2693481445;1.0;2;0;0;;0;0;();();(-2000.0, -2000.0);
04:08:00:816;04:08:00:801;1448033038.89;(0.6140235424041748, 0.6690710279676649);63.6734237671;1.0;2;0;0;;0;0;();();(-2000.0, -2000.0);
04:08:00:849;04:08:00:801;1448033038.89;(0.6140235424041748, 0.6690710279676649);63.6734237671;1.0;2;0;0;;0;0;();();(-2000.0, -2000.0);
04:08:00:866;04:08:00:853;1448033038.93;(0.614113712310791, 0.6688548617892796);63.2472457886;1.0;2;0;0;;0;0;();();(-2000.0, -2000.0);
04:08:00:883;04:08:00:853;1448033038.93;(0.614113712310791, 0.6688548617892796);63.2472457886;1.0;2;0;0;;0;0;();();(-2000.0, -2000.0);
04:08:00:899;04:08:00:853;1448033038.93;(0.614113712310791, 0.6688548617892796);63.2472457886;1.0;2;0;0;;0;0;();();(-2000.0, -2000.0);
04:08:00:916;04:08:00:900;1448033038.99;(0.6146940231323242, 0.668914900885688);62.6165466309;1.0;2;0;0;;0;0;();();(-2000.0, -2000.0);
04:08:00:949;04:08:00:900;1448033038.99;(0.6146940231323242, 0.668914900885688);62.6165466309;1.0;2;0;0;;0;0;();();(-2000.0, -2000.0);
04:08:00:965;04:08:00:900;1448033038.99;(0.6146940231323242, 0.668914900885688);62.6165466309;1.0;2;0;0;;0;0;();();(-2000.0, -2000.0);
04:08:00:982;04:08:00:900;1448033038.99;(0.6146940231323242, 0.668914900885688);62.6165466309;1.0;2;0;0;;0;0;();();(-2000.0, -2000.0);
04:08:00:998;04:08:00:900;1448033038.99;(0.6146940231323242, 0.668914900885688);62.6165466309;1.0;2;0;0;;0;0;();();(-2000.0, -2000.0);
04:08:01:016;04:08:01:000;1448033039.03;(0.6018929481506348, 0.6774456024169921);61.4637260437;0.899318257795;2;0;0;;0;0;();();(-2000.0, -2000.0);
04:08:01:048;04:08:01:000;1448033039.03;(0.6018929481506348, 0.6774456024169921);61.4637260437;0.899318257795;2;0;0;;0;0;();();(-2000.0, -2000.0);
04:08:01:065;04:08:01:049;1448033039.13;(0.6020384788513183, 0.6790931701660157);62.0038146973;1.0;2;0;0;;0;0;();();(-2000.0, -2000.0);
04:08:01:082;04:08:01:049;1448033039.13;(0.6020384788513183, 0.6790931701660157);62.0038146973;1.0;2;0;0;;0;0;();();(-2000.0, -2000.0);
04:08:01:097;04:08:01:049;1448033039.13;(0.6020384788513183, 0.6790931701660157);62.0038146973;1.0;2;0;0;;0;0;();();(-2000.0, -2000.0);
04:08:01:115;04:08:01:101;1448033039.16;(0.6023601055145263, 0.6790617201063368);62.2341995239;1.0;2;0;0;;0;0;();();(-2000.0, -2000.0);
04:08:01:148;04:08:01:101;1448033039.16;(0.6023601055145263, 0.6790617201063368);62.2341995239;1.0;2;0;0;;0;0;();();(-2000.0, -2000.0);
04:08:01:164;04:08:01:149;1448033039.19;(0.6029365062713623, 0.6790730158487956);62.9078292847;0.906143449294;2;0;0;;0;0;();();(-2000.0, -2000.0);
04:08:01:181;04:08:01:149;1448033039.19;(0.6029365062713623, 0.6790730158487956);62.9078292847;0.906143449294;2;0;0;;0;0;();();(-2000.0, -2000.0);
04:08:01:198;04:08:01:149;1448033039.19;(0.6029365062713623, 0.6790730158487956);62.9078292847;0.906143449294;2;0;0;;0;0;();();(-2000.0, -2000.0);
04:08:01:214;04:08:01:201;1448033039.26;(0.36171960830688477, 0.7753866195678711);30.9099769592;0.735234115039;2;0;0;;0;0;();();(-2000.0, -2000.0);
04:08:01:247;04:08:01:201;1448033039.26;(0.36171960830688477, 0.7753866195678711);30.9099769592;0.735234115039;2;0;0;;0;0;();();(-2000.0, -2000.0);
04:08:01:264;04:08:01:249;1448033039.29;(0.36217799186706545, 0.7767968495686849);31.0337505341;0.729783821796;2;0;0;;0;0;();();(-2000.0, -2000.0);
04:08:01:280;04:08:01:249;1448033039.29;(0.36217799186706545, 0.7767968495686849);31.0337505341;0.729783821796;2;0;0;;0;0;();();(-2000.0, -2000.0);
04:08:01:296;04:08:01:249;1448033039.29;(0.36217799186706545, 0.7767968495686849);31.0337505341;0.729783821796;2;0;0;;0;0;();();(-2000.0, -2000.0);
04:08:01:314;04:08:01:249;1448033039.29;(0.36217799186706545, 0.7767968495686849);31.0337505341;0.729783821796;2;0;0;;0;0;();();(-2000.0, -2000.0);
04:08:01:346;04:08:01:249;1448033039.29;(0.36217799186706545, 0.7767968495686849);31.0337505341;0.729783821796;2;0;0;;0;0;();();(-2000.0, -2000.0);
04:08:01:363;04:08:01:249;1448033039.29;(0.36217799186706545, 0.7767968495686849);31.0337505341;0.729783821796;2;0;0;;0;0;();();(-2000.0, -2000.0);
04:08:01:379;04:08:01:249;1448033039.29;(0.36217799186706545, 0.7767968495686849);31.0337505341;0.729783821796;2;0;0;;0;0;();();(-2000.0, -2000.0);
04:08:01:397;04:08:01:249;1448033039.29;(0.36217799186706545, 0.7767968495686849);31.0337505341;0.729783821796;2;0;0;;0;0;();();(-2000.0, -2000.0);
04:08:01:429;04:08:01:398;1448033039.33;(0.6148455142974854, 0.6749975628323025);63.1665916443;0.86041305402;2;0;0;;0;0;();();(-2000.0, -2000.0);
04:08:01:446;04:08:01:398;1448033039.33;(0.6148455142974854, 0.6749975628323025);63.1665916443;0.86041305402;2;0;0;;0;0;();();(-2000.0, -2000.0);
04:08:01:462;04:08:01:398;1448033039.33;(0.6148455142974854, 0.6749975628323025);63.1665916443;0.86041305402;2;0;0;;0;0;();();(-2000.0, -2000.0);
04:08:01:479;04:08:01:398;1448033039.33;(0.6148455142974854, 0.6749975628323025);63.1665916443;0.86041305402;2;0;0;;0;0;();();(-2000.0, -2000.0);
04:08:01:496;04:08:01:398;1448033039.33;(0.6148455142974854, 0.6749975628323025);63.1665916443;0.86041305402;2;0;0;;0;0;();();(-2000.0, -2000.0);
04:08:01:529;04:08:01:500;1448033039.56;(0.6468765735626221, 0.5940425448947483);62.5906333923;1.0;2;0;0;;0;0;();();(-2000.0, -2000.0);
04:08:01:545;04:08:01:500;1448033039.56;(0.6468765735626221, 0.5940425448947483);62.5906333923;1.0;2;0;0;;0;0;();();(-2000.0, -2000.0);
04:08:01:562;04:08:01:549;1448033039.63;(0.6473654747009278, 0.5950364006890191);63.4347877502;0.806973354064;2;0;0;;0;0;();();(-2000.0, -2000.0);
04:08:01:578;04:08:01:549;1448033039.63;(0.6473654747009278, 0.5950364006890191);63.4347877502;0.806973354064;2;0;0;;0;0;();();(-2000.0, -2000.0);
04:08:01:595;04:08:01:549;1448033039.63;(0.6473654747009278, 0.5950364006890191);63.4347877502;0.806973354064;2;0;0;;0;0;();();(-2000.0, -2000.0);
04:08:01:628;04:08:01:597;1448033039.66;(0.6515095233917236, 0.6027711656358508);62.8110237122;1.0;2;0;0;;0;0;();();(-2000.0, -2000.0);
04:08:01:645;04:08:01:597;1448033039.66;(0.6515095233917236, 0.6027711656358508);62.8110237122;1.0;2;0;0;;0;0;();();(-2000.0, -2000.0);
04:08:01:661;04:08:01:597;1448033039.66;(0.6515095233917236, 0.6027711656358508);62.8110237122;1.0;2;0;0;;0;0;();();(-2000.0, -2000.0);
04:08:01:678;04:08:01:665;1448033039.73;(0.6516027450561523, 0.6030286153157551);62.8861846924;1.0;2;0;0;;0;0;();();(-2000.0, -2000.0);
04:08:01:694;04:08:01:665;1448033039.73;(0.6516027450561523, 0.6030286153157551);62.8861846924;1.0;2;0;0;;0;0;();();(-2000.0, -2000.0);
04:08:01:727;04:08:01:696;1448033039.76;(0.6520468235015869, 0.6030629899766711);62.8112792969;1.0;2;0;0;;0;0;();();(-2000.0, -2000.0);
04:08:01:744;04:08:01:696;1448033039.76;(0.6520468235015869, 0.6030629899766711);62.8112792969;1.0;2;0;0;;0;0;();();(-2000.0, -2000.0);
04:08:01:760;04:08:01:696;1448033039.76;(0.6520468235015869, 0.6030629899766711);62.8112792969;1.0;2;0;0;;0;0;();();(-2000.0, -2000.0);
04:08:01:778;04:08:01:768;1448033039.83;(0.6520487308502197, 0.6045113881429036);62.773021698;1.0;2;0;0;;0;0;();();(-2000.0, -2000.0);
04:08:01:793;04:08:01:768;1448033039.83;(0.6520487308502197, 0.6045113881429036);62.773021698;1.0;2;0;0;;0;0;();();(-2000.0, -2000.0);
04:08:01:827;04:08:01:796;1448033039.86;(0.6520358085632324, 0.6050994873046875);62.2751464844;1.0;2;0;0;;0;0;();();(-2000.0, -2000.0);
04:08:01:844;04:08:01:796;1448033039.86;(0.6520358085632324, 0.6050994873046875);62.2751464844;1.0;2;0;0;;0;0;();();(-2000.0, -2000.0);
04:08:01:860;04:08:01:845;1448033039.93;(0.6525903224945069, 0.6050372229682075);61.7805252075;1.0;2;0;0;;0;0;();();(-2000.0, -2000.0);
04:08:01:877;04:08:01:845;1448033039.93;(0.6525903224945069, 0.6050372229682075);61.7805252075;1.0;2;0;0;;0;0;();();(-2000.0, -2000.0);
04:08:01:909;04:08:01:896;1448033039.96;(0.6529274463653565, 0.6054660373263889);61.7759208679;1.0;2;0;0;;0;0;();();(-2000.0, -2000.0);
04:08:01:926;04:08:01:896;1448033039.96;(0.6529274463653565, 0.6054660373263889);61.7759208679;1.0;2;0;0;;0;0;();();(-2000.0, -2000.0);
04:08:01:943;04:08:01:896;1448033039.96;(0.6529274463653565, 0.6054660373263889);61.7759208679;1.0;2;0;0;;0;0;();();(-2000.0, -2000.0);
04:08:01:960;04:08:01:954;1448033040.03;(0.6532889842987061, 0.6054650200737848);61.2732810974;1.0;2;0;0;;0;0;();();(-2000.0, -2000.0);
04:08:01:976;04:08:01:954;1448033040.03;(0.6532889842987061, 0.6054650200737848);61.2732810974;1.0;2;0;0;;0;0;();();(-2000.0, -2000.0);
04:08:02:009;04:08:01:997;1448033040.06;(0.6532456874847412, 0.6053391350640192);61.1476745605;1.0;2;0;0;;0;0;();();(-2000.0, -2000.0);
04:08:02:026;04:08:01:997;1448033040.06;(0.6532456874847412, 0.6053391350640192);61.1476745605;1.0;2;0;0;;0;0;();();(-2000.0, -2000.0);
04:08:02:043;04:08:01:997;1448033040.06;(0.6532456874847412, 0.6053391350640192);61.1476745605;1.0;2;0;0;;0;0;();();(-2000.0, -2000.0);
04:08:02:058;04:08:02:045;1448033040.09;(0.6575270652770996, 0.6023996141221788);60.5319213867;1.0;2;0;0;;0;0;();();(-2000.0, -2000.0);
04:08:02:075;04:08:02:045;1448033040.09;(0.6575270652770996, 0.6023996141221788);60.5319213867;1.0;2;0;0;;0;0;();();(-2000.0, -2000.0);
04:08:02:108;04:08:02:096;1448033040.13;(0.6582204341888428, 0.6018120659722221);60.4118156433;1.0;2;0;0;;0;0;();();(-2000.0, -2000.0);
04:08:02:125;04:08:02:096;1448033040.13;(0.6582204341888428, 0.6018120659722221);60.4118156433;1.0;2;0;0;;0;0;();();(-2000.0, -2000.0);
04:08:02:141;04:08:02:096;1448033040.13;(0.6582204341888428, 0.6018120659722221);60.4118156433;1.0;2;0;0;;0;0;();();(-2000.0, -2000.0);
04:08:02:159;04:08:02:096;1448033040.13;(0.6582204341888428, 0.6018120659722221);60.4118156433;1.0;2;0;0;;0;0;();();(-2000.0, -2000.0);
04:08:02:175;04:08:02:096;1448033040.13;(0.6582204341888428, 0.6018120659722221);60.4118156433;1.0;2;0;0;;0;0;();();(-2000.0, -2000.0);
04:08:02:207;04:08:02:096;1448033040.13;(0.6582204341888428, 0.6018120659722221);60.4118156433;1.0;2;0;0;;0;0;();();(-2000.0, -2000.0);
04:08:02:224;04:08:02:096;1448033040.13;(0.6582204341888428, 0.6018120659722221);60.4118156433;1.0;2;0;0;;0;0;();();(-2000.0, -2000.0);
04:08:02:241;04:08:02:096;1448033040.13;(0.6582204341888428, 0.6018120659722221);60.4118156433;1.0;2;0;0;;0;0;();();(-2000.0, -2000.0);
04:08:02:258;04:08:02:096;1448033040.13;(0.6582204341888428, 0.6018120659722221);60.4118156433;1.0;2;0;0;;0;0;();();(-2000.0, -2000.0);
04:08:02:274;04:08:02:096;1448033040.13;(0.6582204341888428, 0.6018120659722221);60.4118156433;1.0;2;0;0;;0;0;();();(-2000.0, -2000.0);
04:08:02:307;04:08:02:293;1448033040.34;(0.6586153507232666, 0.6033735063340928);59.4738769531;1.0;2;0;0;;0;0;();();(-2000.0, -2000.0);
04:08:02:324;04:08:02:293;1448033040.34;(0.6586153507232666, 0.6033735063340928);59.4738769531;1.0;2;0;0;;0;0;();();(-2000.0, -2000.0);
04:08:02:341;04:08:02:293;1448033040.34;(0.6586153507232666, 0.6033735063340928);59.4738769531;1.0;2;0;0;;0;0;();();(-2000.0, -2000.0);
04:08:02:357;04:08:02:345;1448033040.43;(0.6584372043609619, 0.6039903428819444);60.7093200684;1.0;2;0;0;;0;0;();();(-2000.0, -2000.0);
04:08:02:374;04:08:02:345;1448033040.43;(0.6584372043609619, 0.6039903428819444);60.7093200684;1.0;2;0;0;;0;0;();();(-2000.0, -2000.0);
04:08:02:406;04:08:02:393;1448033040.46;(0.6583194255828857, 0.6038185543484158);60.6131782532;1.0;2;0;0;;0;0;();();(-2000.0, -2000.0);
04:08:02:424;04:08:02:393;1448033040.46;(0.6583194255828857, 0.6038185543484158);60.6131782532;1.0;2;0;0;;0;0;();();(-2000.0, -2000.0);
04:08:02:439;04:08:02:393;1448033040.46;(0.6583194255828857, 0.6038185543484158);60.6131782532;1.0;2;0;0;;0;0;();();(-2000.0, -2000.0);
04:08:02:457;04:08:02:445;1448033040.49;(0.6470149040222168, 0.6105561150444878);61.704372406;0.994084418146;2;0;0;;0;0;();();(-2000.0, -2000.0);
04:08:02:489;04:08:02:445;1448033040.49;(0.6470149040222168, 0.6105561150444878);61.704372406;0.994084418146;2;0;0;;0;0;();();(-2000.0, -2000.0);
04:08:02:507;04:08:02:493;1448033040.56;(0.6459598064422607, 0.6118717617458768);62.3830299377;1.0;2;0;0;;0;0;();();(-2000.0, -2000.0);
04:08:02:523;04:08:02:493;1448033040.56;(0.6459598064422607, 0.6118717617458768);62.3830299377;1.0;2;0;0;;0;0;();();(-2000.0, -2000.0);
04:08:02:540;04:08:02:493;1448033040.56;(0.6459598064422607, 0.6118717617458768);62.3830299377;1.0;2;0;0;;0;0;();();(-2000.0, -2000.0);
04:08:02:555;04:08:02:545;1448033040.63;(0.6458552360534668, 0.6119432661268447);62.8486785889;1.0;2;0;0;;0;0;();();(-2000.0, -2000.0);
04:08:02:590;04:08:02:545;1448033040.63;(0.6458552360534668, 0.6119432661268447);62.8486785889;1.0;2;0;0;;0;0;();();(-2000.0, -2000.0);
04:08:02:605;04:08:02:593;1448033040.66;(0.6459632396697998, 0.6123370700412326);62.8475379944;1.0;2;0;0;;0;0;();();(-2000.0, -2000.0);
04:08:02:623;04:08:02:593;1448033040.66;(0.6459632396697998, 0.6123370700412326);62.8475379944;1.0;2;0;0;;0;0;();();(-2000.0, -2000.0);
04:08:02:639;04:08:02:593;1448033040.66;(0.6459632396697998, 0.6123370700412326);62.8475379944;1.0;2;0;0;;0;0;();();(-2000.0, -2000.0);
04:08:02:655;04:08:02:645;1448033040.73;(0.6458845138549805, 0.6122391594780816);63.6088104248;1.0;2;0;0;;0;0;();();(-2000.0, -2000.0);
04:08:02:688;04:08:02:645;1448033040.73;(0.6458845138549805, 0.6122391594780816);63.6088104248;1.0;2;0;0;;0;0;();();(-2000.0, -2000.0);
04:08:02:705;04:08:02:693;1448033040.76;(0.6458181858062744, 0.6121889750162761);64.075920105;1.0;2;0;0;;0;0;();();(-2000.0, -2000.0);
04:08:02:721;04:08:02:693;1448033040.76;(0.6458181858062744, 0.6121889750162761);64.075920105;1.0;2;0;0;;0;0;();();(-2000.0, -2000.0);
04:08:02:739;04:08:02:693;1448033040.76;(0.6458181858062744, 0.6121889750162761);64.075920105;1.0;2;0;0;;0;0;();();(-2000.0, -2000.0);
04:08:02:754;04:08:02:741;1448033040.83;(0.6461214542388916, 0.6119899749755859);64.0871047974;1.0;2;0;0;;0;0;();();(-2000.0, -2000.0);
04:08:02:788;04:08:02:741;1448033040.83;(0.6461214542388916, 0.6119899749755859);64.0871047974;1.0;2;0;0;;0;0;();();(-2000.0, -2000.0);
04:08:02:804;04:08:02:793;1448033040.86;(0.6459304809570312, 0.6116863674587674);64.0447692871;1.0;2;0;0;;0;0;();();(-2000.0, -2000.0);
04:08:02:821;04:08:02:793;1448033040.86;(0.6459304809570312, 0.6116863674587674);64.0447692871;1.0;2;0;0;;0;0;();();(-2000.0, -2000.0);
04:08:02:837;04:08:02:793;1448033040.86;(0.6459304809570312, 0.6116863674587674);64.0447692871;1.0;2;0;0;;0;0;();();(-2000.0, -2000.0);
04:08:02:854;04:08:02:841;1448033040.93;(0.6463335990905762, 0.6112763298882378);63.607925415;1.0;2;0;0;;0;0;();();(-2000.0, -2000.0);
04:08:02:887;04:08:02:841;1448033040.93;(0.6463335990905762, 0.6112763298882378);63.607925415;1.0;2;0;0;;0;0;();();(-2000.0, -2000.0);
04:08:02:904;04:08:02:893;1448033040.96;(0.6462814807891846, 0.6107879214816623);63.9546813965;1.0;2;0;0;;0;0;();();(-2000.0, -2000.0);
04:08:02:920;04:08:02:893;1448033040.96;(0.6462814807891846, 0.6107879214816623);63.9546813965;1.0;2;0;0;;0;0;();();(-2000.0, -2000.0);
04:08:02:937;04:08:02:893;1448033040.96;(0.6462814807891846, 0.6107879214816623);63.9546813965;1.0;2;0;0;;0;0;();();(-2000.0, -2000.0);
04:08:02:954;04:08:02:893;1448033040.96;(0.6462814807891846, 0.6107879214816623);63.9546813965;1.0;2;0;0;;0;0;();();(-2000.0, -2000.0);
04:08:02:986;04:08:02:893;1448033040.96;(0.6462814807891846, 0.6107879214816623);63.9546813965;1.0;2;0;0;;0;0;();();(-2000.0, -2000.0);
04:08:03:004;04:08:02:893;1448033040.96;(0.6462814807891846, 0.6107879214816623);63.9546813965;1.0;2;0;0;;0;0;();();(-2000.0, -2000.0);
04:08:03:019;04:08:02:893;1448033040.96;(0.6462814807891846, 0.6107879214816623);63.9546813965;1.0;2;0;0;;0;0;();();(-2000.0, -2000.0);
04:08:03:036;04:08:02:893;1448033040.96;(0.6462814807891846, 0.6107879214816623);63.9546813965;1.0;2;0;0;;0;0;();();(-2000.0, -2000.0);
04:08:03:069;04:08:03:041;1448033040.99;(0.36462395191192626, 0.7130893495347765);28.4338226318;0.764869035417;2;0;0;;0;0;();();(-2000.0, -2000.0);
04:08:03:087;04:08:03:041;1448033040.99;(0.36462395191192626, 0.7130893495347765);28.4338226318;0.764869035417;2;0;0;;0;0;();();(-2000.0, -2000.0);
04:08:03:103;04:08:03:041;1448033040.99;(0.36462395191192626, 0.7130893495347765);28.4338226318;0.764869035417;2;0;0;;0;0;();();(-2000.0, -2000.0);
04:08:03:119;04:08:03:041;1448033040.99;(0.36462395191192626, 0.7130893495347765);28.4338226318;0.764869035417;2;0;0;;0;0;();();(-2000.0, -2000.0);
04:08:03:136;04:08:03:041;1448033040.99;(0.36462395191192626, 0.7130893495347765);28.4338226318;0.764869035417;2;0;0;;0;0;();();(-2000.0, -2000.0);
04:08:03:169;04:08:03:041;1448033040.99;(0.36462395191192626, 0.7130893495347765);28.4338226318;0.764869035417;2;0;0;;0;0;();();(-2000.0, -2000.0);
04:08:03:185;04:08:03:041;1448033040.99;(0.36462395191192626, 0.7130893495347765);28.4338226318;0.764869035417;2;0;0;;0;0;();();(-2000.0, -2000.0);
04:08:03:202;04:08:03:189;1448033041.1;(0.6066990375518799, 0.6767314698961047);65.0585327148;0.958322151284;2;0;0;;0;0;();();(-2000.0, -2000.0);
04:08:03:219;04:08:03:189;1448033041.1;(0.6066990375518799, 0.6767314698961047);65.0585327148;0.958322151284;2;0;0;;0;0;();();(-2000.0, -2000.0);
04:08:03:235;04:08:03:189;1448033041.1;(0.6066990375518799, 0.6767314698961047);65.0585327148;0.958322151284;2;0;0;;0;0;();();(-2000.0, -2000.0);
04:08:03:269;04:08:03:241;1448033041.31;(0.36169354915618895, 0.7877235836452908);30.9486637115;0.822399494926;2;0;0;;0;0;();();(-2000.0, -2000.0);
04:08:03:285;04:08:03:241;1448033041.31;(0.36169354915618895, 0.7877235836452908);30.9486637115;0.822399494926;2;0;0;;0;0;();();(-2000.0, -2000.0);
04:08:03:301;04:08:03:289;1448033041.36;(0.36199097633361815, 0.7887273576524523);34.3764381409;0.853362051497;2;0;0;;0;0;();();(-2000.0, -2000.0);
04:08:03:323;04:08:03:289;1448033041.36;(0.36199097633361815, 0.7887273576524523);34.3764381409;0.853362051497;4;0;0;;0;0;();();(-2000.0, -2000.0);
04:08:03:335;04:08:03:289;1448033041.36;(0.36199097633361815, 0.7887273576524523);34.3764381409;0.853362051497;4;0;0;;0;0;();();(-2000.0, -2000.0);
04:08:03:369;04:08:03:341;1448033041.39;(0.36132833957672117, 0.7890642801920573);36.3532905579;0.852914863169;4;0;0;;0;0;();();(-2000.0, -2000.0);
04:08:03:385;04:08:03:341;1448033041.39;(0.36132833957672117, 0.7890642801920573);36.3532905579;0.852914863169;4;0;0;;0;0;();();(-2000.0, -2000.0);
04:08:03:401;04:08:03:389;1448033041.43;(0.36197121143341066, 0.788089222378201);31.5957946777;0.752428547357;4;0;0;;0;0;();();(-2000.0, -2000.0);
04:08:03:418;04:08:03:389;1448033041.43;(0.36197121143341066, 0.788089222378201);31.5957946777;0.752428547357;4;0;0;;0;0;();();(-2000.0, -2000.0);
04:08:03:434;04:08:03:389;1448033041.43;(0.36197121143341066, 0.788089222378201);31.5957946777;0.752428547357;4;0;0;;0;0;();();(-2000.0, -2000.0);
04:08:03:467;04:08:03:389;1448033041.43;(0.36197121143341066, 0.788089222378201);31.5957946777;0.752428547357;4;0;0;;0;0;();();(-2000.0, -2000.0);
04:08:03:483;04:08:03:389;1448033041.43;(0.36197121143341066, 0.788089222378201);31.5957946777;0.752428547357;4;0;0;;0;0;();();(-2000.0, -2000.0);
04:08:03:500;04:08:03:389;1448033041.43;(0.36197121143341066, 0.788089222378201);31.5957946777;0.752428547357;4;0;0;;0;0;();();(-2000.0, -2000.0);
04:08:03:517;04:08:03:389;1448033041.43;(0.36197121143341066, 0.788089222378201);31.5957946777;0.752428547357;4;0;0;;0;0;();();(-2000.0, -2000.0);
04:08:03:550;04:08:03:541;1448033041.63;(0.6139057636260986, 0.6744340896606446);64.4519805908;1.0;4;0;0;;0;0;();();(-2000.0, -2000.0);
04:08:03:566;04:08:03:541;1448033041.63;(0.6139057636260986, 0.6744340896606446);64.4519805908;1.0;4;0;0;;0;0;();();(-2000.0, -2000.0);
04:08:03:583;04:08:03:541;1448033041.63;(0.6139057636260986, 0.6744340896606446);64.4519805908;1.0;4;0;0;;0;0;();();(-2000.0, -2000.0);
04:08:03:599;04:08:03:588;1448033041.66;(0.6141590118408203, 0.6740307490030925);64.5615844727;1.0;4;0;0;;0;0;();();(-2000.0, -2000.0);
04:08:03:616;04:08:03:588;1448033041.66;(0.6141590118408203, 0.6740307490030925);64.5615844727;1.0;4;0;0;;0;0;();();(-2000.0, -2000.0);
04:08:03:650;04:08:03:636;1448033041.69;(0.6141219139099121, 0.6737899356418185);64.4954071045;1.0;4;0;0;;0;0;();();(-2000.0, -2000.0);
04:08:03:667;04:08:03:636;1448033041.69;(0.6141219139099121, 0.6737899356418185);64.4954071045;1.0;4;0;0;;0;0;();();(-2000.0, -2000.0);
04:08:03:682;04:08:03:636;1448033041.69;(0.6141219139099121, 0.6737899356418185);64.4954071045;1.0;4;0;0;;0;0;();();(-2000.0, -2000.0);
04:08:03:699;04:08:03:689;1448033041.76;(0.46709866523742677, 0.8715466605292426);19.7798156738;1.0;4;0;0;;0;0;();();(-2000.0, -2000.0);
04:08:03:716;04:08:03:689;1448033041.76;(0.46709866523742677, 0.8715466605292426);19.7798156738;1.0;4;0;0;;0;0;();();(-2000.0, -2000.0);
04:08:03:749;04:08:03:689;1448033041.76;(0.46709866523742677, 0.8715466605292426);19.7798156738;1.0;4;0;0;;0;0;();();(-2000.0, -2000.0);
04:08:03:765;04:08:03:689;1448033041.76;(0.46709866523742677, 0.8715466605292426);19.7798156738;1.0;4;0;0;;0;0;();();(-2000.0, -2000.0);
04:08:03:782;04:08:03:689;1448033041.76;(0.46709866523742677, 0.8715466605292426);19.7798156738;1.0;4;0;0;;0;0;();();(-2000.0, -2000.0);
04:08:03:798;04:08:03:689;1448033041.76;(0.46709866523742677, 0.8715466605292426);19.7798156738;1.0;4;0;0;;0;0;();();(-2000.0, -2000.0);
04:08:03:815;04:08:03:689;1448033041.76;(0.46709866523742677, 0.8715466605292426);19.7798156738;1.0;4;0;0;;0;0;();();(-2000.0, -2000.0);
04:08:03:849;04:08:03:689;1448033041.76;(0.46709866523742677, 0.8715466605292426);19.7798156738;1.0;4;0;0;;0;0;();();(-2000.0, -2000.0);
04:08:03:865;04:08:03:689;1448033041.76;(0.46709866523742677, 0.8715466605292426);19.7798156738;1.0;4;0;0;;0;0;();();(-2000.0, -2000.0);
04:08:03:881;04:08:03:689;1448033041.76;(0.46709866523742677, 0.8715466605292426);19.7798156738;1.0;4;0;0;;0;0;();();(-2000.0, -2000.0);
04:08:03:898;04:08:03:890;1448033041.94;(0.3574445009231567, 0.788669310675727);34.3271560669;0.699268685357;4;0;0;;0;0;();();(-2000.0, -2000.0);
04:08:03:914;04:08:03:890;1448033041.94;(0.3574445009231567, 0.788669310675727);34.3271560669;0.699268685357;4;0;0;;0;0;();();(-2000.0, -2000.0);
04:08:03:947;04:08:03:936;1448033041.99;(0.35564579963684084, 0.7925134023030599);37.3089103699;0.662722563576;4;0;0;;0;0;();();(-2000.0, -2000.0);
04:08:03:964;04:08:03:936;1448033041.99;(0.35564579963684084, 0.7925134023030599);37.3089103699;0.662722563576;4;0;0;;0;0;();();(-2000.0, -2000.0);
04:08:03:981;04:08:03:936;1448033041.99;(0.35564579963684084, 0.7925134023030599);37.3089103699;0.662722563576;4;0;0;;0;0;();();(-2000.0, -2000.0);
04:08:03:997;04:08:03:991;1448033042.06;(0.7763255596160888, 0.4036124335394965);26.2866897583;0.666294154832;4;0;0;;0;0;();();(-2000.0, -2000.0);
04:08:04:014;04:08:03:991;1448033042.06;(0.7763255596160888, 0.4036124335394965);26.2866897583;0.666294154832;4;0;0;;0;0;();();(-2000.0, -2000.0);
04:08:04:047;04:08:04:037;1448033042.09;(0.600620698928833, 0.5268762800428602);33.9090766907;0.70669372747;4;0;0;;0;0;();();(-2000.0, -2000.0);
04:08:04:063;04:08:04:037;1448033042.09;(0.600620698928833, 0.5268762800428602);33.9090766907;0.70669372747;4;0;0;;0;0;();();(-2000.0, -2000.0);
04:08:04:080;04:08:04:037;1448033042.09;(0.600620698928833, 0.5268762800428602);33.9090766907;0.70669372747;4;0;0;;0;0;();();(-2000.0, -2000.0);
04:08:04:097;04:08:04:085;1448033042.16;(0.34812054634094236, 0.6815222634209527);26.1283874512;0.767880169639;4;0;0;;0;0;();();(-2000.0, -2000.0);
04:08:04:130;04:08:04:085;1448033042.16;(0.34812054634094236, 0.6815222634209527);26.1283874512;0.767880169639;4;0;0;;0;0;();();(-2000.0, -2000.0);
04:08:04:146;04:08:04:085;1448033042.16;(0.34812054634094236, 0.6815222634209527);26.1283874512;0.767880169639;4;0;0;;0;0;();();(-2000.0, -2000.0);
04:08:04:162;04:08:04:085;1448033042.16;(0.34812054634094236, 0.6815222634209527);26.1283874512;0.767880169639;4;0;0;;0;0;();();(-2000.0, -2000.0);
04:08:04:180;04:08:04:085;1448033042.16;(0.34812054634094236, 0.6815222634209527);26.1283874512;0.767880169639;4;0;0;;0;0;();();(-2000.0, -2000.0);
04:08:04:196;04:08:04:085;1448033042.16;(0.34812054634094236, 0.6815222634209527);26.1283874512;0.767880169639;4;0;0;;0;0;();();(-2000.0, -2000.0);
04:08:04:229;04:08:04:085;1448033042.16;(0.34812054634094236, 0.6815222634209527);26.1283874512;0.767880169639;4;0;0;;0;0;();();(-2000.0, -2000.0);
04:08:04:245;04:08:04:237;1448033042.3;(0.5860648155212402, 0.6915744357638889);59.3254890442;0.902252745989;4;0;0;;0;0;();();(-2000.0, -2000.0);
04:08:04:263;04:08:04:237;1448033042.3;(0.5860648155212402, 0.6915744357638889);59.3254890442;0.902252745989;4;0;0;;0;0;();();(-2000.0, -2000.0);
04:08:04:279;04:08:04:237;1448033042.3;(0.5860648155212402, 0.6915744357638889);59.3254890442;0.902252745989;4;0;0;;0;0;();();(-2000.0, -2000.0);
04:08:04:295;04:08:04:286;1448033042.36;(0.5865908145904541, 0.6915207121107314);60.5520095825;1.0;4;0;0;;0;0;();();(-2000.0, -2000.0);
04:08:04:328;04:08:04:286;1448033042.36;(0.5865908145904541, 0.6915207121107314);60.5520095825;1.0;4;0;0;;0;0;();();(-2000.0, -2000.0);
04:08:04:344;04:08:04:337;1448033042.39;(0.5870715618133545, 0.6908387290106879);60.7349205017;1.0;4;0;0;;0;0;();();(-2000.0, -2000.0);
04:08:04:361;04:08:04:337;1448033042.39;(0.5870715618133545, 0.6908387290106879);60.7349205017;1.0;4;0;0;;0;0;();();(-2000.0, -2000.0);
04:08:04:379;04:08:04:337;1448033042.39;(0.5870715618133545, 0.6908387290106879);60.7349205017;1.0;4;0;0;;0;0;();();(-2000.0, -2000.0);
04:08:04:395;04:08:04:384;1448033042.42;(0.3604578495025635, 0.7687943988376194);30.5781898499;0.878393245426;4;0;0;;0;0;();();(-2000.0, -2000.0);
04:08:04:428;04:08:04:384;1448033042.42;(0.3604578495025635, 0.7687943988376194);30.5781898499;0.878393245426;4;0;0;;0;0;();();(-2000.0, -2000.0);
04:08:04:444;04:08:04:437;1448033042.5;(0.5829003334045411, 0.694535658094618);60.8746948242;1.0;4;0;0;;0;0;();();(-2000.0, -2000.0);
04:08:04:461;04:08:04:437;1448033042.5;(0.5829003334045411, 0.694535658094618);60.8746948242;1.0;4;0;0;;0;0;();();(-2000.0, -2000.0);
04:08:04:477;04:08:04:437;1448033042.5;(0.5829003334045411, 0.694535658094618);60.8746948242;1.0;4;0;0;;0;0;();();(-2000.0, -2000.0);
04:08:04:494;04:08:04:486;1448033042.56;(0.5829631328582764, 0.6938223097059462);61.5665397644;1.0;4;0;0;;0;0;();();(-2000.0, -2000.0);
04:08:04:528;04:08:04:486;1448033042.56;(0.5829631328582764, 0.6938223097059462);61.5665397644;1.0;4;0;0;;0;0;();();(-2000.0, -2000.0);
04:08:04:544;04:08:04:540;1448033042.62;(0.5839000225067139, 0.6927847968207466);61.4717330933;1.0;4;0;0;;0;0;();();(-2000.0, -2000.0);
04:08:04:561;04:08:04:540;1448033042.62;(0.5839000225067139, 0.6927847968207466);61.4717330933;1.0;4;0;0;;0;0;();();(-2000.0, -2000.0);
04:08:04:577;04:08:04:540;1448033042.62;(0.5839000225067139, 0.6927847968207466);61.4717330933;1.0;4;0;0;;0;0;();();(-2000.0, -2000.0);
04:08:04:610;04:08:04:584;1448033042.66;(0.5839410305023194, 0.6929221471150716);61.7838020325;1.0;4;0;0;;0;0;();();(-2000.0, -2000.0);
04:08:04:626;04:08:04:584;1448033042.66;(0.5839410305023194, 0.6929221471150716);61.7838020325;1.0;4;0;0;;0;0;();();(-2000.0, -2000.0);
04:08:04:643;04:08:04:584;1448033042.66;(0.5839410305023194, 0.6929221471150716);61.7838020325;1.0;4;0;0;;0;0;();();(-2000.0, -2000.0);
04:08:04:660;04:08:04:584;1448033042.66;(0.5839410305023194, 0.6929221471150716);61.7838020325;1.0;4;0;0;;0;0;();();(-2000.0, -2000.0);
04:08:04:676;04:08:04:584;1448033042.66;(0.5839410305023194, 0.6929221471150716);61.7838020325;1.0;4;0;0;;0;0;();();(-2000.0, -2000.0);
04:08:04:710;04:08:04:686;1448033042.69;(0, 0);0;0;4;0;0;;0;0;();();(-2000.0, -2000.0);
04:08:04:726;04:08:04:686;1448033042.69;(0, 0);0;0;4;0;0;;0;0;();();(-2000.0, -2000.0);
04:08:04:743;04:08:04:735;1448033042.8;(0.6284395217895508, 0.6574541939629448);60.2175559998;1.0;4;0;0;;0;0;();();(-2000.0, -2000.0);
04:08:04:759;04:08:04:735;1448033042.8;(0.6284395217895508, 0.6574541939629448);60.2175559998;1.0;4;0;0;;0;0;();();(-2000.0, -2000.0);
04:08:04:776;04:08:04:735;1448033042.8;(0.6284395217895508, 0.6574541939629448);60.2175559998;1.0;4;0;0;;0;0;();();(-2000.0, -2000.0);
04:08:04:808;04:08:04:787;1448033042.86;(0.6284304141998291, 0.6579031414455838);60.8507156372;1.0;4;0;0;;0;0;();();(-2000.0, -2000.0);
04:08:04:826;04:08:04:787;1448033042.86;(0.6284304141998291, 0.6579031414455838);60.8507156372;1.0;4;0;0;;0;0;();();(-2000.0, -2000.0);
04:08:04:842;04:08:04:834;1448033042.89;(0.6280450344085693, 0.658324580722385);61.0563659668;1.0;4;0;0;;0;0;();();(-2000.0, -2000.0);
04:08:04:858;04:08:04:834;1448033042.89;(0.6280450344085693, 0.658324580722385);61.0563659668;1.0;4;0;0;;0;0;();();(-2000.0, -2000.0);
04:08:04:876;04:08:04:834;1448033042.89;(0.6280450344085693, 0.658324580722385);61.0563659668;1.0;4;0;0;;0;0;();();(-2000.0, -2000.0);
04:08:04:908;04:08:04:884;1448033042.92;(0.6280699253082276, 0.6590164396497938);60.9738540649;1.0;4;0;0;;0;0;();();(-2000.0, -2000.0);
04:08:04:926;04:08:04:884;1448033042.92;(0.6280699253082276, 0.6590164396497938);60.9738540649;1.0;4;0;0;;0;0;();();(-2000.0, -2000.0);
04:08:04:941;04:08:04:933;1448033042.96;(0, 0);0;0;4;0;0;;0;0;();();(-2000.0, -2000.0);
04:08:04:958;04:08:04:933;1448033042.96;(0, 0);0;0;4;0;0;;0;0;();();(-2000.0, -2000.0);
04:08:04:974;04:08:04:933;1448033042.96;(0, 0);0;0;4;0;0;;0;0;();();(-2000.0, -2000.0);
04:08:05:007;04:08:04:986;1448033043.03;(0.658549451828003, 0.5723587036132812);59.7502632141;1.0;4;0;0;;0;0;();();(-2000.0, -2000.0);
04:08:05:025;04:08:04:986;1448033043.03;(0.658549451828003, 0.5723587036132812);59.7502632141;1.0;4;0;0;;0;0;();();(-2000.0, -2000.0);
04:08:05:040;04:08:05:033;1448033043.12;(0.6560446262359619, 0.5767236921522352);59.7188568115;1.0;4;0;0;;0;0;();();(-2000.0, -2000.0);
04:08:05:057;04:08:05:033;1448033043.12;(0.6560446262359619, 0.5767236921522352);59.7188568115;1.0;4;0;0;;0;0;();();(-2000.0, -2000.0);
04:08:05:073;04:08:05:033;1448033043.12;(0.6560446262359619, 0.5767236921522352);59.7188568115;1.0;4;0;0;;0;0;();();(-2000.0, -2000.0);
04:08:05:107;04:08:05:081;1448033043.16;(0.655501127243042, 0.5776886410183377);59.6740264893;1.0;4;0;0;;0;0;();();(-2000.0, -2000.0);
04:08:05:124;04:08:05:081;1448033043.16;(0.655501127243042, 0.5776886410183377);59.6740264893;1.0;4;0;0;;0;0;();();(-2000.0, -2000.0);
04:08:05:140;04:08:05:081;1448033043.16;(0.655501127243042, 0.5776886410183377);59.6740264893;1.0;4;0;0;;0;0;();();(-2000.0, -2000.0);
04:08:05:157;04:08:05:141;1448033043.19;(0.6545424461364746, 0.579120127360026);59.9567832947;1.0;4;0;0;;0;0;();();(-2000.0, -2000.0);
04:08:05:190;04:08:05:181;1448033043.26;(0.6544328212738038, 0.5798298729790581);61.062789917;0.936337815086;4;0;0;;0;0;();();(-2000.0, -2000.0);
04:08:05:206;04:08:05:181;1448033043.26;(0.6544328212738038, 0.5798298729790581);61.062789917;0.936337815086;4;0;0;;0;0;();();(-2000.0, -2000.0);
04:08:05:223;04:08:05:181;1448033043.26;(0.6544328212738038, 0.5798298729790581);61.062789917;0.936337815086;4;0;0;;0;0;();();(-2000.0, -2000.0);
04:08:05:240;04:08:05:236;1448033043.29;(0.6596084117889405, 0.5704507615831163);60.2960891724;1.0;4;0;0;;0;0;();();(-2000.0, -2000.0);
04:08:05:256;04:08:05:236;1448033043.29;(0.6596084117889405, 0.5704507615831163);60.2960891724;1.0;4;0;0;;0;0;();();(-2000.0, -2000.0);
04:08:05:289;04:08:05:281;1448033043.36;(0.6575759887695313, 0.573014662000868);60.4880943298;0.90639829482;4;0;0;;0;0;();();(-2000.0, -2000.0);
04:08:05:306;04:08:05:281;1448033043.36;(0.6575759887695313, 0.573014662000868);60.4880943298;0.90639829482;4;0;0;;0;0;();();(-2000.0, -2000.0);
04:08:05:322;04:08:05:281;1448033043.36;(0.6575759887695313, 0.573014662000868);60.4880943298;0.90639829482;4;0;0;;0;0;();();(-2000.0, -2000.0);
04:08:05:340;04:08:05:281;1448033043.36;(0.6575759887695313, 0.573014662000868);60.4880943298;0.90639829482;4;0;0;;0;0;();();(-2000.0, -2000.0);
04:08:05:355;04:08:05:353;1448033043.42;(0.6554795742034912, 0.576481925116645);60.4640808105;0.915384037948;4;0;0;;0;0;();();(-2000.0, -2000.0);
04:08:05:389;04:08:05:381;1448033043.46;(0.6544530391693115, 0.5785488976372613);60.5465354919;0.822436393696;4;0;0;;0;0;();();(-2000.0, -2000.0);
04:08:05:405;04:08:05:381;1448033043.46;(0.6544530391693115, 0.5785488976372613);60.5465354919;0.822436393696;4;0;0;;0;0;();();(-2000.0, -2000.0);
04:08:05:422;04:08:05:381;1448033043.46;(0.6544530391693115, 0.5785488976372613);60.5465354919;0.822436393696;4;0;0;;0;0;();();(-2000.0, -2000.0);
04:08:05:438;04:08:05:434;1448033043.49;(0.6533683776855469, 0.5797792646620008);60.8612937927;0.93934120104;4;0;0;;0;0;();();(-2000.0, -2000.0);
04:08:05:455;04:08:05:434;1448033043.49;(0.6533683776855469, 0.5797792646620008);60.8612937927;0.93934120104;4;0;0;;0;0;();();(-2000.0, -2000.0);
04:08:05:489;04:08:05:480;1448033043.52;(0.652443265914917, 0.5811129675971137);61.1125259399;1.0;4;0;0;;0;0;();();(-2000.0, -2000.0);
04:08:05:504;04:08:05:480;1448033043.52;(0.652443265914917, 0.5811129675971137);61.1125259399;1.0;4;0;0;;0;0;();();(-2000.0, -2000.0);
04:08:05:521;04:08:05:480;1448033043.52;(0.652443265914917, 0.5811129675971137);61.1125259399;1.0;4;0;0;;0;0;();();(-2000.0, -2000.0);
04:08:05:537;04:08:05:480;1448033043.52;(0.652443265914917, 0.5811129675971137);61.1125259399;1.0;4;0;0;;0;0;();();(-2000.0, -2000.0);
04:08:05:554;04:08:05:480;1448033043.52;(0.652443265914917, 0.5811129675971137);61.1125259399;1.0;4;0;0;;0;0;();();(-2000.0, -2000.0);
04:08:05:588;04:08:05:480;1448033043.52;(0.652443265914917, 0.5811129675971137);61.1125259399;1.0;4;0;0;;0;0;();();(-2000.0, -2000.0);
04:08:05:605;04:08:05:480;1448033043.52;(0.652443265914917, 0.5811129675971137);61.1125259399;1.0;4;0;0;;0;0;();();(-2000.0, -2000.0);
04:08:05:621;04:08:05:480;1448033043.52;(0.652443265914917, 0.5811129675971137);61.1125259399;1.0;4;0;0;;0;0;();();(-2000.0, -2000.0);
04:08:05:637;04:08:05:629;1448033043.56;(0.4996367931365967, 0.7984268612331814);36.9452705383;0.678003550298;4;0;0;;0;0;();();(-2000.0, -2000.0);
04:08:05:654;04:08:05:629;1448033043.56;(0.4996367931365967, 0.7984268612331814);36.9452705383;0.678003550298;4;0;0;;0;0;();();(-2000.0, -2000.0);
04:08:05:687;04:08:05:681;1448033043.69;(0.6337285518646241, 0.4976153479682075);29.774930954;0.611114639437;4;0;0;;0;0;();();(-2000.0, -2000.0);
04:08:05:703;04:08:05:681;1448033043.69;(0.6337285518646241, 0.4976153479682075);29.774930954;0.611114639437;4;0;0;;0;0;();();(-2000.0, -2000.0);
04:08:05:720;04:08:05:681;1448033043.69;(0.6337285518646241, 0.4976153479682075);29.774930954;0.611114639437;4;0;0;;0;0;();();(-2000.0, -2000.0);
04:08:05:737;04:08:05:731;1448033043.73;(0.6183258533477783, 0.6222891489664714);61.3384628296;0.824747634317;4;0;0;;0;0;();();(-2000.0, -2000.0);
04:08:05:769;04:08:05:731;1448033043.73;(0.6183258533477783, 0.6222891489664714);61.3384628296;0.824747634317;4;0;0;;0;0;();();(-2000.0, -2000.0);
04:08:05:786;04:08:05:731;1448033043.73;(0.6183258533477783, 0.6222891489664714);61.3384628296;0.824747634317;4;0;0;;0;0;();();(-2000.0, -2000.0);
04:08:05:802;04:08:05:731;1448033043.73;(0.6183258533477783, 0.6222891489664714);61.3384628296;0.824747634317;4;0;0;;0;0;();();(-2000.0, -2000.0);
04:08:05:820;04:08:05:731;1448033043.73;(0.6183258533477783, 0.6222891489664714);61.3384628296;0.824747634317;4;0;0;;0;0;();();(-2000.0, -2000.0);
04:08:05:836;04:08:05:731;1448033043.73;(0.6183258533477783, 0.6222891489664714);61.3384628296;0.824747634317;4;0;0;;0;0;();();(-2000.0, -2000.0);
04:08:05:869;04:08:05:731;1448033043.73;(0.6183258533477783, 0.6222891489664714);61.3384628296;0.824747634317;4;0;0;;0;0;();();(-2000.0, -2000.0);
04:08:05:886;04:08:05:731;1448033043.73;(0.6183258533477783, 0.6222891489664714);61.3384628296;0.824747634317;4;0;0;;0;0;();();(-2000.0, -2000.0);
04:08:05:902;04:08:05:731;1448033043.73;(0.6183258533477783, 0.6222891489664714);61.3384628296;0.824747634317;4;0;0;;0;0;();();(-2000.0, -2000.0);
04:08:05:919;04:08:05:731;1448033043.73;(0.6183258533477783, 0.6222891489664714);61.3384628296;0.824747634317;4;0;0;;0;0;();();(-2000.0, -2000.0);
04:08:05:935;04:08:05:929;1448033043.82;(0.6199728012084961, 0.6248070187038846);62.1894645691;1.0;4;0;0;;0;0;();();(-2000.0, -2000.0);
04:08:05:969;04:08:05:929;1448033043.82;(0.6199728012084961, 0.6248070187038846);62.1894645691;1.0;4;0;0;;0;0;();();(-2000.0, -2000.0);
04:08:05:985;04:08:05:929;1448033043.82;(0.6199728012084961, 0.6248070187038846);62.1894645691;1.0;4;0;0;;0;0;();();(-2000.0, -2000.0);
04:08:06:001;04:08:05:929;1448033043.82;(0.6199728012084961, 0.6248070187038846);62.1894645691;1.0;4;0;0;;0;0;();();(-2000.0, -2000.0);
04:08:06:018;04:08:05:929;1448033043.82;(0.6199728012084961, 0.6248070187038846);62.1894645691;1.0;4;0;0;;0;0;();();(-2000.0, -2000.0);
04:08:06:035;04:08:05:929;1448033043.82;(0.6199728012084961, 0.6248070187038846);62.1894645691;1.0;4;0;0;;0;0;();();(-2000.0, -2000.0);
04:08:06:068;04:08:05:929;1448033043.82;(0.6199728012084961, 0.6248070187038846);62.1894645691;1.0;4;0;0;;0;0;();();(-2000.0, -2000.0);
04:08:06:084;04:08:05:929;1448033043.82;(0.6199728012084961, 0.6248070187038846);62.1894645691;1.0;4;0;0;;0;0;();();(-2000.0, -2000.0);
04:08:06:102;04:08:05:929;1448033043.82;(0.6199728012084961, 0.6248070187038846);62.1894645691;1.0;4;0;0;;0;0;();();(-2000.0, -2000.0);
04:08:06:118;04:08:05:929;1448033043.82;(0.6199728012084961, 0.6248070187038846);62.1894645691;1.0;4;0;0;;0;0;();();(-2000.0, -2000.0);
04:08:06:135;04:08:06:129;1448033044.02;(0.6251248836517334, 0.6147365146213107);62.8653640747;1.0;4;0;0;;0;0;();();(-2000.0, -2000.0);
04:08:06:168;04:08:06:129;1448033044.02;(0.6251248836517334, 0.6147365146213107);62.8653640747;1.0;4;0;0;;0;0;();();(-2000.0, -2000.0);
04:08:06:183;04:08:06:129;1448033044.02;(0.6251248836517334, 0.6147365146213107);62.8653640747;1.0;4;0;0;;0;0;();();(-2000.0, -2000.0);
04:08:06:201;04:08:06:129;1448033044.02;(0.6251248836517334, 0.6147365146213107);62.8653640747;1.0;4;0;0;;0;0;();();(-2000.0, -2000.0);
04:08:06:217;04:08:06:129;1448033044.02;(0.6251248836517334, 0.6147365146213107);62.8653640747;1.0;4;0;0;;0;0;();();(-2000.0, -2000.0);
04:08:06:234;04:08:06:229;1448033044.19;(0.377364444732666, 0.8801664458380805);83.2441101074;0.774561118173;4;0;0;;0;0;();();(-2000.0, -2000.0);
04:08:06:267;04:08:06:229;1448033044.19;(0.377364444732666, 0.8801664458380805);83.2441101074;0.774561118173;4;0;0;;0;0;();();(-2000.0, -2000.0);
04:08:06:284;04:08:06:277;1448033044.35;(0.7381538867950439, 0.9327538808186849);32.4629898071;0.676343998454;4;0;0;;0;0;();();(-2000.0, -2000.0);
04:08:06:300;04:08:06:277;1448033044.35;(0.7381538867950439, 0.9327538808186849);32.4629898071;0.676343998454;4;0;0;;0;0;();();(-2000.0, -2000.0);
04:08:06:316;04:08:06:277;1448033044.35;(0.7381538867950439, 0.9327538808186849);32.4629898071;0.676343998454;4;0;0;;0;0;();();(-2000.0, -2000.0);
04:08:06:349;04:08:06:277;1448033044.35;(0.7381538867950439, 0.9327538808186849);32.4629898071;0.676343998454;4;0;0;;0;0;();();(-2000.0, -2000.0);
04:08:06:366;04:08:06:277;1448033044.35;(0.7381538867950439, 0.9327538808186849);32.4629898071;0.676343998454;4;0;0;;0;0;();();(-2000.0, -2000.0);
04:08:06:382;04:08:06:376;1448033044.44;(0.36096599102020266, 0.7768019570244683);30.1936836243;0.684001779839;4;0;0;;0;0;();();(-2000.0, -2000.0);
04:08:06:400;04:08:06:376;1448033044.44;(0.36096599102020266, 0.7768019570244683);30.1936836243;0.684001779839;4;0;0;;0;0;();();(-2000.0, -2000.0);
04:08:06:416;04:08:06:376;1448033044.44;(0.36096599102020266, 0.7768019570244683);30.1936836243;0.684001779839;4;0;0;;0;0;();();(-2000.0, -2000.0);
04:08:06:449;04:08:06:376;1448033044.44;(0.36096599102020266, 0.7768019570244683);30.1936836243;0.684001779839;4;0;0;;0;0;();();(-2000.0, -2000.0);
04:08:06:466;04:08:06:376;1448033044.44;(0.36096599102020266, 0.7768019570244683);30.1936836243;0.684001779839;4;0;0;;0;0;();();(-2000.0, -2000.0);
04:08:06:483;04:08:06:376;1448033044.44;(0.36096599102020266, 0.7768019570244683);30.1936836243;0.684001779839;4;0;0;;0;0;();();(-2000.0, -2000.0);
04:08:06:499;04:08:06:376;1448033044.44;(0.36096599102020266, 0.7768019570244683);30.1936836243;0.684001779839;4;0;0;;0;0;();();(-2000.0, -2000.0);
04:08:06:515;04:08:06:376;1448033044.44;(0.36096599102020266, 0.7768019570244683);30.1936836243;0.684001779839;4;0;0;;0;0;();();(-2000.0, -2000.0);
04:08:06:549;04:08:06:524;1448033044.46;(0.6209041595458984, 0.6624237908257378);62.3970298767;1.0;4;0;0;;0;0;();();(-2000.0, -2000.0);
04:08:06:566;04:08:06:524;1448033044.46;(0.6209041595458984, 0.6624237908257378);62.3970298767;1.0;4;0;0;;0;0;();();(-2000.0, -2000.0);
04:08:06:581;04:08:06:577;1448033044.62;(0.6173521518707276, 0.6615378061930339);63.0817489624;0.965851721447;4;0;0;;0;0;();();(-2000.0, -2000.0);
04:08:06:598;04:08:06:577;1448033044.62;(0.6173521518707276, 0.6615378061930339);63.0817489624;0.965851721447;4;0;0;;0;0;();();(-2000.0, -2000.0);
04:08:06:624;04:08:06:577;1448033044.62;(0.6173521518707276, 0.6615378061930339);63.0817489624;0.965851721447;6;0;0;;0;0;();();(-2000.0, -2000.0);
04:08:06:649;04:08:06:625;1448033044.66;(0.6175562858581543, 0.6611955642700196);63.5813903809;0.976890026835;6;0;0;;0;0;();();(-2000.0, -2000.0);
04:08:06:665;04:08:06:625;1448033044.66;(0.6175562858581543, 0.6611955642700196);63.5813903809;0.976890026835;6;0;0;;0;0;();();(-2000.0, -2000.0);
04:08:06:682;04:08:06:625;1448033044.66;(0.6175562858581543, 0.6611955642700196);63.5813903809;0.976890026835;6;0;0;;0;0;();();(-2000.0, -2000.0);
04:08:06:699;04:08:06:625;1448033044.66;(0.6175562858581543, 0.6611955642700196);63.5813903809;0.976890026835;6;0;0;;0;0;();();(-2000.0, -2000.0);
04:08:06:715;04:08:06:625;1448033044.66;(0.6175562858581543, 0.6611955642700196);63.5813903809;0.976890026835;6;0;0;;0;0;();();(-2000.0, -2000.0);
04:08:06:749;04:08:06:625;1448033044.66;(0.6175562858581543, 0.6611955642700196);63.5813903809;0.976890026835;6;0;0;;0;0;();();(-2000.0, -2000.0);
04:08:06:765;04:08:06:625;1448033044.66;(0.6175562858581543, 0.6611955642700196);63.5813903809;0.976890026835;6;0;0;;0;0;();();(-2000.0, -2000.0);
04:08:06:781;04:08:06:777;1448033044.83;(0.5987276554107666, 0.6522250069512261);64.5475692749;0.790934316842;6;0;0;;0;0;();();(-2000.0, -2000.0);
04:08:06:798;04:08:06:777;1448033044.83;(0.5987276554107666, 0.6522250069512261);64.5475692749;0.790934316842;6;0;0;;0;0;();();(-2000.0, -2000.0);
04:08:06:814;04:08:06:777;1448033044.83;(0.5987276554107666, 0.6522250069512261);64.5475692749;0.790934316842;6;0;0;;0;0;();();(-2000.0, -2000.0);
04:08:06:848;04:08:06:777;1448033044.83;(0.5987276554107666, 0.6522250069512261);64.5475692749;0.790934316842;6;0;0;;0;0;();();(-2000.0, -2000.0);
04:08:06:864;04:08:06:777;1448033044.83;(0.5987276554107666, 0.6522250069512261);64.5475692749;0.790934316842;6;0;0;;0;0;();();(-2000.0, -2000.0);
04:08:06:880;04:08:06:777;1448033044.83;(0.5987276554107666, 0.6522250069512261);64.5475692749;0.790934316842;6;0;0;;0;0;();();(-2000.0, -2000.0);
04:08:06:898;04:08:06:777;1448033044.83;(0.5987276554107666, 0.6522250069512261);64.5475692749;0.790934316842;6;0;0;;0;0;();();(-2000.0, -2000.0);
04:08:06:914;04:08:06:777;1448033044.83;(0.5987276554107666, 0.6522250069512261);64.5475692749;0.790934316842;6;0;0;;0;0;();();(-2000.0, -2000.0);
04:08:06:947;04:08:06:777;1448033044.83;(0.5987276554107666, 0.6522250069512261);64.5475692749;0.790934316842;6;0;0;;0;0;();();(-2000.0, -2000.0);
04:08:06:964;04:08:06:777;1448033044.83;(0.5987276554107666, 0.6522250069512261);64.5475692749;0.790934316842;6;0;0;;0;0;();();(-2000.0, -2000.0);
04:08:06:980;04:08:06:777;1448033044.83;(0.5987276554107666, 0.6522250069512261);64.5475692749;0.790934316842;6;0;0;;0;0;();();(-2000.0, -2000.0);
04:08:06:996;04:08:06:989;1448033044.87;(0.5866815090179444, 0.6211816575792101);165.479721069;0.642940008544;6;0;0;;0;0;();();(-2000.0, -2000.0);
04:08:07:014;04:08:06:989;1448033044.87;(0.5866815090179444, 0.6211816575792101);165.479721069;0.642940008544;6;0;0;;0;0;();();(-2000.0, -2000.0);
04:08:07:046;04:08:07:032;1448033045.06;(0.6034107208251953, 0.649521615770128);63.7178115845;0.952273636103;6;0;0;;0;0;();();(-2000.0, -2000.0);
04:08:07:062;04:08:07:032;1448033045.06;(0.6034107208251953, 0.649521615770128);63.7178115845;0.952273636103;6;0;0;;0;0;();();(-2000.0, -2000.0);
04:08:07:080;04:08:07:079;1448033045.11;(0.3567169666290283, 0.7583179261949327);30.8591423035;0.743654486895;6;0;0;;0;0;();();(-2000.0, -2000.0);
04:08:07:096;04:08:07:079;1448033045.11;(0.3567169666290283, 0.7583179261949327);30.8591423035;0.743654486895;6;0;0;;0;0;();();(-2000.0, -2000.0);
04:08:07:129;04:08:07:079;1448033045.11;(0.3567169666290283, 0.7583179261949327);30.8591423035;0.743654486895;6;0;0;;0;0;();();(-2000.0, -2000.0);
04:08:07:146;04:08:07:079;1448033045.11;(0.3567169666290283, 0.7583179261949327);30.8591423035;0.743654486895;6;0;0;;0;0;();();(-2000.0, -2000.0);
04:08:07:162;04:08:07:079;1448033045.11;(0.3567169666290283, 0.7583179261949327);30.8591423035;0.743654486895;6;0;0;;0;0;();();(-2000.0, -2000.0);
04:08:07:180;04:08:07:079;1448033045.11;(0.3567169666290283, 0.7583179261949327);30.8591423035;0.743654486895;6;0;0;;0;0;();();(-2000.0, -2000.0);
04:08:07:195;04:08:07:079;1448033045.11;(0.3567169666290283, 0.7583179261949327);30.8591423035;0.743654486895;6;0;0;;0;0;();();(-2000.0, -2000.0);
04:08:07:229;04:08:07:199;1448033045.13;(0.6098073482513428, 0.6507407718234592);61.7472457886;0.817619705677;6;0;0;;0;0;();();(-2000.0, -2000.0);
04:08:07:245;04:08:07:241;1448033045.31;(0.3577871322631836, 0.7546205096774631);29.5168819427;0.699372854379;6;0;0;;0;0;();();(-2000.0, -2000.0);
04:08:07:261;04:08:07:241;1448033045.31;(0.3577871322631836, 0.7546205096774631);29.5168819427;0.699372854379;6;0;0;;0;0;();();(-2000.0, -2000.0);
04:08:07:278;04:08:07:241;1448033045.31;(0.3577871322631836, 0.7546205096774631);29.5168819427;0.699372854379;6;0;0;;0;0;();();(-2000.0, -2000.0);
04:08:07:294;04:08:07:241;1448033045.31;(0.3577871322631836, 0.7546205096774631);29.5168819427;0.699372854379;6;0;0;;0;0;();();(-2000.0, -2000.0);
04:08:07:329;04:08:07:321;1448033045.36;(0.6326277732849122, 0.6417377048068577);59.4717979431;1.0;6;0;0;;0;0;();();(-2000.0, -2000.0);
04:08:07:344;04:08:07:321;1448033045.36;(0.6326277732849122, 0.6417377048068577);59.4717979431;1.0;6;0;0;;0;0;();();(-2000.0, -2000.0);
04:08:07:360;04:08:07:321;1448033045.36;(0.6326277732849122, 0.6417377048068577);59.4717979431;1.0;6;0;0;;0;0;();();(-2000.0, -2000.0);
04:08:07:377;04:08:07:365;1448033045.42;(0.6330760002136231, 0.6439573287963867);59.3612442017;1.0;6;0;0;;0;0;();();(-2000.0, -2000.0);
04:08:07:394;04:08:07:365;1448033045.42;(0.6330760002136231, 0.6439573287963867);59.3612442017;1.0;6;0;0;;0;0;();();(-2000.0, -2000.0);
04:08:07:428;04:08:07:419;1448033045.49;(0.6331461906433106, 0.6464316050211589);58.8142929077;1.0;6;0;0;;0;0;();();(-2000.0, -2000.0);
04:08:07:444;04:08:07:419;1448033045.49;(0.6331461906433106, 0.6464316050211589);58.8142929077;1.0;6;0;0;;0;0;();();(-2000.0, -2000.0);
04:08:07:460;04:08:07:449;1448033045.52;(0.632970666885376, 0.6473045772976346);58.0639305115;1.0;6;0;0;;0;0;();();(-2000.0, -2000.0);
04:08:07:478;04:08:07:449;1448033045.52;(0.632970666885376, 0.6473045772976346);58.0639305115;1.0;6;0;0;;0;0;();();(-2000.0, -2000.0);
04:08:07:494;04:08:07:489;1448033045.56;(0.6331665515899658, 0.6473760392930772);57.5312194824;1.0;6;0;0;;0;0;();();(-2000.0, -2000.0);
04:08:07:527;04:08:07:489;1448033045.56;(0.6331665515899658, 0.6473760392930772);57.5312194824;1.0;6;0;0;;0;0;();();(-2000.0, -2000.0);
04:08:07:543;04:08:07:529;1448033045.59;(0.6333589553833008, 0.6479756249321831);56.9015464783;1.0;6;0;0;;0;0;();();(-2000.0, -2000.0);
04:08:07:559;04:08:07:529;1448033045.59;(0.6333589553833008, 0.6479756249321831);56.9015464783;1.0;6;0;0;;0;0;();();(-2000.0, -2000.0);
04:08:07:576;04:08:07:575;1448033045.62;(0.36589779853820803, 0.7495377646552193);28.8282032013;0.932354595224;6;0;0;;0;0;();();(-2000.0, -2000.0);
04:08:07:610;04:08:07:575;1448033045.62;(0.36589779853820803, 0.7495377646552193);28.8282032013;0.932354595224;6;0;0;;0;0;();();(-2000.0, -2000.0);
04:08:07:626;04:08:07:613;1448033045.66;(0.6382033348083496, 0.6455339855617948);55.6189575195;1.0;6;0;0;;0;0;();();(-2000.0, -2000.0);
04:08:07:642;04:08:07:613;1448033045.66;(0.6382033348083496, 0.6455339855617948);55.6189575195;1.0;6;0;0;;0;0;();();(-2000.0, -2000.0);
04:08:07:659;04:08:07:653;1448033045.72;(0.638467264175415, 0.6464711507161458);55.0802154541;1.0;6;0;0;;0;0;();();(-2000.0, -2000.0);
04:08:07:676;04:08:07:653;1448033045.72;(0.638467264175415, 0.6464711507161458);55.0802154541;1.0;6;0;0;;0;0;();();(-2000.0, -2000.0);
04:08:07:709;04:08:07:696;1448033045.76;(0.6385285377502441, 0.647486432393392);54.9615592957;1.0;6;0;0;;0;0;();();(-2000.0, -2000.0);
04:08:07:726;04:08:07:696;1448033045.76;(0.6385285377502441, 0.647486432393392);54.9615592957;1.0;6;0;0;;0;0;();();(-2000.0, -2000.0);
04:08:07:742;04:08:07:737;1448033045.82;(0.6377936840057373, 0.6481133143107096);54.7043075562;1.0;6;0;0;;0;0;();();(-2000.0, -2000.0);
04:08:07:758;04:08:07:737;1448033045.82;(0.6377936840057373, 0.6481133143107096);54.7043075562;1.0;6;0;0;;0;0;();();(-2000.0, -2000.0);
04:08:07:775;04:08:07:737;1448033045.82;(0.6377936840057373, 0.6481133143107096);54.7043075562;1.0;6;0;0;;0;0;();();(-2000.0, -2000.0);
04:08:07:808;04:08:07:737;1448033045.82;(0.6377936840057373, 0.6481133143107096);54.7043075562;1.0;6;0;0;;0;0;();();(-2000.0, -2000.0);
04:08:07:824;04:08:07:737;1448033045.82;(0.6377936840057373, 0.6481133143107096);54.7043075562;1.0;6;0;0;;0;0;();();(-2000.0, -2000.0);
04:08:07:841;04:08:07:737;1448033045.82;(0.6377936840057373, 0.6481133143107096);54.7043075562;1.0;6;0;0;;0;0;();();(-2000.0, -2000.0);
04:08:07:859;04:08:07:737;1448033045.82;(0.6377936840057373, 0.6481133143107096);54.7043075562;1.0;6;0;0;;0;0;();();(-2000.0, -2000.0);
04:08:07:874;04:08:07:737;1448033045.82;(0.6377936840057373, 0.6481133143107096);54.7043075562;1.0;6;0;0;;0;0;();();(-2000.0, -2000.0);
04:08:07:908;04:08:07:737;1448033045.82;(0.6377936840057373, 0.6481133143107096);54.7043075562;1.0;6;0;0;;0;0;();();(-2000.0, -2000.0);
04:08:07:924;04:08:07:921;1448033045.97;(0.6273887157440186, 0.6542547225952149);54.8048057556;1.0;6;0;0;;0;0;();();(-2000.0, -2000.0);
04:08:07:940;04:08:07:921;1448033045.97;(0.6273887157440186, 0.6542547225952149);54.8048057556;1.0;6;0;0;;0;0;();();(-2000.0, -2000.0);
04:08:07:957;04:08:07:945;1448033046.02;(0, 0);0;0;6;0;0;;0;0;();();(-2000.0, -2000.0);
04:08:07:974;04:08:07:945;1448033046.02;(0, 0);0;0;6;0;0;;0;0;();();(-2000.0, -2000.0);
04:08:08:008;04:08:07:945;1448033046.02;(0, 0);0;0;6;0;0;;0;0;();();(-2000.0, -2000.0);
04:08:08:023;04:08:07:945;1448033046.02;(0, 0);0;0;6;0;0;;0;0;();();(-2000.0, -2000.0);
04:08:08:041;04:08:07:945;1448033046.02;(0, 0);0;0;6;0;0;;0;0;();();(-2000.0, -2000.0);
04:08:08:056;04:08:07:945;1448033046.02;(0, 0);0;0;6;0;0;;0;0;();();(-2000.0, -2000.0);
04:08:08:091;04:08:08:069;1448033046.15;(0.6290770053863526, 0.7033868365817599);55.2625312805;0.891831573968;6;0;0;;0;0;();();(-2000.0, -2000.0);
04:08:08:106;04:08:08:069;1448033046.15;(0.6290770053863526, 0.7033868365817599);55.2625312805;0.891831573968;6;0;0;;0;0;();();(-2000.0, -2000.0);
04:08:08:123;04:08:08:117;1448033046.19;(0.6298099994659424, 0.7008255216810438);53.0047340393;1.0;6;0;0;;0;0;();();(-2000.0, -2000.0);
04:08:08:139;04:08:08:117;1448033046.19;(0.6298099994659424, 0.7008255216810438);53.0047340393;1.0;6;0;0;;0;0;();();(-2000.0, -2000.0);
04:08:08:156;04:08:08:117;1448033046.19;(0.6298099994659424, 0.7008255216810438);53.0047340393;1.0;6;0;0;;0;0;();();(-2000.0, -2000.0);
04:08:08:189;04:08:08:156;1448033046.22;(0.6298203468322754, 0.6992895974053277);53.6222343445;1.0;6;0;0;;0;0;();();(-2000.0, -2000.0);
04:08:08:206;04:08:08:193;1448033046.26;(0.630145788192749, 0.6977962493896485);53.4851989746;1.0;6;0;0;;0;0;();();(-2000.0, -2000.0);
04:08:08:223;04:08:08:193;1448033046.26;(0.630145788192749, 0.6977962493896485);53.4851989746;1.0;6;0;0;;0;0;();();(-2000.0, -2000.0);
04:08:08:239;04:08:08:237;1448033046.32;(0.631577730178833, 0.6965795940823025);53.2851486206;1.0;6;0;0;;0;0;();();(-2000.0, -2000.0);
04:08:08:255;04:08:08:237;1448033046.32;(0.631577730178833, 0.6965795940823025);53.2851486206;1.0;6;0;0;;0;0;();();(-2000.0, -2000.0);
04:08:08:290;04:08:08:276;1448033046.36;(0.6319797515869141, 0.695564079284668);53.6579627991;1.0;6;0;0;;0;0;();();(-2000.0, -2000.0);
04:08:08:305;04:08:08:276;1448033046.36;(0.6319797515869141, 0.695564079284668);53.6579627991;1.0;6;0;0;;0;0;();();(-2000.0, -2000.0);
04:08:08:322;04:08:08:317;1448033046.39;(0.6321764945983886, 0.694871923658583);53.656036377;1.0;6;0;0;;0;0;();();(-2000.0, -2000.0);
04:08:08:339;04:08:08:317;1448033046.39;(0.6321764945983886, 0.694871923658583);53.656036377;1.0;6;0;0;;0;0;();();(-2000.0, -2000.0);
04:08:08:354;04:08:08:317;1448033046.39;(0.6321764945983886, 0.694871923658583);53.656036377;1.0;6;0;0;;0;0;();();(-2000.0, -2000.0);
04:08:08:388;04:08:08:363;1448033046.42;(0.6321306705474854, 0.693974134657118);53.6100234985;1.0;6;0;0;;0;0;();();(-2000.0, -2000.0);
04:08:08:405;04:08:08:401;1448033046.46;(0.6321662902832031, 0.6935108396742079);53.9321670532;1.0;6;0;0;;0;0;();();(-2000.0, -2000.0);
04:08:08:421;04:08:08:401;1448033046.46;(0.6321662902832031, 0.6935108396742079);53.9321670532;1.0;6;0;0;;0;0;();();(-2000.0, -2000.0);
04:08:08:438;04:08:08:401;1448033046.46;(0.6321662902832031, 0.6935108396742079);53.9321670532;1.0;6;0;0;;0;0;();();(-2000.0, -2000.0);
04:08:08:454;04:08:08:441;1448033046.52;(0.6322708606719971, 0.6930825551350912);55.0192146301;1.0;6;0;0;;0;0;();();(-2000.0, -2000.0);
04:08:08:488;04:08:08:485;1448033046.56;(0.6320032596588134, 0.6928526984320746);55.4976921082;1.0;6;0;0;;0;0;();();(-2000.0, -2000.0);
04:08:08:504;04:08:08:485;1448033046.56;(0.6320032596588134, 0.6928526984320746);55.4976921082;1.0;6;0;0;;0;0;();();(-2000.0, -2000.0);
04:08:08:521;04:08:08:485;1448033046.56;(0.6320032596588134, 0.6928526984320746);55.4976921082;1.0;6;0;0;;0;0;();();(-2000.0, -2000.0);
04:08:08:538;04:08:08:526;1448033046.59;(0.6317691326141357, 0.6928577211168077);55.6713294983;1.0;6;0;0;;0;0;();();(-2000.0, -2000.0);
04:08:08:554;04:08:08:526;1448033046.59;(0.6317691326141357, 0.6928577211168077);55.6713294983;1.0;6;0;0;;0;0;();();(-2000.0, -2000.0);
04:08:08:587;04:08:08:566;1448033046.62;(0.6316229820251464, 0.6924565421210396);56.8655014038;1.0;6;0;0;;0;0;();();(-2000.0, -2000.0);
04:08:08:604;04:08:08:566;1448033046.62;(0.6316229820251464, 0.6924565421210396);56.8655014038;1.0;6;0;0;;0;0;();();(-2000.0, -2000.0);
04:08:08:620;04:08:08:613;1448033046.69;(0.6319360733032227, 0.6917615042792427);57.6414718628;1.0;6;0;0;;0;0;();();(-2000.0, -2000.0);
04:08:08:636;04:08:08:613;1448033046.69;(0.6319360733032227, 0.6917615042792427);57.6414718628;1.0;6;0;0;;0;0;();();(-2000.0, -2000.0);
04:08:08:670;04:08:08:649;1448033046.72;(0.6320241451263428, 0.6917035208808051);58.0988502502;1.0;6;0;0;;0;0;();();(-2000.0, -2000.0);
04:08:08:687;04:08:08:649;1448033046.72;(0.6320241451263428, 0.6917035208808051);58.0988502502;1.0;6;0;0;;0;0;();();(-2000.0, -2000.0);
04:08:08:703;04:08:08:693;1448033046.76;(0.6324728488922119, 0.6918351915147569);58.341506958;1.0;6;0;0;;0;0;();();(-2000.0, -2000.0);
04:08:08:720;04:08:08:693;1448033046.76;(0.6324728488922119, 0.6918351915147569);58.341506958;1.0;6;0;0;;0;0;();();(-2000.0, -2000.0);
04:08:08:736;04:08:08:733;1448033046.79;(0.6323484420776367, 0.6921705881754557);58.7455215454;1.0;6;0;0;;0;0;();();(-2000.0, -2000.0);
04:08:08:769;04:08:08:733;1448033046.79;(0.6323484420776367, 0.6921705881754557);58.7455215454;1.0;6;0;0;;0;0;();();(-2000.0, -2000.0);
04:08:08:786;04:08:08:773;1448033046.86;(0.6322288990020752, 0.6932773590087891);60.0903816223;1.0;6;0;0;;0;0;();();(-2000.0, -2000.0);
04:08:08:802;04:08:08:773;1448033046.86;(0.6322288990020752, 0.6932773590087891);60.0903816223;1.0;6;0;0;;0;0;();();(-2000.0, -2000.0);
04:08:08:819;04:08:08:817;1448033046.89;(0.6320238590240479, 0.6930363549126519);60.0451850891;1.0;6;0;0;;0;0;();();(-2000.0, -2000.0);
04:08:08:835;04:08:08:817;1448033046.89;(0.6320238590240479, 0.6930363549126519);60.0451850891;1.0;6;0;0;;0;0;();();(-2000.0, -2000.0);
04:08:08:868;04:08:08:857;1448033046.92;(0.6320411205291748, 0.693149545457628);60.1843948364;1.0;6;0;0;;0;0;();();(-2000.0, -2000.0);
04:08:08:884;04:08:08:857;1448033046.92;(0.6320411205291748, 0.693149545457628);60.1843948364;1.0;6;0;0;;0;0;();();(-2000.0, -2000.0);
04:08:08:902;04:08:08:897;1448033046.96;(0.631926441192627, 0.6930160310533311);60.1383972168;1.0;6;0;0;;0;0;();();(-2000.0, -2000.0);
