%Timestamp,timestamp_write;timestamp_gotpupil;eyetrackertime;norm_pos;diameter;confidence;timestamp_gotbitdata;CRC;SEQ;AnalogOutp1;AnalogOutp2;AnalogOutp3;AnalogOutp4;AnalogOutp5;AnalogOutp6;DigitalOutp1;DigitalOutp2;igitalOutp3;DigitalOutp4;nplanes;lastaction;lastactiondetails;lastactionairplanenumber;positivescore;negativescore;collidedairplanenumbers;targetpositions;collision_point
11:00:52:702;11:00:52:656;1448057810.15;(0.5408803939819335, 0.6981282552083333);69.3944396973;1.0;;;;;;;;;;;;;;0;0;0;;0;0;();();(0.0, 0.0);
11:00:52:707;11:00:52:656;1448057810.15;(0.5408803939819335, 0.6981282552083333);69.3944396973;1.0;;;;;;;;;;;;;;0;0;0;;0;0;();();(-2000.0, -2000.0);
11:00:52:710;11:00:52:656;1448057810.15;(0.5408803939819335, 0.6981282552083333);69.3944396973;1.0;;;;;;;;;;;;;;0;0;0;;0;0;();();(-2000.0, -2000.0);
11:00:52:712;11:00:52:656;1448057810.15;(0.5408803939819335, 0.6981282552083333);69.3944396973;1.0;;;;;;;;;;;;;;0;0;0;;0;0;();();(-2000.0, -2000.0);
11:00:52:715;11:00:52:713;1448057810.19;(0.5408292293548584, 0.6984363555908203);69.5689468384;1.0;;;;;;;;;;;;;;0;0;0;;0;0;();();(-2000.0, -2000.0);
11:00:52:717;11:00:52:713;1448057810.19;(0.5408292293548584, 0.6984363555908203);69.5689468384;1.0;;;;;;;;;;;;;;0;0;0;;0;0;();();(-2000.0, -2000.0);
11:00:52:719;11:00:52:713;1448057810.19;(0.5408292293548584, 0.6984363555908203);69.5689468384;1.0;;;;;;;;;;;;;;0;0;0;;0;0;();();(-2000.0, -2000.0);
11:00:52:721;11:00:52:713;1448057810.19;(0.5408292293548584, 0.6984363555908203);69.5689468384;1.0;;;;;;;;;;;;;;0;0;0;;0;0;();();(-2000.0, -2000.0);
11:00:52:723;11:00:52:713;1448057810.19;(0.5408292293548584, 0.6984363555908203);69.5689468384;1.0;;;;;;;;;;;;;;0;0;0;;0;0;();();(-2000.0, -2000.0);
11:00:52:725;11:00:52:713;1448057810.19;(0.5408292293548584, 0.6984363555908203);69.5689468384;1.0;;;;;;;;;;;;;;0;0;0;;0;0;();();(-2000.0, -2000.0);
11:00:52:727;11:00:52:713;1448057810.19;(0.5408292293548584, 0.6984363555908203);69.5689468384;1.0;;;;;;;;;;;;;;0;0;0;;0;0;();();(-2000.0, -2000.0);
11:00:52:729;11:00:52:713;1448057810.19;(0.5408292293548584, 0.6984363555908203);69.5689468384;1.0;;;;;;;;;;;;;;0;0;0;;0;0;();();(-2000.0, -2000.0);
11:00:52:731;11:00:52:713;1448057810.19;(0.5408292293548584, 0.6984363555908203);69.5689468384;1.0;;;;;;;;;;;;;;0;0;0;;0;0;();();(-2000.0, -2000.0);
11:00:52:733;11:00:52:713;1448057810.19;(0.5408292293548584, 0.6984363555908203);69.5689468384;1.0;;;;;;;;;;;;;;0;0;0;;0;0;();();(-2000.0, -2000.0);
11:00:52:735;11:00:52:713;1448057810.19;(0.5408292293548584, 0.6984363555908203);69.5689468384;1.0;;;;;;;;;;;;;;0;0;0;;0;0;();();(-2000.0, -2000.0);
11:00:52:737;11:00:52:713;1448057810.19;(0.5408292293548584, 0.6984363555908203);69.5689468384;1.0;;;;;;;;;;;;;;0;0;0;;0;0;();();(-2000.0, -2000.0);
11:00:52:742;11:00:52:713;1448057810.19;(0.5408292293548584, 0.6984363555908203);69.5689468384;1.0;;;;;;;;;;;;;;0;0;0;;0;0;();();(-2000.0, -2000.0);
11:00:52:744;11:00:52:713;1448057810.19;(0.5408292293548584, 0.6984363555908203);69.5689468384;1.0;;;;;;;;;;;;;;0;0;0;;0;0;();();(-2000.0, -2000.0);
11:00:52:759;11:00:52:713;1448057810.19;(0.5408292293548584, 0.6984363555908203);69.5689468384;1.0;;;;;;;;;;;;;;0;0;0;;0;0;();();(-2000.0, -2000.0);
11:00:52:775;11:00:52:770;1448057810.25;(0.5413005828857422, 0.6975509643554687);69.5484313965;1.0;;;;;;;;;;;;;;0;0;0;;0;0;();();(-2000.0, -2000.0);
11:00:52:792;11:00:52:770;1448057810.25;(0.5413005828857422, 0.6975509643554687);69.5484313965;1.0;;;;;;;;;;;;;;0;0;0;;0;0;();();(-2000.0, -2000.0);
11:00:52:809;11:00:52:770;1448057810.25;(0.5413005828857422, 0.6975509643554687);69.5484313965;1.0;;;;;;;;;;;;;;0;0;0;;0;0;();();(-2000.0, -2000.0);
11:00:52:841;11:00:52:830;1448057810.32;(0.5420828819274902, 0.6975858900282118);70.1340179443;1.0;;;;;;;;;;;;;;0;0;0;;0;0;();();(-2000.0, -2000.0);
11:00:52:858;11:00:52:830;1448057810.32;(0.5420828819274902, 0.6975858900282118);70.1340179443;1.0;;;;;;;;;;;;;;0;0;0;;0;0;();();(-2000.0, -2000.0);
11:00:58:042;11:00:57:998;1448057815.47;(0.36051485538482664, 0.6586903254191081);28.1332683563;0.766812777716;;;;;;;;;;;;;;2;0;0;;0;0;();();(-2000.0, -2000.0);
11:00:58:054;11:00:57:998;1448057815.47;(0.36051485538482664, 0.6586903254191081);28.1332683563;0.766812777716;;;;;;;;;;;;;;2;0;0;;0;0;();();(-2000.0, -2000.0);
11:00:58:057;11:00:57:998;1448057815.47;(0.36051485538482664, 0.6586903254191081);28.1332683563;0.766812777716;;;;;;;;;;;;;;2;0;0;;0;0;();();(-2000.0, -2000.0);
11:00:58:059;11:00:57:998;1448057815.47;(0.36051485538482664, 0.6586903254191081);28.1332683563;0.766812777716;;;;;;;;;;;;;;2;0;0;;0;0;();();(-2000.0, -2000.0);
11:00:58:061;11:00:57:998;1448057815.47;(0.36051485538482664, 0.6586903254191081);28.1332683563;0.766812777716;;;;;;;;;;;;;;2;0;0;;0;0;();();(-2000.0, -2000.0);
11:00:58:064;11:00:57:998;1448057815.47;(0.36051485538482664, 0.6586903254191081);28.1332683563;0.766812777716;;;;;;;;;;;;;;2;0;0;;0;0;();();(-2000.0, -2000.0);
11:00:58:066;11:00:57:998;1448057815.47;(0.36051485538482664, 0.6586903254191081);28.1332683563;0.766812777716;;;;;;;;;;;;;;2;0;0;;0;0;();();(-2000.0, -2000.0);
11:00:58:068;11:00:57:998;1448057815.47;(0.36051485538482664, 0.6586903254191081);28.1332683563;0.766812777716;;;;;;;;;;;;;;2;0;0;;0;0;();();(-2000.0, -2000.0);
11:00:58:070;11:00:57:998;1448057815.47;(0.36051485538482664, 0.6586903254191081);28.1332683563;0.766812777716;;;;;;;;;;;;;;2;0;0;;0;0;();();(-2000.0, -2000.0);
11:00:58:072;11:00:57:998;1448057815.47;(0.36051485538482664, 0.6586903254191081);28.1332683563;0.766812777716;;;;;;;;;;;;;;2;0;0;;0;0;();();(-2000.0, -2000.0);
11:00:58:074;11:00:57:998;1448057815.47;(0.36051485538482664, 0.6586903254191081);28.1332683563;0.766812777716;;;;;;;;;;;;;;2;0;0;;0;0;();();(-2000.0, -2000.0);
11:00:58:076;11:00:57:998;1448057815.47;(0.36051485538482664, 0.6586903254191081);28.1332683563;0.766812777716;;;;;;;;;;;;;;2;0;0;;0;0;();();(-2000.0, -2000.0);
11:00:58:078;11:00:57:998;1448057815.47;(0.36051485538482664, 0.6586903254191081);28.1332683563;0.766812777716;;;;;;;;;;;;;;2;0;0;;0;0;();();(-2000.0, -2000.0);
11:00:58:080;11:00:57:998;1448057815.47;(0.36051485538482664, 0.6586903254191081);28.1332683563;0.766812777716;;;;;;;;;;;;;;2;0;0;;0;0;();();(-2000.0, -2000.0);
11:00:58:082;11:00:57:998;1448057815.47;(0.36051485538482664, 0.6586903254191081);28.1332683563;0.766812777716;;;;;;;;;;;;;;2;0;0;;0;0;();();(-2000.0, -2000.0);
11:00:58:084;11:00:57:998;1448057815.47;(0.36051485538482664, 0.6586903254191081);28.1332683563;0.766812777716;;;;;;;;;;;;;;2;0;0;;0;0;();();(-2000.0, -2000.0);
11:00:58:086;11:00:57:998;1448057815.47;(0.36051485538482664, 0.6586903254191081);28.1332683563;0.766812777716;;;;;;;;;;;;;;2;0;0;;0;0;();();(-2000.0, -2000.0);
11:00:58:093;11:00:57:998;1448057815.47;(0.36051485538482664, 0.6586903254191081);28.1332683563;0.766812777716;;;;;;;;;;;;;;2;0;0;;0;0;();();(-2000.0, -2000.0);
11:00:58:095;11:00:57:998;1448057815.47;(0.36051485538482664, 0.6586903254191081);28.1332683563;0.766812777716;;;;;;;;;;;;;;2;0;0;;0;0;();();(-2000.0, -2000.0);
11:00:58:097;11:00:57:998;1448057815.47;(0.36051485538482664, 0.6586903254191081);28.1332683563;0.766812777716;;;;;;;;;;;;;;2;0;0;;0;0;();();(-2000.0, -2000.0);
11:00:58:109;11:00:57:998;1448057815.47;(0.36051485538482664, 0.6586903254191081);28.1332683563;0.766812777716;;;;;;;;;;;;;;2;0;0;;0;0;();();(-2000.0, -2000.0);
11:00:58:125;11:00:58:116;1448057815.49;(0.5387958526611328, 0.6596583896213107);62.8917770386;0.72238676462;;;;;;;;;;;;;;2;0;0;;0;0;();();(-2000.0, -2000.0);
11:00:58:160;11:00:58:116;1448057815.49;(0.5387958526611328, 0.6596583896213107);62.8917770386;0.72238676462;;;;;;;;;;;;;;2;0;0;;0;0;();();(-2000.0, -2000.0);
11:00:58:175;11:00:58:116;1448057815.49;(0.5387958526611328, 0.6596583896213107);62.8917770386;0.72238676462;;;;;;;;;;;;;;2;0;0;;0;0;();();(-2000.0, -2000.0);
11:00:58:193;11:00:58:175;1448057815.65;(0.539212989807129, 0.6652946472167969);67.850692749;1.0;;;;;;;;;;;;;;2;0;0;;0;0;();();(-2000.0, -2000.0);
11:00:58:209;11:00:58:175;1448057815.65;(0.539212989807129, 0.6652946472167969);67.850692749;1.0;;;;;;;;;;;;;;2;0;0;;0;0;();();(-2000.0, -2000.0);
11:00:58:225;11:00:58:175;1448057815.65;(0.539212989807129, 0.6652946472167969);67.850692749;1.0;;;;;;;;;;;;;;2;0;0;;0;0;();();(-2000.0, -2000.0);
11:00:58:258;11:00:58:230;1448057815.72;(0.5398478507995605, 0.6653160307142469);68.2769393921;1.0;;;;;;;;;;;;;;2;0;0;;0;0;();();(-2000.0, -2000.0);
11:00:58:275;11:00:58:230;1448057815.72;(0.5398478507995605, 0.6653160307142469);68.2769393921;1.0;;;;;;;;;;;;;;2;0;0;;0;0;();();(-2000.0, -2000.0);
11:00:58:291;11:00:58:290;1448057815.79;(0.5403875350952149, 0.6651380327012804);68.893913269;1.0;;;;;;;;;;;;;;2;0;0;;0;0;();();(-2000.0, -2000.0);
11:00:58:308;11:00:58:290;1448057815.79;(0.5403875350952149, 0.6651380327012804);68.893913269;1.0;;;;;;;;;;;;;;2;0;0;;0;0;();();(-2000.0, -2000.0);
11:00:58:341;11:00:58:290;1448057815.79;(0.5403875350952149, 0.6651380327012804);68.893913269;1.0;;;;;;;;;;;;;;2;0;0;;0;0;();();(-2000.0, -2000.0);
11:00:58:358;11:00:58:346;1448057815.82;(0.5402487754821778, 0.6651915656195746);68.4866485596;1.0;;;;;;;;;;;;;;2;0;0;;0;0;();();(-2000.0, -2000.0);
11:00:58:374;11:00:58:346;1448057815.82;(0.5402487754821778, 0.6651915656195746);68.4866485596;1.0;;;;;;;;;;;;;;2;0;0;;0;0;();();(-2000.0, -2000.0);
11:00:58:391;11:00:58:346;1448057815.82;(0.5402487754821778, 0.6651915656195746);68.4866485596;1.0;;;;;;;;;;;;;;2;0;0;;0;0;();();(-2000.0, -2000.0);
11:00:58:407;11:00:58:406;1448057815.89;(0.5406721115112305, 0.6646371629503038);68.8405609131;1.0;;;;;;;;;;;;;;2;0;0;;0;0;();();(-2000.0, -2000.0);
11:00:58:440;11:00:58:406;1448057815.89;(0.5406721115112305, 0.6646371629503038);68.8405609131;1.0;;;;;;;;;;;;;;2;0;0;;0;0;();();(-2000.0, -2000.0);
11:00:58:458;11:00:58:406;1448057815.89;(0.5406721115112305, 0.6646371629503038);68.8405609131;1.0;;;;;;;;;;;;;;2;0;0;;0;0;();();(-2000.0, -2000.0);
11:00:58:474;11:00:58:462;1448057815.95;(0.5408614635467529, 0.6652267032199436);68.9681625366;1.0;;;;;;;;;;;;;;2;0;0;;0;0;();();(-2000.0, -2000.0);
11:00:58:490;11:00:58:462;1448057815.95;(0.5408614635467529, 0.6652267032199436);68.9681625366;1.0;;;;;;;;;;;;;;2;0;0;;0;0;();();(-2000.0, -2000.0);
11:00:58:507;11:00:58:462;1448057815.95;(0.5408614635467529, 0.6652267032199436);68.9681625366;1.0;;;;;;;;;;;;;;2;0;0;;0;0;();();(-2000.0, -2000.0);
11:00:58:541;11:00:58:522;1448057815.99;(0.2734945774078369, 0.6451851314968533);20.8437919617;0.877829946631;;;;;;;;;;;;;;2;0;0;;0;0;();();(-2000.0, -2000.0);
11:00:58:556;11:00:58:522;1448057815.99;(0.2734945774078369, 0.6451851314968533);20.8437919617;0.877829946631;;;;;;;;;;;;;;2;0;0;;0;0;();();(-2000.0, -2000.0);
11:00:58:573;11:00:58:522;1448057815.99;(0.2734945774078369, 0.6451851314968533);20.8437919617;0.877829946631;;;;;;;;;;;;;;2;0;0;;0;0;();();(-2000.0, -2000.0);
11:00:58:589;11:00:58:581;1448057816.02;(0.5799744129180908, 0.6438636991712783);67.4027252197;1.0;;;;;;;;;;;;;;2;0;0;;0;0;();();(-2000.0, -2000.0);
11:00:58:607;11:00:58:581;1448057816.02;(0.5799744129180908, 0.6438636991712783);67.4027252197;1.0;;;;;;;;;;;;;;2;0;0;;0;0;();();(-2000.0, -2000.0);
11:00:58:639;11:00:58:638;1448057816.12;(0.5798808097839355, 0.6462729983859592);67.4228668213;1.0;;;;;;;;;;;;;;2;0;0;;0;0;();();(-2000.0, -2000.0);
11:00:58:656;11:00:58:638;1448057816.12;(0.5798808097839355, 0.6462729983859592);67.4228668213;1.0;;;;;;;;;;;;;;2;0;0;;0;0;();();(-2000.0, -2000.0);
11:00:58:672;11:00:58:638;1448057816.12;(0.5798808097839355, 0.6462729983859592);67.4228668213;1.0;;;;;;;;;;;;;;2;0;0;;0;0;();();(-2000.0, -2000.0);
11:00:58:689;11:00:58:638;1448057816.12;(0.5798808097839355, 0.6462729983859592);67.4228668213;1.0;;;;;;;;;;;;;;2;0;0;;0;0;();();(-2000.0, -2000.0);
11:00:58:705;11:00:58:694;1448057816.19;(0.5794970035552979, 0.6471518198649089);67.1227340698;1.0;;;;;;;;;;;;;;2;0;0;;0;0;();();(-2000.0, -2000.0);
11:00:59:269;11:00:59:162;1448057816.65;(0.5656508445739746, 0.615811030069987);66.1275482178;1.0;11:00:59:267;0;10;1.78064516129032;1;0.0977517106549365;0;0;0;1;1;1;1;2;0;0;;0;0;();();(-2000.0, -2000.0);
11:00:59:275;11:00:59:162;1448057816.65;(0.5656508445739746, 0.615811030069987);66.1275482178;1.0;11:00:59:275;0;15;1.78064516129032;1;0.0977517106549365;0;0;0;1;1;1;1;2;0;0;;0;0;();();(-2000.0, -2000.0);
11:00:59:280;11:00:59:278;1448057816.69;(0.5583903312683105, 0.6169959598117405);66.8537521362;1.0;11:00:59:280;0;15;1.78064516129032;1;0.0977517106549365;0;0;0;1;1;1;1;2;0;0;;0;0;();();(-2000.0, -2000.0);
11:00:59:285;11:00:59:278;1448057816.69;(0.5583903312683105, 0.6169959598117405);66.8537521362;1.0;11:00:59:285;0;15;1.78064516129032;1;0.0977517106549365;0;0;0;1;1;1;1;2;0;0;;0;0;();();(-2000.0, -2000.0);
11:00:59:290;11:00:59:278;1448057816.69;(0.5583903312683105, 0.6169959598117405);66.8537521362;1.0;11:00:59:290;0;15;1.78064516129032;1;0.0977517106549365;0;0;0;1;1;1;1;2;0;0;;0;0;();();(-2000.0, -2000.0);
11:00:59:295;11:00:59:278;1448057816.69;(0.5583903312683105, 0.6169959598117405);66.8537521362;1.0;11:00:59:295;0;2;1.76129032258065;1;0.0977517106549365;0;0;0;1;1;1;1;2;0;0;;0;0;();();(-2000.0, -2000.0);
11:00:59:300;11:00:59:278;1448057816.69;(0.5583903312683105, 0.6169959598117405);66.8537521362;1.0;11:00:59:300;0;10;1.78064516129032;1;0.0977517106549365;0;0;0;1;1;1;1;2;0;0;;0;0;();();(-2000.0, -2000.0);
11:00:59:305;11:00:59:278;1448057816.69;(0.5583903312683105, 0.6169959598117405);66.8537521362;1.0;11:00:59:305;0;4;1.78064516129032;1;0.0977517106549365;0;0;0;1;1;1;1;2;0;0;;0;0;();();(-2000.0, -2000.0);
11:00:59:310;11:00:59:278;1448057816.69;(0.5583903312683105, 0.6169959598117405);66.8537521362;1.0;11:00:59:310;0;0;1.77741935483871;1;0.0977517106549365;0;0;0;1;1;1;1;2;0;0;;0;0;();();(-2000.0, -2000.0);
11:00:59:314;11:00:59:278;1448057816.69;(0.5583903312683105, 0.6169959598117405);66.8537521362;1.0;11:00:59:314;0;0;1.77741935483871;1;0.0977517106549365;0;0;0;1;1;1;1;2;0;0;;0;0;();();(-2000.0, -2000.0);
11:00:59:317;11:00:59:278;1448057816.69;(0.5583903312683105, 0.6169959598117405);66.8537521362;1.0;11:00:59:317;0;0;1.77741935483871;1;0.0977517106549365;0;0;0;1;1;1;1;2;0;0;;0;0;();();(-2000.0, -2000.0);
11:00:59:319;11:00:59:278;1448057816.69;(0.5583903312683105, 0.6169959598117405);66.8537521362;1.0;11:00:59:319;0;0;1.77741935483871;1;0.0977517106549365;0;0;0;1;1;1;1;2;0;0;;0;0;();();(-2000.0, -2000.0);
11:00:59:321;11:00:59:278;1448057816.69;(0.5583903312683105, 0.6169959598117405);66.8537521362;1.0;11:00:59:321;0;10;1.76129032258065;1;0.293255131964809;0;0;0;1;1;1;1;2;0;0;;0;0;();();(-2000.0, -2000.0);
11:00:59:323;11:00:59:278;1448057816.69;(0.5583903312683105, 0.6169959598117405);66.8537521362;1.0;11:00:59:323;0;10;1.76129032258065;1;0.293255131964809;0;0;0;1;1;1;1;2;0;0;;0;0;();();(-2000.0, -2000.0);
11:00:59:326;11:00:59:278;1448057816.69;(0.5583903312683105, 0.6169959598117405);66.8537521362;1.0;11:00:59:326;0;10;1.76129032258065;1;0.293255131964809;0;0;0;1;1;1;1;2;0;0;;0;0;();();(-2000.0, -2000.0);
11:00:59:328;11:00:59:278;1448057816.69;(0.5583903312683105, 0.6169959598117405);66.8537521362;1.0;11:00:59:328;0;10;1.76129032258065;1;0.293255131964809;0;0;0;1;1;1;1;2;0;0;;0;0;();();(-2000.0, -2000.0);
11:00:59:330;11:00:59:278;1448057816.69;(0.5583903312683105, 0.6169959598117405);66.8537521362;1.0;11:00:59:330;0;10;1.76129032258065;1;0.293255131964809;0;0;0;1;1;1;1;2;0;0;;0;0;();();(-2000.0, -2000.0);
11:00:59:335;11:00:59:334;1448057816.79;(0.5584727764129639, 0.617459233601888);66.7101821899;0.880676989387;11:00:59:334;0;4;1.78064516129032;1;0.0977517106549365;0;0;0;1;1;1;1;2;0;0;;0;0;();();(-2000.0, -2000.0);
11:00:59:337;11:00:59:335;1448057816.82;(0.5580198287963867, 0.6183680004543728);67.5102539062;1.0;11:00:59:337;0;4;1.78064516129032;1;0.0977517106549365;0;0;0;1;1;1;1;2;0;0;;0;0;();();(-2000.0, -2000.0);
11:00:59:340;11:00:59:335;1448057816.82;(0.5580198287963867, 0.6183680004543728);67.5102539062;1.0;11:00:59:340;0;4;1.78064516129032;1;0.0977517106549365;0;0;0;1;1;1;1;2;0;0;;0;0;();();(-2000.0, -2000.0);
11:00:59:351;11:00:59:335;1448057816.82;(0.5580198287963867, 0.6183680004543728);67.5102539062;1.0;11:00:59:351;0;9;1.78064516129032;1;0.0977517106549365;0;0;0;1;1;1;1;2;0;0;;0;0;();();(-2000.0, -2000.0);
11:00:59:367;11:00:59:335;1448057816.82;(0.5580198287963867, 0.6183680004543728);67.5102539062;1.0;11:00:59:367;0;5;1.77741935483871;1;0.0977517106549365;0;0;0;1;1;1;1;2;0;0;;0;0;();();(-2000.0, -2000.0);
11:00:59:384;11:00:59:335;1448057816.82;(0.5580198287963867, 0.6183680004543728);67.5102539062;1.0;11:00:59:384;0;5;1.77741935483871;1;0.0977517106549365;0;0;0;1;1;1;1;2;0;0;;0;0;();();(-2000.0, -2000.0);
11:00:59:401;11:00:59:394;1448057816.85;(0.5577065944671631, 0.618072509765625);67.1505966187;1.0;11:00:59:401;0;10;1.77741935483871;1;0.0977517106549365;0;0;0;1;1;1;1;2;0;0;;0;0;();();(-2000.0, -2000.0);
11:00:59:417;11:00:59:394;1448057816.85;(0.5577065944671631, 0.618072509765625);67.1505966187;1.0;11:00:59:417;0;15;1.78064516129032;1;0.0977517106549365;0;0;0;1;1;1;1;2;0;0;;0;0;();();(-2000.0, -2000.0);
11:00:59:450;11:00:59:394;1448057816.85;(0.5577065944671631, 0.618072509765625);67.1505966187;1.0;11:00:59:450;0;9;1.78064516129032;1;0.0977517106549365;0;0;0;1;1;1;1;2;0;0;;0;0;();();(-2000.0, -2000.0);
11:00:59:467;11:00:59:459;1448057816.93;(0.5417691707611084, 0.6285661697387696);68.022605896;0.848391787392;11:00:59:467;0;5;1.77741935483871;1;0.0977517106549365;0;0;0;1;1;1;1;2;0;0;;0;0;();();(-2000.0, -2000.0);
11:00:59:484;11:00:59:459;1448057816.93;(0.5417691707611084, 0.6285661697387696);68.022605896;0.848391787392;11:00:59:484;0;10;1.77741935483871;1;0.0977517106549365;0;0;0;1;1;1;1;2;0;0;;0;0;();();(-2000.0, -2000.0);
11:00:59:500;11:00:59:459;1448057816.93;(0.5417691707611084, 0.6285661697387696);68.022605896;0.848391787392;11:00:59:500;0;5;1.77741935483871;1;0.0977517106549365;0;0;0;1;1;1;1;2;0;0;;0;0;();();(-2000.0, -2000.0);
11:00:59:517;11:00:59:510;1448057816.99;(0.5419076442718506, 0.6297825283474392);68.1032104492;1.0;11:00:59:517;0;9;1.78064516129032;1;0.0977517106549365;0;0;0;1;1;1;1;2;0;0;;0;0;();();(-2000.0, -2000.0);
11:00:59:549;11:00:59:510;1448057816.99;(0.5419076442718506, 0.6297825283474392);68.1032104492;1.0;11:00:59:549;0;4;1.77741935483871;1;0.0977517106549365;0;0;0;1;1;1;1;2;0;0;;0;0;();();(-2000.0, -2000.0);
11:00:59:566;11:00:59:566;1448057817.02;(0.5420269012451172, 0.6301673041449654);68.3429031372;1.0;11:00:59:566;0;5;1.78064516129032;1;0.0977517106549365;0;0;0;1;1;1;1;2;0;0;;0;0;();();(-2000.0, -2000.0);
11:00:59:582;11:00:59:566;1448057817.05;(0.542165470123291, 0.6303432888454861);68.5069580078;1.0;11:00:59:582;0;9;1.77741935483871;1;0.0977517106549365;0;0;0;1;1;1;1;2;0;0;;0;0;();();(-2000.0, -2000.0);
11:00:59:600;11:00:59:566;1448057817.05;(0.542165470123291, 0.6303432888454861);68.5069580078;1.0;11:00:59:600;0;15;1.78064516129032;1;0.0977517106549365;0;0;0;1;1;1;1;2;0;0;;0;0;();();(-2000.0, -2000.0);
11:00:59:616;11:00:59:566;1448057817.05;(0.542165470123291, 0.6303432888454861);68.5069580078;1.0;11:00:59:615;0;10;1.79032258064516;1;0.0977517106549365;0;0;0;1;1;1;1;2;0;0;;0;0;();();(-2000.0, -2000.0);
11:00:59:649;11:00:59:627;1448057817.12;(0.5425115585327148, 0.630901739332411);68.5185623169;1.0;11:00:59:649;0;5;1.77741935483871;1;0.0977517106549365;0;0;0;1;1;1;1;2;0;0;;0;0;();();(-2000.0, -2000.0);
11:00:59:666;11:00:59:627;1448057817.12;(0.5425115585327148, 0.630901739332411);68.5185623169;1.0;11:00:59:666;0;0;1.77741935483871;1;0.293255131964809;0;0;0;1;1;1;1;2;0;0;;0;0;();();(-2000.0, -2000.0);
11:00:59:682;11:00:59:682;1448057817.15;(0.5396789073944092, 0.6310736974080404);68.6406936646;1.0;11:00:59:682;0;9;1.78064516129032;1;0.0977517106549365;0;0;0;1;1;1;1;2;0;0;;0;0;();();(-2000.0, -2000.0);
11:00:59:701;11:00:59:682;1448057817.15;(0.5396789073944092, 0.6310736974080404);68.6406936646;1.0;11:00:59:701;0;12;1.78064516129032;1;0.0977517106549365;0;0;0;1;1;1;1;2;0;0;;0;0;();();(-2000.0, -2000.0);
11:00:59:716;11:00:59:682;1448057817.15;(0.5396789073944092, 0.6310736974080404);68.6406936646;1.0;11:00:59:716;0;4;1.78064516129032;1;0.0977517106549365;0;0;0;1;1;1;1;2;0;0;;0;0;();();(-2000.0, -2000.0);
11:00:59:749;11:00:59:742;1448057817.22;(0.5395273685455322, 0.6313633388943143);68.3283843994;1.0;11:00:59:749;0;4;1.78064516129032;1;0.0977517106549365;0;0;0;1;1;1;1;2;0;0;;0;0;();();(-2000.0, -2000.0);
11:00:59:765;11:00:59:742;1448057817.22;(0.5395273685455322, 0.6313633388943143);68.3283843994;1.0;11:00:59:765;0;9;1.78064516129032;1;0.0977517106549365;0;0;0;1;1;1;1;2;0;0;;0;0;();();(-2000.0, -2000.0);
11:00:59:781;11:00:59:742;1448057817.22;(0.5395273685455322, 0.6313633388943143);68.3283843994;1.0;11:00:59:781;0;4;1.77741935483871;1;0.0977517106549365;0;0;0;1;1;1;1;2;0;0;;0;0;();();(-2000.0, -2000.0);
11:00:59:798;11:00:59:798;1448057817.29;(0.5401525020599365, 0.6314817004733615);68.3387832642;1.0;11:00:59:798;0;0;1.78064516129032;1;0.0977517106549365;0;0;0;1;1;1;1;2;0;0;;0;0;();();(-2000.0, -2000.0);
11:00:59:815;11:00:59:798;1448057817.29;(0.5401525020599365, 0.6314817004733615);68.3387832642;1.0;11:00:59:815;0;4;1.78064516129032;1;0.0977517106549365;0;0;0;1;1;1;1;2;0;0;;0;0;();();(-2000.0, -2000.0);
11:00:59:848;11:00:59:798;1448057817.29;(0.5401525020599365, 0.6314817004733615);68.3387832642;1.0;11:00:59:848;0;4;1.77741935483871;1;0.0977517106549365;0;0;0;1;1;1;1;2;0;0;;0;0;();();(-2000.0, -2000.0);
11:00:59:864;11:00:59:859;1448057817.32;(0.5402551651000976, 0.631874148050944);68.1453399658;1.0;11:00:59:864;0;0;1.76129032258065;1;0.0977517106549365;0;0;0;1;1;1;1;2;0;0;;0;0;();();(-2000.0, -2000.0);
11:00:59:881;11:00:59:859;1448057817.32;(0.5402551651000976, 0.631874148050944);68.1453399658;1.0;11:00:59:881;0;5;1.77741935483871;1;0.0977517106549365;0;0;0;1;1;1;1;2;0;0;;0;0;();();(-2000.0, -2000.0);
11:00:59:897;11:00:59:859;1448057817.32;(0.5402551651000976, 0.631874148050944);68.1453399658;1.0;11:00:59:897;0;10;1.78064516129032;1;0.0977517106549365;0;0;0;1;0;1;1;2;0;0;;0;0;();();(-2000.0, -2000.0);
11:00:59:931;11:00:59:917;1448057817.39;(0.5407320022583008, 0.6322770648532443);67.9114074707;1.0;11:00:59:931;0;10;1.77741935483871;1;0.0977517106549365;0;0;0;1;0;1;1;2;0;0;;0;0;();();(-2000.0, -2000.0);
11:00:59:948;11:00:59:917;1448057817.39;(0.5407320022583008, 0.6322770648532443);67.9114074707;1.0;11:00:59:948;0;15;1.78064516129032;1;0.0977517106549365;0;0;0;1;0;1;1;2;0;0;;0;0;();();(-2000.0, -2000.0);
11:00:59:964;11:00:59:917;1448057817.39;(0.5407320022583008, 0.6322770648532443);67.9114074707;1.0;11:00:59:964;0;10;1.78064516129032;1;0.0977517106549365;0;0;0;1;0;1;1;2;0;0;;0;0;();();(-2000.0, -2000.0);
11:00:59:981;11:00:59:975;1448057817.45;(0.5413679122924805, 0.6330603069729275);68.0220184326;1.0;11:00:59:981;0;4;1.76129032258065;1;0.0977517106549365;0;0;0;1;0;1;1;2;0;0;;0;0;();();(-2000.0, -2000.0);
11:00:59:997;11:00:59:975;1448057817.45;(0.5413679122924805, 0.6330603069729275);68.0220184326;1.0;11:00:59:997;0;9;1.77741935483871;1;0.0977517106549365;0;0;0;1;0;1;1;2;0;0;;0;0;();();(-2000.0, -2000.0);
11:01:00:030;11:01:00:030;1448057817.49;(0.5416249752044677, 0.6331918292575412);67.9206237793;1.0;11:01:00:030;0;15;1.79032258064516;1;0.0977517106549365;0;0;0;1;0;1;1;2;0;0;;0;0;();();(-2000.0, -2000.0);
11:01:00:047;11:01:00:030;1448057817.52;(0.5419410228729248, 0.6339274512396919);68.0959701538;1.0;11:01:00:047;0;15;1.78064516129032;1;0.0977517106549365;0;0;0;1;0;1;1;2;0;0;;0;0;();();(-2000.0, -2000.0);
11:01:00:064;11:01:00:030;1448057817.52;(0.5419410228729248, 0.6339274512396919);68.0959701538;1.0;11:01:00:064;0;15;1.78064516129032;1;0.0977517106549365;0;0;0;1;0;1;1;2;0;0;;0;0;();();(-2000.0, -2000.0);
11:01:00:080;11:01:00:030;1448057817.52;(0.5419410228729248, 0.6339274512396919);68.0959701538;1.0;11:01:00:080;0;15;1.78064516129032;1;0.0977517106549365;0;0;0;1;0;1;1;2;0;0;;0;0;();();(-2000.0, -2000.0);
11:01:00:097;11:01:00:090;1448057817.55;(0.5423841953277588, 0.6341213014390734);68.2545318604;1.0;11:01:00:097;0;9;1.77741935483871;1;0.0977517106549365;0;0;0;1;1;1;1;2;0;0;;0;0;();();(-2000.0, -2000.0);
11:01:00:130;11:01:00:090;1448057817.55;(0.5423841953277588, 0.6341213014390734);68.2545318604;1.0;11:01:00:130;0;10;-1.5;1;0.0977517106549365;0;0;0;1;1;1;1;2;0;0;;0;0;();();(-2000.0, -2000.0);
11:01:00:147;11:01:00:146;1448057817.59;(0.2836270809173584, 0.6793523364596896);27.0377368927;0.890835523308;11:01:00:147;0;15;0.664516129032258;1;0.0977517106549365;0;0;0;1;1;1;1;2;0;0;;0;0;();();(-2000.0, -2000.0);
11:01:00:163;11:01:00:146;1448057817.59;(0.2836270809173584, 0.6793523364596896);27.0377368927;0.890835523308;11:01:00:163;0;9;-1.34516129032258;1;0.0977517106549365;0;0;0;1;1;1;1;2;0;0;;0;0;();();(-2000.0, -2000.0);
11:01:00:180;11:01:00:146;1448057817.59;(0.2836270809173584, 0.6793523364596896);27.0377368927;0.890835523308;11:01:00:180;0;15;-1.5;1;0.0977517106549365;0;0;0;1;1;1;1;2;0;0;;0;0;();();(-2000.0, -2000.0);
11:01:00:197;11:01:00:146;1448057817.59;(0.2836270809173584, 0.6793523364596896);27.0377368927;0.890835523308;11:01:00:197;0;15;-1.5;1;0.0977517106549365;0;0;0;1;1;1;1;2;0;0;;0;0;();();(-2000.0, -2000.0);
11:01:00:229;11:01:00:146;1448057817.59;(0.2836270809173584, 0.6793523364596896);27.0377368927;0.890835523308;11:01:00:229;0;4;-1.5;1;0.0977517106549365;0;0;0;1;1;1;1;2;0;0;;0;0;();();(-2000.0, -2000.0);
11:01:00:245;11:01:00:146;1448057817.59;(0.2836270809173584, 0.6793523364596896);27.0377368927;0.890835523308;11:01:00:245;0;9;-1.5;1;0.0977517106549365;0;0;0;1;1;1;1;2;0;0;;0;0;();();(-2000.0, -2000.0);
11:01:00:262;11:01:00:146;1448057817.59;(0.2836270809173584, 0.6793523364596896);27.0377368927;0.890835523308;11:01:00:262;0;5;-1.5;1;0.0977517106549365;0;0;0;1;1;1;1;2;0;0;;0;0;();();(-2000.0, -2000.0);
11:01:00:278;11:01:00:146;1448057817.59;(0.2836270809173584, 0.6793523364596896);27.0377368927;0.890835523308;11:01:00:278;0;10;-1.5;1;0.0977517106549365;0;0;0;1;1;1;1;2;0;0;;0;0;();();(-2000.0, -2000.0);
11:01:00:295;11:01:00:146;1448057817.59;(0.2836270809173584, 0.6793523364596896);27.0377368927;0.890835523308;11:01:00:295;0;4;-1.5;1;0.0977517106549365;0;0;0;1;1;1;1;2;0;0;;0;0;();();(-2000.0, -2000.0);
11:01:00:328;11:01:00:322;1448057817.62;(0.5295627593994141, 0.6404877768622504);68.4548339844;1.0;11:01:00:328;0;9;-1.5;1;0.0977517106549365;0;0;0;1;1;1;1;2;0;0;;0;0;();();(-2000.0, -2000.0);
11:01:00:345;11:01:00:322;1448057817.62;(0.5295627593994141, 0.6404877768622504);68.4548339844;1.0;11:01:00:345;0;10;-1.5;1;0.0977517106549365;0;0;0;1;1;1;1;2;0;0;;0;0;();();(-2000.0, -2000.0);
11:01:00:362;11:01:00:322;1448057817.62;(0.5295627593994141, 0.6404877768622504);68.4548339844;1.0;11:01:00:362;0;10;-1.5;1;0.0977517106549365;0;0;0;1;1;1;1;2;0;0;;0;0;();();(-2000.0, -2000.0);
11:01:00:378;11:01:00:322;1448057817.62;(0.5295627593994141, 0.6404877768622504);68.4548339844;1.0;11:01:00:378;0;15;-1.5;1;0.0977517106549365;0;0;0;1;1;1;1;2;0;0;;0;0;();();(-2000.0, -2000.0);
11:01:00:411;11:01:00:322;1448057817.62;(0.5295627593994141, 0.6404877768622504);68.4548339844;1.0;11:01:00:411;0;15;-1.5;1;0.0977517106549365;0;0;0;1;0;1;1;2;0;0;;0;0;();();(-2000.0, -2000.0);
11:01:00:427;11:01:00:322;1448057817.62;(0.5295627593994141, 0.6404877768622504);68.4548339844;1.0;11:01:00:427;0;0;-1.5;1;0.0977517106549365;0;0;0;1;0;1;1;2;0;0;;0;0;();();(-2000.0, -2000.0);
11:01:00:444;11:01:00:438;1448057817.81;(0.533099365234375, 0.6435558319091796);69.2810134888;0.898428792102;11:01:00:444;0;10;-1.5;1;0.0977517106549365;0;0;0;1;0;1;1;2;0;0;;0;0;();();(-2000.0, -2000.0);
11:01:00:461;11:01:00:438;1448057817.81;(0.533099365234375, 0.6435558319091796);69.2810134888;0.898428792102;11:01:00:461;0;15;-1.5;1;0.0977517106549365;0;0;0;1;0;1;1;2;0;0;;0;0;();();(-2000.0, -2000.0);
11:01:00:477;11:01:00:438;1448057817.81;(0.533099365234375, 0.6435558319091796);69.2810134888;0.898428792102;11:01:00:477;0;15;-1.5;1;0.0977517106549365;0;0;0;1;0;1;1;2;0;0;;0;0;();();(-2000.0, -2000.0);
11:01:00:511;11:01:00:438;1448057817.81;(0.533099365234375, 0.6435558319091796);69.2810134888;0.898428792102;11:01:00:511;0;10;-1.5;1;0.0977517106549365;0;0;0;1;0;1;1;2;0;0;;0;0;();();(-2000.0, -2000.0);
11:01:00:528;11:01:00:438;1448057817.81;(0.533099365234375, 0.6435558319091796);69.2810134888;0.898428792102;11:01:00:528;0;15;-1.5;1;0.0977517106549365;0;0;0;1;0;1;1;2;0;0;;0;0;();();(-2000.0, -2000.0);
11:01:00:544;11:01:00:438;1448057817.81;(0.533099365234375, 0.6435558319091796);69.2810134888;0.898428792102;11:01:00:544;0;2;-1.5;1;0.0977517106549365;0;0;0;1;0;1;1;2;0;0;;0;0;();();(-2000.0, -2000.0);
11:01:00:560;11:01:00:438;1448057817.81;(0.533099365234375, 0.6435558319091796);69.2810134888;0.898428792102;11:01:00:560;0;15;-1.5;1;0.0977517106549365;0;0;0;1;0;1;1;2;0;0;;0;0;();();(-2000.0, -2000.0);
11:01:00:577;11:01:00:438;1448057817.81;(0.533099365234375, 0.6435558319091796);69.2810134888;0.898428792102;11:01:00:577;0;9;-1.5;1;0.0977517106549365;0;0;0;1;1;1;1;2;0;0;;0;0;();();(-2000.0, -2000.0);
11:01:00:610;11:01:00:438;1448057817.81;(0.533099365234375, 0.6435558319091796);69.2810134888;0.898428792102;11:01:00:610;0;4;-1.5;1;0.0977517106549365;0;0;0;1;1;1;1;2;0;0;;0;0;();();(-2000.0, -2000.0);
11:01:00:627;11:01:00:614;1448057817.93;(0.5241755962371826, 0.6464956919352214);69.1706161499;1.0;11:01:00:627;0;4;-1.5;1;0.0977517106549365;0;0;0;1;1;1;1;2;0;0;;0;0;();();(-2000.0, -2000.0);
11:01:00:643;11:01:00:614;1448057817.93;(0.5241755962371826, 0.6464956919352214);69.1706161499;1.0;11:01:00:643;0;9;-1.5;1;0.0977517106549365;0;0;0;1;1;1;1;2;0;0;;0;0;();();(-2000.0, -2000.0);
11:01:00:660;11:01:00:614;1448057817.93;(0.5241755962371826, 0.6464956919352214);69.1706161499;1.0;11:01:00:660;0;0;-1.5;1;0.0977517106549365;0;0;0;1;1;1;1;2;0;0;;0;0;();();(-2000.0, -2000.0);
11:01:00:677;11:01:00:672;1448057818.15;(0.5261755466461182, 0.6486577563815646);69.2696075439;1.0;11:01:00:677;0;10;-1.5;1;0.0977517106549365;0;0;0;1;1;1;1;2;0;0;;0;0;();();(-2000.0, -2000.0);
11:01:00:709;11:01:00:672;1448057818.15;(0.5261755466461182, 0.6486577563815646);69.2696075439;1.0;11:01:00:709;0;4;-1.5;1;0.0977517106549365;0;0;0;1;0;1;1;2;0;0;;0;0;();();(-2000.0, -2000.0);
11:01:00:726;11:01:00:672;1448057818.15;(0.5261755466461182, 0.6486577563815646);69.2696075439;1.0;11:01:00:726;0;0;-1.5;1;0.0977517106549365;0;0;0;1;0;1;1;2;0;0;;0;0;();();(-2000.0, -2000.0);
11:01:00:742;11:01:00:732;1448057818.22;(0.5263125419616699, 0.6492011176215278);69.6381607056;1.0;11:01:00:742;0;9;-1.5;1;0.0977517106549365;0;0;0;1;0;1;1;2;0;0;;0;0;();();(-2000.0, -2000.0);
11:01:00:760;11:01:00:732;1448057818.22;(0.5263125419616699, 0.6492011176215278);69.6381607056;1.0;11:01:00:760;0;10;-1.5;1;0.0977517106549365;0;0;0;1;0;1;1;2;0;0;;0;0;();();(-2000.0, -2000.0);
11:01:00:775;11:01:00:732;1448057818.22;(0.5263125419616699, 0.6492011176215278);69.6381607056;1.0;11:01:00:775;0;10;-1.5;1;0.0977517106549365;0;0;0;1;0;1;1;2;0;0;;0;0;();();(-2000.0, -2000.0);
11:01:00:809;11:01:00:786;1448057818.25;(0.5264272689819336, 0.6494047376844618);69.7576904297;1.0;11:01:00:809;0;4;-1.5;1;0.0977517106549365;0;0;0;1;0;1;1;2;0;0;;0;0;();();(-2000.0, -2000.0);
11:01:00:825;11:01:00:786;1448057818.25;(0.5264272689819336, 0.6494047376844618);69.7576904297;1.0;11:01:00:825;0;4;-1.5;1;0.0977517106549365;0;0;0;1;0;1;1;2;0;0;;0;0;();();(-2000.0, -2000.0);
11:01:00:841;11:01:00:786;1448057818.25;(0.5264272689819336, 0.6494047376844618);69.7576904297;1.0;11:01:00:841;0;0;-1.5;1;0.0977517106549365;0;0;0;1;0;1;1;2;0;0;;0;0;();();(-2000.0, -2000.0);
11:01:00:858;11:01:00:845;1448057818.32;(0.5292401313781738, 0.6492726643880209);69.5528717041;1.0;11:01:00:858;0;15;-1.5;1;0.0977517106549365;0;0;0;1;0;1;1;2;0;0;;0;0;();();(-2000.0, -2000.0);
11:01:00:875;11:01:00:845;1448057818.32;(0.5292401313781738, 0.6492726643880209);69.5528717041;1.0;11:01:00:875;0;4;-1.43870967741935;1;0.0977517106549365;0;0;0;1;1;1;1;2;0;0;;0;0;();();(-2000.0, -2000.0);
11:01:00:908;11:01:00:902;1448057818.39;(0.5289048194885254, 0.6496189965142144);69.1106719971;1.0;11:01:00:908;0;4;-1.5;1;0.0977517106549365;0;0;0;1;1;1;1;2;0;0;;0;0;();();(-2000.0, -2000.0);
11:01:00:924;11:01:00:902;1448057818.39;(0.5289048194885254, 0.6496189965142144);69.1106719971;1.0;11:01:00:924;0;4;-1.5;1;0.0977517106549365;0;0;0;1;1;1;1;2;0;0;;0;0;();();(-2000.0, -2000.0);
11:01:00:941;11:01:00:902;1448057818.39;(0.5289048194885254, 0.6496189965142144);69.1106719971;1.0;11:01:00:941;0;15;-1.5;1;0.0977517106549365;0;0;0;1;1;1;1;2;0;0;;0;0;();();(-2000.0, -2000.0);
11:01:00:957;11:01:00:902;1448057818.39;(0.5289048194885254, 0.6496189965142144);69.1106719971;1.0;11:01:00:957;0;9;-1.5;1;0.0977517106549365;0;0;0;1;1;1;1;2;0;0;;0;0;();();(-2000.0, -2000.0);
11:01:00:991;11:01:00:962;1448057818.45;(0.5286719799041748, 0.6497604158189562);69.0694198608;1.0;11:01:00:991;0;10;-1.5;1;0.0977517106549365;0;0;0;1;1;1;1;2;0;0;;0;0;();();(-2000.0, -2000.0);
11:01:01:009;11:01:00:962;1448057818.45;(0.5286719799041748, 0.6497604158189562);69.0694198608;1.0;11:01:01:009;0;15;-1.5;1;0.0977517106549365;0;0;0;1;1;1;1;2;0;0;;0;0;();();(-2000.0, -2000.0);
11:01:01:025;11:01:01:019;1448057818.49;(0.5285865306854248, 0.6494624031914604);68.7224578857;1.0;11:01:01:025;0;9;-1.5;1;0.0977517106549365;0;0;0;1;1;1;1;2;0;0;;0;0;();();(-2000.0, -2000.0);
11:01:01:040;11:01:01:019;1448057818.49;(0.5285865306854248, 0.6494624031914604);68.7224578857;1.0;11:01:01:040;0;15;-1.5;1;0.0977517106549365;0;0;0;1;1;1;1;2;0;0;;0;0;();();(-2000.0, -2000.0);
11:01:01:058;11:01:01:019;1448057818.49;(0.5285865306854248, 0.6494624031914604);68.7224578857;1.0;11:01:01:058;0;9;-1.5;1;0.0977517106549365;0;0;0;1;1;1;1;2;0;0;;0;0;();();(-2000.0, -2000.0);
11:01:01:090;11:01:01:078;1448057818.55;(0.5281604766845703, 0.6502689573499891);69.0647888184;1.0;11:01:01:090;0;10;-1.45161290322581;1;0.0977517106549365;0;0;0;1;1;1;1;2;0;0;;0;0;();();(-2000.0, -2000.0);
11:01:01:107;11:01:01:078;1448057818.55;(0.5281604766845703, 0.6502689573499891);69.0647888184;1.0;11:01:01:107;0;15;-1.5;1;0.0977517106549365;0;0;0;1;1;1;1;2;0;0;;0;0;();();(-2000.0, -2000.0);
11:01:01:123;11:01:01:078;1448057818.55;(0.5281604766845703, 0.6502689573499891);69.0647888184;1.0;11:01:01:123;0;4;1.61935483870968;1;0.0977517106549365;0;0;0;1;1;1;1;2;0;0;;0;0;();();(-2000.0, -2000.0);
11:01:01:140;11:01:01:134;1448057818.62;(0.28972136974334717, 0.6959028244018555);27.0678749084;0.601936165235;11:01:01:140;0;9;-1.5;1;0.0977517106549365;0;0;0;1;0;1;1;2;0;0;;0;0;();();(-2000.0, -2000.0);
11:01:01:157;11:01:01:134;1448057818.62;(0.28972136974334717, 0.6959028244018555);27.0678749084;0.601936165235;11:01:01:157;0;9;-1.5;1;0.0977517106549365;0;0;0;1;0;1;1;2;0;0;;0;0;();();(-2000.0, -2000.0);
11:01:01:190;11:01:01:134;1448057818.62;(0.28972136974334717, 0.6959028244018555);27.0678749084;0.601936165235;11:01:01:190;0;4;-1.5;1;0.0977517106549365;0;0;0;1;0;1;1;2;0;0;;0;0;();();(-2000.0, -2000.0);
11:01:01:206;11:01:01:194;1448057818.69;(0.5488259792327881, 0.6364982816908095);69.038520813;1.0;11:01:01:206;0;4;-1.5;1;0.0977517106549365;0;0;0;1;0;1;1;2;0;0;;0;0;();();(-2000.0, -2000.0);
11:01:01:224;11:01:01:194;1448057818.69;(0.5488259792327881, 0.6364982816908095);69.038520813;1.0;11:01:01:224;0;5;-1.5;1;0.0977517106549365;0;0;0;1;0;1;1;2;0;0;;0;0;();();(-2000.0, -2000.0);
11:01:01:240;11:01:01:194;1448057818.69;(0.5488259792327881, 0.6364982816908095);69.038520813;1.0;11:01:01:240;0;10;-1.5;1;0.0977517106549365;0;0;0;1;0;1;1;2;0;0;;0;0;();();(-2000.0, -2000.0);
11:01:01:257;11:01:01:250;1448057818.72;(0.5486324310302735, 0.6371498107910156);69.2288513184;1.0;11:01:01:257;0;4;-1.5;1;0.0977517106549365;0;0;0;1;0;1;1;2;0;0;;0;0;();();(-2000.0, -2000.0);
11:01:01:290;11:01:01:250;1448057818.72;(0.5486324310302735, 0.6371498107910156);69.2288513184;1.0;11:01:01:290;0;4;-1.5;1;0.0977517106549365;0;0;0;1;0;1;1;2;0;0;;0;0;();();(-2000.0, -2000.0);
11:01:01:306;11:01:01:250;1448057818.72;(0.5486324310302735, 0.6371498107910156);69.2288513184;1.0;11:01:01:306;0;10;-1.5;1;0.0977517106549365;0;0;0;1;0;1;1;2;0;0;;0;0;();();(-2000.0, -2000.0);
11:01:01:323;11:01:01:310;1448057818.79;(0.5481528282165528, 0.6381232579549154);69.5578155518;1.0;11:01:01:322;0;4;-1.5;1;0.0977517106549365;0;0;0;1;1;1;1;2;0;0;;0;0;();();(-2000.0, -2000.0);
11:01:01:338;11:01:01:310;1448057818.79;(0.5481528282165528, 0.6381232579549154);69.5578155518;1.0;11:01:01:338;0;10;-1.5;1;0.0977517106549365;0;0;0;1;1;1;1;2;0;0;;0;0;();();(-2000.0, -2000.0);
11:01:01:355;11:01:01:310;1448057818.79;(0.5481528282165528, 0.6381232579549154);69.5578155518;1.0;11:01:01:355;0;4;-1.5;1;0.0977517106549365;0;0;0;1;1;1;1;2;0;0;;0;0;();();(-2000.0, -2000.0);
11:01:01:389;11:01:01:366;1448057818.85;(0.5478847980499267, 0.6386349148220486);69.9275512695;1.0;11:01:01:389;0;4;-1.5;1;0.0977517106549365;0;0;0;1;1;1;1;2;0;0;;0;0;();();(-2000.0, -2000.0);
11:01:01:405;11:01:01:366;1448057818.85;(0.5478847980499267, 0.6386349148220486);69.9275512695;1.0;11:01:01:405;0;10;-1.5;1;0.0977517106549365;0;0;0;1;1;1;1;2;0;0;;0;0;();();(-2000.0, -2000.0);
11:01:01:421;11:01:01:366;1448057818.85;(0.5478847980499267, 0.6386349148220486);69.9275512695;1.0;11:01:01:421;0;5;-1.5;1;0.0977517106549365;0;0;0;1;1;1;1;2;0;0;;0;0;();();(-2000.0, -2000.0);
11:01:01:438;11:01:01:427;1448057818.92;(0.5473949432373046, 0.6394275453355578);70.4047088623;1.0;11:01:01:438;0;9;-1.5;1;0.0977517106549365;0;0;0;1;1;1;1;2;0;0;;0;0;();();(-2000.0, -2000.0);
11:01:01:455;11:01:01:427;1448057818.92;(0.5473949432373046, 0.6394275453355578);70.4047088623;1.0;11:01:01:455;0;4;-1.5;1;0.0977517106549365;0;0;0;1;1;1;1;2;0;0;;0;0;();();(-2000.0, -2000.0);
11:01:01:489;11:01:01:482;1448057818.95;(0.5473286628723144, 0.639665773179796);70.5524902344;1.0;11:01:01:489;0;10;-1.5;1;0.0977517106549365;0;0;0;1;1;1;1;2;0;0;;0;0;();();(-2000.0, -2000.0);
11:01:01:505;11:01:01:482;1448057818.95;(0.5473286628723144, 0.639665773179796);70.5524902344;1.0;11:01:01:505;0;10;-1.5;1;0.0977517106549365;0;0;0;1;0;1;1;2;0;0;;0;0;();();(-2000.0, -2000.0);
11:01:01:521;11:01:01:482;1448057818.95;(0.5473286628723144, 0.639665773179796);70.5524902344;1.0;11:01:01:521;0;4;-1.5;1;0.0977517106549365;0;0;0;1;0;1;1;2;0;0;;0;0;();();(-2000.0, -2000.0);
11:01:01:538;11:01:01:482;1448057818.95;(0.5473286628723144, 0.639665773179796);70.5524902344;1.0;11:01:01:538;0;9;-1.5;1;0.0977517106549365;0;0;0;1;0;1;1;2;0;0;;0;0;();();(-2000.0, -2000.0);
11:01:01:571;11:01:01:542;1448057819.02;(0.5470700263977051, 0.6391841040717231);70.5000762939;1.0;11:01:01:571;0;10;-1.5;1;0.0977517106549365;0;0;0;1;0;1;1;2;0;0;;0;0;();();(-2000.0, -2000.0);
11:01:01:588;11:01:01:542;1448057819.02;(0.5470700263977051, 0.6391841040717231);70.5000762939;1.0;11:01:01:588;0;15;-1.5;1;0.0977517106549365;0;0;0;1;0;1;1;2;0;0;;0;0;();();(-2000.0, -2000.0);
11:01:01:604;11:01:01:598;1448057819.09;(0.5469217777252198, 0.6395280626085069);70.4838027954;1.0;11:01:01:604;0;4;-1.5;1;0.0977517106549365;0;0;0;1;0;1;1;2;0;0;;0;0;();();(-2000.0, -2000.0);
11:01:01:621;11:01:01:598;1448057819.09;(0.5469217777252198, 0.6395280626085069);70.4838027954;1.0;11:01:01:621;0;9;0.125806451612903;1;0.0977517106549365;0;0;0;1;0;1;1;2;0;0;;0;0;();();(-2000.0, -2000.0);
11:01:01:637;11:01:01:598;1448057819.09;(0.5469217777252198, 0.6395280626085069);70.4838027954;1.0;11:01:01:637;0;5;-0.470967741935484;1;0.0977517106549365;0;0;0;1;0;1;1;2;0;0;;0;0;();();(-2000.0, -2000.0);
11:01:01:670;11:01:01:658;1448057819.15;(0.5472923755645752, 0.6393989562988281);70.6866531372;1.0;11:01:01:670;0;4;1;1;0.0977517106549365;0;0;0;1;1;1;1;2;0;0;;0;0;();();(-2000.0, -2000.0);
11:01:01:687;11:01:01:658;1448057819.15;(0.5472923755645752, 0.6393989562988281);70.6866531372;1.0;11:01:01:687;0;9;-0.612903225806452;1;0.0977517106549365;0;0;0;1;1;1;1;2;0;0;;0;0;();();(-2000.0, -2000.0);
11:01:01:703;11:01:01:658;1448057819.15;(0.5472923755645752, 0.6393989562988281);70.6866531372;1.0;11:01:01:703;0;5;-1.5;1;0.0977517106549365;0;0;0;1;1;1;1;2;0;0;;0;0;();();(-2000.0, -2000.0);
11:01:01:720;11:01:01:658;1448057819.15;(0.5472923755645752, 0.6393989562988281);70.6866531372;1.0;11:01:01:720;0;2;-1.5;1;0.0977517106549365;0;0;0;1;1;1;1;2;0;0;;0;0;();();(-2000.0, -2000.0);
11:01:01:737;11:01:01:658;1448057819.15;(0.5472923755645752, 0.6393989562988281);70.6866531372;1.0;11:01:01:737;0;4;-1.45161290322581;1;0.0977517106549365;0;0;0;1;1;1;1;2;0;0;;0;0;();();(-2000.0, -2000.0);
11:01:01:770;11:01:01:658;1448057819.15;(0.5472923755645752, 0.6393989562988281);70.6866531372;1.0;11:01:01:770;0;4;-1.5;1;0.0977517106549365;0;0;0;1;1;1;1;2;0;0;;0;0;();();(-2000.0, -2000.0);
11:01:01:787;11:01:01:775;1448057819.26;(0.5266392707824707, 0.6473418553670247);70.3776168823;0.998054124725;11:01:01:787;0;0;-1.5;1;0.0977517106549365;0;0;0;1;1;1;1;2;0;0;;0;0;();();(-2000.0, -2000.0);
11:01:01:802;11:01:01:775;1448057819.26;(0.5266392707824707, 0.6473418553670247);70.3776168823;0.998054124725;11:01:01:802;0;15;0.719354838709677;1;0.0977517106549365;0;0;0;1;1;1;1;2;0;0;;0;0;();();(-2000.0, -2000.0);
11:01:01:820;11:01:01:775;1448057819.26;(0.5266392707824707, 0.6473418553670247);70.3776168823;0.998054124725;11:01:01:820;0;10;-1.5;1;0.0977517106549365;0;0;0;1;1;1;1;2;0;0;;0;0;();();(-2000.0, -2000.0);
11:01:01:836;11:01:01:831;1448057819.32;(0.5264854431152344, 0.6477132585313585);70.9748382568;1.0;11:01:01:836;0;15;-0.987096774193548;1;0.0977517106549365;0;0;0;1;0;1;1;2;0;0;;0;0;();();(-2000.0, -2000.0);
11:01:01:869;11:01:01:831;1448057819.32;(0.5264854431152344, 0.6477132585313585);70.9748382568;1.0;11:01:01:869;0;5;-1.5;1;0.0977517106549365;0;0;0;1;0;1;1;2;0;0;;0;0;();();(-2000.0, -2000.0);
11:01:01:885;11:01:01:831;1448057819.32;(0.5264854431152344, 0.6477132585313585);70.9748382568;1.0;11:01:01:885;0;10;-0.870967741935484;1;0.0977517106549365;0;0;0;1;0;1;1;2;0;0;;0;0;();();(-2000.0, -2000.0);
11:01:01:902;11:01:01:889;1448057819.35;(0.5264761924743653, 0.6479252497355144);70.9158630371;1.0;11:01:01:902;0;4;-0.87741935483871;1;0.0977517106549365;0;0;0;1;0;1;1;2;0;0;;0;0;();();(-2000.0, -2000.0);
11:01:01:919;11:01:01:889;1448057819.35;(0.5264761924743653, 0.6479252497355144);70.9158630371;1.0;11:01:01:919;0;10;-0.548387096774194;1;0.0977517106549365;0;0;0;1;0;1;1;2;0;0;;0;0;();();(-2000.0, -2000.0);
11:01:01:935;11:01:01:889;1448057819.35;(0.5264761924743653, 0.6479252497355144);70.9158630371;1.0;11:01:01:935;0;15;-0.767741935483871;1;0.0977517106549365;0;0;0;1;0;1;1;2;0;0;;0;0;();();(-2000.0, -2000.0);
11:01:01:969;11:01:01:947;1448057819.42;(0.5269344806671142, 0.648465919494629);70.5858230591;1.0;11:01:01:969;0;5;0.816129032258065;1;0.0977517106549365;0;0;0;1;0;1;1;2;0;0;;0;0;();();(-2000.0, -2000.0);
11:01:01:985;11:01:01:947;1448057819.42;(0.5269344806671142, 0.648465919494629);70.5858230591;1.0;11:01:01:985;0;0;1.4;1;0.0977517106549365;0;0;0;1;0;1;1;2;0;0;;0;0;();();(-2000.0, -2000.0);
11:01:02:001;11:01:01:947;1448057819.42;(0.5269344806671142, 0.648465919494629);70.5858230591;1.0;11:01:02:001;0;4;1.77741935483871;1;0.0977517106549365;0;0;0;1;1;1;1;2;0;0;;0;0;();();(-2000.0, -2000.0);
11:01:02:018;11:01:02:006;1448057819.49;(0.5275439739227294, 0.6486383014255099);70.3050231934;1.0;11:01:02:018;0;9;1.64193548387097;1;0.0977517106549365;0;0;0;1;1;1;1;2;0;0;;0;0;();();(-2000.0, -2000.0);
11:01:02:051;11:01:02:006;1448057819.49;(0.5275439739227294, 0.6486383014255099);70.3050231934;1.0;11:01:02:051;0;11;-0.470967741935484;1;0.0977517106549365;0;0;0;1;1;1;1;2;0;0;;0;0;();();(-2000.0, -2000.0);
11:01:02:068;11:01:02:006;1448057819.49;(0.5275439739227294, 0.6486383014255099);70.3050231934;1.0;11:01:02:068;0;15;0.719354838709677;1;0.0977517106549365;0;0;0;1;1;1;1;2;0;0;;0;0;();();(-2000.0, -2000.0);
11:01:02:085;11:01:02:074;1448057819.55;(0.5276354789733887, 0.6492094463772244);69.937789917;1.0;11:01:02:085;0;4;1.78064516129032;1;0.0977517106549365;0;0;0;1;1;1;1;2;0;0;;0;0;();();(-2000.0, -2000.0);
11:01:02:101;11:01:02:074;1448057819.55;(0.5276354789733887, 0.6492094463772244);69.937789917;1.0;11:01:02:101;0;4;1.78064516129032;1;0.0977517106549365;0;0;0;1;1;1;1;2;0;0;;0;0;();();(-2000.0, -2000.0);
11:01:02:117;11:01:02:074;1448057819.55;(0.5276354789733887, 0.6492094463772244);69.937789917;1.0;11:01:02:117;0;4;1.78064516129032;1;0.0977517106549365;0;0;0;1;1;1;1;2;0;0;;0;0;();();(-2000.0, -2000.0);
11:01:02:151;11:01:02:122;1448057819.62;(0.5277796745300293, 0.6492356618245443);69.459777832;1.0;11:01:02:151;0;4;1.78064516129032;1;0.0977517106549365;0;0;0;1;1;1;1;2;0;0;;0;0;();();(-2000.0, -2000.0);
11:01:02:168;11:01:02:122;1448057819.62;(0.5277796745300293, 0.6492356618245443);69.459777832;1.0;11:01:02:168;0;15;1.76129032258065;1;0.0977517106549365;0;0;0;1;0;1;1;2;0;0;;0;0;();();(-2000.0, -2000.0);
11:01:02:184;11:01:02:182;1448057819.65;(0.527871036529541, 0.6494608137342666);69.243270874;1.0;11:01:02:184;0;5;0.380645161290323;1;0.0977517106549365;0;0;0;1;0;1;1;2;0;0;;0;0;();();(-2000.0, -2000.0);
11:01:02:200;11:01:02:182;1448057819.65;(0.527871036529541, 0.6494608137342666);69.243270874;1.0;11:01:02:200;0;15;0.251612903225806;1;0.293255131964809;0;0;0;1;0;1;1;2;0;0;;0;0;();();(-2000.0, -2000.0);
11:01:02:217;11:01:02:182;1448057819.65;(0.527871036529541, 0.6494608137342666);69.243270874;1.0;11:01:02:217;0;4;-1.5;1;0.0977517106549365;0;0;0;1;0;1;1;2;0;0;;0;0;();();(-2000.0, -2000.0);
11:01:02:250;11:01:02:238;1448057819.72;(0.5270349502563476, 0.6505171457926433);68.2603607178;1.0;11:01:02:250;0;9;1.77741935483871;1;0.0977517106549365;0;0;0;1;0;1;1;2;0;0;;0;0;();();(-2000.0, -2000.0);
11:01:02:267;11:01:02:238;1448057819.72;(0.5270349502563476, 0.6505171457926433);68.2603607178;1.0;11:01:02:267;0;9;1.77741935483871;1;0.0977517106549365;0;0;0;1;0;1;1;2;0;0;;0;0;();();(-2000.0, -2000.0);
11:01:02:284;11:01:02:238;1448057819.72;(0.5270349502563476, 0.6505171457926433);68.2603607178;1.0;11:01:02:284;0;15;1.70322580645161;1;0.0977517106549365;0;0;0;1;0;1;1;2;0;0;;0;0;();();(-2000.0, -2000.0);
11:01:02:301;11:01:02:299;1448057819.79;(0.5270951271057129, 0.6503992292616103);67.4225006104;1.0;11:01:02:301;0;10;1.77741935483871;1;0.0977517106549365;0;0;0;1;0;1;1;2;0;0;;0;0;();();(-2000.0, -2000.0);
11:01:02:317;11:01:02:299;1448057819.79;(0.5270951271057129, 0.6503992292616103);67.4225006104;1.0;11:01:02:317;0;4;1.77741935483871;1;0.0977517106549365;0;0;0;1;0;1;1;2;0;0;;0;0;();();(-2000.0, -2000.0);
11:01:02:349;11:01:02:299;1448057819.79;(0.5270951271057129, 0.6503992292616103);67.4225006104;1.0;11:01:02:349;0;4;1.75161290322581;1;0.0977517106549365;0;0;0;1;1;1;1;2;0;0;;0;0;();();(-2000.0, -2000.0);
11:01:02:367;11:01:02:355;1448057819.82;(0.5270966529846192, 0.6507072024875217);67.2965621948;1.0;11:01:02:367;0;10;1.77741935483871;1;0.0977517106549365;0;0;0;1;1;1;1;2;0;0;;0;0;();();(-2000.0, -2000.0);
11:01:02:384;11:01:02:355;1448057819.82;(0.5270966529846192, 0.6507072024875217);67.2965621948;1.0;11:01:02:384;0;5;1.78064516129032;1;0.0977517106549365;0;0;0;1;1;1;1;2;0;0;;0;0;();();(-2000.0, -2000.0);
11:01:02:399;11:01:02:355;1448057819.82;(0.5270966529846192, 0.6507072024875217);67.2965621948;1.0;11:01:02:399;0;15;1.78064516129032;1;0.0977517106549365;0;0;0;1;1;1;1;2;0;0;;0;0;();();(-2000.0, -2000.0);
11:01:02:420;11:01:02:415;1448057819.89;(0.5271122455596924, 0.6509965472751194);67.3373260498;1.0;11:01:02:420;0;15;1.77741935483871;1;0.0977517106549365;0;0;0;1;1;1;1;2;0;0;;0;0;();();(-2000.0, -2000.0);
11:01:02:449;11:01:02:415;1448057819.89;(0.5271122455596924, 0.6509965472751194);67.3373260498;1.0;11:01:02:449;0;4;1.78064516129032;1;0.0977517106549365;0;0;0;1;1;1;1;2;0;0;;0;0;();();(-2000.0, -2000.0);
11:01:02:465;11:01:02:415;1448057819.89;(0.5271122455596924, 0.6509965472751194);67.3373260498;1.0;11:01:02:465;0;9;0.641935483870967;1;0.0977517106549365;0;0;0;1;1;1;1;2;0;0;;0;0;();();(-2000.0, -2000.0);
11:01:02:482;11:01:02:472;1448057819.95;(0.5270936489105225, 0.6509072621663412);67.1679840088;1.0;11:01:02:482;0;15;0.712903225806451;1;0.0977517106549365;0;0;0;1;1;1;1;2;0;0;;0;0;();();(-2000.0, -2000.0);
11:01:02:499;11:01:02:472;1448057819.95;(0.5270936489105225, 0.6509072621663412);67.1679840088;1.0;11:01:02:499;0;4;-1.11290322580645;1;0.0977517106549365;0;0;0;1;0;1;1;2;0;0;;0;0;();();(-2000.0, -2000.0);
11:01:02:516;11:01:02:472;1448057819.95;(0.5270936489105225, 0.6509072621663412);67.1679840088;1.0;11:01:02:516;0;10;0.309677419354839;1;0.0977517106549365;0;0;0;1;0;1;1;2;0;0;;0;0;();();(-2000.0, -2000.0);
11:01:02:548;11:01:02:530;1448057820.02;(0.5270453929901123, 0.6510064019097221);67.2976913452;1.0;11:01:02:548;0;15;-1.5;1;0.0977517106549365;0;0;0;1;0;1;1;2;0;0;;0;0;();();(-2000.0, -2000.0);
11:01:02:565;11:01:02:530;1448057820.02;(0.5270453929901123, 0.6510064019097221);67.2976913452;1.0;11:01:02:565;0;9;-1.5;1;0.0977517106549365;0;0;0;1;0;1;1;2;0;0;;0;0;();();(-2000.0, -2000.0);
11:01:02:581;11:01:02:530;1448057820.02;(0.5270453929901123, 0.6510064019097221);67.2976913452;1.0;11:01:02:581;0;0;1.77741935483871;1;0.0977517106549365;0;0;0;1;0;1;1;2;0;0;;0;0;();();(-2000.0, -2000.0);
11:01:02:598;11:01:02:586;1448057820.09;(0.5270767211914062, 0.6510521782769096);67.941444397;1.0;11:01:02:598;0;5;1.79032258064516;1;0.0977517106549365;0;0;0;1;0;1;1;2;0;0;;0;0;();();(-2000.0, -2000.0);
11:01:02:631;11:01:02:586;1448057820.09;(0.5270767211914062, 0.6510521782769096);67.941444397;1.0;11:01:02:631;0;4;1.78064516129032;1;0.0977517106549365;0;0;0;1;0;1;1;2;0;0;;0;0;();();(-2000.0, -2000.0);
11:01:02:648;11:01:02:646;1448057820.12;(0.528555965423584, 0.6498863855997721);68.1884841919;0.844924210671;11:01:02:648;0;15;1.78064516129032;1;0.0977517106549365;0;0;0;1;0;1;1;2;0;0;;0;0;();();(-2000.0, -2000.0);
11:01:02:664;11:01:02:646;1448057820.12;(0.528555965423584, 0.6498863855997721);68.1884841919;0.844924210671;11:01:02:664;0;5;1.76129032258065;1;0.0977517106549365;0;0;0;1;0;1;1;2;0;0;;0;0;();();(-2000.0, -2000.0);
11:01:02:681;11:01:02:646;1448057820.12;(0.528555965423584, 0.6498863855997721);68.1884841919;0.844924210671;11:01:02:681;0;10;1.77741935483871;1;0.0977517106549365;0;0;0;1;1;1;1;2;0;0;;0;0;();();(-2000.0, -2000.0);
11:01:02:698;11:01:02:646;1448057820.12;(0.528555965423584, 0.6498863855997721);68.1884841919;0.844924210671;11:01:02:698;0;10;1.77741935483871;1;0.0977517106549365;0;0;0;1;1;1;1;2;0;0;;0;0;();();(-2000.0, -2000.0);
11:01:02:730;11:01:02:703;1448057820.19;(0.5295746803283692, 0.6495742162068685);68.1464004517;1.0;11:01:02:730;0;15;1.78064516129032;1;0.0977517106549365;0;0;0;1;1;1;1;2;0;0;;0;0;();();(-2000.0, -2000.0);
11:01:02:747;11:01:02:703;1448057820.19;(0.5295746803283692, 0.6495742162068685);68.1464004517;1.0;11:01:02:747;0;4;1.79032258064516;1;0.0977517106549365;0;0;0;1;1;1;1;2;0;0;;0;0;();();(-2000.0, -2000.0);
11:01:02:764;11:01:02:762;1448057820.25;(0.5291540622711182, 0.6495985666910807);68.5661621094;1.0;11:01:02:764;0;4;1.79032258064516;1;0.0977517106549365;0;0;0;1;1;1;1;2;0;0;;0;0;();();(-2000.0, -2000.0);
11:01:02:781;11:01:02:762;1448057820.25;(0.5291540622711182, 0.6495985666910807);68.5661621094;1.0;11:01:02:781;0;9;1.76129032258065;1;0.0977517106549365;0;0;0;1;1;1;1;2;0;0;;0;0;();();(-2000.0, -2000.0);
11:01:02:798;11:01:02:762;1448057820.25;(0.5291540622711182, 0.6495985666910807);68.5661621094;1.0;11:01:02:798;0;4;1.78064516129032;1;0.0977517106549365;0;0;0;1;1;1;1;2;0;0;;0;0;();();(-2000.0, -2000.0);
11:01:02:830;11:01:02:819;1448057820.29;(0.5291523456573486, 0.6497731314765083);68.8898773193;1.0;11:01:02:830;0;0;1.78064516129032;1;0.0977517106549365;0;0;0;1;0;1;1;2;0;0;;0;0;();();(-2000.0, -2000.0);
11:01:02:847;11:01:02:819;1448057820.29;(0.5291523456573486, 0.6497731314765083);68.8898773193;1.0;11:01:02:847;0;0;1.78064516129032;1;0.0977517106549365;0;0;0;1;0;1;1;2;0;0;;0;0;();();(-2000.0, -2000.0);
11:01:02:863;11:01:02:819;1448057820.29;(0.5291523456573486, 0.6497731314765083);68.8898773193;1.0;11:01:02:863;0;15;0.125806451612903;1;0.0977517106549365;0;0;0;1;0;1;1;2;0;0;;0;0;();();(-2000.0, -2000.0);
11:01:02:880;11:01:02:819;1448057820.29;(0.5291523456573486, 0.6497731314765083);68.8898773193;1.0;11:01:02:880;0;10;0.506451612903226;1;0.0977517106549365;0;0;0;1;0;1;1;2;0;0;;0;0;();();(-2000.0, -2000.0);
11:01:02:896;11:01:02:881;1448057820.35;(0.529088306427002, 0.6500547197129991);69.5446243286;1.0;11:01:02:896;0;4;0.977419354838709;1;0.0977517106549365;0;0;0;1;0;1;1;2;0;0;;0;0;();();(-2000.0, -2000.0);
11:01:02:929;11:01:02:881;1448057820.35;(0.529088306427002, 0.6500547197129991);69.5446243286;1.0;11:01:02:929;0;15;0.396774193548387;1;0.0977517106549365;0;0;0;1;0;1;1;2;0;0;;0;0;();();(-2000.0, -2000.0);
11:01:02:946;11:01:02:934;1448057820.42;(0.5288314342498779, 0.649766476949056);69.2762374878;1.0;11:01:02:946;0;10;-1.5;1;0.0977517106549365;0;0;0;1;0;1;1;2;0;0;;0;0;();();(-2000.0, -2000.0);
11:01:02:963;11:01:02:934;1448057820.42;(0.5288314342498779, 0.649766476949056);69.2762374878;1.0;11:01:02:963;0;15;-0.364516129032258;1;0.0977517106549365;0;0;0;1;0;1;1;2;0;0;;0;0;();();(-2000.0, -2000.0);
11:01:02:980;11:01:02:934;1448057820.42;(0.5288314342498779, 0.649766476949056);69.2762374878;1.0;11:01:02:980;0;5;-0.364516129032258;1;0.0977517106549365;0;0;0;1;0;1;1;2;0;0;;0;0;();();(-2000.0, -2000.0);
11:01:02:996;11:01:02:994;1448057820.49;(0.5292166709899903, 0.65006349351671);69.3510360718;1.0;11:01:02:996;0;0;-1.13548387096774;1;0.0977517106549365;0;0;0;1;0;1;1;2;0;0;;0;0;();();(-2000.0, -2000.0);
11:01:03:028;11:01:02:994;1448057820.49;(0.5292166709899903, 0.65006349351671);69.3510360718;1.0;11:01:03:028;0;15;0.74516129032258;1;0.0977517106549365;0;0;0;1;1;1;1;2;0;0;;0;0;();();(-2000.0, -2000.0);
11:01:03:046;11:01:02:994;1448057820.49;(0.5292166709899903, 0.65006349351671);69.3510360718;1.0;11:01:03:046;0;5;1.77741935483871;1;0.0977517106549365;0;0;0;1;1;1;1;2;0;0;;0;0;();();(-2000.0, -2000.0);
11:01:03:062;11:01:03:050;1448057820.52;(0.5292775154113769, 0.6503042856852214);69.5538635254;1.0;11:01:03:062;0;0;0.770967741935484;1;0.0977517106549365;0;0;0;1;1;1;1;2;0;0;;0;0;();();(-2000.0, -2000.0);
11:01:03:078;11:01:03:050;1448057820.52;(0.5292775154113769, 0.6503042856852214);69.5538635254;1.0;11:01:03:078;0;10;1.77741935483871;1;0.0977517106549365;0;0;0;1;1;1;1;2;0;0;;0;0;();();(-2000.0, -2000.0);
11:01:03:095;11:01:03:050;1448057820.52;(0.5292775154113769, 0.6503042856852214);69.5538635254;1.0;11:01:03:095;0;15;1.78064516129032;1;0.0977517106549365;0;0;0;1;1;1;1;2;0;0;;0;0;();();(-2000.0, -2000.0);
11:01:03:128;11:01:03:110;1448057820.59;(0.5287587642669678, 0.6501943164401585);70.0767440796;1.0;11:01:03:128;0;9;1.77741935483871;1;0.0977517106549365;0;0;0;1;1;1;1;2;0;0;;0;0;();();(-2000.0, -2000.0);
11:01:03:145;11:01:03:110;1448057820.59;(0.5287587642669678, 0.6501943164401585);70.0767440796;1.0;11:01:03:145;0;5;1.76129032258065;1;0.0977517106549365;0;0;0;1;1;1;1;2;0;0;;0;0;();();(-2000.0, -2000.0);
11:01:03:162;11:01:03:110;1448057820.59;(0.5287587642669678, 0.6501943164401585);70.0767440796;1.0;11:01:03:161;0;5;1.76129032258065;1;0.0977517106549365;0;0;0;1;1;1;1;2;0;0;;0;0;();();(-2000.0, -2000.0);
11:01:03:178;11:01:03:166;1448057820.65;(0.5290462970733643, 0.6503263685438367);70.1662368774;1.0;11:01:03:178;0;10;1.77741935483871;1;0.0977517106549365;0;0;0;1;0;1;1;2;0;0;;0;0;();();(-2000.0, -2000.0);
11:01:03:212;11:01:03:166;1448057820.65;(0.5290462970733643, 0.6503263685438367);70.1662368774;1.0;11:01:03:212;0;10;-1.5;1;0.0977517106549365;0;0;0;1;0;1;1;2;0;0;;0;0;();();(-2000.0, -2000.0);
11:01:03:233;11:01:03:227;1448057820.72;(0.529045820236206, 0.6500324037339953);70.5316390991;1.0;11:01:03:233;0;9;-1.5;1;0.293255131964809;0;0;0;1;0;1;1;2;0;0;;0;0;();();(-2000.0, -2000.0);
11:01:03:244;11:01:03:227;1448057820.72;(0.529045820236206, 0.6500324037339953);70.5316390991;1.0;11:01:03:244;0;11;-1.5;1;0.0977517106549365;0;0;0;1;0;1;1;2;0;0;;0;0;();();(-2000.0, -2000.0);
11:01:03:260;11:01:03:227;1448057820.72;(0.529045820236206, 0.6500324037339953);70.5316390991;1.0;11:01:03:260;0;10;-1.5;1;0.0977517106549365;0;0;0;1;0;1;1;2;0;0;;0;0;();();(-2000.0, -2000.0);
11:01:03:278;11:01:03:227;1448057820.72;(0.529045820236206, 0.6500324037339953);70.5316390991;1.0;11:01:03:278;0;4;-1.5;1;0.0977517106549365;0;0;0;1;0;1;1;2;0;0;;0;0;();();(-2000.0, -2000.0);
11:01:03:311;11:01:03:282;1448057820.75;(0.5289511680603027, 0.6500904930962457);70.6984863281;1.0;11:01:03:311;0;15;1.79032258064516;1;0.0977517106549365;0;0;0;1;0;1;1;2;0;0;;0;0;();();(-2000.0, -2000.0);
11:01:03:327;11:01:03:282;1448057820.75;(0.5289511680603027, 0.6500904930962457);70.6984863281;1.0;11:01:03:327;0;10;1.77741935483871;1;0.0977517106549365;0;0;0;1;1;1;1;2;0;0;;0;0;();();(-2000.0, -2000.0);
11:01:03:343;11:01:03:342;1448057820.82;(0.5290842533111573, 0.6505838606092664);70.4535827637;1.0;11:01:03:343;0;15;1.76129032258065;1;0.0977517106549365;0;0;0;1;1;1;1;2;0;0;;0;0;();();(-2000.0, -2000.0);
11:01:03:365;11:01:03:342;1448057820.82;(0.5290842533111573, 0.6505838606092664);70.4535827637;1.0;11:01:03:365;0;4;1.78064516129032;1;0.0977517106549365;0;0;0;1;1;1;1;4;0;0;;0;0;();();(-2000.0, -2000.0);
11:01:03:377;11:01:03:342;1448057820.82;(0.5290842533111573, 0.6505838606092664);70.4535827637;1.0;11:01:03:377;0;4;1.78064516129032;1;0.0977517106549365;0;0;0;1;1;1;1;4;0;0;;0;0;();();(-2000.0, -2000.0);
11:01:03:410;11:01:03:342;1448057820.82;(0.5290842533111573, 0.6505838606092664);70.4535827637;1.0;11:01:03:410;0;15;1.77741935483871;1;0.0977517106549365;0;0;0;1;1;1;1;4;0;0;;0;0;();();(-2000.0, -2000.0);
11:01:03:427;11:01:03:411;1448057820.89;(0.5291239261627197, 0.6502796173095703);70.5220947266;1.0;11:01:03:427;0;9;1.78064516129032;1;0.293255131964809;0;0;0;1;1;1;1;4;0;0;;0;0;();();(-2000.0, -2000.0);
11:01:03:443;11:01:03:411;1448057820.89;(0.5291239261627197, 0.6502796173095703);70.5220947266;1.0;11:01:03:443;0;8;1.78064516129032;1;0.0977517106549365;0;0;0;1;1;1;1;4;0;0;;0;0;();();(-2000.0, -2000.0);
11:01:03:460;11:01:03:458;1448057820.92;(0.5290073871612548, 0.6502512402004665);70.111831665;1.0;11:01:03:460;0;10;1.78064516129032;1;0.0977517106549365;0;0;0;1;1;1;1;4;0;0;;0;0;();();(-2000.0, -2000.0);
11:01:03:476;11:01:03:458;1448057820.92;(0.5290073871612548, 0.6502512402004665);70.111831665;1.0;11:01:03:476;0;15;1.78064516129032;1;0.0977517106549365;0;0;0;1;0;1;1;4;0;0;;0;0;();();(-2000.0, -2000.0);
11:01:03:510;11:01:03:458;1448057820.92;(0.5290073871612548, 0.6502512402004665);70.111831665;1.0;11:01:03:510;0;15;1.79032258064516;1;0.0977517106549365;0;0;0;1;0;1;1;4;0;0;;0;0;();();(-2000.0, -2000.0);
11:01:03:526;11:01:03:520;1448057820.99;(0.5293142318725585, 0.6503493838840061);69.7131271362;1.0;11:01:03:526;0;9;1.78064516129032;1;0.0977517106549365;0;0;0;1;0;1;1;4;0;0;;0;0;();();(-2000.0, -2000.0);
11:01:03:542;11:01:03:520;1448057820.99;(0.5293142318725585, 0.6503493838840061);69.7131271362;1.0;11:01:03:542;0;10;1.78064516129032;1;0.0977517106549365;0;0;0;1;0;1;1;4;0;0;;0;0;();();(-2000.0, -2000.0);
11:01:03:559;11:01:03:520;1448057820.99;(0.5293142318725585, 0.6503493838840061);69.7131271362;1.0;11:01:03:559;0;5;-0.00967741935483879;1;0.0977517106549365;0;0;0;1;0;1;1;4;0;0;;0;0;();();(-2000.0, -2000.0);
11:01:03:575;11:01:03:575;1448057821.05;(0.5289403915405273, 0.6502450307210286);69.6839141846;1.0;11:01:03:575;0;10;-1.5;1;0.0977517106549365;0;0;0;1;0;1;1;4;0;0;;0;0;();();(-2000.0, -2000.0);
11:01:03:609;11:01:03:575;1448057821.05;(0.5289403915405273, 0.6502450307210286);69.6839141846;1.0;11:01:03:609;0;14;-1.5;1;0.0977517106549365;0;0;0;1;0;1;1;4;0;0;;0;0;();();(-2000.0, -2000.0);
11:01:03:626;11:01:03:575;1448057821.05;(0.5289403915405273, 0.6502450307210286);69.6839141846;1.0;11:01:03:626;0;5;-1.5;1;0.0977517106549365;0;0;0;1;0;1;1;4;0;0;;0;0;();();(-2000.0, -2000.0);
11:01:03:642;11:01:03:634;1448057821.12;(0.52925124168396, 0.6504621929592557);69.3368835449;1.0;11:01:03:642;0;10;-0.0548387096774194;1;0.293255131964809;0;0;0;1;1;1;1;4;0;0;;0;0;();();(-2000.0, -2000.0);
11:01:03:658;11:01:03:634;1448057821.12;(0.52925124168396, 0.6504621929592557);69.3368835449;1.0;11:01:03:658;0;4;-1.5;1;0.0977517106549365;0;0;0;1;1;1;1;4;0;0;;0;0;();();(-2000.0, -2000.0);
11:01:03:674;11:01:03:634;1448057821.12;(0.52925124168396, 0.6504621929592557);69.3368835449;1.0;11:01:03:674;0;9;1.76129032258065;1;0.0977517106549365;0;0;0;1;1;1;1;4;0;0;;0;0;();();(-2000.0, -2000.0);
11:01:03:708;11:01:03:690;1448057821.15;(0.5290868282318115, 0.6505686230129666);69.4194488525;1.0;11:01:03:708;0;9;-1.5;1;0.0977517106549365;0;0;0;1;1;1;1;4;0;0;;0;0;();();(-2000.0, -2000.0);
11:01:03:724;11:01:03:690;1448057821.15;(0.5290868282318115, 0.6505686230129666);69.4194488525;1.0;11:01:03:724;0;5;-1.5;1;0.0977517106549365;0;0;0;1;1;1;1;4;0;0;;0;0;();();(-2000.0, -2000.0);
11:01:03:741;11:01:03:690;1448057821.15;(0.5290868282318115, 0.6505686230129666);69.4194488525;1.0;11:01:03:741;0;10;-1.5;1;0.0977517106549365;0;0;0;1;1;1;1;4;0;0;;0;0;();();(-2000.0, -2000.0);
11:01:03:758;11:01:03:750;1448057821.22;(0.5292346000671386, 0.6500716103447808);69.1965637207;1.0;11:01:03:758;0;15;-1.5;1;0.293255131964809;0;0;0;1;1;1;1;4;0;0;;0;0;();();(-2000.0, -2000.0);
11:01:03:791;11:01:03:750;1448057821.22;(0.5292346000671386, 0.6500716103447808);69.1965637207;1.0;11:01:03:791;0;0;-1.5;1;0.0977517106549365;0;0;0;1;0;1;1;4;0;0;;0;0;();();(-2000.0, -2000.0);
11:01:03:807;11:01:03:807;1448057821.29;(0.529384994506836, 0.650130377875434);69.3469467163;1.0;11:01:03:807;0;10;-1.5;1;0.0977517106549365;0;0;0;1;0;1;1;4;0;0;;0;0;();();(-2000.0, -2000.0);
11:01:03:824;11:01:03:807;1448057821.29;(0.529384994506836, 0.650130377875434);69.3469467163;1.0;11:01:03:824;0;15;1.78064516129032;1;0.0977517106549365;0;0;0;1;0;1;1;4;0;0;;0;0;();();(-2000.0, -2000.0);
11:01:03:841;11:01:03:807;1448057821.29;(0.529384994506836, 0.650130377875434);69.3469467163;1.0;11:01:03:841;0;4;1.77741935483871;1;0.0977517106549365;0;0;0;1;0;1;1;4;0;0;;0;0;();();(-2000.0, -2000.0);
11:01:03:857;11:01:03:807;1448057821.29;(0.529384994506836, 0.650130377875434);69.3469467163;1.0;11:01:03:857;0;4;1.77741935483871;1;0.0977517106549365;0;0;0;1;0;1;1;4;0;0;;0;0;();();(-2000.0, -2000.0);
11:01:03:890;11:01:03:866;1448057821.35;(0.529284143447876, 0.6497140672471788);69.6904373169;1.0;11:01:03:890;0;15;1.78064516129032;1;0.0977517106549365;0;0;0;1;0;1;1;4;0;0;;0;0;();();(-2000.0, -2000.0);
11:01:03:907;11:01:03:866;1448057821.35;(0.529284143447876, 0.6497140672471788);69.6904373169;1.0;11:01:03:907;0;4;1.79032258064516;1;0.0977517106549365;0;0;0;1;0;1;1;4;0;0;;0;0;();();(-2000.0, -2000.0);
11:01:03:923;11:01:03:922;1448057821.42;(0.52919921875, 0.6499299791124131);69.5475158691;1.0;11:01:03:923;0;15;1.78064516129032;1;0.0977517106549365;0;0;0;1;0;1;1;4;0;0;;0;0;();();(-2000.0, -2000.0);
11:01:03:940;11:01:03:922;1448057821.42;(0.52919921875, 0.6499299791124131);69.5475158691;1.0;11:01:03:940;0;5;1.77741935483871;1;0.0977517106549365;0;0;0;1;1;1;1;4;0;0;;0;0;();();(-2000.0, -2000.0);
11:01:03:957;11:01:03:922;1448057821.42;(0.52919921875, 0.6499299791124131);69.5475158691;1.0;11:01:03:957;0;7;1.77741935483871;1;0.293255131964809;0;0;0;1;1;1;1;4;0;0;;0;0;();();(-2000.0, -2000.0);
11:01:03:990;11:01:03:982;1448057821.45;(0.5291812419891357, 0.6499509599473741);69.3754272461;1.0;11:01:03:990;0;15;1.78064516129032;1;0.0977517106549365;0;0;0;1;1;1;1;4;0;0;;0;0;();();(-2000.0, -2000.0);
11:01:04:006;11:01:03:982;1448057821.45;(0.5291812419891357, 0.6499509599473741);69.3754272461;1.0;11:01:04:006;0;15;1.78064516129032;1;0.0977517106549365;0;0;0;1;1;1;1;4;0;0;;0;0;();();(-2000.0, -2000.0);
11:01:04:023;11:01:03:982;1448057821.45;(0.5291812419891357, 0.6499509599473741);69.3754272461;1.0;11:01:04:023;0;4;-1.5;1;0.0977517106549365;0;0;0;1;1;1;1;4;0;0;;0;0;();();(-2000.0, -2000.0);
11:01:04:039;11:01:04:038;1448057821.52;(0.529267692565918, 0.6497479756673177);69.7098236084;1.0;11:01:04:039;0;4;-1.5;1;0.0977517106549365;0;0;0;1;1;1;1;4;0;0;;0;0;();();(-2000.0, -2000.0);
11:01:04:056;11:01:04:038;1448057821.52;(0.529267692565918, 0.6497479756673177);69.7098236084;1.0;11:01:04:056;0;10;-1.5;1;0.0977517106549365;0;0;0;1;1;1;1;4;0;0;;0;0;();();(-2000.0, -2000.0);
11:01:04:090;11:01:04:038;1448057821.52;(0.529267692565918, 0.6497479756673177);69.7098236084;1.0;11:01:04:090;0;9;1.78064516129032;1;0.0977517106549365;0;0;0;1;1;1;1;4;0;0;;0;0;();();(-2000.0, -2000.0);
11:01:04:106;11:01:04:098;1448057821.59;(0.529078483581543, 0.6498400582207573);69.5222244263;1.0;11:01:04:106;0;5;1.78064516129032;1;0.0977517106549365;0;0;0;1;0;1;1;4;0;0;;0;0;();();(-2000.0, -2000.0);
11:01:04:122;11:01:04:098;1448057821.59;(0.529078483581543, 0.6498400582207573);69.5222244263;1.0;11:01:04:122;0;0;1.78064516129032;1;0.0977517106549365;0;0;0;1;0;1;1;4;0;0;;0;0;();();(-2000.0, -2000.0);
11:01:04:138;11:01:04:098;1448057821.59;(0.529078483581543, 0.6498400582207573);69.5222244263;1.0;11:01:04:138;0;15;1.77741935483871;1;0.0977517106549365;0;0;0;1;0;1;1;4;0;0;;0;0;();();(-2000.0, -2000.0);
11:01:04:155;11:01:04:155;1448057821.62;(0.529262113571167, 0.6496300591362847);69.5870437622;1.0;11:01:04:155;0;9;-1.5;1;0.0977517106549365;0;0;0;1;0;1;1;4;0;0;;0;0;();();(-2000.0, -2000.0);
11:01:04:189;11:01:04:155;1448057821.62;(0.529262113571167, 0.6496300591362847);69.5870437622;1.0;11:01:04:189;0;0;-1.5;1;0.0977517106549365;0;0;0;1;0;1;1;4;0;0;;0;0;();();(-2000.0, -2000.0);
11:01:04:205;11:01:04:155;1448057821.62;(0.529262113571167, 0.6496300591362847);69.5870437622;1.0;11:01:04:205;0;5;-1.5;1;0.0977517106549365;0;0;0;1;0;1;1;4;0;0;;0;0;();();(-2000.0, -2000.0);
11:01:04:222;11:01:04:214;1448057821.69;(0.5292363643646241, 0.6495639377170139);69.3889007568;1.0;11:01:04:222;0;9;-1.5;1;0.0977517106549365;0;0;0;1;0;1;1;4;0;0;;0;0;();();(-2000.0, -2000.0);
11:01:04:238;11:01:04:214;1448057821.69;(0.5292363643646241, 0.6495639377170139);69.3889007568;1.0;11:01:04:238;0;4;-1.5;1;0.0977517106549365;0;0;0;1;0;1;1;4;0;0;;0;0;();();(-2000.0, -2000.0);
11:01:04:272;11:01:04:271;1448057821.75;(0.5292615413665771, 0.6497716691758897);69.8078765869;1.0;11:01:04:272;0;5;-1.5;1;0.0977517106549365;0;0;0;1;0;1;1;4;0;0;;0;0;();();(-2000.0, -2000.0);
11:01:04:288;11:01:04:271;1448057821.75;(0.5292615413665771, 0.6497716691758897);69.8078765869;1.0;11:01:04:288;0;10;-1.5;1;0.0977517106549365;0;0;0;1;1;1;1;4;0;0;;0;0;();();(-2000.0, -2000.0);
11:01:04:305;11:01:04:271;1448057821.75;(0.5292615413665771, 0.6497716691758897);69.8078765869;1.0;11:01:04:305;0;15;-1.5;1;0.0977517106549365;0;0;0;1;1;1;1;4;0;0;;0;0;();();(-2000.0, -2000.0);
11:01:04:321;11:01:04:271;1448057821.75;(0.5292615413665771, 0.6497716691758897);69.8078765869;1.0;11:01:04:321;0;4;-1.5;1;0.0977517106549365;0;0;0;1;1;1;1;4;0;0;;0;0;();();(-2000.0, -2000.0);
11:01:04:338;11:01:04:330;1448057821.82;(0.52913818359375, 0.6494685914781358);69.6096801758;1.0;11:01:04:338;0;0;-1.5;1;0.0977517106549365;0;0;0;1;1;1;1;4;0;0;;0;0;();();(-2000.0, -2000.0);
11:01:04:371;11:01:04:330;1448057821.82;(0.52913818359375, 0.6494685914781358);69.6096801758;1.0;11:01:04:371;0;10;-1.5;1;0.0977517106549365;0;0;0;1;1;1;1;4;0;0;;0;0;();();(-2000.0, -2000.0);
11:01:04:387;11:01:04:386;1448057821.85;(0.52916259765625, 0.6493736055162218);69.5658035278;1.0;11:01:04:387;0;10;-1.5;1;0.0977517106549365;0;0;0;1;1;1;1;4;0;0;;0;0;();();(-2000.0, -2000.0);
11:01:04:403;11:01:04:386;1448057821.85;(0.52916259765625, 0.6493736055162218);69.5658035278;1.0;11:01:04:403;0;15;-1.5;1;0.0977517106549365;0;0;0;1;1;1;1;4;0;0;;0;0;();();(-2000.0, -2000.0);
11:01:04:421;11:01:04:386;1448057821.85;(0.52916259765625, 0.6493736055162218);69.5658035278;1.0;11:01:04:421;0;5;-1.5;1;0.0977517106549365;0;0;0;1;0;1;1;4;0;0;;0;0;();();(-2000.0, -2000.0);
11:01:04:437;11:01:04:386;1448057821.85;(0.52916259765625, 0.6493736055162218);69.5658035278;1.0;11:01:04:437;0;0;-1.5;1;0.0977517106549365;0;0;0;1;0;1;1;4;0;0;;0;0;();();(-2000.0, -2000.0);
11:01:04:470;11:01:04:446;1448057821.92;(0.5290741443634033, 0.6493669509887695);69.7623138428;1.0;11:01:04:470;0;9;-1.5;1;0.0977517106549365;0;0;0;1;0;1;1;4;0;0;;0;0;();();(-2000.0, -2000.0);
11:01:04:487;11:01:04:446;1448057821.92;(0.5290741443634033, 0.6493669509887695);69.7623138428;1.0;11:01:04:487;0;4;-1.5;1;0.0977517106549365;0;0;0;1;0;1;1;4;0;0;;0;0;();();(-2000.0, -2000.0);
11:01:04:503;11:01:04:503;1448057821.99;(0.529020357131958, 0.6490959591335721);69.3462219238;1.0;11:01:04:503;0;15;-1.5;1;0.0977517106549365;0;0;0;1;0;1;1;4;0;0;;0;0;();();(-2000.0, -2000.0);
11:01:04:520;11:01:04:503;1448057821.99;(0.529020357131958, 0.6490959591335721);69.3462219238;1.0;11:01:04:520;0;5;-1.5;1;0.0977517106549365;0;0;0;1;0;1;1;4;0;0;;0;0;();();(-2000.0, -2000.0);
11:01:04:537;11:01:04:503;1448057821.99;(0.529020357131958, 0.6490959591335721);69.3462219238;1.0;11:01:04:537;0;10;-1.5;1;0.0977517106549365;0;0;0;1;0;1;1;4;0;0;;0;0;();();(-2000.0, -2000.0);
11:01:04:570;11:01:04:563;1448057822.05;(0.5289675712585449, 0.6489972856309678);69.636138916;1.0;11:01:04:570;0;9;-1.5;1;0.0977517106549365;0;0;0;1;0;1;1;4;0;0;;0;0;();();(-2000.0, -2000.0);
11:01:04:587;11:01:04:563;1448057822.05;(0.5289675712585449, 0.6489972856309678);69.636138916;1.0;11:01:04:587;0;5;-1.5;1;0.0977517106549365;0;0;0;1;0;1;1;4;0;0;;0;0;();();(-2000.0, -2000.0);
11:01:04:602;11:01:04:563;1448057822.05;(0.5289675712585449, 0.6489972856309678);69.636138916;1.0;11:01:04:602;0;10;-1.5;1;0.0977517106549365;0;0;0;1;1;1;1;4;0;0;;0;0;();();(-2000.0, -2000.0);
11:01:04:620;11:01:04:619;1448057822.09;(0.5289989471435547, 0.6493389341566298);69.6066207886;1.0;11:01:04:620;0;15;-1.5;1;0.0977517106549365;0;0;0;1;1;1;1;4;0;0;;0;0;();();(-2000.0, -2000.0);
11:01:04:636;11:01:04:619;1448057822.09;(0.5289989471435547, 0.6493389341566298);69.6066207886;1.0;11:01:04:636;0;10;1.77741935483871;1;0.0977517106549365;0;0;0;1;1;1;1;4;0;0;;0;0;();();(-2000.0, -2000.0);
11:01:04:668;11:01:04:619;1448057822.09;(0.5289989471435547, 0.6493389341566298);69.6066207886;1.0;11:01:04:668;0;15;1.76129032258065;1;0.0977517106549365;0;0;0;1;1;1;1;4;0;0;;0;0;();();(-2000.0, -2000.0);
11:01:04:686;11:01:04:678;1448057822.15;(0.5289343357086181, 0.6489581214057074);69.4467468262;1.0;11:01:04:686;0;10;1.78064516129032;1;0.0977517106549365;0;0;0;1;1;1;1;4;0;0;;0;0;();();(-2000.0, -2000.0);
11:01:04:703;11:01:04:678;1448057822.15;(0.5289343357086181, 0.6489581214057074);69.4467468262;1.0;11:01:04:703;0;9;0.174193548387097;1;0.0977517106549365;0;0;0;1;1;1;1;4;0;0;;0;0;();();(-2000.0, -2000.0);
11:01:04:718;11:01:04:678;1448057822.15;(0.5289343357086181, 0.6489581214057074);69.4467468262;1.0;11:01:04:718;0;4;1.33225806451613;1;0.0977517106549365;0;0;0;1;1;1;1;4;0;0;;0;0;();();(-2000.0, -2000.0);
11:01:04:735;11:01:04:734;1448057822.22;(0.5288686752319336, 0.6491704093085395);69.0165252686;1.0;11:01:04:735;0;9;1.78064516129032;1;0.0977517106549365;0;0;0;1;1;1;1;4;0;0;;0;0;();();(-2000.0, -2000.0);
11:01:04:768;11:01:04:734;1448057822.22;(0.5288686752319336, 0.6491704093085395);69.0165252686;1.0;11:01:04:768;0;15;1.77741935483871;1;0.0977517106549365;0;0;0;1;1;1;1;4;0;0;;0;0;();();(-2000.0, -2000.0);
11:01:04:786;11:01:04:734;1448057822.22;(0.5288686752319336, 0.6491704093085395);69.0165252686;1.0;11:01:04:786;0;15;1.78064516129032;1;0.0977517106549365;0;0;0;1;0;1;1;4;0;0;;0;0;();();(-2000.0, -2000.0);
11:01:04:802;11:01:04:794;1448057822.25;(0.5290973663330079, 0.6488517973158094);69.1684417725;1.0;11:01:04:802;0;4;1.24516129032258;1;0.0977517106549365;0;0;0;1;0;1;1;4;0;0;;0;0;();();(-2000.0, -2000.0);
11:01:04:818;11:01:04:794;1448057822.25;(0.5290973663330079, 0.6488517973158094);69.1684417725;1.0;11:01:04:818;0;0;-0.612903225806452;1;0.0977517106549365;0;0;0;1;0;1;1;4;0;0;;0;0;();();(-2000.0, -2000.0);
11:01:04:851;11:01:04:851;1448057822.29;(0.5289237976074219, 0.648861461215549);69.0757522583;1.0;11:01:04:851;0;15;-1.5;1;0.0977517106549365;0;0;0;1;0;1;1;4;0;0;;0;0;();();(-2000.0, -2000.0);
11:01:04:868;11:01:04:851;1448057822.32;(0.5289654731750488, 0.6485978232489692);68.898399353;1.0;11:01:04:868;0;10;0.512903225806451;1;0.0977517106549365;0;0;0;1;0;1;1;4;0;0;;0;0;();();(-2000.0, -2000.0);
11:01:04:885;11:01:04:851;1448057822.32;(0.5289654731750488, 0.6485978232489692);68.898399353;1.0;11:01:04:885;0;9;1.78064516129032;1;0.0977517106549365;0;0;0;1;0;1;1;4;0;0;;0;0;();();(-2000.0, -2000.0);
11:01:04:902;11:01:04:851;1448057822.32;(0.5289654731750488, 0.6485978232489692);68.898399353;1.0;11:01:04:902;0;5;1.77741935483871;1;0.0977517106549365;0;0;0;1;0;1;1;4;0;0;;0;0;();();(-2000.0, -2000.0);
11:01:04:918;11:01:04:911;1448057822.39;(0.5289535999298096, 0.6489186816745334);68.525604248;1.0;11:01:04:918;0;5;1.77741935483871;1;0.0977517106549365;0;0;0;1;0;1;1;4;0;0;;0;0;();();(-2000.0, -2000.0);
11:01:04:952;11:01:04:911;1448057822.39;(0.5289535999298096, 0.6489186816745334);68.525604248;1.0;11:01:04:952;0;1;1.77741935483871;1;0.0977517106549365;0;0;0;1;1;1;1;4;0;0;;0;0;();();(-2000.0, -2000.0);
11:01:04:967;11:01:04:911;1448057822.39;(0.5289535999298096, 0.6489186816745334);68.525604248;1.0;11:01:04:967;0;9;1.78064516129032;1;0.0977517106549365;0;0;0;1;1;1;1;4;0;0;;0;0;();();(-2000.0, -2000.0);
11:01:04:984;11:01:04:973;1448057822.45;(0.5290015697479248, 0.6486379199557835);68.4868240356;1.0;11:01:04:984;0;10;1.78064516129032;1;0.0977517106549365;0;0;0;1;1;1;1;4;0;0;;0;0;();();(-2000.0, -2000.0);
11:01:05:000;11:01:04:973;1448057822.45;(0.5290015697479248, 0.6486379199557835);68.4868240356;1.0;11:01:05:000;0;14;1.78064516129032;1;0.0977517106549365;0;0;0;1;1;1;1;4;0;0;;0;0;();();(-2000.0, -2000.0);
11:01:05:017;11:01:04:973;1448057822.45;(0.5290015697479248, 0.6486379199557835);68.4868240356;1.0;11:01:05:017;0;7;1.77741935483871;1;0.0977517106549365;0;0;0;1;1;1;1;4;0;0;;0;0;();();(-2000.0, -2000.0);
11:01:05:051;11:01:05:038;1448057822.52;(0.5289466381072998, 0.6491409937540691);68.017616272;1.0;11:01:05:051;0;9;1.78064516129032;1;0.0977517106549365;0;0;0;1;1;1;1;4;0;0;;0;0;();();(-2000.0, -2000.0);
11:01:05:067;11:01:05:038;1448057822.52;(0.5289466381072998, 0.6491409937540691);68.017616272;1.0;11:01:05:067;0;11;1.76129032258065;1;0.0977517106549365;0;0;0;1;0;1;1;4;0;0;;0;0;();();(-2000.0, -2000.0);
11:01:05:083;11:01:05:038;1448057822.52;(0.5289466381072998, 0.6491409937540691);68.017616272;1.0;11:01:05:083;0;10;1.79032258064516;1;0.0977517106549365;0;0;0;1;0;1;1;4;0;0;;0;0;();();(-2000.0, -2000.0);
11:01:05:099;11:01:05:086;1448057822.55;(0.5292681217193603, 0.649501101175944);68.4841766357;1.0;11:01:05:099;0;4;1.77741935483871;1;0.0977517106549365;0;0;0;1;0;1;1;4;0;0;;0;0;();();(-2000.0, -2000.0);
11:01:05:117;11:01:05:086;1448057822.55;(0.5292681217193603, 0.649501101175944);68.4841766357;1.0;11:01:05:117;0;10;1.76129032258065;1;0.0977517106549365;0;0;0;1;0;1;1;4;0;0;;0;0;();();(-2000.0, -2000.0);
11:01:05:149;11:01:05:142;1448057822.62;(0.531733226776123, 0.6492105272081163);68.232711792;1.0;11:01:05:149;0;10;1.77741935483871;1;0.0977517106549365;0;0;0;1;0;1;1;4;0;0;;0;0;();();(-2000.0, -2000.0);
11:01:05:166;11:01:05:142;1448057822.62;(0.531733226776123, 0.6492105272081163);68.232711792;1.0;11:01:05:166;0;10;1.77741935483871;1;0.0977517106549365;0;0;0;1;0;1;1;4;0;0;;0;0;();();(-2000.0, -2000.0);
11:01:05:183;11:01:05:142;1448057822.62;(0.531733226776123, 0.6492105272081163);68.232711792;1.0;11:01:05:183;0;10;1.78064516129032;1;0.0977517106549365;0;0;0;1;0;1;1;4;0;0;;0;0;();();(-2000.0, -2000.0);
11:01:05:199;11:01:05:142;1448057822.62;(0.531733226776123, 0.6492105272081163);68.232711792;1.0;11:01:05:199;0;4;1.77741935483871;1;0.0977517106549365;0;0;0;1;0;1;1;4;0;0;;0;0;();();(-2000.0, -2000.0);
11:01:05:215;11:01:05:202;1448057822.69;(0.5318560123443603, 0.6495864020453559);68.1561279297;1.0;11:01:05:215;0;9;1.78064516129032;1;0.0977517106549365;0;0;0;1;0;1;1;4;0;0;;0;0;();();(-2000.0, -2000.0);
11:01:05:249;11:01:05:202;1448057822.69;(0.5318560123443603, 0.6495864020453559);68.1561279297;1.0;11:01:05:249;0;4;1.78064516129032;1;0.0977517106549365;0;0;0;1;1;1;1;4;0;0;;0;0;();();(-2000.0, -2000.0);
11:01:05:266;11:01:05:259;1448057822.75;(0.5318319797515869, 0.6496840159098307);67.7748336792;1.0;11:01:05:266;0;11;1.77741935483871;1;0.0977517106549365;0;0;0;1;1;1;1;4;0;0;;0;0;();();(-2000.0, -2000.0);
11:01:05:282;11:01:05:259;1448057822.75;(0.5318319797515869, 0.6496840159098307);67.7748336792;1.0;11:01:05:282;0;9;1.78064516129032;1;0.0977517106549365;0;0;0;1;1;1;1;4;0;0;;0;0;();();(-2000.0, -2000.0);
11:01:05:299;11:01:05:259;1448057822.75;(0.5318319797515869, 0.6496840159098307);67.7748336792;1.0;11:01:05:299;0;0;1.78064516129032;1;0.0977517106549365;0;0;0;1;1;1;1;4;0;0;;0;0;();();(-2000.0, -2000.0);
11:01:05:315;11:01:05:259;1448057822.75;(0.5318319797515869, 0.6496840159098307);67.7748336792;1.0;11:01:05:315;0;0;1.78064516129032;1;0.0977517106549365;0;0;0;1;1;1;1;4;0;0;;0;0;();();(-2000.0, -2000.0);
11:01:05:349;11:01:05:318;1448057822.79;(0.5314641952514648, 0.6495372984144423);68.0615463257;1.0;11:01:05:349;0;4;1.78064516129032;1;0.0977517106549365;0;0;0;1;1;1;1;4;0;0;;0;0;();();(-2000.0, -2000.0);
11:01:05:365;11:01:05:318;1448057822.79;(0.5314641952514648, 0.6495372984144423);68.0615463257;1.0;11:01:05:364;0;15;1.78064516129032;1;0.0977517106549365;0;0;0;1;1;1;1;4;0;0;;0;0;();();(-2000.0, -2000.0);
11:01:05:381;11:01:05:374;1448057822.85;(0.5315979957580567, 0.649987072414822);68.6548461914;1.0;11:01:05:381;0;5;1.78064516129032;1;0.0977517106549365;0;0;0;1;1;1;1;4;0;0;;0;0;();();(-2000.0, -2000.0);
11:01:05:398;11:01:05:374;1448057822.85;(0.5315979957580567, 0.649987072414822);68.6548461914;1.0;11:01:05:398;0;0;1.78064516129032;1;0.0977517106549365;0;0;0;1;0;1;1;4;0;0;;0;0;();();(-2000.0, -2000.0);
11:01:05:431;11:01:05:374;1448057822.85;(0.5315979957580567, 0.649987072414822);68.6548461914;1.0;11:01:05:431;0;9;1.77741935483871;1;0.0977517106549365;0;0;0;1;0;1;1;4;0;0;;0;0;();();(-2000.0, -2000.0);
11:01:05:448;11:01:05:434;1448057822.92;(0.5299962043762207, 0.6490874608357747);68.2521820068;0.918939366844;11:01:05:448;0;5;1.78064516129032;1;0.0977517106549365;0;0;0;1;0;1;1;4;0;0;;0;0;();();(-2000.0, -2000.0);
11:01:05:463;11:01:05:434;1448057822.92;(0.5299962043762207, 0.6490874608357747);68.2521820068;0.918939366844;11:01:05:463;0;10;1.78064516129032;1;0.0977517106549365;0;0;0;1;0;1;1;4;0;0;;0;0;();();(-2000.0, -2000.0);
11:01:05:481;11:01:05:434;1448057822.92;(0.5299962043762207, 0.6490874608357747);68.2521820068;0.918939366844;11:01:05:481;0;5;1.76129032258065;1;0.0977517106549365;0;0;0;1;0;1;1;4;0;0;;0;0;();();(-2000.0, -2000.0);
11:01:05:497;11:01:05:490;1448057822.95;(0, 0);0;0;11:01:05:497;0;15;1.78064516129032;1;0.0977517106549365;0;0;0;1;0;1;1;4;0;0;;0;0;();();(-2000.0, -2000.0);
11:01:05:530;11:01:05:490;1448057822.95;(0, 0);0;0;11:01:05:530;0;9;1.77741935483871;1;0.0977517106549365;0;0;0;1;0;1;1;4;0;0;;0;0;();();(-2000.0, -2000.0);
11:01:05:547;11:01:05:490;1448057822.95;(0, 0);0;0;11:01:05:547;0;5;1.78064516129032;1;0.0977517106549365;0;0;0;1;0;1;1;4;0;0;;0;0;();();(-2000.0, -2000.0);
11:01:05:563;11:01:05:551;1448057823.02;(0, 0);0;0;11:01:05:563;0;10;1.77741935483871;1;0.0977517106549365;0;0;0;1;1;1;1;4;0;0;;0;0;();();(-2000.0, -2000.0);
11:01:05:581;11:01:05:551;1448057823.02;(0, 0);0;0;11:01:05:581;0;15;1.52903225806452;1;0.0977517106549365;0;0;0;1;1;1;1;4;0;0;;0;0;();();(-2000.0, -2000.0);
11:01:05:598;11:01:05:551;1448057823.02;(0, 0);0;0;11:01:05:598;0;9;-1.04193548387097;1;0.0977517106549365;0;0;0;1;1;1;1;4;0;0;;0;0;();();(-2000.0, -2000.0);
11:01:05:630;11:01:05:551;1448057823.02;(0, 0);0;0;11:01:05:630;0;10;1.78064516129032;1;0.0977517106549365;0;0;0;1;1;1;1;4;0;0;;0;0;();();(-2000.0, -2000.0);
11:01:05:647;11:01:05:551;1448057823.02;(0, 0);0;0;11:01:05:647;0;15;-1.5;1;0.0977517106549365;0;0;0;1;1;1;1;4;0;0;;0;0;();();(-2000.0, -2000.0);
11:01:05:663;11:01:05:551;1448057823.02;(0, 0);0;0;11:01:05:663;0;10;1.78064516129032;1;0.0977517106549365;0;0;0;1;1;1;1;4;0;0;;0;0;();();(-2000.0, -2000.0);
11:01:05:680;11:01:05:666;1448057823.05;(0.2679295539855957, 0.5750434875488282);51.9865913391;0.670888869715;11:01:05:680;0;15;0.512903225806451;1;0.0977517106549365;0;0;0;1;0;1;1;4;0;0;;0;0;();();(-2000.0, -2000.0);
11:01:05:697;11:01:05:666;1448057823.05;(0.2679295539855957, 0.5750434875488282);51.9865913391;0.670888869715;11:01:05:697;0;9;-1.5;1;0.0977517106549365;0;0;0;1;0;1;1;4;0;0;;0;0;();();(-2000.0, -2000.0);
11:01:05:729;11:01:05:725;1448057823.13;(0.5283617496490478, 0.6534660127427843);69.5815887451;0.792618742855;11:01:05:729;0;10;1.77741935483871;1;0.0977517106549365;0;0;0;1;0;1;1;4;0;0;;0;0;();();(-2000.0, -2000.0);
11:01:05:746;11:01:05:725;1448057823.13;(0.5283617496490478, 0.6534660127427843);69.5815887451;0.792618742855;11:01:05:746;0;4;0.561290322580645;1;0.0977517106549365;0;0;0;1;0;1;1;4;0;0;;0;0;();();(-2000.0, -2000.0);
11:01:05:763;11:01:05:725;1448057823.13;(0.5283617496490478, 0.6534660127427843);69.5815887451;0.792618742855;11:01:05:763;0;4;-1.5;1;0.0977517106549365;0;0;0;1;0;1;1;4;0;0;;0;0;();();(-2000.0, -2000.0);
11:01:05:779;11:01:05:725;1448057823.13;(0.5283617496490478, 0.6534660127427843);69.5815887451;0.792618742855;11:01:05:779;0;0;-1.5;1;0.0977517106549365;0;0;0;1;0;1;1;4;0;0;;0;0;();();(-2000.0, -2000.0);
11:01:05:796;11:01:05:782;1448057823.25;(0.5303349494934082, 0.6539186901516385);68.4638366699;1.0;11:01:05:796;0;4;1.77741935483871;1;0.0977517106549365;0;0;0;1;0;1;1;4;0;0;;0;0;();();(-2000.0, -2000.0);
11:01:05:828;11:01:05:782;1448057823.25;(0.5303349494934082, 0.6539186901516385);68.4638366699;1.0;11:01:05:828;0;4;-0.961290322580645;1;0.0977517106549365;0;0;0;1;0;1;1;4;0;0;;0;0;();();(-2000.0, -2000.0);
11:01:05:845;11:01:05:838;1448057823.32;(0.5306334495544434, 0.6544710159301758);68.5857009888;1.0;11:01:05:845;0;15;-1.5;1;0.0977517106549365;0;0;0;1;1;1;1;4;0;0;;0;0;();();(-2000.0, -2000.0);
11:01:05:862;11:01:05:838;1448057823.32;(0.5306334495544434, 0.6544710159301758);68.5857009888;1.0;11:01:05:862;0;5;-0.961290322580645;1;0.0977517106549365;0;0;0;1;1;1;1;4;0;0;;0;0;();();(-2000.0, -2000.0);
11:01:05:878;11:01:05:838;1448057823.32;(0.5306334495544434, 0.6544710159301758);68.5857009888;1.0;11:01:05:878;0;0;0.506451612903226;1;0.0977517106549365;0;0;0;1;1;1;1;4;0;0;;0;0;();();(-2000.0, -2000.0);
11:01:05:911;11:01:05:899;1448057823.39;(0.5313649654388428, 0.6531694836086697);69.0687789917;1.0;11:01:05:911;0;9;-1.1;1;0.0977517106549365;0;0;0;1;1;1;1;4;0;0;;0;0;();();(-2000.0, -2000.0);
11:01:05:928;11:01:05:899;1448057823.39;(0.5313649654388428, 0.6531694836086697);69.0687789917;1.0;11:01:05:928;0;9;-1.1;1;0.0977517106549365;0;0;0;1;1;1;1;4;0;0;;0;0;();();(-2000.0, -2000.0);
11:01:05:945;11:01:05:899;1448057823.39;(0.5313649654388428, 0.6531694836086697);69.0687789917;1.0;11:01:05:945;0;9;-1.1;1;0.0977517106549365;0;0;0;1;1;1;1;4;0;0;;0;0;();();(-2000.0, -2000.0);
11:01:05:961;11:01:05:954;1448057823.42;(0.5346343994140625, 0.6468814425998264);68.3880767822;0.999246348773;11:01:05:961;0;9;-1.1;1;0.0977517106549365;0;0;0;1;1;1;1;4;0;0;;0;0;();();(-2000.0, -2000.0);
11:01:05:977;11:01:05:954;1448057823.42;(0.5346343994140625, 0.6468814425998264);68.3880767822;0.999246348773;11:01:05:977;0;5;-1.17096774193548;1;0.0977517106549365;0;0;0;1;0;1;1;4;0;0;;0;0;();();(-2000.0, -2000.0);
11:01:06:011;11:01:05:954;1448057823.42;(0.5346343994140625, 0.6468814425998264);68.3880767822;0.999246348773;11:01:06:011;0;11;-1.5;1;0.0977517106549365;0;0;0;1;0;1;1;4;0;0;;0;0;();();(-2000.0, -2000.0);
11:01:06:028;11:01:06:014;1448057823.49;(0.5346857070922851, 0.6473712497287326);68.8315505981;1.0;11:01:06:028;0;0;-1.38387096774194;1;0.0977517106549365;0;0;0;1;0;1;1;4;0;0;;0;0;();();(-2000.0, -2000.0);
11:01:06:044;11:01:06:014;1448057823.49;(0.5346857070922851, 0.6473712497287326);68.8315505981;1.0;11:01:06:044;0;0;-1.38387096774194;1;0.0977517106549365;0;0;0;1;0;1;1;4;0;0;;0;0;();();(-2000.0, -2000.0);
11:01:06:060;11:01:06:014;1448057823.49;(0.5346857070922851, 0.6473712497287326);68.8315505981;1.0;11:01:06:060;0;4;1.34193548387097;1;0.0977517106549365;0;0;0;1;0;1;1;4;0;0;;0;0;();();(-2000.0, -2000.0);
11:01:06:077;11:01:06:071;1448057823.55;(0.5346249103546142, 0.6472080654568142);69.1125411987;1.0;11:01:06:077;0;9;0.874193548387097;1;0.0977517106549365;0;0;0;1;0;1;1;4;0;0;;0;0;();();(-2000.0, -2000.0);
11:01:06:111;11:01:06:071;1448057823.55;(0.5346249103546142, 0.6472080654568142);69.1125411987;1.0;11:01:06:111;0;10;-1.5;1;0.0977517106549365;0;0;0;1;1;1;1;4;0;0;;0;0;();();(-2000.0, -2000.0);
11:01:06:127;11:01:06:071;1448057823.55;(0.5346249103546142, 0.6472080654568142);69.1125411987;1.0;11:01:06:127;0;15;1.77741935483871;1;0.0977517106549365;0;0;0;1;1;1;1;4;0;0;;0;0;();();(-2000.0, -2000.0);
11:01:06:143;11:01:06:130;1448057823.62;(0.5349213123321533, 0.6471261766221788);68.6473846436;1.0;11:01:06:143;0;10;1.76129032258065;1;0.0977517106549365;0;0;0;1;1;1;1;4;0;0;;0;0;();();(-2000.0, -2000.0);
11:01:06:160;11:01:06:130;1448057823.62;(0.5349213123321533, 0.6471261766221788);68.6473846436;1.0;11:01:06:160;0;4;1.78064516129032;1;0.0977517106549365;0;0;0;1;1;1;1;4;0;0;;0;0;();();(-2000.0, -2000.0);
11:01:06:177;11:01:06:130;1448057823.62;(0.5349213123321533, 0.6471261766221788);68.6473846436;1.0;11:01:06:177;0;9;1.78064516129032;1;0.0977517106549365;0;0;0;1;1;1;1;4;0;0;;0;0;();();(-2000.0, -2000.0);
11:01:06:210;11:01:06:186;1448057823.69;(0.5353206157684326, 0.6473226547241211);68.6032485962;1.0;11:01:06:210;0;4;-1.5;1;0.0977517106549365;0;0;0;1;1;1;1;4;0;0;;0;0;();();(-2000.0, -2000.0);
11:01:06:226;11:01:06:186;1448057823.69;(0.5353206157684326, 0.6473226547241211);68.6032485962;1.0;11:01:06:226;0;4;-1.5;1;0.0977517106549365;0;0;0;1;1;1;1;4;0;0;;0;0;();();(-2000.0, -2000.0);
11:01:06:243;11:01:06:186;1448057823.69;(0.5353206157684326, 0.6473226547241211);68.6032485962;1.0;11:01:06:243;0;9;-1.5;1;0.0977517106549365;0;0;0;1;0;1;1;4;0;0;;0;0;();();(-2000.0, -2000.0);
11:01:06:259;11:01:06:246;1448057823.72;(0.5354557514190674, 0.6472101635403104);68.6760864258;1.0;11:01:06:259;0;0;1.78064516129032;1;0.0977517106549365;0;0;0;1;0;1;1;4;0;0;;0;0;();();(-2000.0, -2000.0);
11:01:06:275;11:01:06:246;1448057823.72;(0.5354557514190674, 0.6472101635403104);68.6760864258;1.0;11:01:06:275;0;4;1.78064516129032;1;0.0977517106549365;0;0;0;1;0;1;1;4;0;0;;0;0;();();(-2000.0, -2000.0);
11:01:06:309;11:01:06:304;1448057823.79;(0.5360506057739258, 0.6465754614935981);68.190322876;1.0;11:01:06:309;0;4;1.78064516129032;1;0.0977517106549365;0;0;0;1;0;1;1;4;0;0;;0;0;();();(-2000.0, -2000.0);
11:01:06:326;11:01:06:304;1448057823.79;(0.5360506057739258, 0.6465754614935981);68.190322876;1.0;11:01:06:326;0;9;-1.5;1;0.0977517106549365;0;0;0;1;0;1;1;4;0;0;;0;0;();();(-2000.0, -2000.0);
11:01:06:342;11:01:06:304;1448057823.79;(0.5360506057739258, 0.6465754614935981);68.190322876;1.0;11:01:06:342;0;5;-1.5;1;0.0977517106549365;0;0;0;1;0;1;1;4;0;0;;0;0;();();(-2000.0, -2000.0);
11:01:06:359;11:01:06:304;1448057823.79;(0.5360506057739258, 0.6465754614935981);68.190322876;1.0;11:01:06:359;0;10;-1.5;1;0.0977517106549365;0;0;0;1;0;1;1;4;0;0;;0;0;();();(-2000.0, -2000.0);
11:01:06:375;11:01:06:304;1448057823.79;(0.5360506057739258, 0.6465754614935981);68.190322876;1.0;11:01:06:375;0;4;-1.5;1;0.0977517106549365;0;0;0;1;0;1;1;4;0;0;;0;0;();();(-2000.0, -2000.0);
11:01:06:409;11:01:06:304;1448057823.79;(0.5360506057739258, 0.6465754614935981);68.190322876;1.0;11:01:06:409;0;4;-1.5;1;0.0977517106549365;0;0;0;1;1;1;1;4;0;0;;0;0;();();(-2000.0, -2000.0);
11:01:06:426;11:01:06:304;1448057823.79;(0.5360506057739258, 0.6465754614935981);68.190322876;1.0;11:01:06:426;0;10;-1.5;1;0.0977517106549365;0;0;0;1;1;1;1;4;0;0;;0;0;();();(-2000.0, -2000.0);
11:01:06:442;11:01:06:304;1448057823.79;(0.5360506057739258, 0.6465754614935981);68.190322876;1.0;11:01:06:442;0;5;-1.5;1;0.0977517106549365;0;0;0;1;1;1;1;4;0;0;;0;0;();();(-2000.0, -2000.0);
11:01:06:458;11:01:06:304;1448057823.79;(0.5360506057739258, 0.6465754614935981);68.190322876;1.0;11:01:06:458;0;10;-1.5;1;0.0977517106549365;0;0;0;1;1;1;1;4;0;0;;0;0;();();(-2000.0, -2000.0);
11:01:06:491;11:01:06:478;1448057823.82;(0.528822660446167, 0.6506885952419705);67.5273895264;1.0;11:01:06:491;0;9;-1.5;1;0.0977517106549365;0;0;0;1;1;1;1;4;0;0;;0;0;();();(-2000.0, -2000.0);
11:01:06:508;11:01:06:478;1448057823.82;(0.528822660446167, 0.6506885952419705);67.5273895264;1.0;11:01:06:508;0;11;-1.5;1;0.0977517106549365;0;0;0;1;1;1;1;4;0;0;;0;0;();();(-2000.0, -2000.0);
11:01:06:524;11:01:06:478;1448057823.82;(0.528822660446167, 0.6506885952419705);67.5273895264;1.0;11:01:06:524;0;15;-1.5;1;0.293255131964809;0;0;0;1;1;1;1;4;0;0;;0;0;();();(-2000.0, -2000.0);
11:01:06:545;11:01:06:539;1448057824.02;(0.5274690151214599, 0.6530703862508138);67.5021209717;1.0;11:01:06:541;0;4;-1.5;1;0.0977517106549365;0;0;0;1;0;1;1;4;0;0;;0;0;();();(-2000.0, -2000.0);
11:01:06:557;11:01:06:539;1448057824.02;(0.5274690151214599, 0.6530703862508138);67.5021209717;1.0;11:01:06:557;0;15;-1.5;1;0.0977517106549365;0;0;0;1;0;1;1;4;0;0;;0;0;();();(-2000.0, -2000.0);
11:01:06:591;11:01:06:539;1448057824.02;(0.5274690151214599, 0.6530703862508138);67.5021209717;1.0;11:01:06:591;0;15;-1.5;1;0.0977517106549365;0;0;0;1;0;1;1;4;0;0;;0;0;();();(-2000.0, -2000.0);
11:01:06:608;11:01:06:594;1448057824.09;(0.52772536277771, 0.6529235415988498);68.0305404663;1.0;11:01:06:608;0;9;-1.5;1;0.0977517106549365;0;0;0;1;0;1;1;4;0;0;;0;0;();();(-2000.0, -2000.0);
11:01:06:625;11:01:06:594;1448057824.09;(0.52772536277771, 0.6529235415988498);68.0305404663;1.0;11:01:06:625;0;0;-1.5;1;0.0977517106549365;0;0;0;1;0;1;1;4;0;0;;0;0;();();(-2000.0, -2000.0);
11:01:06:640;11:01:06:594;1448057824.09;(0.52772536277771, 0.6529235415988498);68.0305404663;1.0;11:01:06:640;0;3;-1.5;1;0.293255131964809;0;0;0;1;0;1;1;4;0;0;;0;0;();();(-2000.0, -2000.0);
11:01:06:657;11:01:06:654;1448057824.15;(0.5279488086700439, 0.6528989368014866);67.4623260498;1.0;11:01:06:657;0;9;-1.5;1;0.0977517106549365;0;0;0;1;0;1;1;4;0;0;;0;0;();();(-2000.0, -2000.0);
11:01:06:690;11:01:06:654;1448057824.15;(0.5279488086700439, 0.6528989368014866);67.4623260498;1.0;11:01:06:690;0;10;1.77741935483871;1;0.0977517106549365;0;0;0;1;0;1;1;4;0;0;;0;0;();();(-2000.0, -2000.0);
11:01:06:707;11:01:06:654;1448057824.15;(0.5279488086700439, 0.6528989368014866);67.4623260498;1.0;11:01:06:707;0;15;1.78064516129032;1;0.0977517106549365;0;0;0;1;1;1;1;4;0;0;;0;0;();();(-2000.0, -2000.0);
11:01:06:723;11:01:06:710;1448057824.19;(0.5279698848724366, 0.6529047648111979);67.6675720215;1.0;11:01:06:723;0;4;1.77741935483871;1;0.0977517106549365;0;0;0;1;1;1;1;4;0;0;;0;0;();();(-2000.0, -2000.0);
11:01:06:740;11:01:06:710;1448057824.19;(0.5279698848724366, 0.6529047648111979);67.6675720215;1.0;11:01:06:740;0;4;1.77741935483871;1;0.0977517106549365;0;0;0;1;1;1;1;4;0;0;;0;0;();();(-2000.0, -2000.0);
11:01:06:757;11:01:06:710;1448057824.19;(0.5279698848724366, 0.6529047648111979);67.6675720215;1.0;11:01:06:757;0;0;1.77741935483871;1;0.0977517106549365;0;0;0;1;1;1;1;4;0;0;;0;0;();();(-2000.0, -2000.0);
11:01:06:790;11:01:06:775;1448057824.25;(0.5279722690582276, 0.6534056345621745);67.4511642456;1.0;11:01:06:790;0;4;1.78064516129032;1;0.0977517106549365;0;0;0;1;1;1;1;4;0;0;;0;0;();();(-2000.0, -2000.0);
11:01:06:806;11:01:06:775;1448057824.25;(0.5279722690582276, 0.6534056345621745);67.4511642456;1.0;11:01:06:806;0;15;1.78064516129032;1;0.0977517106549365;0;0;0;1;1;1;1;4;0;0;;0;0;();();(-2000.0, -2000.0);
11:01:06:823;11:01:06:775;1448057824.25;(0.5279722690582276, 0.6534056345621745);67.4511642456;1.0;11:01:06:823;0;5;1.77741935483871;1;0.0977517106549365;0;0;0;1;1;1;1;4;0;0;;0;0;();();(-2000.0, -2000.0);
11:01:06:839;11:01:06:826;1448057824.32;(0.5280378341674805, 0.6529787911309136);67.5349960327;1.0;11:01:06:839;0;10;1.78064516129032;1;0.0977517106549365;0;0;0;1;0;1;1;4;0;0;;0;0;();();(-2000.0, -2000.0);
11:01:06:855;11:01:06:826;1448057824.32;(0.5280378341674805, 0.6529787911309136);67.5349960327;1.0;11:01:06:855;0;4;1.77741935483871;1;0.0977517106549365;0;0;0;1;0;1;1;4;0;0;;0;0;();();(-2000.0, -2000.0);
11:01:06:889;11:01:06:887;1448057824.35;(0.5294279098510742, 0.6523470984564887);67.9512252808;0.950277657982;11:01:06:889;0;4;1.78064516129032;1;0.0977517106549365;0;0;0;1;0;1;1;4;0;0;;0;0;();();(-2000.0, -2000.0);
11:01:06:905;11:01:06:887;1448057824.35;(0.5294279098510742, 0.6523470984564887);67.9512252808;0.950277657982;11:01:06:905;0;9;1.78064516129032;1;0.0977517106549365;0;0;0;1;0;1;1;4;0;0;;0;0;();();(-2000.0, -2000.0);
11:01:06:922;11:01:06:887;1448057824.35;(0.5294279098510742, 0.6523470984564887);67.9512252808;0.950277657982;11:01:06:922;0;5;1.78064516129032;1;0.0977517106549365;0;0;0;1;0;1;1;4;0;0;;0;0;();();(-2000.0, -2000.0);
11:01:06:939;11:01:06:887;1448057824.35;(0.5294279098510742, 0.6523470984564887);67.9512252808;0.950277657982;11:01:06:939;0;10;1.78064516129032;1;0.0977517106549365;0;0;0;1;0;1;1;4;0;0;;0;0;();();(-2000.0, -2000.0);
11:01:06:956;11:01:06:942;1448057824.39;(0.5389358520507812, 0.6463545693291558);67.0001296997;1.0;11:01:06:956;0;4;1.78064516129032;1;0.0977517106549365;0;0;0;1;0;1;1;4;0;0;;0;0;();();(-2000.0, -2000.0);
11:01:06:989;11:01:06:942;1448057824.39;(0.5389358520507812, 0.6463545693291558);67.0001296997;1.0;11:01:06:989;0;5;1.77741935483871;1;0.0977517106549365;0;0;0;1;0;1;1;4;0;0;;0;0;();();(-2000.0, -2000.0);
11:01:07:005;11:01:07:002;1448057824.49;(0.5387719154357911, 0.6470177544487847);67.7879638672;1.0;11:01:07:005;0;10;1.78064516129032;1;0.0977517106549365;0;0;0;1;0;1;1;4;0;0;;0;0;();();(-2000.0, -2000.0);
11:01:07:021;11:01:07:002;1448057824.49;(0.5387719154357911, 0.6470177544487847);67.7879638672;1.0;11:01:07:021;0;11;1.78064516129032;1;0.293255131964809;0;0;0;1;0;1;1;4;0;0;;0;0;();();(-2000.0, -2000.0);
11:01:07:038;11:01:07:002;1448057824.49;(0.5387719154357911, 0.6470177544487847);67.7879638672;1.0;11:01:07:038;0;9;1.78064516129032;1;0.0977517106549365;0;0;0;1;0;1;1;4;0;0;;0;0;();();(-2000.0, -2000.0);
11:01:07:072;11:01:07:059;1448057824.52;(0.5384820938110352, 0.6477366341484918);67.9259719849;1.0;11:01:07:072;0;10;1.77741935483871;1;0.0977517106549365;0;0;0;1;0;1;1;4;0;0;;0;0;();();(-2000.0, -2000.0);
11:01:07:088;11:01:07:059;1448057824.52;(0.5384820938110352, 0.6477366341484918);67.9259719849;1.0;11:01:07:088;0;15;1.77741935483871;1;0.0977517106549365;0;0;0;1;0;1;1;4;0;0;;0;0;();();(-2000.0, -2000.0);
11:01:07:104;11:01:07:059;1448057824.52;(0.5384820938110352, 0.6477366341484918);67.9259719849;1.0;11:01:07:104;0;9;1.79032258064516;1;0.0977517106549365;0;0;0;1;0;1;1;4;0;0;;0;0;();();(-2000.0, -2000.0);
11:01:07:121;11:01:07:119;1448057824.59;(0.5384919166564941, 0.6476561228434246);67.8775939941;1.0;11:01:07:121;0;15;1.78064516129032;1;0.0977517106549365;0;0;0;1;0;1;1;4;0;0;;0;0;();();(-2000.0, -2000.0);
11:01:07:137;11:01:07:119;1448057824.59;(0.5384919166564941, 0.6476561228434246);67.8775939941;1.0;11:01:07:137;0;5;-1.5;1;0.0977517106549365;0;0;0;1;0;1;1;4;0;0;;0;0;();();(-2000.0, -2000.0);
11:01:07:170;11:01:07:119;1448057824.59;(0.5384919166564941, 0.6476561228434246);67.8775939941;1.0;11:01:07:170;0;4;1.77741935483871;1;0.0977517106549365;0;0;0;1;0;1;1;4;0;0;;0;0;();();(-2000.0, -2000.0);
11:01:07:187;11:01:07:174;1448057824.65;(0.5383537292480469, 0.6477301279703775);67.8410415649;1.0;11:01:07:187;0;15;1.0258064516129;1;0.0977517106549365;0;0;0;1;0;1;1;4;0;0;;0;0;();();(-2000.0, -2000.0);
11:01:07:203;11:01:07:174;1448057824.65;(0.5383537292480469, 0.6477301279703775);67.8410415649;1.0;11:01:07:203;0;4;-1.5;1;0.0977517106549365;0;0;0;1;0;1;1;4;0;0;;0;0;();();(-2000.0, -2000.0);
11:01:07:220;11:01:07:174;1448057824.65;(0.5383537292480469, 0.6477301279703775);67.8410415649;1.0;11:01:07:220;0;0;-1.5;1;0.0977517106549365;0;0;0;1;0;1;1;4;0;0;;0;0;();();(-2000.0, -2000.0);
11:01:07:237;11:01:07:234;1448057824.72;(0.5366923332214355, 0.6474241044786242);68.1427536011;0.976101463484;11:01:07:237;0;0;-1.5;1;0.0977517106549365;0;0;0;1;0;1;1;4;0;0;;0;0;();();(-2000.0, -2000.0);
11:01:07:270;11:01:07:234;1448057824.72;(0.5366923332214355, 0.6474241044786242);68.1427536011;0.976101463484;11:01:07:270;0;4;-1.5;1;0.0977517106549365;0;0;0;1;0;1;1;4;0;0;;0;0;();();(-2000.0, -2000.0);
11:01:07:287;11:01:07:234;1448057824.72;(0.5366923332214355, 0.6474241044786242);68.1427536011;0.976101463484;11:01:07:287;0;15;-1.5;1;0.0977517106549365;0;0;0;1;0;1;1;4;0;0;;0;0;();();(-2000.0, -2000.0);
11:01:07:303;11:01:07:291;1448057824.79;(0.536212158203125, 0.6474673800998264);68.4482955933;1.0;11:01:07:303;0;5;-1.5;1;0.0977517106549365;0;0;0;1;0;1;1;4;0;0;;0;0;();();(-2000.0, -2000.0);
11:01:07:320;11:01:07:291;1448057824.79;(0.536212158203125, 0.6474673800998264);68.4482955933;1.0;11:01:07:320;0;15;-1.5;1;0.0977517106549365;0;0;0;1;0;1;1;4;0;0;;0;0;();();(-2000.0, -2000.0);
11:01:07:337;11:01:07:291;1448057824.79;(0.536212158203125, 0.6474673800998264);68.4482955933;1.0;11:01:07:337;0;4;-1.5;1;0.0977517106549365;0;0;0;1;0;1;1;4;0;0;;0;0;();();(-2000.0, -2000.0);
11:01:07:356;11:01:07:350;1448057824.82;(0.5361305713653565, 0.6475557327270508);68.5741271973;1.0;11:01:07:356;0;1;-1.5;1;0.293255131964809;0;0;0;1;0;1;1;4;0;0;;0;0;();();(-2000.0, -2000.0);
11:01:07:387;11:01:07:350;1448057824.82;(0.5361305713653565, 0.6475557327270508);68.5741271973;1.0;11:01:07:387;0;10;-1.5;1;0.0977517106549365;0;0;0;1;0;1;1;4;0;0;;0;0;();();(-2000.0, -2000.0);
11:01:07:403;11:01:07:350;1448057824.82;(0.5361305713653565, 0.6475557327270508);68.5741271973;1.0;11:01:07:403;0;5;-1.5;1;0.0977517106549365;0;0;0;1;0;1;1;4;0;0;;0;0;();();(-2000.0, -2000.0);
11:01:07:419;11:01:07:407;1448057824.89;(0.5299367427825927, 0.6491146511501736);69.1902999878;1.0;11:01:07:419;0;15;-1.5;1;0.0977517106549365;0;0;0;1;0;1;1;4;0;0;;0;0;();();(-2000.0, -2000.0);
11:01:07:436;11:01:07:407;1448057824.89;(0.5299367427825927, 0.6491146511501736);69.1902999878;1.0;11:01:07:436;0;9;-1.5;1;0.0977517106549365;0;0;0;1;0;1;1;4;0;0;;0;0;();();(-2000.0, -2000.0);
11:01:07:469;11:01:07:467;1448057824.95;(0.5298318862915039, 0.6498767217000325);68.664352417;1.0;11:01:07:469;0;5;-1.5;1;0.0977517106549365;0;0;0;1;0;1;1;4;0;0;;0;0;();();(-2000.0, -2000.0);
11:01:07:485;11:01:07:467;1448057824.95;(0.5298318862915039, 0.6498767217000325);68.664352417;1.0;11:01:07:485;0;12;-1.5;1;0.0977517106549365;0;0;0;1;0;1;1;4;0;0;;0;0;();();(-2000.0, -2000.0);
11:01:07:502;11:01:07:467;1448057824.95;(0.5298318862915039, 0.6498767217000325);68.664352417;1.0;11:01:07:501;0;11;-1.5;1;0.0977517106549365;0;0;0;1;0;1;1;4;0;0;;0;0;();();(-2000.0, -2000.0);
11:01:07:518;11:01:07:467;1448057824.95;(0.5298318862915039, 0.6498767217000325);68.664352417;1.0;11:01:07:518;0;9;-1.5;1;0.0977517106549365;0;0;0;1;1;1;1;4;0;0;;0;0;();();(-2000.0, -2000.0);
11:01:07:535;11:01:07:522;1448057824.99;(0.5302319526672363, 0.6499810112847222);68.3746643066;1.0;11:01:07:535;0;0;-1.5;1;0.0977517106549365;0;0;0;1;1;1;1;4;0;0;;0;0;();();(-2000.0, -2000.0);
11:01:07:568;11:01:07:522;1448057824.99;(0.5302319526672363, 0.6499810112847222);68.3746643066;1.0;11:01:07:568;0;5;-1.5;1;0.0977517106549365;0;0;0;1;1;1;1;4;0;0;;0;0;();();(-2000.0, -2000.0);
11:01:07:585;11:01:07:582;1448057825.05;(0.5301180362701416, 0.6499688042534721);68.5067443848;1.0;11:01:07:585;0;9;-1.5;1;0.0977517106549365;0;0;0;1;1;1;1;4;0;0;;0;0;();();(-2000.0, -2000.0);
11:01:07:601;11:01:07:582;1448057825.05;(0.5301180362701416, 0.6499688042534721);68.5067443848;1.0;11:01:07:601;0;15;-1.5;1;0.0977517106549365;0;0;0;1;1;1;1;4;0;0;;0;0;();();(-2000.0, -2000.0);
11:01:07:618;11:01:07:582;1448057825.05;(0.5301180362701416, 0.6499688042534721);68.5067443848;1.0;11:01:07:618;0;4;-1.5;1;0.0977517106549365;0;0;0;1;1;1;1;4;0;0;;0;0;();();(-2000.0, -2000.0);
11:01:07:651;11:01:07:639;1448057825.12;(0.5303671360015869, 0.6501551946004231);68.4241867065;1.0;11:01:07:651;0;4;-1.5;1;0.0977517106549365;0;0;0;1;1;1;1;4;0;0;;0;0;();();(-2000.0, -2000.0);
11:01:07:667;11:01:07:639;1448057825.12;(0.5303671360015869, 0.6501551946004231);68.4241867065;1.0;11:01:07:667;0;15;-1.5;1;0.0977517106549365;0;0;0;1;1;1;1;4;0;0;;0;0;();();(-2000.0, -2000.0);
11:01:07:684;11:01:07:639;1448057825.12;(0.5303671360015869, 0.6501551946004231);68.4241867065;1.0;11:01:07:684;0;10;-1.5;1;0.0977517106549365;0;0;0;1;0;1;1;4;0;0;;0;0;();();(-2000.0, -2000.0);
11:01:07:700;11:01:07:639;1448057825.12;(0.5303671360015869, 0.6501551946004231);68.4241867065;1.0;11:01:07:700;0;0;-1.5;1;0.0977517106549365;0;0;0;1;0;1;1;4;0;0;;0;0;();();(-2000.0, -2000.0);
11:01:07:718;11:01:07:703;1448057825.19;(0.5301709175109863, 0.6506540298461914);68.7217025757;1.0;11:01:07:718;0;9;-1.5;1;0.0977517106549365;0;0;0;1;0;1;1;4;0;0;;0;0;();();(-2000.0, -2000.0);
11:01:07:759;11:01:07:755;1448057825.22;(0.5302258968353272, 0.6502662658691406);68.7760620117;1.0;11:01:07:759;0;15;-1.5;1;0.0977517106549365;0;0;0;1;0;1;1;6;0;0;;0;0;();();(-2000.0, -2000.0);
11:01:07:773;11:01:07:755;1448057825.22;(0.5302258968353272, 0.6502662658691406);68.7760620117;1.0;11:01:07:773;0;9;-1.5;1;0.0977517106549365;0;0;0;1;0;1;1;6;0;0;;0;0;();();(-2000.0, -2000.0);
11:01:07:789;11:01:07:755;1448057825.22;(0.5302258968353272, 0.6502662658691406);68.7760620117;1.0;11:01:07:789;0;5;-1.5;1;0.0977517106549365;0;0;0;1;0;1;1;6;0;0;;0;0;();();(-2000.0, -2000.0);
11:01:07:806;11:01:07:755;1448057825.22;(0.5302258968353272, 0.6502662658691406);68.7760620117;1.0;11:01:07:806;0;10;-1.5;1;0.0977517106549365;0;0;0;1;1;1;1;6;0;0;;0;0;();();(-2000.0, -2000.0);
11:01:07:822;11:01:07:815;1448057825.29;(0.5302712440490722, 0.6508107715182834);68.4583358765;1.0;11:01:07:822;0;4;-1.5;1;0.293255131964809;0;0;0;1;1;1;1;6;0;0;;0;0;();();(-2000.0, -2000.0);
11:01:07:839;11:01:07:815;1448057825.29;(0.5302712440490722, 0.6508107715182834);68.4583358765;1.0;11:01:07:839;0;9;-1.5;1;0.0977517106549365;0;0;0;1;1;1;1;6;0;0;;0;0;();();(-2000.0, -2000.0);
11:01:07:856;11:01:07:815;1448057825.29;(0.5302712440490722, 0.6508107715182834);68.4583358765;1.0;11:01:07:856;0;4;-1.5;1;0.0977517106549365;0;0;0;1;1;1;1;6;0;0;;0;0;();();(-2000.0, -2000.0);
11:01:07:888;11:01:07:875;1448057825.35;(0.5313815116882324, 0.6492730882432726);68.7443466187;1.0;11:01:07:888;0;4;-1.5;1;0.0977517106549365;0;0;0;1;1;1;1;6;0;0;;0;0;();();(-2000.0, -2000.0);
11:01:07:906;11:01:07:875;1448057825.35;(0.5313815116882324, 0.6492730882432726);68.7443466187;1.0;11:01:07:906;0;10;-1.5;1;0.0977517106549365;0;0;0;1;1;1;1;6;0;0;;0;0;();();(-2000.0, -2000.0);
11:01:07:922;11:01:07:875;1448057825.35;(0.5313815116882324, 0.6492730882432726);68.7443466187;1.0;11:01:07:922;0;15;-1.5;1;0.0977517106549365;0;0;0;1;0;1;1;6;0;0;;0;0;();();(-2000.0, -2000.0);
11:01:07:938;11:01:07:930;1448057825.42;(0.5314925670623779, 0.6492750803629557);68.3095779419;1.0;11:01:07:938;0;11;-1.5;1;0.0977517106549365;0;0;0;1;0;1;1;6;0;0;;0;0;();();(-2000.0, -2000.0);
11:01:07:955;11:01:07:930;1448057825.42;(0.5314925670623779, 0.6492750803629557);68.3095779419;1.0;11:01:07:955;0;15;-1.5;1;0.0977517106549365;0;0;0;1;0;1;1;6;0;0;;0;0;();();(-2000.0, -2000.0);
11:01:07:988;11:01:07:930;1448057825.42;(0.5314925670623779, 0.6492750803629557);68.3095779419;1.0;11:01:07:988;0;15;-1.5;1;0.0977517106549365;0;0;0;1;0;1;1;6;0;0;;0;0;();();(-2000.0, -2000.0);
11:01:08:005;11:01:07:990;1448057825.49;(0.5314066410064697, 0.6492568545871311);68.2911987305;1.0;11:01:08:005;0;4;-1.5;1;0.0977517106549365;0;0;0;1;0;1;1;6;0;0;;0;0;();();(-2000.0, -2000.0);
11:01:08:022;11:01:07:990;1448057825.49;(0.5314066410064697, 0.6492568545871311);68.2911987305;1.0;11:01:08:022;0;10;-1.5;1;0.0977517106549365;0;0;0;1;0;1;1;6;0;0;;0;0;();();(-2000.0, -2000.0);
11:01:08:038;11:01:07:990;1448057825.49;(0.5314066410064697, 0.6492568545871311);68.2911987305;1.0;11:01:08:038;0;4;-1.5;1;0.0977517106549365;0;0;0;1;0;1;1;6;0;0;;0;0;();();(-2000.0, -2000.0);
11:01:08:071;11:01:08:046;1448057825.52;(0.5315850257873536, 0.6495693630642361);68.158416748;1.0;11:01:08:071;0;4;1.79032258064516;1;0.0977517106549365;0;0;0;1;1;1;1;6;0;0;;0;0;();();(-2000.0, -2000.0);
11:01:08:088;11:01:08:046;1448057825.52;(0.5315850257873536, 0.6495693630642361);68.158416748;1.0;11:01:08:088;0;15;1.66774193548387;1;0.293255131964809;0;0;0;1;1;1;1;6;0;0;;0;0;();();(-2000.0, -2000.0);
11:01:08:104;11:01:08:046;1448057825.52;(0.5315850257873536, 0.6495693630642361);68.158416748;1.0;11:01:08:104;0;5;-1.5;1;0.0977517106549365;0;0;0;1;1;1;1;6;0;0;;0;0;();();(-2000.0, -2000.0);
11:01:08:121;11:01:08:106;1448057825.59;(0.5317163944244385, 0.649350102742513);67.9082565308;1.0;11:01:08:121;0;10;-1.5;1;0.0977517106549365;0;0;0;1;1;1;1;6;0;0;;0;0;();();(-2000.0, -2000.0);
11:01:08:137;11:01:08:106;1448057825.59;(0.5317163944244385, 0.649350102742513);67.9082565308;1.0;11:01:08:137;0;4;-1.5;1;0.0977517106549365;0;0;0;1;1;1;1;6;0;0;;0;0;();();(-2000.0, -2000.0);
11:01:08:170;11:01:08:163;1448057825.65;(0.5321398258209229, 0.6492136425442165);68.0151367188;1.0;11:01:08:170;0;4;-1.5;1;0.0977517106549365;0;0;0;1;1;1;1;6;0;0;;0;0;();();(-2000.0, -2000.0);
11:01:08:187;11:01:08:163;1448057825.65;(0.5321398258209229, 0.6492136425442165);68.0151367188;1.0;11:01:08:187;0;10;-1.5;1;0.0977517106549365;0;0;0;1;0;1;1;6;0;0;;0;0;();();(-2000.0, -2000.0);
11:01:08:204;11:01:08:163;1448057825.65;(0.5321398258209229, 0.6492136425442165);68.0151367188;1.0;11:01:08:204;0;15;-1.14516129032258;1;0.0977517106549365;0;0;0;1;0;1;1;6;0;0;;0;0;();();(-2000.0, -2000.0);
11:01:08:220;11:01:08:163;1448057825.65;(0.5321398258209229, 0.6492136425442165);68.0151367188;1.0;11:01:08:220;0;10;1.77741935483871;1;0.0977517106549365;0;0;0;1;0;1;1;6;0;0;;0;0;();();(-2000.0, -2000.0);
11:01:08:237;11:01:08:223;1448057825.69;(0.5319798469543457, 0.6489237043592665);67.683921814;1.0;11:01:08:237;0;15;1.77741935483871;1;0.0977517106549365;0;0;0;1;0;1;1;6;0;0;;0;0;();();(-2000.0, -2000.0);
11:01:08:270;11:01:08:223;1448057825.69;(0.5319798469543457, 0.6489237043592665);67.683921814;1.0;11:01:08:270;0;0;-1.5;1;0.0977517106549365;0;0;0;1;0;1;1;6;0;0;;0;0;();();(-2000.0, -2000.0);
11:01:08:287;11:01:08:279;1448057825.75;(0.5322919845581054, 0.6486683951483833);67.1588973999;1.0;11:01:08:287;0;10;-1.5;1;0.0977517106549365;0;0;0;1;0;1;1;6;0;0;;0;0;();();(-2000.0, -2000.0);
11:01:08:302;11:01:08:279;1448057825.75;(0.5322919845581054, 0.6486683951483833);67.1588973999;1.0;11:01:08:302;0;15;-1.5;1;0.0977517106549365;0;0;0;1;0;1;1;6;0;0;;0;0;();();(-2000.0, -2000.0);
11:01:08:319;11:01:08:279;1448057825.75;(0.5322919845581054, 0.6486683951483833);67.1588973999;1.0;11:01:08:319;0;10;-1.5;1;0.0977517106549365;0;0;0;1;0;1;1;6;0;0;;0;0;();();(-2000.0, -2000.0);
11:01:08:336;11:01:08:279;1448057825.75;(0.5322919845581054, 0.6486683951483833);67.1588973999;1.0;11:01:08:336;0;4;-1.5;1;0.0977517106549365;0;0;0;1;0;1;1;6;0;0;;0;0;();();(-2000.0, -2000.0);
11:01:08:370;11:01:08:338;1448057825.82;(0.5325459957122802, 0.6486912197536893);66.9524307251;1.0;11:01:08:370;0;15;-1.5;1;0.0977517106549365;0;0;0;1;1;1;1;6;0;0;;0;0;();();(-2000.0, -2000.0);
11:01:08:385;11:01:08:338;1448057825.82;(0.5325459957122802, 0.6486912197536893);66.9524307251;1.0;11:01:08:385;0;10;-1.5;1;0.0977517106549365;0;0;0;1;1;1;1;6;0;0;;0;0;();();(-2000.0, -2000.0);
11:01:08:402;11:01:08:397;1448057825.89;(0.5324284076690674, 0.6488023969862196);67.1329650879;1.0;11:01:08:402;0;15;-1.5;1;0.0977517106549365;0;0;0;1;1;1;1;6;0;0;;0;0;();();(-2000.0, -2000.0);
11:01:08:419;11:01:08:397;1448057825.89;(0.5324284076690674, 0.6488023969862196);67.1329650879;1.0;11:01:08:419;0;10;-1.5;1;0.0977517106549365;0;0;0;1;1;1;1;6;0;0;;0;0;();();(-2000.0, -2000.0);
11:01:08:436;11:01:08:397;1448057825.89;(0.5324284076690674, 0.6488023969862196);67.1329650879;1.0;11:01:08:436;0;5;-1.5;1;0.0977517106549365;0;0;0;1;1;1;1;6;0;0;;0;0;();();(-2000.0, -2000.0);
11:01:08:468;11:01:08:455;1448057825.95;(0.5326857089996337, 0.6484857135348849);66.75050354;1.0;11:01:08:468;0;9;-1.5;1;0.0977517106549365;0;0;0;1;0;1;1;6;0;0;;0;0;();();(-2000.0, -2000.0);
11:01:08:485;11:01:08:455;1448057825.95;(0.5326857089996337, 0.6484857135348849);66.75050354;1.0;11:01:08:485;0;4;-1.5;1;0.0977517106549365;0;0;0;1;0;1;1;6;0;0;;0;0;();();(-2000.0, -2000.0);
11:01:08:502;11:01:08:455;1448057825.95;(0.5326857089996337, 0.6484857135348849);66.75050354;1.0;11:01:08:502;0;0;-1.5;1;0.0977517106549365;0;0;0;1;0;1;1;6;0;0;;0;0;();();(-2000.0, -2000.0);
11:01:08:519;11:01:08:513;1448057825.99;(0.5328277587890625, 0.6483915752834744);67.1950531006;1.0;11:01:08:519;0;0;-1.5;1;0.0977517106549365;0;0;0;1;0;1;1;6;0;0;;0;0;();();(-2000.0, -2000.0);
11:01:08:551;11:01:08:513;1448057825.99;(0.5328277587890625, 0.6483915752834744);67.1950531006;1.0;11:01:08:551;0;4;-1.5;1;0.0977517106549365;0;0;0;1;0;1;1;6;0;0;;0;0;();();(-2000.0, -2000.0);
11:01:08:568;11:01:08:513;1448057825.99;(0.5328277587890625, 0.6483915752834744);67.1950531006;1.0;11:01:08:568;0;9;-1.5;1;0.0977517106549365;0;0;0;1;0;1;1;6;0;0;;0;0;();();(-2000.0, -2000.0);
11:01:08:584;11:01:08:570;1448057826.05;(0.5334068298339844, 0.6484753290812175);66.9141845703;1.0;11:01:08:584;0;5;-1.5;1;0.0977517106549365;0;0;0;1;0;1;1;6;0;0;;0;0;();();(-2000.0, -2000.0);
11:01:08:601;11:01:08:570;1448057826.05;(0.5334068298339844, 0.6484753290812175);66.9141845703;1.0;11:01:08:601;0;10;-1.5;1;0.0977517106549365;0;0;0;1;1;1;1;6;0;0;;0;0;();();(-2000.0, -2000.0);
11:01:08:618;11:01:08:570;1448057826.05;(0.5334068298339844, 0.6484753290812175);66.9141845703;1.0;11:01:08:618;0;15;-1.4;1;0.0977517106549365;0;0;0;1;1;1;1;6;0;0;;0;0;();();(-2000.0, -2000.0);
11:01:08:650;11:01:08:570;1448057826.05;(0.5334068298339844, 0.6484753290812175);66.9141845703;1.0;11:01:08:650;0;0;-1.24838709677419;1;0.0977517106549365;0;0;0;1;1;1;1;6;0;0;;0;0;();();(-2000.0, -2000.0);
11:01:08:667;11:01:08:570;1448057826.05;(0.5334068298339844, 0.6484753290812175);66.9141845703;1.0;11:01:08:667;0;10;1.78064516129032;1;0.0977517106549365;0;0;0;1;1;1;1;6;0;0;;0;0;();();(-2000.0, -2000.0);
11:01:08:684;11:01:08:570;1448057826.05;(0.5334068298339844, 0.6484753290812175);66.9141845703;1.0;11:01:08:684;0;5;1.78064516129032;1;0.0977517106549365;0;0;0;1;1;1;1;6;0;0;;0;0;();();(-2000.0, -2000.0);
11:01:08:701;11:01:08:686;1448057826.09;(0.5314231395721436, 0.6639552222357856);65.5975952148;0.907176150958;11:01:08:701;0;9;1.78064516129032;1;0.0977517106549365;0;0;0;1;1;1;1;6;0;0;;0;0;();();(-2000.0, -2000.0);
11:01:08:717;11:01:08:686;1448057826.09;(0.5314231395721436, 0.6639552222357856);65.5975952148;0.907176150958;11:01:08:717;0;15;1.77741935483871;1;0.0977517106549365;0;0;0;1;1;1;1;6;0;0;;0;0;();();(-2000.0, -2000.0);
11:01:08:750;11:01:08:742;1448057826.17;(0.3812767505645752, 0.7413911395602756);84.9905166626;0.64745286911;11:01:08:750;0;4;1.77741935483871;1;0.0977517106549365;0;0;0;1;1;1;1;6;0;0;;0;0;();();(-2000.0, -2000.0);
11:01:08:767;11:01:08:742;1448057826.17;(0.3812767505645752, 0.7413911395602756);84.9905166626;0.64745286911;11:01:08:767;0;10;-1.5;1;0.0977517106549365;0;0;0;1;1;1;1;6;0;0;;0;0;();();(-2000.0, -2000.0);
11:01:08:784;11:01:08:742;1448057826.17;(0.3812767505645752, 0.7413911395602756);84.9905166626;0.64745286911;11:01:08:784;0;4;-1.5;1;0.0977517106549365;0;0;0;1;1;1;1;6;0;0;;0;0;();();(-2000.0, -2000.0);
11:01:08:799;11:01:08:742;1448057826.17;(0.3812767505645752, 0.7413911395602756);84.9905166626;0.64745286911;11:01:08:799;0;9;-1.5;1;0.0977517106549365;0;0;0;1;1;1;1;6;0;0;;0;0;();();(-2000.0, -2000.0);
11:01:08:817;11:01:08:802;1448057826.29;(0.5443364143371582, 0.71523560418023);67.2108840942;0.995125272404;11:01:08:817;0;0;-1.5;1;0.0977517106549365;0;0;0;1;1;1;1;6;0;0;;0;0;();();(-2000.0, -2000.0);
11:01:08:849;11:01:08:802;1448057826.29;(0.5443364143371582, 0.71523560418023);67.2108840942;0.995125272404;11:01:08:849;0;5;-1.5;1;0.0977517106549365;0;0;0;1;1;1;1;6;0;0;;0;0;();();(-2000.0, -2000.0);
11:01:08:866;11:01:08:859;1448057826.32;(0.5455324172973632, 0.7143043518066406);68.5211868286;0.829271060337;11:01:08:866;0;10;1.76129032258065;1;0.0977517106549365;0;0;0;1;1;1;1;6;0;0;;0;0;();();(-2000.0, -2000.0);
11:01:08:883;11:01:08:859;1448057826.32;(0.5455324172973632, 0.7143043518066406);68.5211868286;0.829271060337;11:01:08:883;0;4;1.78064516129032;1;0.0977517106549365;0;0;0;1;1;1;1;6;0;0;;0;0;();();(-2000.0, -2000.0);
11:01:08:900;11:01:08:859;1448057826.32;(0.5455324172973632, 0.7143043518066406);68.5211868286;0.829271060337;11:01:08:900;0;15;1.78064516129032;1;0.0977517106549365;0;0;0;1;1;1;1;6;0;0;;0;0;();();(-2000.0, -2000.0);
11:01:08:917;11:01:08:859;1448057826.32;(0.5455324172973632, 0.7143043518066406);68.5211868286;0.829271060337;11:01:08:917;0;0;1.77741935483871;1;0.0977517106549365;0;0;0;1;1;1;1;6;0;0;;0;0;();();(-2000.0, -2000.0);
11:01:08:949;11:01:08:948;1448057826.39;(0.5470929145812988, 0.71198427412245);68.7605209351;0.919017635386;11:01:08:949;0;15;1.78064516129032;1;0.0977517106549365;0;0;0;1;1;1;1;6;0;0;;0;0;();();(-2000.0, -2000.0);
11:01:08:966;11:01:08:948;1448057826.39;(0.5470929145812988, 0.71198427412245);68.7605209351;0.919017635386;11:01:08:966;0;4;1.77741935483871;1;0.0977517106549365;0;0;0;1;1;1;1;6;0;0;;0;0;();();(-2000.0, -2000.0);
11:01:08:983;11:01:08:974;1448057826.42;(0.5478776931762696, 0.7079860475328233);68.0951461792;0.879276748991;11:01:08:983;0;10;1.78064516129032;1;0.0977517106549365;0;0;0;1;1;1;1;6;0;0;;0;0;();();(-2000.0, -2000.0);
11:01:08:999;11:01:08:974;1448057826.42;(0.5478776931762696, 0.7079860475328233);68.0951461792;0.879276748991;11:01:08:999;0;5;1.78064516129032;1;0.0977517106549365;0;0;0;1;1;1;1;6;0;0;;0;0;();();(-2000.0, -2000.0);
11:01:09:015;11:01:08:974;1448057826.42;(0.5478776931762696, 0.7079860475328233);68.0951461792;0.879276748991;11:01:09:015;0;10;1.78064516129032;1;0.0977517106549365;0;0;0;1;1;1;1;6;0;0;;0;0;();();(-2000.0, -2000.0);
11:01:09:049;11:01:09:038;1448057826.49;(0.5479369163513184, 0.7120688332451715);67.4511413574;0.926896660151;11:01:09:049;0;15;1.77741935483871;1;0.0977517106549365;0;0;0;1;1;1;1;6;0;0;;0;0;();();(-2000.0, -2000.0);
11:01:09:065;11:01:09:038;1448057826.49;(0.5479369163513184, 0.7120688332451715);67.4511413574;0.926896660151;11:01:09:065;0;5;-1.5;1;0.0977517106549365;0;0;0;1;1;1;1;6;0;0;;0;0;();();(-2000.0, -2000.0);
11:01:09:081;11:01:09:038;1448057826.49;(0.5479369163513184, 0.7120688332451715);67.4511413574;0.926896660151;11:01:09:081;0;15;1.79032258064516;1;0.0977517106549365;0;0;0;1;1;1;1;6;0;0;;0;0;();();(-2000.0, -2000.0);
11:01:09:098;11:01:09:091;1448057826.55;(0.5467243194580078, 0.7098436991373698);68.1533889771;0.824443071652;11:01:09:098;0;15;1.79032258064516;1;0.0977517106549365;0;0;0;1;1;1;1;6;0;0;;0;0;();();(-2000.0, -2000.0);
11:01:09:131;11:01:09:091;1448057826.55;(0.5467243194580078, 0.7098436991373698);68.1533889771;0.824443071652;11:01:09:131;0;10;1.78064516129032;1;0.0977517106549365;0;0;0;1;1;1;1;6;0;0;;0;0;();();(-2000.0, -2000.0);
11:01:09:148;11:01:09:091;1448057826.55;(0.5467243194580078, 0.7098436991373698);68.1533889771;0.824443071652;11:01:09:148;0;15;1.78064516129032;1;0.0977517106549365;0;0;0;1;1;1;1;6;0;0;;0;0;();();(-2000.0, -2000.0);
11:01:09:164;11:01:09:091;1448057826.55;(0.5467243194580078, 0.7098436991373698);68.1533889771;0.824443071652;11:01:09:164;0;15;1.78064516129032;1;0.0977517106549365;0;0;0;1;1;1;1;6;0;0;;0;0;();();(-2000.0, -2000.0);
11:01:09:181;11:01:09:091;1448057826.55;(0.5467243194580078, 0.7098436991373698);68.1533889771;0.824443071652;11:01:09:181;0;10;1.78064516129032;1;0.0977517106549365;0;0;0;1;1;1;1;6;0;0;;0;0;();();(-2000.0, -2000.0);
11:01:09:198;11:01:09:091;1448057826.55;(0.5467243194580078, 0.7098436991373698);68.1533889771;0.824443071652;11:01:09:198;0;4;1.78064516129032;1;0.293255131964809;0;0;0;1;1;1;1;6;0;0;;0;0;();();(-2000.0, -2000.0);
11:01:09:231;11:01:09:091;1448057826.55;(0.5467243194580078, 0.7098436991373698);68.1533889771;0.824443071652;11:01:09:231;0;5;1.77741935483871;1;0.0977517106549365;0;0;0;1;1;1;1;6;0;0;;0;0;();();(-2000.0, -2000.0);
11:01:09:247;11:01:09:237;1448057826.69;(0.5465651512145996, 0.7060952504475911);68.1532592773;0.84134420035;11:01:09:247;0;10;1.78064516129032;1;0.0977517106549365;0;0;0;1;1;1;1;6;0;0;;0;0;();();(-2000.0, -2000.0);
11:01:09:264;11:01:09:237;1448057826.69;(0.5465651512145996, 0.7060952504475911);68.1532592773;0.84134420035;11:01:09:264;0;15;1.78064516129032;1;0.293255131964809;0;0;0;1;1;1;1;6;0;0;;0;0;();();(-2000.0, -2000.0);
11:01:09:280;11:01:09:266;1448057826.75;(0.5473658084869385, 0.7037233140733508);67.4044952393;1.0;11:01:09:280;0;9;1.77741935483871;1;0.0977517106549365;0;0;0;1;1;1;1;6;0;0;;0;0;();();(-2000.0, -2000.0);
11:01:09:297;11:01:09:266;1448057826.75;(0.5473658084869385, 0.7037233140733508);67.4044952393;1.0;11:01:09:297;0;4;1.78064516129032;1;0.0977517106549365;0;0;0;1;1;1;1;6;0;0;;0;0;();();(-2000.0, -2000.0);
11:01:09:330;11:01:09:315;1448057826.79;(0.547314977645874, 0.7026572121514214);66.9460220337;1.0;11:01:09:330;0;0;-0.0258064516129033;1;0.0977517106549365;0;0;0;1;1;1;1;6;0;0;;0;0;();();(-2000.0, -2000.0);
11:01:09:347;11:01:09:315;1448057826.79;(0.547314977645874, 0.7026572121514214);66.9460220337;1.0;11:01:09:347;0;10;1.77741935483871;1;0.0977517106549365;0;0;0;1;1;1;1;6;0;0;;0;0;();();(-2000.0, -2000.0);
11:01:09:364;11:01:09:315;1448057826.79;(0.547314977645874, 0.7026572121514214);66.9460220337;1.0;11:01:09:364;0;4;1.77741935483871;1;0.0977517106549365;0;0;0;1;1;1;1;6;0;0;;0;0;();();(-2000.0, -2000.0);
11:01:09:380;11:01:09:372;1448057826.85;(0.5464456081390381, 0.7000042173597547);66.5673065186;0.856560261116;11:01:09:380;0;5;-1.5;1;0.0977517106549365;0;0;0;1;1;1;1;6;0;0;;0;0;();();(-2000.0, -2000.0);
11:01:09:397;11:01:09:372;1448057826.85;(0.5464456081390381, 0.7000042173597547);66.5673065186;0.856560261116;11:01:09:397;0;10;-1.5;1;0.0977517106549365;0;0;0;1;1;1;1;6;0;0;;0;0;();();(-2000.0, -2000.0);
11:01:09:429;11:01:09:414;1448057826.89;(0.5455524444580078, 0.6985506905449761);66.7313308716;0.843353488947;11:01:09:429;0;15;-1.5;1;0.0977517106549365;0;0;0;1;1;1;1;6;0;0;;0;0;();();(-2000.0, -2000.0);
11:01:09:447;11:01:09:414;1448057826.89;(0.5455524444580078, 0.6985506905449761);66.7313308716;0.843353488947;11:01:09:447;0;4;-1.5;1;0.0977517106549365;0;0;0;1;1;1;1;6;0;0;;0;0;();();(-2000.0, -2000.0);
11:01:09:463;11:01:09:414;1448057826.89;(0.5455524444580078, 0.6985506905449761);66.7313308716;0.843353488947;11:01:09:463;0;0;1.78064516129032;1;0.0977517106549365;0;0;0;1;1;1;1;6;0;0;;0;0;();();(-2000.0, -2000.0);
11:01:09:480;11:01:09:414;1448057826.89;(0.5455524444580078, 0.6985506905449761);66.7313308716;0.843353488947;11:01:09:480;0;5;1.78064516129032;1;0.0977517106549365;0;0;0;1;1;1;1;6;0;0;;0;0;();();(-2000.0, -2000.0);
11:01:09:497;11:01:09:414;1448057826.89;(0.5455524444580078, 0.6985506905449761);66.7313308716;0.843353488947;11:01:09:497;0;15;1.78064516129032;1;0.0977517106549365;0;0;0;1;1;1;1;6;0;0;;0;0;();();(-2000.0, -2000.0);
11:01:09:529;11:01:09:524;1448057826.99;(0.542667007446289, 0.6964567608303494);67.7213973999;1.0;11:01:09:529;0;9;1.78064516129032;1;0.0977517106549365;0;0;0;1;1;1;1;6;0;0;;0;0;();();(-2000.0, -2000.0);
11:01:09:545;11:01:09:524;1448057826.99;(0.542667007446289, 0.6964567608303494);67.7213973999;1.0;11:01:09:545;0;5;1.77741935483871;1;0.0977517106549365;0;0;0;1;1;1;1;6;0;0;;0;0;();();(-2000.0, -2000.0);
11:01:09:562;11:01:09:524;1448057826.99;(0.542667007446289, 0.6964567608303494);67.7213973999;1.0;11:01:09:562;0;10;1.78064516129032;1;0.0977517106549365;0;0;0;1;1;1;1;6;0;0;;0;0;();();(-2000.0, -2000.0);
11:01:09:579;11:01:09:566;1448057827.05;(0.5427097320556641, 0.6973864873250326);67.8369522095;1.0;11:01:09:579;0;15;-1.5;1;0;0;0;0;1;1;1;1;6;0;0;;0;0;();();(-2000.0, -2000.0);
11:01:09:596;11:01:09:566;1448057827.05;(0.5427097320556641, 0.6973864873250326);67.8369522095;1.0;11:01:09:596;0;15;-1.5;1;0;0;0;0;1;1;1;1;6;0;0;;0;0;();();(-2000.0, -2000.0);
11:01:09:629;11:01:09:615;1448057827.09;(0.5426546096801758, 0.6970549053615994);68.5037536621;1.0;11:01:09:629;0;0;-1.5;1;0;0;0;0;1;1;1;1;6;0;0;;0;0;();();(-2000.0, -2000.0);
11:01:09:645;11:01:09:615;1448057827.09;(0.5426546096801758, 0.6970549053615994);68.5037536621;1.0;11:01:09:645;0;5;-1.5;1;0.0977517106549365;0;0;0;1;1;1;1;6;0;0;;0;0;();();(-2000.0, -2000.0);
11:01:09:661;11:01:09:615;1448057827.09;(0.5426546096801758, 0.6970549053615994);68.5037536621;1.0;11:01:09:661;0;9;-1.5;1;0;0;0;0;1;1;1;1;6;0;0;;0;0;();();(-2000.0, -2000.0);
11:01:09:678;11:01:09:666;1448057827.15;(0.5427855014801025, 0.6967953575981988);68.5105819702;1.0;11:01:09:678;0;4;-1.5;1;0;0;0;0;1;1;1;1;6;0;0;;0;0;();();(-2000.0, -2000.0);
11:01:09:712;11:01:09:666;1448057827.15;(0.5427855014801025, 0.6967953575981988);68.5105819702;1.0;11:01:09:712;0;5;-1.5;1;0;0;0;0;1;1;1;1;6;0;0;;0;0;();();(-2000.0, -2000.0);
