%Timestamp,timestamp_write;timestamp_gotpupil;eyetrackertime;norm_pos;diameter;confidence;timestamp_gotbitdata;CRC;SEQ;AnalogOutp1;AnalogOutp2;AnalogOutp3;AnalogOutp4;AnalogOutp5;AnalogOutp6;DigitalOutp1;DigitalOutp2;igitalOutp3;DigitalOutp4;nplanes;lastaction;lastactiondetails;lastactionairplanenumber;positivescore;negativescore;collidedairplanenumbers;targetpositions;collision_point
07:57:44:379;1448046822.34;(0.519817304611206, 0.516018549601237);23.2951145172;1.0;;;;;;;;;;;;;;2;0;0;;0;0;();();(0.0, 0.0);
07:57:44:383;1448046822.34;(0.519817304611206, 0.516018549601237);23.2951145172;1.0;;;;;;;;;;;;;;2;0;0;;0;0;();();(-2000.0, -2000.0);
07:57:44:385;1448046822.34;(0.519817304611206, 0.516018549601237);23.2951145172;1.0;;;;;;;;;;;;;;2;0;0;;0;0;();();(-2000.0, -2000.0);
07:57:44:386;1448046822.34;(0.519817304611206, 0.516018549601237);23.2951145172;1.0;;;;;;;;;;;;;;2;0;0;;0;0;();();(-2000.0, -2000.0);
07:57:44:387;1448046822.34;(0.519817304611206, 0.516018549601237);23.2951145172;1.0;;;;;;;;;;;;;;2;0;0;;0;0;();();(-2000.0, -2000.0);
07:57:44:388;1448046822.34;(0.519817304611206, 0.516018549601237);23.2951145172;1.0;;;;;;;;;;;;;;2;0;0;;0;0;();();(-2000.0, -2000.0);
07:57:44:389;1448046822.34;(0.519817304611206, 0.516018549601237);23.2951145172;1.0;;;;;;;;;;;;;;2;0;0;;0;0;();();(-2000.0, -2000.0);
07:57:44:390;1448046822.34;(0.519817304611206, 0.516018549601237);23.2951145172;1.0;;;;;;;;;;;;;;2;0;0;;0;0;();();(-2000.0, -2000.0);
07:57:44:391;1448046822.34;(0.519817304611206, 0.516018549601237);23.2951145172;1.0;;;;;;;;;;;;;;2;0;0;;0;0;();();(-2000.0, -2000.0);
07:57:44:392;1448046822.34;(0.519817304611206, 0.516018549601237);23.2951145172;1.0;;;;;;;;;;;;;;2;0;0;;0;0;();();(-2000.0, -2000.0);
07:57:44:393;1448046822.34;(0.519817304611206, 0.516018549601237);23.2951145172;1.0;;;;;;;;;;;;;;2;0;0;;0;0;();();(-2000.0, -2000.0);
07:57:44:394;1448046822.34;(0.519817304611206, 0.516018549601237);23.2951145172;1.0;;;;;;;;;;;;;;2;0;0;;0;0;();();(-2000.0, -2000.0);
07:57:44:395;1448046822.34;(0.519817304611206, 0.516018549601237);23.2951145172;1.0;;;;;;;;;;;;;;2;0;0;;0;0;();();(-2000.0, -2000.0);
07:57:44:396;1448046822.34;(0.519817304611206, 0.516018549601237);23.2951145172;1.0;;;;;;;;;;;;;;2;0;0;;0;0;();();(-2000.0, -2000.0);
07:57:44:398;1448046822.34;(0.519817304611206, 0.516018549601237);23.2951145172;1.0;;;;;;;;;;;;;;2;0;0;;0;0;();();(-2000.0, -2000.0);
07:57:44:399;1448046822.34;(0.519817304611206, 0.516018549601237);23.2951145172;1.0;;;;;;;;;;;;;;2;0;0;;0;0;();();(-2000.0, -2000.0);
07:57:44:411;1448046822.34;(0.519817304611206, 0.516018549601237);23.2951145172;1.0;;;;;;;;;;;;;;2;0;0;;0;0;();();(-2000.0, -2000.0);
07:57:44:412;1448046822.34;(0.519817304611206, 0.516018549601237);23.2951145172;1.0;;;;;;;;;;;;;;2;0;0;;0;0;();();(-2000.0, -2000.0);
07:57:44:429;1448046822.34;(0.519817304611206, 0.516018549601237);23.2951145172;1.0;;;;;;;;;;;;;;2;0;0;;0;0;();();(-2000.0, -2000.0);
07:57:44:446;1448046822.34;(0.519817304611206, 0.516018549601237);23.2951145172;1.0;;;;;;;;;;;;;;2;0;0;;0;0;();();(-2000.0, -2000.0);
07:57:44:463;1448046822.34;(0.519817304611206, 0.516018549601237);23.2951145172;1.0;;;;;;;;;;;;;;2;0;0;;0;0;();();(-2000.0, -2000.0);
07:57:44:479;1448046822.34;(0.519817304611206, 0.516018549601237);23.2951145172;1.0;;;;;;;;;;;;;;2;0;0;;0;0;();();(-2000.0, -2000.0);
07:57:44:496;1448046822.34;(0.519817304611206, 0.516018549601237);23.2951145172;1.0;;;;;;;;;;;;;;2;0;0;;0;0;();();(-2000.0, -2000.0);
07:57:44:529;07:57:44:499;1448046822.47;(0.5197892189025879, 0.5162926567925348);22.7411575317;0.842582794064;;;;;;;;;;;;;;2;0;0;;0;0;();();(-2000.0, -2000.0);
07:57:44:546;07:57:44:499;1448046822.47;(0.5197892189025879, 0.5162926567925348);22.7411575317;0.842582794064;;;;;;;;;;;;;;2;0;0;;0;0;();();(-2000.0, -2000.0);
07:57:44:563;07:57:44:499;1448046822.47;(0.5197892189025879, 0.5162926567925348);22.7411575317;0.842582794064;;;;;;;;;;;;;;2;0;0;;0;0;();();(-2000.0, -2000.0);
07:57:44:579;07:57:44:499;1448046822.47;(0.5197892189025879, 0.5162926567925348);22.7411575317;0.842582794064;;;;;;;;;;;;;;2;0;0;;0;0;();();(-2000.0, -2000.0);
07:57:44:596;07:57:44:499;1448046822.47;(0.5197892189025879, 0.5162926567925348);22.7411575317;0.842582794064;;;;;;;;;;;;;;2;0;0;;0;0;();();(-2000.0, -2000.0);
07:57:44:630;07:57:44:499;1448046822.47;(0.5197892189025879, 0.5162926567925348);22.7411575317;0.842582794064;;;;;;;;;;;;;;2;0;0;;0;0;();();(-2000.0, -2000.0);
07:57:44:646;07:57:44:631;1448046822.61;(0.5199334144592285, 0.5158912234836155);23.3605632782;0.992329781758;;;;;;;;;;;;;;2;0;0;;0;0;();();(-2000.0, -2000.0);
07:57:44:663;07:57:44:631;1448046822.61;(0.5199334144592285, 0.5158912234836155);23.3605632782;0.992329781758;;;;;;;;;;;;;;2;0;0;;0;0;();();(-2000.0, -2000.0);
07:57:44:679;07:57:44:631;1448046822.61;(0.5199334144592285, 0.5158912234836155);23.3605632782;0.992329781758;;;;;;;;;;;;;;2;0;0;;0;0;();();(-2000.0, -2000.0);
07:57:44:696;07:57:44:631;1448046822.61;(0.5199334144592285, 0.5158912234836155);23.3605632782;0.992329781758;;;;;;;;;;;;;;2;0;0;;0;0;();();(-2000.0, -2000.0);
07:57:44:729;07:57:44:631;1448046822.61;(0.5199334144592285, 0.5158912234836155);23.3605632782;0.992329781758;;;;;;;;;;;;;;2;0;0;;0;0;();();(-2000.0, -2000.0);
07:57:44:746;07:57:44:631;1448046822.61;(0.5199334144592285, 0.5158912234836155);23.3605632782;0.992329781758;;;;;;;;;;;;;;2;0;0;;0;0;();();(-2000.0, -2000.0);
07:57:44:763;07:57:44:763;1448046822.74;(0.5191995620727539, 0.5166706085205078);22.7477092743;0.880108440236;;;;;;;;;;;;;;2;0;0;;0;0;();();(-2000.0, -2000.0);
07:57:44:779;07:57:44:763;1448046822.74;(0.5191995620727539, 0.5166706085205078);22.7477092743;0.880108440236;;;;;;;;;;;;;;2;0;0;;0;0;();();(-2000.0, -2000.0);
07:57:44:796;07:57:44:763;1448046822.74;(0.5191995620727539, 0.5166706085205078);22.7477092743;0.880108440236;;;;;;;;;;;;;;2;0;0;;0;0;();();(-2000.0, -2000.0);
07:57:44:830;07:57:44:763;1448046822.74;(0.5191995620727539, 0.5166706085205078);22.7477092743;0.880108440236;;;;;;;;;;;;;;2;0;0;;0;0;();();(-2000.0, -2000.0);
07:57:44:846;07:57:44:763;1448046822.74;(0.5191995620727539, 0.5166706085205078);22.7477092743;0.880108440236;;;;;;;;;;;;;;2;0;0;;0;0;();();(-2000.0, -2000.0);
07:57:44:862;07:57:44:763;1448046822.74;(0.5191995620727539, 0.5166706085205078);22.7477092743;0.880108440236;;;;;;;;;;;;;;2;0;0;;0;0;();();(-2000.0, -2000.0);
07:57:44:880;07:57:44:763;1448046822.74;(0.5191995620727539, 0.5166706085205078);22.7477092743;0.880108440236;;;;;;;;;;;;;;2;0;0;;0;0;();();(-2000.0, -2000.0);
07:57:44:896;07:57:44:763;1448046822.74;(0.5191995620727539, 0.5166706085205078);22.7477092743;0.880108440236;;;;;;;;;;;;;;2;0;0;;0;0;();();(-2000.0, -2000.0);
07:57:44:930;07:57:44:896;1448046822.87;(0.5187065601348877, 0.5167297787136502);23.6395320892;0.970363537926;;;;;;;;;;;;;;2;0;0;;0;0;();();(-2000.0, -2000.0);
07:57:44:946;07:57:44:896;1448046822.87;(0.5187065601348877, 0.5167297787136502);23.6395320892;0.970363537926;;;;;;;;;;;;;;2;0;0;;0;0;();();(-2000.0, -2000.0);
07:57:44:963;07:57:44:896;1448046822.87;(0.5187065601348877, 0.5167297787136502);23.6395320892;0.970363537926;;;;;;;;;;;;;;2;0;0;;0;0;();();(-2000.0, -2000.0);
07:57:44:980;07:57:44:896;1448046822.87;(0.5187065601348877, 0.5167297787136502);23.6395320892;0.970363537926;;;;;;;;;;;;;;2;0;0;;0;0;();();(-2000.0, -2000.0);
07:57:44:996;07:57:44:896;1448046822.87;(0.5187065601348877, 0.5167297787136502);23.6395320892;0.970363537926;;;;;;;;;;;;;;2;0;0;;0;0;();();(-2000.0, -2000.0);
07:57:45:031;07:57:44:896;1448046822.87;(0.5187065601348877, 0.5167297787136502);23.6395320892;0.970363537926;;;;;;;;;;;;;;2;0;0;;0;0;();();(-2000.0, -2000.0);
07:57:45:048;07:57:45:032;1448046823.01;(0.518727159500122, 0.5162904951307509);23.629611969;0.965477378285;;;;;;;;;;;;;;2;0;0;;0;0;();();(-2000.0, -2000.0);
07:57:45:064;07:57:45:032;1448046823.01;(0.518727159500122, 0.5162904951307509);23.629611969;0.965477378285;;;;;;;;;;;;;;2;0;0;;0;0;();();(-2000.0, -2000.0);
07:57:45:081;07:57:45:032;1448046823.01;(0.518727159500122, 0.5162904951307509);23.629611969;0.965477378285;;;;;;;;;;;;;;2;0;0;;0;0;();();(-2000.0, -2000.0);
07:57:45:097;07:57:45:032;1448046823.01;(0.518727159500122, 0.5162904951307509);23.629611969;0.965477378285;;;;;;;;;;;;;;2;0;0;;0;0;();();(-2000.0, -2000.0);
07:57:45:131;07:57:45:032;1448046823.01;(0.518727159500122, 0.5162904951307509);23.629611969;0.965477378285;;;;;;;;;;;;;;2;0;0;;0;0;();();(-2000.0, -2000.0);
07:57:45:147;07:57:45:032;1448046823.01;(0.518727159500122, 0.5162904951307509);23.629611969;0.965477378285;;;;;;;;;;;;;;2;0;0;;0;0;();();(-2000.0, -2000.0);
07:57:45:164;07:57:45:032;1448046823.01;(0.518727159500122, 0.5162904951307509);23.629611969;0.965477378285;;;;;;;;;;;;;;2;0;0;;0;0;();();(-2000.0, -2000.0);
07:57:45:181;07:57:45:167;1448046823.14;(0.5193114280700684, 0.5163829803466797);24.6161499023;0.977439088651;;;;;;;;;;;;;;2;0;0;;0;0;();();(-2000.0, -2000.0);
07:57:45:197;07:57:45:167;1448046823.14;(0.5193114280700684, 0.5163829803466797);24.6161499023;0.977439088651;;;;;;;;;;;;;;2;0;0;;0;0;();();(-2000.0, -2000.0);
07:57:45:231;07:57:45:167;1448046823.14;(0.5193114280700684, 0.5163829803466797);24.6161499023;0.977439088651;;;;;;;;;;;;;;2;0;0;;0;0;();();(-2000.0, -2000.0);
07:57:45:248;07:57:45:167;1448046823.14;(0.5193114280700684, 0.5163829803466797);24.6161499023;0.977439088651;;;;;;;;;;;;;;2;0;0;;0;0;();();(-2000.0, -2000.0);
07:57:45:264;07:57:45:167;1448046823.14;(0.5193114280700684, 0.5163829803466797);24.6161499023;0.977439088651;;;;;;;;;;;;;;2;0;0;;0;0;();();(-2000.0, -2000.0);
07:57:45:281;07:57:45:167;1448046823.14;(0.5193114280700684, 0.5163829803466797);24.6161499023;0.977439088651;;;;;;;;;;;;;;2;0;0;;0;0;();();(-2000.0, -2000.0);
07:57:45:298;07:57:45:296;1448046823.27;(0.5186302185058593, 0.5171182844373915);24.8521652222;0.860917949967;;;;;;;;;;;;;;2;0;0;;0;0;();();(-2000.0, -2000.0);
07:57:45:331;07:57:45:296;1448046823.27;(0.5186302185058593, 0.5171182844373915);24.8521652222;0.860917949967;;;;;;;;;;;;;;2;0;0;;0;0;();();(-2000.0, -2000.0);
07:57:45:348;07:57:45:296;1448046823.27;(0.5186302185058593, 0.5171182844373915);24.8521652222;0.860917949967;;;;;;;;;;;;;;2;0;0;;0;0;();();(-2000.0, -2000.0);
07:57:45:364;07:57:45:296;1448046823.27;(0.5186302185058593, 0.5171182844373915);24.8521652222;0.860917949967;;;;;;;;;;;;;;2;0;0;;0;0;();();(-2000.0, -2000.0);
07:57:45:381;07:57:45:296;1448046823.27;(0.5186302185058593, 0.5171182844373915);24.8521652222;0.860917949967;;;;;;;;;;;;;;2;0;0;;0;0;();();(-2000.0, -2000.0);
07:57:45:398;07:57:45:296;1448046823.27;(0.5186302185058593, 0.5171182844373915);24.8521652222;0.860917949967;;;;;;;;;;;;;;2;0;0;;0;0;();();(-2000.0, -2000.0);
07:57:45:431;07:57:45:428;1448046823.41;(0.519167423248291, 0.5159919738769532);23.8567390442;0.872035412271;;;;;;;;;;;;;;2;0;0;;0;0;();();(-2000.0, -2000.0);
07:57:45:448;07:57:45:428;1448046823.41;(0.519167423248291, 0.5159919738769532);23.8567390442;0.872035412271;;;;;;;;;;;;;;2;0;0;;0;0;();();(-2000.0, -2000.0);
07:57:45:464;07:57:45:428;1448046823.41;(0.519167423248291, 0.5159919738769532);23.8567390442;0.872035412271;;;;;;;;;;;;;;2;0;0;;0;0;();();(-2000.0, -2000.0);
07:57:45:481;07:57:45:428;1448046823.41;(0.519167423248291, 0.5159919738769532);23.8567390442;0.872035412271;;;;;;;;;;;;;;2;0;0;;0;0;();();(-2000.0, -2000.0);
07:57:45:498;07:57:45:428;1448046823.41;(0.519167423248291, 0.5159919738769532);23.8567390442;0.872035412271;;;;;;;;;;;;;;2;0;0;;0;0;();();(-2000.0, -2000.0);
07:57:45:530;07:57:45:428;1448046823.41;(0.519167423248291, 0.5159919738769532);23.8567390442;0.872035412271;;;;;;;;;;;;;;2;0;0;;0;0;();();(-2000.0, -2000.0);
07:57:45:548;07:57:45:428;1448046823.41;(0.519167423248291, 0.5159919738769532);23.8567390442;0.872035412271;;;;;;;;;;;;;;2;0;0;;0;0;();();(-2000.0, -2000.0);
07:57:45:564;07:57:45:560;1448046823.54;(0.5195670127868652, 0.5162503560384115);24.0405578613;1.0;;;;;;;;;;;;;;2;0;0;;0;0;();();(-2000.0, -2000.0);
07:57:45:581;07:57:45:560;1448046823.54;(0.5195670127868652, 0.5162503560384115);24.0405578613;1.0;;;;;;;;;;;;;;2;0;0;;0;0;();();(-2000.0, -2000.0);
07:57:45:598;07:57:45:560;1448046823.54;(0.5195670127868652, 0.5162503560384115);24.0405578613;1.0;;;;;;;;;;;;;;2;0;0;;0;0;();();(-2000.0, -2000.0);
07:57:45:631;07:57:45:560;1448046823.54;(0.5195670127868652, 0.5162503560384115);24.0405578613;1.0;;;;;;;;;;;;;;2;0;0;;0;0;();();(-2000.0, -2000.0);
07:57:45:648;07:57:45:560;1448046823.54;(0.5195670127868652, 0.5162503560384115);24.0405578613;1.0;;;;;;;;;;;;;;2;0;0;;0;0;();();(-2000.0, -2000.0);
07:57:45:664;07:57:45:560;1448046823.54;(0.5195670127868652, 0.5162503560384115);24.0405578613;1.0;;;;;;;;;;;;;;2;0;0;;0;0;();();(-2000.0, -2000.0);
07:57:45:681;07:57:45:560;1448046823.54;(0.5195670127868652, 0.5162503560384115);24.0405578613;1.0;;;;;;;;;;;;;;2;0;0;;0;0;();();(-2000.0, -2000.0);
07:57:45:698;07:57:45:696;1448046823.67;(0.5194713115692139, 0.5161843617757161);24.0289230347;0.946754168546;;;;;;;;;;;;;;2;0;0;;0;0;();();(-2000.0, -2000.0);
07:57:45:731;07:57:45:696;1448046823.67;(0.5194713115692139, 0.5161843617757161);24.0289230347;0.946754168546;;;;;;;;;;;;;;2;0;0;;0;0;();();(-2000.0, -2000.0);
07:57:45:748;07:57:45:696;1448046823.67;(0.5194713115692139, 0.5161843617757161);24.0289230347;0.946754168546;;;;;;;;;;;;;;2;0;0;;0;0;();();(-2000.0, -2000.0);
07:57:45:765;07:57:45:696;1448046823.67;(0.5194713115692139, 0.5161843617757161);24.0289230347;0.946754168546;;;;;;;;;;;;;;2;0;0;;0;0;();();(-2000.0, -2000.0);
07:57:45:781;07:57:45:696;1448046823.67;(0.5194713115692139, 0.5161843617757161);24.0289230347;0.946754168546;;;;;;;;;;;;;;2;0;0;;0;0;();();(-2000.0, -2000.0);
07:57:45:798;07:57:45:696;1448046823.67;(0.5194713115692139, 0.5161843617757161);24.0289230347;0.946754168546;;;;;;;;;;;;;;2;0;0;;0;0;();();(-2000.0, -2000.0);
07:57:45:831;07:57:45:828;1448046823.81;(0.5188677787780762, 0.5165095011393229);24.8821811676;0.880047476366;;;;;;;;;;;;;;2;0;0;;0;0;();();(-2000.0, -2000.0);
07:57:45:848;07:57:45:828;1448046823.81;(0.5188677787780762, 0.5165095011393229);24.8821811676;0.880047476366;;;;;;;;;;;;;;2;0;0;;0;0;();();(-2000.0, -2000.0);
07:57:45:864;07:57:45:828;1448046823.81;(0.5188677787780762, 0.5165095011393229);24.8821811676;0.880047476366;;;;;;;;;;;;;;2;0;0;;0;0;();();(-2000.0, -2000.0);
07:57:45:881;07:57:45:828;1448046823.81;(0.5188677787780762, 0.5165095011393229);24.8821811676;0.880047476366;;;;;;;;;;;;;;2;0;0;;0;0;();();(-2000.0, -2000.0);
07:57:45:898;07:57:45:828;1448046823.81;(0.5188677787780762, 0.5165095011393229);24.8821811676;0.880047476366;;;;;;;;;;;;;;2;0;0;;0;0;();();(-2000.0, -2000.0);
07:57:45:931;07:57:45:828;1448046823.81;(0.5188677787780762, 0.5165095011393229);24.8821811676;0.880047476366;;;;;;;;;;;;;;2;0;0;;0;0;();();(-2000.0, -2000.0);
07:57:45:948;07:57:45:828;1448046823.81;(0.5188677787780762, 0.5165095011393229);24.8821811676;0.880047476366;;;;;;;;;;;;;;2;0;0;;0;0;();();(-2000.0, -2000.0);
07:57:45:965;07:57:45:962;1448046823.94;(0.5192292213439942, 0.5163199106852214);25.1727695465;1.0;;;;;;;;;;;;;;2;0;0;;0;0;();();(-2000.0, -2000.0);
07:57:45:981;07:57:45:962;1448046823.94;(0.5192292213439942, 0.5163199106852214);25.1727695465;1.0;;;;;;;;;;;;;;2;0;0;;0;0;();();(-2000.0, -2000.0);
07:57:45:998;07:57:45:962;1448046823.94;(0.5192292213439942, 0.5163199106852214);25.1727695465;1.0;;;;;;;;;;;;;;2;0;0;;0;0;();();(-2000.0, -2000.0);
07:57:46:031;07:57:45:962;1448046823.94;(0.5192292213439942, 0.5163199106852214);25.1727695465;1.0;;;;;;;;;;;;;;2;0;0;;0;0;();();(-2000.0, -2000.0);
07:57:46:048;07:57:45:962;1448046823.94;(0.5192292213439942, 0.5163199106852214);25.1727695465;1.0;;;;;;;;;;;;;;2;0;0;;0;0;();();(-2000.0, -2000.0);
07:57:46:065;07:57:45:962;1448046823.94;(0.5192292213439942, 0.5163199106852214);25.1727695465;1.0;;;;;;;;;;;;;;2;0;0;;0;0;();();(-2000.0, -2000.0);
07:57:46:081;07:57:45:962;1448046823.94;(0.5192292213439942, 0.5163199106852214);25.1727695465;1.0;;;;;;;;;;;;;;2;0;0;;0;0;();();(-2000.0, -2000.0);
07:57:46:098;07:57:46:094;1448046824.07;(0.5190983772277832, 0.5160847557915582);24.9321022034;1.0;;;;;;;;;;;;;;2;0;0;;0;0;();();(-2000.0, -2000.0);
07:57:46:131;07:57:46:094;1448046824.07;(0.5190983772277832, 0.5160847557915582);24.9321022034;1.0;;;;;;;;;;;;;;2;0;0;;0;0;();();(-2000.0, -2000.0);
07:57:46:148;07:57:46:094;1448046824.07;(0.5190983772277832, 0.5160847557915582);24.9321022034;1.0;;;;;;;;;;;;;;2;0;0;;0;0;();();(-2000.0, -2000.0);
07:57:46:165;07:57:46:094;1448046824.07;(0.5190983772277832, 0.5160847557915582);24.9321022034;1.0;;;;;;;;;;;;;;2;0;0;;0;0;();();(-2000.0, -2000.0);
07:57:46:181;07:57:46:094;1448046824.07;(0.5190983772277832, 0.5160847557915582);24.9321022034;1.0;;;;;;;;;;;;;;2;0;0;;0;0;();();(-2000.0, -2000.0);
07:57:46:197;07:57:46:094;1448046824.07;(0.5190983772277832, 0.5160847557915582);24.9321022034;1.0;;;;;;;;;;;;;;2;0;0;;0;0;();();(-2000.0, -2000.0);
07:57:46:232;07:57:46:227;1448046824.21;(0.5192732810974121, 0.5160543653700087);25.0582275391;0.975065725016;;;;;;;;;;;;;;2;0;0;;0;0;();();(-2000.0, -2000.0);
07:57:46:248;07:57:46:227;1448046824.21;(0.5192732810974121, 0.5160543653700087);25.0582275391;0.975065725016;;;;;;;;;;;;;;2;0;0;;0;0;();();(-2000.0, -2000.0);
07:57:46:265;07:57:46:227;1448046824.21;(0.5192732810974121, 0.5160543653700087);25.0582275391;0.975065725016;;;;;;;;;;;;;;2;0;0;;0;0;();();(-2000.0, -2000.0);
07:57:46:282;07:57:46:227;1448046824.21;(0.5192732810974121, 0.5160543653700087);25.0582275391;0.975065725016;;;;;;;;;;;;;;2;0;0;;0;0;();();(-2000.0, -2000.0);
07:57:46:298;07:57:46:227;1448046824.21;(0.5192732810974121, 0.5160543653700087);25.0582275391;0.975065725016;;;;;;;;;;;;;;2;0;0;;0;0;();();(-2000.0, -2000.0);
07:57:46:332;07:57:46:227;1448046824.21;(0.5192732810974121, 0.5160543653700087);25.0582275391;0.975065725016;;;;;;;;;;;;;;2;0;0;;0;0;();();(-2000.0, -2000.0);
07:57:46:348;07:57:46:227;1448046824.21;(0.5192732810974121, 0.5160543653700087);25.0582275391;0.975065725016;;;;;;;;;;;;;;2;0;0;;0;0;();();(-2000.0, -2000.0);
07:57:46:365;07:57:46:356;1448046824.34;(0.5197707653045655, 0.5161458333333333);24.8981933594;1.0;;;;;;;;;;;;;;2;0;0;;0;0;();();(-2000.0, -2000.0);
07:57:46:382;07:57:46:356;1448046824.34;(0.5197707653045655, 0.5161458333333333);24.8981933594;1.0;;;;;;;;;;;;;;2;0;0;;0;0;();();(-2000.0, -2000.0);
07:57:46:398;07:57:46:356;1448046824.34;(0.5197707653045655, 0.5161458333333333);24.8981933594;1.0;;;;;;;;;;;;;;2;0;0;;0;0;();();(-2000.0, -2000.0);
07:57:46:432;07:57:46:356;1448046824.34;(0.5197707653045655, 0.5161458333333333);24.8981933594;1.0;;;;;;;;;;;;;;2;0;0;;0;0;();();(-2000.0, -2000.0);
07:57:46:448;07:57:46:356;1448046824.34;(0.5197707653045655, 0.5161458333333333);24.8981933594;1.0;;;;;;;;;;;;;;2;0;0;;0;0;();();(-2000.0, -2000.0);
07:57:46:465;07:57:46:356;1448046824.34;(0.5197707653045655, 0.5161458333333333);24.8981933594;1.0;;;;;;;;;;;;;;2;0;0;;0;0;();();(-2000.0, -2000.0);
07:57:46:482;07:57:46:356;1448046824.34;(0.5197707653045655, 0.5161458333333333);24.8981933594;1.0;;;;;;;;;;;;;;2;0;0;;0;0;();();(-2000.0, -2000.0);
07:57:46:498;07:57:46:493;1448046824.47;(0.5195939540863037, 0.5161558363172742);26.02709198;0.924984031268;;;;;;;;;;;;;;2;0;0;;0;0;();();(-2000.0, -2000.0);
07:57:46:531;07:57:46:493;1448046824.47;(0.5195939540863037, 0.5161558363172742);26.02709198;0.924984031268;;;;;;;;;;;;;;2;0;0;;0;0;();();(-2000.0, -2000.0);
07:57:46:549;07:57:46:493;1448046824.47;(0.5195939540863037, 0.5161558363172742);26.02709198;0.924984031268;;;;;;;;;;;;;;2;0;0;;0;0;();();(-2000.0, -2000.0);
07:57:46:565;07:57:46:493;1448046824.47;(0.5195939540863037, 0.5161558363172742);26.02709198;0.924984031268;;;;;;;;;;;;;;2;0;0;;0;0;();();(-2000.0, -2000.0);
07:57:46:582;07:57:46:493;1448046824.47;(0.5195939540863037, 0.5161558363172742);26.02709198;0.924984031268;;;;;;;;;;;;;;2;0;0;;0;0;();();(-2000.0, -2000.0);
07:57:46:598;07:57:46:493;1448046824.47;(0.5195939540863037, 0.5161558363172742);26.02709198;0.924984031268;;;;;;;;;;;;;;2;0;0;;0;0;();();(-2000.0, -2000.0);
07:57:46:632;07:57:46:625;1448046824.61;(0.5191942691802979, 0.516023212009006);24.873916626;0.894517903873;;;;;;;;;;;;;;2;0;0;;0;0;();();(-2000.0, -2000.0);
07:57:46:649;07:57:46:625;1448046824.61;(0.5191942691802979, 0.516023212009006);24.873916626;0.894517903873;;;;;;;;;;;;;;2;0;0;;0;0;();();(-2000.0, -2000.0);
07:57:46:665;07:57:46:625;1448046824.61;(0.5191942691802979, 0.516023212009006);24.873916626;0.894517903873;;;;;;;;;;;;;;2;0;0;;0;0;();();(-2000.0, -2000.0);
07:57:46:682;07:57:46:625;1448046824.61;(0.5191942691802979, 0.516023212009006);24.873916626;0.894517903873;;;;;;;;;;;;;;2;0;0;;0;0;();();(-2000.0, -2000.0);
07:57:46:699;07:57:46:625;1448046824.61;(0.5191942691802979, 0.516023212009006);24.873916626;0.894517903873;;;;;;;;;;;;;;2;0;0;;0;0;();();(-2000.0, -2000.0);
07:57:46:732;07:57:46:625;1448046824.61;(0.5191942691802979, 0.516023212009006);24.873916626;0.894517903873;;;;;;;;;;;;;;2;0;0;;0;0;();();(-2000.0, -2000.0);
07:57:46:749;07:57:46:625;1448046824.61;(0.5191942691802979, 0.516023212009006);24.873916626;0.894517903873;;;;;;;;;;;;;;2;0;0;;0;0;();();(-2000.0, -2000.0);
07:57:46:765;07:57:46:756;1448046824.74;(0.519114637374878, 0.5158783806694878);24.4772815704;0.833581388358;;;;;;;;;;;;;;2;0;0;;0;0;();();(-2000.0, -2000.0);
07:57:46:782;07:57:46:756;1448046824.74;(0.519114637374878, 0.5158783806694878);24.4772815704;0.833581388358;;;;;;;;;;;;;;2;0;0;;0;0;();();(-2000.0, -2000.0);
07:57:46:799;07:57:46:756;1448046824.74;(0.519114637374878, 0.5158783806694878);24.4772815704;0.833581388358;;;;;;;;;;;;;;2;0;0;;0;0;();();(-2000.0, -2000.0);
07:57:46:832;07:57:46:756;1448046824.74;(0.519114637374878, 0.5158783806694878);24.4772815704;0.833581388358;;;;;;;;;;;;;;2;0;0;;0;0;();();(-2000.0, -2000.0);
07:57:46:849;07:57:46:756;1448046824.74;(0.519114637374878, 0.5158783806694878);24.4772815704;0.833581388358;;;;;;;;;;;;;;2;0;0;;0;0;();();(-2000.0, -2000.0);
07:57:46:865;07:57:46:756;1448046824.74;(0.519114637374878, 0.5158783806694878);24.4772815704;0.833581388358;;;;;;;;;;;;;;2;0;0;;0;0;();();(-2000.0, -2000.0);
07:57:46:882;07:57:46:756;1448046824.74;(0.519114637374878, 0.5158783806694878);24.4772815704;0.833581388358;;;;;;;;;;;;;;2;0;0;;0;0;();();(-2000.0, -2000.0);
07:57:46:899;07:57:46:889;1448046824.87;(0.5195973873138428, 0.5156205495198567);25.7228870392;0.95480116775;;;;;;;;;;;;;;2;0;0;;0;0;();();(-2000.0, -2000.0);
07:57:46:932;07:57:46:889;1448046824.87;(0.5195973873138428, 0.5156205495198567);25.7228870392;0.95480116775;;;;;;;;;;;;;;2;0;0;;0;0;();();(-2000.0, -2000.0);
07:57:46:949;07:57:46:889;1448046824.87;(0.5195973873138428, 0.5156205495198567);25.7228870392;0.95480116775;;;;;;;;;;;;;;2;0;0;;0;0;();();(-2000.0, -2000.0);
07:57:46:965;07:57:46:889;1448046824.87;(0.5195973873138428, 0.5156205495198567);25.7228870392;0.95480116775;;;;;;;;;;;;;;2;0;0;;0;0;();();(-2000.0, -2000.0);
07:57:46:982;07:57:46:889;1448046824.87;(0.5195973873138428, 0.5156205495198567);25.7228870392;0.95480116775;;;;;;;;;;;;;;2;0;0;;0;0;();();(-2000.0, -2000.0);
07:57:46:999;07:57:46:889;1448046824.87;(0.5195973873138428, 0.5156205495198567);25.7228870392;0.95480116775;;;;;;;;;;;;;;2;0;0;;0;0;();();(-2000.0, -2000.0);
07:57:47:032;07:57:46:889;1448046824.87;(0.5195973873138428, 0.5156205495198567);25.7228870392;0.95480116775;;;;;;;;;;;;;;2;0;0;;0;0;();();(-2000.0, -2000.0);
07:57:47:049;07:57:46:889;1448046824.87;(0.5195973873138428, 0.5156205495198567);25.7228870392;0.95480116775;;;;;;;;;;;;;;2;0;0;;0;0;();();(-2000.0, -2000.0);
07:57:47:065;07:57:46:889;1448046824.87;(0.5195973873138428, 0.5156205495198567);25.7228870392;0.95480116775;;;;;;;;;;;;;;2;0;0;;0;0;();();(-2000.0, -2000.0);
07:57:47:082;07:57:46:889;1448046824.87;(0.5195973873138428, 0.5156205495198567);25.7228870392;0.95480116775;;;;;;;;;;;;;;2;0;0;;0;0;();();(-2000.0, -2000.0);
07:57:47:099;07:57:47:092;1448046825.01;(0.5195253372192383, 0.5157151963975695);22.5758609772;0.773803697766;;;;;;;;;;;;;;2;0;0;;0;0;();();(-2000.0, -2000.0);
07:57:47:116;07:57:47:092;1448046825.01;(0.5195253372192383, 0.5157151963975695);22.5758609772;0.773803697766;;;;;;;;;;;;;;2;0;0;;0;0;();();(-2000.0, -2000.0);
07:57:47:149;07:57:47:092;1448046825.01;(0.5195253372192383, 0.5157151963975695);22.5758609772;0.773803697766;;;;;;;;;;;;;;2;0;0;;0;0;();();(-2000.0, -2000.0);
07:57:47:166;07:57:47:156;1448046825.14;(0.6620959281921387, 0.408598370022244);32.6231460571;0.702129333182;;;;;;;;;;;;;;2;0;0;;0;0;();();(-2000.0, -2000.0);
07:57:47:182;07:57:47:156;1448046825.14;(0.6620959281921387, 0.408598370022244);32.6231460571;0.702129333182;;;;;;;;;;;;;;2;0;0;;0;0;();();(-2000.0, -2000.0);
07:57:47:198;07:57:47:156;1448046825.14;(0.6620959281921387, 0.408598370022244);32.6231460571;0.702129333182;;;;;;;;;;;;;;2;0;0;;0;0;();();(-2000.0, -2000.0);
07:57:47:216;07:57:47:156;1448046825.14;(0.6620959281921387, 0.408598370022244);32.6231460571;0.702129333182;;;;;;;;;;;;;;2;0;0;;0;0;();();(-2000.0, -2000.0);
07:57:47:249;07:57:47:156;1448046825.14;(0.6620959281921387, 0.408598370022244);32.6231460571;0.702129333182;;;;;;;;;;;;;;2;0;0;;0;0;();();(-2000.0, -2000.0);
07:57:47:266;07:57:47:156;1448046825.14;(0.6620959281921387, 0.408598370022244);32.6231460571;0.702129333182;;;;;;;;;;;;;;2;0;0;;0;0;();();(-2000.0, -2000.0);
07:57:47:282;07:57:47:156;1448046825.14;(0.6620959281921387, 0.408598370022244);32.6231460571;0.702129333182;;;;;;;;;;;;;;2;0;0;;0;0;();();(-2000.0, -2000.0);
07:57:47:299;07:57:47:289;1448046825.27;(0.5174194812774658, 0.5172586229112413);22.3764858246;0.808542790945;;;;;;;;;;;;;;2;0;0;;0;0;();();(-2000.0, -2000.0);
07:57:47:316;07:57:47:289;1448046825.27;(0.5174194812774658, 0.5172586229112413);22.3764858246;0.808542790945;;;;;;;;;;;;;;2;0;0;;0;0;();();(-2000.0, -2000.0);
07:57:47:349;07:57:47:289;1448046825.27;(0.5174194812774658, 0.5172586229112413);22.3764858246;0.808542790945;;;;;;;;;;;;;;2;0;0;;0;0;();();(-2000.0, -2000.0);
07:57:47:366;07:57:47:289;1448046825.27;(0.5174194812774658, 0.5172586229112413);22.3764858246;0.808542790945;;;;;;;;;;;;;;2;0;0;;0;0;();();(-2000.0, -2000.0);
07:57:47:382;07:57:47:289;1448046825.27;(0.5174194812774658, 0.5172586229112413);22.3764858246;0.808542790945;;;;;;;;;;;;;;2;0;0;;0;0;();();(-2000.0, -2000.0);
07:57:47:399;07:57:47:289;1448046825.27;(0.5174194812774658, 0.5172586229112413);22.3764858246;0.808542790945;;;;;;;;;;;;;;2;0;0;;0;0;();();(-2000.0, -2000.0);
07:57:47:416;07:57:47:289;1448046825.27;(0.5174194812774658, 0.5172586229112413);22.3764858246;0.808542790945;;;;;;;;;;;;;;2;0;0;;0;0;();();(-2000.0, -2000.0);
07:57:47:449;07:57:47:423;1448046825.41;(0.518886661529541, 0.5163345336914062);22.3085823059;0.868983129575;;;;;;;;;;;;;;2;0;0;;0;0;();();(-2000.0, -2000.0);
07:57:47:466;07:57:47:423;1448046825.41;(0.518886661529541, 0.5163345336914062);22.3085823059;0.868983129575;;;;;;;;;;;;;;2;0;0;;0;0;();();(-2000.0, -2000.0);
07:57:47:482;07:57:47:423;1448046825.41;(0.518886661529541, 0.5163345336914062);22.3085823059;0.868983129575;;;;;;;;;;;;;;2;0;0;;0;0;();();(-2000.0, -2000.0);
07:57:47:499;07:57:47:423;1448046825.41;(0.518886661529541, 0.5163345336914062);22.3085823059;0.868983129575;;;;;;;;;;;;;;2;0;0;;0;0;();();(-2000.0, -2000.0);
07:57:47:516;07:57:47:423;1448046825.41;(0.518886661529541, 0.5163345336914062);22.3085823059;0.868983129575;;;;;;;;;;;;;;2;0;0;;0;0;();();(-2000.0, -2000.0);
07:57:47:549;07:57:47:423;1448046825.41;(0.518886661529541, 0.5163345336914062);22.3085823059;0.868983129575;;;;;;;;;;;;;;2;0;0;;0;0;();();(-2000.0, -2000.0);
07:57:47:566;07:57:47:556;1448046825.54;(0.5186370849609375, 0.5165321773952908);22.0941257477;0.985714855547;;;;;;;;;;;;;;2;0;0;;0;0;();();(-2000.0, -2000.0);
07:57:47:582;07:57:47:556;1448046825.54;(0.5186370849609375, 0.5165321773952908);22.0941257477;0.985714855547;;;;;;;;;;;;;;2;0;0;;0;0;();();(-2000.0, -2000.0);
07:57:47:599;07:57:47:556;1448046825.54;(0.5186370849609375, 0.5165321773952908);22.0941257477;0.985714855547;;;;;;;;;;;;;;2;0;0;;0;0;();();(-2000.0, -2000.0);
07:57:47:616;07:57:47:556;1448046825.54;(0.5186370849609375, 0.5165321773952908);22.0941257477;0.985714855547;;;;;;;;;;;;;;2;0;0;;0;0;();();(-2000.0, -2000.0);
07:57:47:649;07:57:47:556;1448046825.54;(0.5186370849609375, 0.5165321773952908);22.0941257477;0.985714855547;;;;;;;;;;;;;;2;0;0;;0;0;();();(-2000.0, -2000.0);
07:57:47:666;07:57:47:556;1448046825.54;(0.5186370849609375, 0.5165321773952908);22.0941257477;0.985714855547;;;;;;;;;;;;;;2;0;0;;0;0;();();(-2000.0, -2000.0);
07:57:47:683;07:57:47:556;1448046825.54;(0.5186370849609375, 0.5165321773952908);22.0941257477;0.985714855547;;;;;;;;;;;;;;2;0;0;;0;0;();();(-2000.0, -2000.0);
07:57:47:699;07:57:47:684;1448046825.67;(0.5187070846557618, 0.5164676242404513);22.821269989;0.926512179179;;;;;;;;;;;;;;2;0;0;;0;0;();();(-2000.0, -2000.0);
07:57:47:716;07:57:47:684;1448046825.67;(0.5187070846557618, 0.5164676242404513);22.821269989;0.926512179179;;;;;;;;;;;;;;2;0;0;;0;0;();();(-2000.0, -2000.0);
07:57:47:749;07:57:47:684;1448046825.67;(0.5187070846557618, 0.5164676242404513);22.821269989;0.926512179179;;;;;;;;;;;;;;2;0;0;;0;0;();();(-2000.0, -2000.0);
07:57:47:766;07:57:47:684;1448046825.67;(0.5187070846557618, 0.5164676242404513);22.821269989;0.926512179179;;;;;;;;;;;;;;2;0;0;;0;0;();();(-2000.0, -2000.0);
07:57:47:783;07:57:47:684;1448046825.67;(0.5187070846557618, 0.5164676242404513);22.821269989;0.926512179179;;;;;;;;;;;;;;2;0;0;;0;0;();();(-2000.0, -2000.0);
07:57:47:799;07:57:47:684;1448046825.67;(0.5187070846557618, 0.5164676242404513);22.821269989;0.926512179179;;;;;;;;;;;;;;2;0;0;;0;0;();();(-2000.0, -2000.0);
07:57:47:816;07:57:47:684;1448046825.67;(0.5187070846557618, 0.5164676242404513);22.821269989;0.926512179179;;;;;;;;;;;;;;2;0;0;;0;0;();();(-2000.0, -2000.0);
07:57:47:849;07:57:47:823;1448046825.81;(0.5189131736755371, 0.5164115481906467);24.0534572601;1.0;;;;;;;;;;;;;;2;0;0;;0;0;();();(-2000.0, -2000.0);
07:57:47:866;07:57:47:823;1448046825.81;(0.5189131736755371, 0.5164115481906467);24.0534572601;1.0;;;;;;;;;;;;;;2;0;0;;0;0;();();(-2000.0, -2000.0);
07:57:47:883;07:57:47:823;1448046825.81;(0.5189131736755371, 0.5164115481906467);24.0534572601;1.0;;;;;;;;;;;;;;2;0;0;;0;0;();();(-2000.0, -2000.0);
07:57:47:899;07:57:47:823;1448046825.81;(0.5189131736755371, 0.5164115481906467);24.0534572601;1.0;;;;;;;;;;;;;;2;0;0;;0;0;();();(-2000.0, -2000.0);
07:57:47:916;07:57:47:823;1448046825.81;(0.5189131736755371, 0.5164115481906467);24.0534572601;1.0;;;;;;;;;;;;;;2;0;0;;0;0;();();(-2000.0, -2000.0);
07:57:47:949;07:57:47:823;1448046825.81;(0.5189131736755371, 0.5164115481906467);24.0534572601;1.0;;;;;;;;;;;;;;2;0;0;;0;0;();();(-2000.0, -2000.0);
07:57:47:966;07:57:47:953;1448046825.94;(0.5185262203216553, 0.5164167616102431);25.4875812531;0.843838397564;;;;;;;;;;;;;;2;0;0;;0;0;();();(-2000.0, -2000.0);
07:57:47:983;07:57:47:953;1448046825.94;(0.5185262203216553, 0.5164167616102431);25.4875812531;0.843838397564;;;;;;;;;;;;;;2;0;0;;0;0;();();(-2000.0, -2000.0);
07:57:47:999;07:57:47:953;1448046825.94;(0.5185262203216553, 0.5164167616102431);25.4875812531;0.843838397564;;;;;;;;;;;;;;2;0;0;;0;0;();();(-2000.0, -2000.0);
07:57:48:016;07:57:47:953;1448046825.94;(0.5185262203216553, 0.5164167616102431);25.4875812531;0.843838397564;;;;;;;;;;;;;;2;0;0;;0;0;();();(-2000.0, -2000.0);
07:57:48:050;07:57:47:953;1448046825.94;(0.5185262203216553, 0.5164167616102431);25.4875812531;0.843838397564;;;;;;;;;;;;;;2;0;0;;0;0;();();(-2000.0, -2000.0);
07:57:48:066;07:57:47:953;1448046825.94;(0.5185262203216553, 0.5164167616102431);25.4875812531;0.843838397564;;;;;;;;;;;;;;2;0;0;;0;0;();();(-2000.0, -2000.0);
07:57:48:083;07:57:47:953;1448046825.94;(0.5185262203216553, 0.5164167616102431);25.4875812531;0.843838397564;;;;;;;;;;;;;;2;0;0;;0;0;();();(-2000.0, -2000.0);
07:57:48:100;07:57:48:084;1448046826.07;(0.5192591667175293, 0.5161510467529297);25.2398376465;0.925546645074;;;;;;;;;;;;;;2;0;0;;0;0;();();(-2000.0, -2000.0);
07:57:48:116;07:57:48:084;1448046826.07;(0.5192591667175293, 0.5161510467529297);25.2398376465;0.925546645074;;;;;;;;;;;;;;2;0;0;;0;0;();();(-2000.0, -2000.0);
07:57:48:150;07:57:48:084;1448046826.07;(0.5192591667175293, 0.5161510467529297);25.2398376465;0.925546645074;;;;;;;;;;;;;;2;0;0;;0;0;();();(-2000.0, -2000.0);
07:57:48:166;07:57:48:084;1448046826.07;(0.5192591667175293, 0.5161510467529297);25.2398376465;0.925546645074;;;;;;;;;;;;;;2;0;0;;0;0;();();(-2000.0, -2000.0);
07:57:48:183;07:57:48:084;1448046826.07;(0.5192591667175293, 0.5161510467529297);25.2398376465;0.925546645074;;;;;;;;;;;;;;2;0;0;;0;0;();();(-2000.0, -2000.0);
07:57:48:199;07:57:48:084;1448046826.07;(0.5192591667175293, 0.5161510467529297);25.2398376465;0.925546645074;;;;;;;;;;;;;;2;0;0;;0;0;();();(-2000.0, -2000.0);
07:57:48:216;07:57:48:084;1448046826.07;(0.5192591667175293, 0.5161510467529297);25.2398376465;0.925546645074;;;;;;;;;;;;;;2;0;0;;0;0;();();(-2000.0, -2000.0);
07:57:48:250;07:57:48:216;1448046826.21;(0.5190100193023681, 0.5158880445692274);24.069234848;0.831625443313;;;;;;;;;;;;;;2;0;0;;0;0;();();(-2000.0, -2000.0);
07:57:48:266;07:57:48:216;1448046826.21;(0.5190100193023681, 0.5158880445692274);24.069234848;0.831625443313;;;;;;;;;;;;;;2;0;0;;0;0;();();(-2000.0, -2000.0);
07:57:48:283;07:57:48:216;1448046826.21;(0.5190100193023681, 0.5158880445692274);24.069234848;0.831625443313;;;;;;;;;;;;;;2;0;0;;0;0;();();(-2000.0, -2000.0);
07:57:48:300;07:57:48:216;1448046826.21;(0.5190100193023681, 0.5158880445692274);24.069234848;0.831625443313;;;;;;;;;;;;;;2;0;0;;0;0;();();(-2000.0, -2000.0);
07:57:48:316;07:57:48:216;1448046826.21;(0.5190100193023681, 0.5158880445692274);24.069234848;0.831625443313;;;;;;;;;;;;;;2;0;0;;0;0;();();(-2000.0, -2000.0);
07:57:48:350;07:57:48:348;1448046826.34;(0.5195108890533447, 0.5164057837592231);24.7860164642;1.0;;;;;;;;;;;;;;2;0;0;;0;0;();();(-2000.0, -2000.0);
07:57:48:366;07:57:48:348;1448046826.34;(0.5195108890533447, 0.5164057837592231);24.7860164642;1.0;;;;;;;;;;;;;;2;0;0;;0;0;();();(-2000.0, -2000.0);
07:57:48:383;07:57:48:348;1448046826.34;(0.5195108890533447, 0.5164057837592231);24.7860164642;1.0;;;;;;;;;;;;;;2;0;0;;0;0;();();(-2000.0, -2000.0);
07:57:48:400;07:57:48:348;1448046826.34;(0.5195108890533447, 0.5164057837592231);24.7860164642;1.0;;;;;;;;;;;;;;2;0;0;;0;0;();();(-2000.0, -2000.0);
07:57:48:416;07:57:48:348;1448046826.34;(0.5195108890533447, 0.5164057837592231);24.7860164642;1.0;;;;;;;;;;;;;;2;0;0;;0;0;();();(-2000.0, -2000.0);
07:57:48:450;07:57:48:348;1448046826.34;(0.5195108890533447, 0.5164057837592231);24.7860164642;1.0;;;;;;;;;;;;;;2;0;0;;0;0;();();(-2000.0, -2000.0);
07:57:48:466;07:57:48:348;1448046826.34;(0.5195108890533447, 0.5164057837592231);24.7860164642;1.0;;;;;;;;;;;;;;2;0;0;;0;0;();();(-2000.0, -2000.0);
07:57:48:483;07:57:48:348;1448046826.34;(0.5195108890533447, 0.5164057837592231);24.7860164642;1.0;;;;;;;;;;;;;;2;0;0;;0;0;();();(-2000.0, -2000.0);
07:57:48:500;07:57:48:484;1448046826.47;(0.5193196296691894, 0.5163250817192926);24.8539924622;0.943306482542;;;;;;;;;;;;;;2;0;0;;0;0;();();(-2000.0, -2000.0);
07:57:48:517;07:57:48:484;1448046826.47;(0.5193196296691894, 0.5163250817192926);24.8539924622;0.943306482542;;;;;;;;;;;;;;2;0;0;;0;0;();();(-2000.0, -2000.0);
07:57:48:550;07:57:48:484;1448046826.47;(0.5193196296691894, 0.5163250817192926);24.8539924622;0.943306482542;;;;;;;;;;;;;;2;0;0;;0;0;();();(-2000.0, -2000.0);
07:57:48:567;07:57:48:484;1448046826.47;(0.5193196296691894, 0.5163250817192926);24.8539924622;0.943306482542;;;;;;;;;;;;;;2;0;0;;0;0;();();(-2000.0, -2000.0);
07:57:48:583;07:57:48:484;1448046826.47;(0.5193196296691894, 0.5163250817192926);24.8539924622;0.943306482542;;;;;;;;;;;;;;2;0;0;;0;0;();();(-2000.0, -2000.0);
07:57:48:600;07:57:48:484;1448046826.47;(0.5193196296691894, 0.5163250817192926);24.8539924622;0.943306482542;;;;;;;;;;;;;;2;0;0;;0;0;();();(-2000.0, -2000.0);
07:57:48:617;07:57:48:616;1448046826.61;(0.5188456535339355, 0.5164205763075087);25.1626491547;1.0;;;;;;;;;;;;;;2;0;0;;0;0;();();(-2000.0, -2000.0);
07:57:48:650;07:57:48:616;1448046826.61;(0.5188456535339355, 0.5164205763075087);25.1626491547;1.0;;;;;;;;;;;;;;2;0;0;;0;0;();();(-2000.0, -2000.0);
07:57:48:667;07:57:48:616;1448046826.61;(0.5188456535339355, 0.5164205763075087);25.1626491547;1.0;;;;;;;;;;;;;;2;0;0;;0;0;();();(-2000.0, -2000.0);
07:57:48:683;07:57:48:616;1448046826.61;(0.5188456535339355, 0.5164205763075087);25.1626491547;1.0;;;;;;;;;;;;;;2;0;0;;0;0;();();(-2000.0, -2000.0);
07:57:48:700;07:57:48:616;1448046826.61;(0.5188456535339355, 0.5164205763075087);25.1626491547;1.0;;;;;;;;;;;;;;2;0;0;;0;0;();();(-2000.0, -2000.0);
07:57:48:717;07:57:48:616;1448046826.61;(0.5188456535339355, 0.5164205763075087);25.1626491547;1.0;;;;;;;;;;;;;;2;0;0;;0;0;();();(-2000.0, -2000.0);
07:57:48:750;07:57:48:750;1448046826.74;(0.5194599628448486, 0.5154730902777778);25.0506572723;0.866595109845;;;;;;;;;;;;;;2;0;0;;0;0;();();(-2000.0, -2000.0);
07:57:48:768;07:57:48:750;1448046826.74;(0.5194599628448486, 0.5154730902777778);25.0506572723;0.866595109845;;;;;;;;;;;;;;4;0;0;;0;0;();();(-2000.0, -2000.0);
07:57:48:783;07:57:48:750;1448046826.74;(0.5194599628448486, 0.5154730902777778);25.0506572723;0.866595109845;;;;;;;;;;;;;;4;0;0;;0;0;();();(-2000.0, -2000.0);
07:57:48:800;07:57:48:750;1448046826.74;(0.5194599628448486, 0.5154730902777778);25.0506572723;0.866595109845;;;;;;;;;;;;;;4;0;0;;0;0;();();(-2000.0, -2000.0);
07:57:48:817;07:57:48:750;1448046826.74;(0.5194599628448486, 0.5154730902777778);25.0506572723;0.866595109845;;;;;;;;;;;;;;4;0;0;;0;0;();();(-2000.0, -2000.0);
07:57:48:850;07:57:48:750;1448046826.74;(0.5194599628448486, 0.5154730902777778);25.0506572723;0.866595109845;;;;;;;;;;;;;;4;0;0;;0;0;();();(-2000.0, -2000.0);
07:57:48:866;07:57:48:750;1448046826.74;(0.5194599628448486, 0.5154730902777778);25.0506572723;0.866595109845;;;;;;;;;;;;;;4;0;0;;0;0;();();(-2000.0, -2000.0);
07:57:48:884;07:57:48:750;1448046826.74;(0.5194599628448486, 0.5154730902777778);25.0506572723;0.866595109845;;;;;;;;;;;;;;4;0;0;;0;0;();();(-2000.0, -2000.0);
07:57:48:900;07:57:48:750;1448046826.74;(0.5194599628448486, 0.5154730902777778);25.0506572723;0.866595109845;;;;;;;;;;;;;;4;0;0;;0;0;();();(-2000.0, -2000.0);
07:57:48:917;07:57:48:750;1448046826.74;(0.5194599628448486, 0.5154730902777778);25.0506572723;0.866595109845;;;;;;;;;;;;;;4;0;0;;0;0;();();(-2000.0, -2000.0);
07:57:48:950;07:57:48:948;1448046826.87;(0.29564087390899657, 0.49782727559407547);25.0883789062;0.749652389976;;;;;;;;;;;;;;4;0;0;;0;0;();();(-2000.0, -2000.0);
07:57:48:967;07:57:48:948;1448046826.87;(0.29564087390899657, 0.49782727559407547);25.0883789062;0.749652389976;;;;;;;;;;;;;;4;0;0;;0;0;();();(-2000.0, -2000.0);
07:57:48:984;07:57:48:948;1448046826.87;(0.29564087390899657, 0.49782727559407547);25.0883789062;0.749652389976;;;;;;;;;;;;;;4;0;0;;0;0;();();(-2000.0, -2000.0);
07:57:49:000;07:57:48:948;1448046826.87;(0.29564087390899657, 0.49782727559407547);25.0883789062;0.749652389976;;;;;;;;;;;;;;4;0;0;;0;0;();();(-2000.0, -2000.0);
07:57:49:017;07:57:49:012;1448046827.01;(0.5194304943084717, 0.5157603369818793);23.3820877075;0.988745130739;;;;;;;;;;;;;;4;0;0;;0;0;();();(-2000.0, -2000.0);
07:57:49:050;07:57:49:012;1448046827.01;(0.5194304943084717, 0.5157603369818793);23.3820877075;0.988745130739;;;;;;;;;;;;;;4;0;0;;0;0;();();(-2000.0, -2000.0);
07:57:49:067;07:57:49:012;1448046827.01;(0.5194304943084717, 0.5157603369818793);23.3820877075;0.988745130739;;;;;;;;;;;;;;4;0;0;;0;0;();();(-2000.0, -2000.0);
07:57:49:084;07:57:49:012;1448046827.01;(0.5194304943084717, 0.5157603369818793);23.3820877075;0.988745130739;;;;;;;;;;;;;;4;0;0;;0;0;();();(-2000.0, -2000.0);
07:57:49:100;07:57:49:012;1448046827.01;(0.5194304943084717, 0.5157603369818793);23.3820877075;0.988745130739;;;;;;;;;;;;;;4;0;0;;0;0;();();(-2000.0, -2000.0);
07:57:49:117;07:57:49:012;1448046827.01;(0.5194304943084717, 0.5157603369818793);23.3820877075;0.988745130739;;;;;;;;;;;;;;4;0;0;;0;0;();();(-2000.0, -2000.0);
07:57:49:150;07:57:49:145;1448046827.14;(0.5190534114837646, 0.5163627624511719);24.2896080017;0.998809230957;;;;;;;;;;;;;;4;0;0;;0;0;();();(-2000.0, -2000.0);
07:57:49:167;07:57:49:145;1448046827.14;(0.5190534114837646, 0.5163627624511719);24.2896080017;0.998809230957;;;;;;;;;;;;;;4;0;0;;0;0;();();(-2000.0, -2000.0);
07:57:49:184;07:57:49:145;1448046827.14;(0.5190534114837646, 0.5163627624511719);24.2896080017;0.998809230957;;;;;;;;;;;;;;4;0;0;;0;0;();();(-2000.0, -2000.0);
07:57:49:200;07:57:49:145;1448046827.14;(0.5190534114837646, 0.5163627624511719);24.2896080017;0.998809230957;;;;;;;;;;;;;;4;0;0;;0;0;();();(-2000.0, -2000.0);
07:57:49:217;07:57:49:145;1448046827.14;(0.5190534114837646, 0.5163627624511719);24.2896080017;0.998809230957;;;;;;;;;;;;;;4;0;0;;0;0;();();(-2000.0, -2000.0);
07:57:49:250;07:57:49:145;1448046827.14;(0.5190534114837646, 0.5163627624511719);24.2896080017;0.998809230957;;;;;;;;;;;;;;4;0;0;;0;0;();();(-2000.0, -2000.0);
07:57:49:267;07:57:49:145;1448046827.14;(0.5190534114837646, 0.5163627624511719);24.2896080017;0.998809230957;;;;;;;;;;;;;;4;0;0;;0;0;();();(-2000.0, -2000.0);
07:57:49:284;07:57:49:281;1448046827.27;(0.5189676284790039, 0.5164090898301866);25.6007919312;0.937691870106;;;;;;;;;;;;;;4;0;0;;0;0;();();(-2000.0, -2000.0);
07:57:49:300;07:57:49:281;1448046827.27;(0.5189676284790039, 0.5164090898301866);25.6007919312;0.937691870106;;;;;;;;;;;;;;4;0;0;;0;0;();();(-2000.0, -2000.0);
07:57:49:317;07:57:49:281;1448046827.27;(0.5189676284790039, 0.5164090898301866);25.6007919312;0.937691870106;;;;;;;;;;;;;;4;0;0;;0;0;();();(-2000.0, -2000.0);
07:57:49:350;07:57:49:281;1448046827.27;(0.5189676284790039, 0.5164090898301866);25.6007919312;0.937691870106;;;;;;;;;;;;;;4;0;0;;0;0;();();(-2000.0, -2000.0);
07:57:49:367;07:57:49:281;1448046827.27;(0.5189676284790039, 0.5164090898301866);25.6007919312;0.937691870106;;;;;;;;;;;;;;4;0;0;;0;0;();();(-2000.0, -2000.0);
07:57:49:384;07:57:49:281;1448046827.27;(0.5189676284790039, 0.5164090898301866);25.6007919312;0.937691870106;;;;;;;;;;;;;;4;0;0;;0;0;();();(-2000.0, -2000.0);
07:57:49:401;07:57:49:281;1448046827.27;(0.5189676284790039, 0.5164090898301866);25.6007919312;0.937691870106;;;;;;;;;;;;;;4;0;0;;0;0;();();(-2000.0, -2000.0);
07:57:49:417;07:57:49:412;1448046827.41;(0.5190995693206787, 0.5161763932969835);25.3607845306;0.878713816499;;;;;;;;;;;;;;4;0;0;;0;0;();();(-2000.0, -2000.0);
07:57:49:451;07:57:49:412;1448046827.41;(0.5190995693206787, 0.5161763932969835);25.3607845306;0.878713816499;;;;;;;;;;;;;;4;0;0;;0;0;();();(-2000.0, -2000.0);
07:57:49:467;07:57:49:412;1448046827.41;(0.5190995693206787, 0.5161763932969835);25.3607845306;0.878713816499;;;;;;;;;;;;;;4;0;0;;0;0;();();(-2000.0, -2000.0);
07:57:49:484;07:57:49:412;1448046827.41;(0.5190995693206787, 0.5161763932969835);25.3607845306;0.878713816499;;;;;;;;;;;;;;4;0;0;;0;0;();();(-2000.0, -2000.0);
07:57:49:501;07:57:49:412;1448046827.41;(0.5190995693206787, 0.5161763932969835);25.3607845306;0.878713816499;;;;;;;;;;;;;;4;0;0;;0;0;();();(-2000.0, -2000.0);
07:57:49:517;07:57:49:412;1448046827.41;(0.5190995693206787, 0.5161763932969835);25.3607845306;0.878713816499;;;;;;;;;;;;;;4;0;0;;0;0;();();(-2000.0, -2000.0);
07:57:49:551;07:57:49:545;1448046827.54;(0.5195278644561767, 0.5162719302707248);24.761007309;0.875791911662;;;;;;;;;;;;;;4;0;0;;0;0;();();(-2000.0, -2000.0);
07:57:49:567;07:57:49:545;1448046827.54;(0.5195278644561767, 0.5162719302707248);24.761007309;0.875791911662;;;;;;;;;;;;;;4;0;0;;0;0;();();(-2000.0, -2000.0);
07:57:49:584;07:57:49:545;1448046827.54;(0.5195278644561767, 0.5162719302707248);24.761007309;0.875791911662;;;;;;;;;;;;;;4;0;0;;0;0;();();(-2000.0, -2000.0);
07:57:49:601;07:57:49:545;1448046827.54;(0.5195278644561767, 0.5162719302707248);24.761007309;0.875791911662;;;;;;;;;;;;;;4;0;0;;0;0;();();(-2000.0, -2000.0);
07:57:49:617;07:57:49:545;1448046827.54;(0.5195278644561767, 0.5162719302707248);24.761007309;0.875791911662;;;;;;;;;;;;;;4;0;0;;0;0;();();(-2000.0, -2000.0);
07:57:49:651;07:57:49:545;1448046827.54;(0.5195278644561767, 0.5162719302707248);24.761007309;0.875791911662;;;;;;;;;;;;;;4;0;0;;0;0;();();(-2000.0, -2000.0);
07:57:49:667;07:57:49:545;1448046827.54;(0.5195278644561767, 0.5162719302707248);24.761007309;0.875791911662;;;;;;;;;;;;;;4;0;0;;0;0;();();(-2000.0, -2000.0);
07:57:49:684;07:57:49:679;1448046827.67;(0.5194685935974122, 0.5161993238661025);25.4292488098;1.0;;;;;;;;;;;;;;4;0;0;;0;0;();();(-2000.0, -2000.0);
07:57:49:701;07:57:49:679;1448046827.67;(0.5194685935974122, 0.5161993238661025);25.4292488098;1.0;;;;;;;;;;;;;;4;0;0;;0;0;();();(-2000.0, -2000.0);
07:57:49:717;07:57:49:679;1448046827.67;(0.5194685935974122, 0.5161993238661025);25.4292488098;1.0;;;;;;;;;;;;;;4;0;0;;0;0;();();(-2000.0, -2000.0);
07:57:49:751;07:57:49:679;1448046827.67;(0.5194685935974122, 0.5161993238661025);25.4292488098;1.0;;;;;;;;;;;;;;4;0;0;;0;0;();();(-2000.0, -2000.0);
07:57:49:767;07:57:49:679;1448046827.67;(0.5194685935974122, 0.5161993238661025);25.4292488098;1.0;;;;;;;;;;;;;;4;0;0;;0;0;();();(-2000.0, -2000.0);
07:57:49:784;07:57:49:679;1448046827.67;(0.5194685935974122, 0.5161993238661025);25.4292488098;1.0;;;;;;;;;;;;;;4;0;0;;0;0;();();(-2000.0, -2000.0);
07:57:49:801;07:57:49:679;1448046827.67;(0.5194685935974122, 0.5161993238661025);25.4292488098;1.0;;;;;;;;;;;;;;4;0;0;;0;0;();();(-2000.0, -2000.0);
07:57:49:817;07:57:49:812;1448046827.81;(0.5184486389160157, 0.5170022752549913);25.3072433472;0.852267571576;;;;;;;;;;;;;;4;0;0;;0;0;();();(-2000.0, -2000.0);
07:57:49:851;07:57:49:812;1448046827.81;(0.5184486389160157, 0.5170022752549913);25.3072433472;0.852267571576;;;;;;;;;;;;;;4;0;0;;0;0;();();(-2000.0, -2000.0);
07:57:49:867;07:57:49:812;1448046827.81;(0.5184486389160157, 0.5170022752549913);25.3072433472;0.852267571576;;;;;;;;;;;;;;4;0;0;;0;0;();();(-2000.0, -2000.0);
07:57:49:884;07:57:49:812;1448046827.81;(0.5184486389160157, 0.5170022752549913);25.3072433472;0.852267571576;;;;;;;;;;;;;;4;0;0;;0;0;();();(-2000.0, -2000.0);
07:57:49:901;07:57:49:812;1448046827.81;(0.5184486389160157, 0.5170022752549913);25.3072433472;0.852267571576;;;;;;;;;;;;;;4;0;0;;0;0;();();(-2000.0, -2000.0);
07:57:49:918;07:57:49:812;1448046827.81;(0.5184486389160157, 0.5170022752549913);25.3072433472;0.852267571576;;;;;;;;;;;;;;4;0;0;;0;0;();();(-2000.0, -2000.0);
07:57:49:951;07:57:49:945;1448046827.94;(0.5185459136962891, 0.5168281979031033);26.0574550629;1.0;;;;;;;;;;;;;;4;0;0;;0;0;();();(-2000.0, -2000.0);
07:57:49:968;07:57:49:945;1448046827.94;(0.5185459136962891, 0.5168281979031033);26.0574550629;1.0;;;;;;;;;;;;;;4;0;0;;0;0;();();(-2000.0, -2000.0);
07:57:49:984;07:57:49:945;1448046827.94;(0.5185459136962891, 0.5168281979031033);26.0574550629;1.0;;;;;;;;;;;;;;4;0;0;;0;0;();();(-2000.0, -2000.0);
07:57:50:001;07:57:49:945;1448046827.94;(0.5185459136962891, 0.5168281979031033);26.0574550629;1.0;;;;;;;;;;;;;;4;0;0;;0;0;();();(-2000.0, -2000.0);
07:57:50:018;07:57:49:945;1448046827.94;(0.5185459136962891, 0.5168281979031033);26.0574550629;1.0;;;;;;;;;;;;;;4;0;0;;0;0;();();(-2000.0, -2000.0);
07:57:50:051;07:57:49:945;1448046827.94;(0.5185459136962891, 0.5168281979031033);26.0574550629;1.0;;;;;;;;;;;;;;4;0;0;;0;0;();();(-2000.0, -2000.0);
07:57:50:068;07:57:49:945;1448046827.94;(0.5185459136962891, 0.5168281979031033);26.0574550629;1.0;;;;;;;;;;;;;;4;0;0;;0;0;();();(-2000.0, -2000.0);
07:57:50:084;07:57:50:079;1448046828.07;(0.5172011852264404, 0.517486826578776);21.1684379578;0.966140408036;;;;;;;;;;;;;;4;0;0;;0;0;();();(-2000.0, -2000.0);
07:57:50:101;07:57:50:079;1448046828.07;(0.5172011852264404, 0.517486826578776);21.1684379578;0.966140408036;;;;;;;;;;;;;;4;0;0;;0;0;();();(-2000.0, -2000.0);
07:57:50:118;07:57:50:079;1448046828.07;(0.5172011852264404, 0.517486826578776);21.1684379578;0.966140408036;;;;;;;;;;;;;;4;0;0;;0;0;();();(-2000.0, -2000.0);
07:57:50:151;07:57:50:079;1448046828.07;(0.5172011852264404, 0.517486826578776);21.1684379578;0.966140408036;;;;;;;;;;;;;;4;0;0;;0;0;();();(-2000.0, -2000.0);
07:57:50:168;07:57:50:079;1448046828.07;(0.5172011852264404, 0.517486826578776);21.1684379578;0.966140408036;;;;;;;;;;;;;;4;0;0;;0;0;();();(-2000.0, -2000.0);
07:57:50:184;07:57:50:079;1448046828.07;(0.5172011852264404, 0.517486826578776);21.1684379578;0.966140408036;;;;;;;;;;;;;;4;0;0;;0;0;();();(-2000.0, -2000.0);
07:57:50:200;07:57:50:079;1448046828.07;(0.5172011852264404, 0.517486826578776);21.1684379578;0.966140408036;;;;;;;;;;;;;;4;0;0;;0;0;();();(-2000.0, -2000.0);
07:57:50:218;07:57:50:079;1448046828.07;(0.5172011852264404, 0.517486826578776);21.1684379578;0.966140408036;;;;;;;;;;;;;;4;0;0;;0;0;();();(-2000.0, -2000.0);
07:57:50:251;07:57:50:079;1448046828.07;(0.5172011852264404, 0.517486826578776);21.1684379578;0.966140408036;;;;;;;;;;;;;;4;0;0;;0;0;();();(-2000.0, -2000.0);
07:57:50:268;07:57:50:079;1448046828.07;(0.5172011852264404, 0.517486826578776);21.1684379578;0.966140408036;;;;;;;;;;;;;;4;0;0;;0;0;();();(-2000.0, -2000.0);
07:57:50:285;07:57:50:276;1448046828.21;(0.6630863666534423, 0.40813437567816835);34.0896224976;0.731861461255;;;;;;;;;;;;;;4;0;0;;0;0;();();(-2000.0, -2000.0);
07:57:50:301;07:57:50:276;1448046828.21;(0.6630863666534423, 0.40813437567816835);34.0896224976;0.731861461255;;;;;;;;;;;;;;4;0;0;;0;0;();();(-2000.0, -2000.0);
07:57:50:318;07:57:50:276;1448046828.21;(0.6630863666534423, 0.40813437567816835);34.0896224976;0.731861461255;;;;;;;;;;;;;;4;0;0;;0;0;();();(-2000.0, -2000.0);
07:57:50:335;07:57:50:276;1448046828.21;(0.6630863666534423, 0.40813437567816835);34.0896224976;0.731861461255;;;;;;;;;;;;;;4;0;0;;0;0;();();(-2000.0, -2000.0);
07:57:50:368;07:57:50:276;1448046828.21;(0.6630863666534423, 0.40813437567816835);34.0896224976;0.731861461255;;;;;;;;;;;;;;4;0;0;;0;0;();();(-2000.0, -2000.0);
07:57:50:385;07:57:50:276;1448046828.21;(0.6630863666534423, 0.40813437567816835);34.0896224976;0.731861461255;;;;;;;;;;;;;;4;0;0;;0;0;();();(-2000.0, -2000.0);
07:57:50:401;07:57:50:276;1448046828.21;(0.6630863666534423, 0.40813437567816835);34.0896224976;0.731861461255;;;;;;;;;;;;;;4;0;0;;0;0;();();(-2000.0, -2000.0);
07:57:50:418;07:57:50:409;1448046828.34;(0.5187523841857911, 0.516118664211697);24.2263908386;0.945148198556;;;;;;;;;;;;;;4;0;0;;0;0;();();(-2000.0, -2000.0);
07:57:50:435;07:57:50:409;1448046828.34;(0.5187523841857911, 0.516118664211697);24.2263908386;0.945148198556;;;;;;;;;;;;;;4;0;0;;0;0;();();(-2000.0, -2000.0);
07:57:50:468;07:57:50:409;1448046828.34;(0.5187523841857911, 0.516118664211697);24.2263908386;0.945148198556;;;;;;;;;;;;;;4;0;0;;0;0;();();(-2000.0, -2000.0);
07:57:50:485;07:57:50:473;1448046828.47;(0.5185273170471192, 0.5164247300889757);25.4700222015;1.0;;;;;;;;;;;;;;4;0;0;;0;0;();();(-2000.0, -2000.0);
07:57:50:501;07:57:50:473;1448046828.47;(0.5185273170471192, 0.5164247300889757);25.4700222015;1.0;;;;;;;;;;;;;;4;0;0;;0;0;();();(-2000.0, -2000.0);
07:57:50:518;07:57:50:473;1448046828.47;(0.5185273170471192, 0.5164247300889757);25.4700222015;1.0;;;;;;;;;;;;;;4;0;0;;0;0;();();(-2000.0, -2000.0);
07:57:50:551;07:57:50:473;1448046828.47;(0.5185273170471192, 0.5164247300889757);25.4700222015;1.0;;;;;;;;;;;;;;4;0;0;;0;0;();();(-2000.0, -2000.0);
07:57:50:568;07:57:50:473;1448046828.47;(0.5185273170471192, 0.5164247300889757);25.4700222015;1.0;;;;;;;;;;;;;;4;0;0;;0;0;();();(-2000.0, -2000.0);
07:57:50:585;07:57:50:473;1448046828.47;(0.5185273170471192, 0.5164247300889757);25.4700222015;1.0;;;;;;;;;;;;;;4;0;0;;0;0;();();(-2000.0, -2000.0);
07:57:50:601;07:57:50:473;1448046828.47;(0.5185273170471192, 0.5164247300889757);25.4700222015;1.0;;;;;;;;;;;;;;4;0;0;;0;0;();();(-2000.0, -2000.0);
07:57:50:618;07:57:50:608;1448046828.61;(0.518326711654663, 0.5167859819200304);25.5859928131;0.899101472933;;;;;;;;;;;;;;4;0;0;;0;0;();();(-2000.0, -2000.0);
07:57:50:635;07:57:50:608;1448046828.61;(0.518326711654663, 0.5167859819200304);25.5859928131;0.899101472933;;;;;;;;;;;;;;4;0;0;;0;0;();();(-2000.0, -2000.0);
07:57:50:668;07:57:50:608;1448046828.61;(0.518326711654663, 0.5167859819200304);25.5859928131;0.899101472933;;;;;;;;;;;;;;4;0;0;;0;0;();();(-2000.0, -2000.0);
07:57:50:685;07:57:50:608;1448046828.61;(0.518326711654663, 0.5167859819200304);25.5859928131;0.899101472933;;;;;;;;;;;;;;4;0;0;;0;0;();();(-2000.0, -2000.0);
07:57:50:702;07:57:50:608;1448046828.61;(0.518326711654663, 0.5167859819200304);25.5859928131;0.899101472933;;;;;;;;;;;;;;4;0;0;;0;0;();();(-2000.0, -2000.0);
07:57:50:718;07:57:50:608;1448046828.61;(0.518326711654663, 0.5167859819200304);25.5859928131;0.899101472933;;;;;;;;;;;;;;4;0;0;;0;0;();();(-2000.0, -2000.0);
07:57:50:735;07:57:50:608;1448046828.61;(0.518326711654663, 0.5167859819200304);25.5859928131;0.899101472933;;;;;;;;;;;;;;4;0;0;;0;0;();();(-2000.0, -2000.0);
07:57:50:768;07:57:50:740;1448046828.74;(0.5185510635375976, 0.5163912455240885);25.9140281677;0.851709768724;;;;;;;;;;;;;;4;0;0;;0;0;();();(-2000.0, -2000.0);
07:57:50:785;07:57:50:740;1448046828.74;(0.5185510635375976, 0.5163912455240885);25.9140281677;0.851709768724;;;;;;;;;;;;;;4;0;0;;0;0;();();(-2000.0, -2000.0);
07:57:50:802;07:57:50:740;1448046828.74;(0.5185510635375976, 0.5163912455240885);25.9140281677;0.851709768724;;;;;;;;;;;;;;4;0;0;;0;0;();();(-2000.0, -2000.0);
07:57:50:818;07:57:50:740;1448046828.74;(0.5185510635375976, 0.5163912455240885);25.9140281677;0.851709768724;;;;;;;;;;;;;;4;0;0;;0;0;();();(-2000.0, -2000.0);
07:57:50:835;07:57:50:740;1448046828.74;(0.5185510635375976, 0.5163912455240885);25.9140281677;0.851709768724;;;;;;;;;;;;;;4;0;0;;0;0;();();(-2000.0, -2000.0);
07:57:50:868;07:57:50:740;1448046828.74;(0.5185510635375976, 0.5163912455240885);25.9140281677;0.851709768724;;;;;;;;;;;;;;4;0;0;;0;0;();();(-2000.0, -2000.0);
07:57:50:885;07:57:50:873;1448046828.87;(0.5186932563781739, 0.5165601942274305);25.5851020813;0.847390901744;;;;;;;;;;;;;;4;0;0;;0;0;();();(-2000.0, -2000.0);
07:57:50:902;07:57:50:873;1448046828.87;(0.5186932563781739, 0.5165601942274305);25.5851020813;0.847390901744;;;;;;;;;;;;;;4;0;0;;0;0;();();(-2000.0, -2000.0);
07:57:50:918;07:57:50:873;1448046828.87;(0.5186932563781739, 0.5165601942274305);25.5851020813;0.847390901744;;;;;;;;;;;;;;4;0;0;;0;0;();();(-2000.0, -2000.0);
07:57:50:935;07:57:50:873;1448046828.87;(0.5186932563781739, 0.5165601942274305);25.5851020813;0.847390901744;;;;;;;;;;;;;;4;0;0;;0;0;();();(-2000.0, -2000.0);
07:57:50:968;07:57:50:873;1448046828.87;(0.5186932563781739, 0.5165601942274305);25.5851020813;0.847390901744;;;;;;;;;;;;;;4;0;0;;0;0;();();(-2000.0, -2000.0);
07:57:50:985;07:57:50:873;1448046828.87;(0.5186932563781739, 0.5165601942274305);25.5851020813;0.847390901744;;;;;;;;;;;;;;4;0;0;;0;0;();();(-2000.0, -2000.0);
07:57:51:002;07:57:50:873;1448046828.87;(0.5186932563781739, 0.5165601942274305);25.5851020813;0.847390901744;;;;;;;;;;;;;;4;0;0;;0;0;();();(-2000.0, -2000.0);
07:57:51:018;07:57:51:005;1448046829.01;(0.5186319828033448, 0.5159842597113715);25.0601234436;0.806746008192;;;;;;;;;;;;;;4;0;0;;0;0;();();(-2000.0, -2000.0);
07:57:51:035;07:57:51:005;1448046829.01;(0.5186319828033448, 0.5159842597113715);25.0601234436;0.806746008192;;;;;;;;;;;;;;4;0;0;;0;0;();();(-2000.0, -2000.0);
07:57:51:068;07:57:51:005;1448046829.01;(0.5186319828033448, 0.5159842597113715);25.0601234436;0.806746008192;;;;;;;;;;;;;;4;0;0;;0;0;();();(-2000.0, -2000.0);
07:57:51:085;07:57:51:005;1448046829.01;(0.5186319828033448, 0.5159842597113715);25.0601234436;0.806746008192;;;;;;;;;;;;;;4;0;0;;0;0;();();(-2000.0, -2000.0);
07:57:51:102;07:57:51:005;1448046829.01;(0.5186319828033448, 0.5159842597113715);25.0601234436;0.806746008192;;;;;;;;;;;;;;4;0;0;;0;0;();();(-2000.0, -2000.0);
07:57:51:118;07:57:51:005;1448046829.01;(0.5186319828033448, 0.5159842597113715);25.0601234436;0.806746008192;;;;;;;;;;;;;;4;0;0;;0;0;();();(-2000.0, -2000.0);
07:57:51:135;07:57:51:005;1448046829.01;(0.5186319828033448, 0.5159842597113715);25.0601234436;0.806746008192;;;;;;;;;;;;;;4;0;0;;0;0;();();(-2000.0, -2000.0);
07:57:51:168;07:57:51:005;1448046829.01;(0.5186319828033448, 0.5159842597113715);25.0601234436;0.806746008192;;;;;;;;;;;;;;4;0;0;;0;0;();();(-2000.0, -2000.0);
07:57:51:185;07:57:51:005;1448046829.01;(0.5186319828033448, 0.5159842597113715);25.0601234436;0.806746008192;;;;;;;;;;;;;;4;0;0;;0;0;();();(-2000.0, -2000.0);
07:57:51:201;07:57:51:005;1448046829.01;(0.5186319828033448, 0.5159842597113715);25.0601234436;0.806746008192;;;;;;;;;;;;;;4;0;0;;0;0;();();(-2000.0, -2000.0);
07:57:51:219;07:57:51:204;1448046829.14;(0.5189479351043701, 0.516127692328559);24.315656662;0.903128976216;;;;;;;;;;;;;;4;0;0;;0;0;();();(-2000.0, -2000.0);
07:57:51:235;07:57:51:204;1448046829.14;(0.5189479351043701, 0.516127692328559);24.315656662;0.903128976216;;;;;;;;;;;;;;4;0;0;;0;0;();();(-2000.0, -2000.0);
07:57:51:269;07:57:51:204;1448046829.14;(0.5189479351043701, 0.516127692328559);24.315656662;0.903128976216;;;;;;;;;;;;;;4;0;0;;0;0;();();(-2000.0, -2000.0);
07:57:51:285;07:57:51:273;1448046829.27;(0.5190157413482666, 0.5160637325710721);24.1217861176;0.978904599066;;;;;;;;;;;;;;4;0;0;;0;0;();();(-2000.0, -2000.0);
07:57:51:302;07:57:51:273;1448046829.27;(0.5190157413482666, 0.5160637325710721);24.1217861176;0.978904599066;;;;;;;;;;;;;;4;0;0;;0;0;();();(-2000.0, -2000.0);
07:57:51:319;07:57:51:273;1448046829.27;(0.5190157413482666, 0.5160637325710721);24.1217861176;0.978904599066;;;;;;;;;;;;;;4;0;0;;0;0;();();(-2000.0, -2000.0);
07:57:51:335;07:57:51:273;1448046829.27;(0.5190157413482666, 0.5160637325710721);24.1217861176;0.978904599066;;;;;;;;;;;;;;4;0;0;;0;0;();();(-2000.0, -2000.0);
07:57:51:369;07:57:51:273;1448046829.27;(0.5190157413482666, 0.5160637325710721);24.1217861176;0.978904599066;;;;;;;;;;;;;;4;0;0;;0;0;();();(-2000.0, -2000.0);
07:57:51:385;07:57:51:273;1448046829.27;(0.5190157413482666, 0.5160637325710721);24.1217861176;0.978904599066;;;;;;;;;;;;;;4;0;0;;0;0;();();(-2000.0, -2000.0);
07:57:51:402;07:57:51:273;1448046829.27;(0.5190157413482666, 0.5160637325710721);24.1217861176;0.978904599066;;;;;;;;;;;;;;4;0;0;;0;0;();();(-2000.0, -2000.0);
07:57:51:419;07:57:51:407;1448046829.41;(0.5188803195953369, 0.5161475287543402);24.4920711517;0.926101391703;;;;;;;;;;;;;;4;0;0;;0;0;();();(-2000.0, -2000.0);
07:57:51:435;07:57:51:407;1448046829.41;(0.5188803195953369, 0.5161475287543402);24.4920711517;0.926101391703;;;;;;;;;;;;;;4;0;0;;0;0;();();(-2000.0, -2000.0);
07:57:51:469;07:57:51:407;1448046829.41;(0.5188803195953369, 0.5161475287543402);24.4920711517;0.926101391703;;;;;;;;;;;;;;4;0;0;;0;0;();();(-2000.0, -2000.0);
07:57:51:485;07:57:51:407;1448046829.41;(0.5188803195953369, 0.5161475287543402);24.4920711517;0.926101391703;;;;;;;;;;;;;;4;0;0;;0;0;();();(-2000.0, -2000.0);
07:57:51:502;07:57:51:407;1448046829.41;(0.5188803195953369, 0.5161475287543402);24.4920711517;0.926101391703;;;;;;;;;;;;;;4;0;0;;0;0;();();(-2000.0, -2000.0);
07:57:51:519;07:57:51:407;1448046829.41;(0.5188803195953369, 0.5161475287543402);24.4920711517;0.926101391703;;;;;;;;;;;;;;4;0;0;;0;0;();();(-2000.0, -2000.0);
07:57:51:535;07:57:51:535;1448046829.54;(0.5190682411193848, 0.5160279591878255);24.8751983643;1.0;;;;;;;;;;;;;;4;0;0;;0;0;();();(-2000.0, -2000.0);
07:57:51:569;07:57:51:535;1448046829.54;(0.5190682411193848, 0.5160279591878255);24.8751983643;1.0;;;;;;;;;;;;;;4;0;0;;0;0;();();(-2000.0, -2000.0);
07:57:51:585;07:57:51:535;1448046829.54;(0.5190682411193848, 0.5160279591878255);24.8751983643;1.0;;;;;;;;;;;;;;4;0;0;;0;0;();();(-2000.0, -2000.0);
07:57:51:602;07:57:51:535;1448046829.54;(0.5190682411193848, 0.5160279591878255);24.8751983643;1.0;;;;;;;;;;;;;;4;0;0;;0;0;();();(-2000.0, -2000.0);
07:57:51:619;07:57:51:535;1448046829.54;(0.5190682411193848, 0.5160279591878255);24.8751983643;1.0;;;;;;;;;;;;;;4;0;0;;0;0;();();(-2000.0, -2000.0);
07:57:51:635;07:57:51:535;1448046829.54;(0.5190682411193848, 0.5160279591878255);24.8751983643;1.0;;;;;;;;;;;;;;4;0;0;;0;0;();();(-2000.0, -2000.0);
07:57:51:669;07:57:51:535;1448046829.54;(0.5190682411193848, 0.5160279591878255);24.8751983643;1.0;;;;;;;;;;;;;;4;0;0;;0;0;();();(-2000.0, -2000.0);
07:57:51:685;07:57:51:535;1448046829.54;(0.5190682411193848, 0.5160279591878255);24.8751983643;1.0;;;;;;;;;;;;;;4;0;0;;0;0;();();(-2000.0, -2000.0);
07:57:51:702;07:57:51:535;1448046829.54;(0.5190682411193848, 0.5160279591878255);24.8751983643;1.0;;;;;;;;;;;;;;4;0;0;;0;0;();();(-2000.0, -2000.0);
07:57:51:719;07:57:51:535;1448046829.54;(0.5190682411193848, 0.5160279591878255);24.8751983643;1.0;;;;;;;;;;;;;;4;0;0;;0;0;();();(-2000.0, -2000.0);
07:57:51:736;07:57:51:735;1448046829.67;(0.5177688598632812, 0.517102559407552);21.1878852844;1.0;;;;;;;;;;;;;;4;0;0;;0;0;();();(-2000.0, -2000.0);
07:57:51:769;07:57:51:735;1448046829.67;(0.5177688598632812, 0.517102559407552);21.1878852844;1.0;;;;;;;;;;;;;;4;0;0;;0;0;();();(-2000.0, -2000.0);
07:57:51:786;07:57:51:735;1448046829.67;(0.5177688598632812, 0.517102559407552);21.1878852844;1.0;;;;;;;;;;;;;;4;0;0;;0;0;();();(-2000.0, -2000.0);
07:57:51:802;07:57:51:799;1448046829.81;(0.5187392711639405, 0.5171294742160373);23.6037425995;0.97162025419;;;;;;;;;;;;;;4;0;0;;0;0;();();(-2000.0, -2000.0);
07:57:51:819;07:57:51:799;1448046829.81;(0.5187392711639405, 0.5171294742160373);23.6037425995;0.97162025419;;;;;;;;;;;;;;4;0;0;;0;0;();();(-2000.0, -2000.0);
07:57:51:836;07:57:51:799;1448046829.81;(0.5187392711639405, 0.5171294742160373);23.6037425995;0.97162025419;;;;;;;;;;;;;;4;0;0;;0;0;();();(-2000.0, -2000.0);
07:57:51:869;07:57:51:799;1448046829.81;(0.5187392711639405, 0.5171294742160373);23.6037425995;0.97162025419;;;;;;;;;;;;;;4;0;0;;0;0;();();(-2000.0, -2000.0);
07:57:51:886;07:57:51:799;1448046829.81;(0.5187392711639405, 0.5171294742160373);23.6037425995;0.97162025419;;;;;;;;;;;;;;4;0;0;;0;0;();();(-2000.0, -2000.0);
07:57:51:902;07:57:51:799;1448046829.81;(0.5187392711639405, 0.5171294742160373);23.6037425995;0.97162025419;;;;;;;;;;;;;;4;0;0;;0;0;();();(-2000.0, -2000.0);
07:57:51:919;07:57:51:799;1448046829.81;(0.5187392711639405, 0.5171294742160373);23.6037425995;0.97162025419;;;;;;;;;;;;;;4;0;0;;0;0;();();(-2000.0, -2000.0);
07:57:51:936;07:57:51:931;1448046829.94;(0.5189930438995362, 0.5163750118679471);25.2144107819;0.989931541133;;;;;;;;;;;;;;4;0;0;;0;0;();();(-2000.0, -2000.0);
07:57:51:969;07:57:51:931;1448046829.94;(0.5189930438995362, 0.5163750118679471);25.2144107819;0.989931541133;;;;;;;;;;;;;;4;0;0;;0;0;();();(-2000.0, -2000.0);
07:57:51:986;07:57:51:931;1448046829.94;(0.5189930438995362, 0.5163750118679471);25.2144107819;0.989931541133;;;;;;;;;;;;;;4;0;0;;0;0;();();(-2000.0, -2000.0);
07:57:52:002;07:57:51:931;1448046829.94;(0.5189930438995362, 0.5163750118679471);25.2144107819;0.989931541133;;;;;;;;;;;;;;4;0;0;;0;0;();();(-2000.0, -2000.0);
07:57:52:019;07:57:51:931;1448046829.94;(0.5189930438995362, 0.5163750118679471);25.2144107819;0.989931541133;;;;;;;;;;;;;;4;0;0;;0;0;();();(-2000.0, -2000.0);
07:57:52:036;07:57:51:931;1448046829.94;(0.5189930438995362, 0.5163750118679471);25.2144107819;0.989931541133;;;;;;;;;;;;;;4;0;0;;0;0;();();(-2000.0, -2000.0);
07:57:52:070;07:57:51:931;1448046829.94;(0.5189930438995362, 0.5163750118679471);25.2144107819;0.989931541133;;;;;;;;;;;;;;4;0;0;;0;0;();();(-2000.0, -2000.0);
07:57:52:087;07:57:52:070;1448046830.07;(0.5196483612060547, 0.5163943396674262);26.3318004608;1.0;;;;;;;;;;;;;;4;0;0;;0;0;();();(-2000.0, -2000.0);
07:57:52:103;07:57:52:070;1448046830.07;(0.5196483612060547, 0.5163943396674262);26.3318004608;1.0;;;;;;;;;;;;;;4;0;0;;0;0;();();(-2000.0, -2000.0);
07:57:52:120;07:57:52:070;1448046830.07;(0.5196483612060547, 0.5163943396674262);26.3318004608;1.0;;;;;;;;;;;;;;4;0;0;;0;0;();();(-2000.0, -2000.0);
07:57:52:137;07:57:52:070;1448046830.07;(0.5196483612060547, 0.5163943396674262);26.3318004608;1.0;;;;;;;;;;;;;;4;0;0;;0;0;();();(-2000.0, -2000.0);
07:57:52:170;07:57:52:070;1448046830.07;(0.5196483612060547, 0.5163943396674262);26.3318004608;1.0;;;;;;;;;;;;;;4;0;0;;0;0;();();(-2000.0, -2000.0);
07:57:52:187;07:57:52:070;1448046830.07;(0.5196483612060547, 0.5163943396674262);26.3318004608;1.0;;;;;;;;;;;;;;4;0;0;;0;0;();();(-2000.0, -2000.0);
07:57:52:203;07:57:52:070;1448046830.07;(0.5196483612060547, 0.5163943396674262);26.3318004608;1.0;;;;;;;;;;;;;;4;0;0;;0;0;();();(-2000.0, -2000.0);
07:57:52:220;07:57:52:070;1448046830.07;(0.5196483612060547, 0.5163943396674262);26.3318004608;1.0;;;;;;;;;;;;;;4;0;0;;0;0;();();(-2000.0, -2000.0);
07:57:52:237;07:57:52:070;1448046830.07;(0.5196483612060547, 0.5163943396674262);26.3318004608;1.0;;;;;;;;;;;;;;4;0;0;;0;0;();();(-2000.0, -2000.0);
07:57:52:270;07:57:52:263;1448046830.21;(0.5195864200592041, 0.5158130645751953);26.3084754944;1.0;;;;;;;;;;;;;;4;0;0;;0;0;();();(-2000.0, -2000.0);
07:57:52:287;07:57:52:263;1448046830.21;(0.5195864200592041, 0.5158130645751953);26.3084754944;1.0;;;;;;;;;;;;;;4;0;0;;0;0;();();(-2000.0, -2000.0);
07:57:52:304;07:57:52:263;1448046830.21;(0.5195864200592041, 0.5158130645751953);26.3084754944;1.0;;;;;;;;;;;;;;4;0;0;;0;0;();();(-2000.0, -2000.0);
07:57:52:320;07:57:52:263;1448046830.21;(0.5195864200592041, 0.5158130645751953);26.3084754944;1.0;;;;;;;;;;;;;;4;0;0;;0;0;();();(-2000.0, -2000.0);
07:57:52:337;07:57:52:263;1448046830.21;(0.5195864200592041, 0.5158130645751953);26.3084754944;1.0;;;;;;;;;;;;;;4;0;0;;0;0;();();(-2000.0, -2000.0);
07:57:52:370;07:57:52:263;1448046830.21;(0.5195864200592041, 0.5158130645751953);26.3084754944;1.0;;;;;;;;;;;;;;4;0;0;;0;0;();();(-2000.0, -2000.0);
07:57:52:387;07:57:52:263;1448046830.21;(0.5195864200592041, 0.5158130645751953);26.3084754944;1.0;;;;;;;;;;;;;;4;0;0;;0;0;();();(-2000.0, -2000.0);
07:57:52:404;07:57:52:400;1448046830.34;(0.5193816184997558, 0.5158931308322483);22.9258232117;0.914741795323;;;;;;;;;;;;;;4;0;0;;0;0;();();(-2000.0, -2000.0);
07:57:52:420;07:57:52:400;1448046830.34;(0.5193816184997558, 0.5158931308322483);22.9258232117;0.914741795323;;;;;;;;;;;;;;4;0;0;;0;0;();();(-2000.0, -2000.0);
07:57:52:437;07:57:52:400;1448046830.34;(0.5193816184997558, 0.5158931308322483);22.9258232117;0.914741795323;;;;;;;;;;;;;;4;0;0;;0;0;();();(-2000.0, -2000.0);
07:57:52:470;07:57:52:400;1448046830.34;(0.5193816184997558, 0.5158931308322483);22.9258232117;0.914741795323;;;;;;;;;;;;;;4;0;0;;0;0;();();(-2000.0, -2000.0);
07:57:52:487;07:57:52:400;1448046830.34;(0.5193816184997558, 0.5158931308322483);22.9258232117;0.914741795323;;;;;;;;;;;;;;4;0;0;;0;0;();();(-2000.0, -2000.0);
07:57:52:504;07:57:52:400;1448046830.34;(0.5193816184997558, 0.5158931308322483);22.9258232117;0.914741795323;;;;;;;;;;;;;;4;0;0;;0;0;();();(-2000.0, -2000.0);
07:57:52:520;07:57:52:400;1448046830.34;(0.5193816184997558, 0.5158931308322483);22.9258232117;0.914741795323;;;;;;;;;;;;;;4;0;0;;0;0;();();(-2000.0, -2000.0);
07:57:52:537;07:57:52:531;1448046830.47;(0.5191286087036133, 0.515667470296224);23.2680549622;0.932332983695;;;;;;;;;;;;;;4;0;0;;0;0;();();(-2000.0, -2000.0);
07:57:52:570;07:57:52:531;1448046830.47;(0.5191286087036133, 0.515667470296224);23.2680549622;0.932332983695;;;;;;;;;;;;;;4;0;0;;0;0;();();(-2000.0, -2000.0);
07:57:52:587;07:57:52:531;1448046830.47;(0.5191286087036133, 0.515667470296224);23.2680549622;0.932332983695;;;;;;;;;;;;;;4;0;0;;0;0;();();(-2000.0, -2000.0);
07:57:52:604;07:57:52:531;1448046830.47;(0.5191286087036133, 0.515667470296224);23.2680549622;0.932332983695;;;;;;;;;;;;;;4;0;0;;0;0;();();(-2000.0, -2000.0);
07:57:52:621;07:57:52:531;1448046830.47;(0.5191286087036133, 0.515667470296224);23.2680549622;0.932332983695;;;;;;;;;;;;;;4;0;0;;0;0;();();(-2000.0, -2000.0);
07:57:52:637;07:57:52:531;1448046830.47;(0.5191286087036133, 0.515667470296224);23.2680549622;0.932332983695;;;;;;;;;;;;;;4;0;0;;0;0;();();(-2000.0, -2000.0);
07:57:52:671;07:57:52:664;1448046830.61;(0.5191516876220703, 0.5163373311360677);24.3023338318;1.0;;;;;;;;;;;;;;4;0;0;;0;0;();();(-2000.0, -2000.0);
07:57:52:687;07:57:52:664;1448046830.61;(0.5191516876220703, 0.5163373311360677);24.3023338318;1.0;;;;;;;;;;;;;;4;0;0;;0;0;();();(-2000.0, -2000.0);
07:57:52:704;07:57:52:664;1448046830.61;(0.5191516876220703, 0.5163373311360677);24.3023338318;1.0;;;;;;;;;;;;;;4;0;0;;0;0;();();(-2000.0, -2000.0);
07:57:52:721;07:57:52:664;1448046830.61;(0.5191516876220703, 0.5163373311360677);24.3023338318;1.0;;;;;;;;;;;;;;4;0;0;;0;0;();();(-2000.0, -2000.0);
07:57:52:737;07:57:52:664;1448046830.61;(0.5191516876220703, 0.5163373311360677);24.3023338318;1.0;;;;;;;;;;;;;;4;0;0;;0;0;();();(-2000.0, -2000.0);
07:57:52:771;07:57:52:664;1448046830.61;(0.5191516876220703, 0.5163373311360677);24.3023338318;1.0;;;;;;;;;;;;;;4;0;0;;0;0;();();(-2000.0, -2000.0);
07:57:52:787;07:57:52:664;1448046830.61;(0.5191516876220703, 0.5163373311360677);24.3023338318;1.0;;;;;;;;;;;;;;4;0;0;;0;0;();();(-2000.0, -2000.0);
07:57:52:804;07:57:52:795;1448046830.74;(0.5200543403625488, 0.5157619052463107);25.1592655182;0.957341465666;;;;;;;;;;;;;;4;0;0;;0;0;();();(-2000.0, -2000.0);
07:57:52:821;07:57:52:795;1448046830.74;(0.5200543403625488, 0.5157619052463107);25.1592655182;0.957341465666;;;;;;;;;;;;;;4;0;0;;0;0;();();(-2000.0, -2000.0);
07:57:52:837;07:57:52:795;1448046830.74;(0.5200543403625488, 0.5157619052463107);25.1592655182;0.957341465666;;;;;;;;;;;;;;4;0;0;;0;0;();();(-2000.0, -2000.0);
07:57:52:870;07:57:52:795;1448046830.74;(0.5200543403625488, 0.5157619052463107);25.1592655182;0.957341465666;;;;;;;;;;;;;;4;0;0;;0;0;();();(-2000.0, -2000.0);
07:57:52:888;07:57:52:795;1448046830.74;(0.5200543403625488, 0.5157619052463107);25.1592655182;0.957341465666;;;;;;;;;;;;;;4;0;0;;0;0;();();(-2000.0, -2000.0);
07:57:52:904;07:57:52:795;1448046830.74;(0.5200543403625488, 0.5157619052463107);25.1592655182;0.957341465666;;;;;;;;;;;;;;4;0;0;;0;0;();();(-2000.0, -2000.0);
07:57:52:921;07:57:52:795;1448046830.74;(0.5200543403625488, 0.5157619052463107);25.1592655182;0.957341465666;;;;;;;;;;;;;;4;0;0;;0;0;();();(-2000.0, -2000.0);
07:57:52:937;07:57:52:927;1448046830.87;(0.5194113254547119, 0.5158890194363064);24.0950183868;0.845512255397;;;;;;;;;;;;;;4;0;0;;0;0;();();(-2000.0, -2000.0);
07:57:52:971;07:57:52:927;1448046830.87;(0.5194113254547119, 0.5158890194363064);24.0950183868;0.845512255397;;;;;;;;;;;;;;4;0;0;;0;0;();();(-2000.0, -2000.0);
07:57:52:987;07:57:52:927;1448046830.87;(0.5194113254547119, 0.5158890194363064);24.0950183868;0.845512255397;;;;;;;;;;;;;;4;0;0;;0;0;();();(-2000.0, -2000.0);
07:57:53:004;07:57:52:927;1448046830.87;(0.5194113254547119, 0.5158890194363064);24.0950183868;0.845512255397;;;;;;;;;;;;;;4;0;0;;0;0;();();(-2000.0, -2000.0);
07:57:53:021;07:57:52:927;1448046830.87;(0.5194113254547119, 0.5158890194363064);24.0950183868;0.845512255397;;;;;;;;;;;;;;4;0;0;;0;0;();();(-2000.0, -2000.0);
07:57:53:037;07:57:52:927;1448046830.87;(0.5194113254547119, 0.5158890194363064);24.0950183868;0.845512255397;;;;;;;;;;;;;;4;0;0;;0;0;();();(-2000.0, -2000.0);
07:57:53:072;07:57:53:064;1448046831.01;(0.5188555717468262, 0.5161397722032335);24.3407669067;0.981667097592;;;;;;;;;;;;;;6;0;0;;0;0;();();(-2000.0, -2000.0);
07:57:53:087;07:57:53:064;1448046831.01;(0.5188555717468262, 0.5161397722032335);24.3407669067;0.981667097592;;;;;;;;;;;;;;6;0;0;;0;0;();();(-2000.0, -2000.0);
07:57:53:104;07:57:53:064;1448046831.01;(0.5188555717468262, 0.5161397722032335);24.3407669067;0.981667097592;;;;;;;;;;;;;;6;0;0;;0;0;();();(-2000.0, -2000.0);
07:57:53:121;07:57:53:064;1448046831.01;(0.5188555717468262, 0.5161397722032335);24.3407669067;0.981667097592;;;;;;;;;;;;;;6;0;0;;0;0;();();(-2000.0, -2000.0);
07:57:53:138;07:57:53:064;1448046831.01;(0.5188555717468262, 0.5161397722032335);24.3407669067;0.981667097592;;;;;;;;;;;;;;6;0;0;;0;0;();();(-2000.0, -2000.0);
07:57:53:171;07:57:53:064;1448046831.01;(0.5188555717468262, 0.5161397722032335);24.3407669067;0.981667097592;;;;;;;;;;;;;;6;0;0;;0;0;();();(-2000.0, -2000.0);
07:57:53:188;07:57:53:064;1448046831.01;(0.5188555717468262, 0.5161397722032335);24.3407669067;0.981667097592;;;;;;;;;;;;;;6;0;0;;0;0;();();(-2000.0, -2000.0);
07:57:53:204;07:57:53:195;1448046831.14;(0.5189401149749756, 0.5160111321343316);24.1345710754;1.0;;;;;;;;;;;;;;6;0;0;;0;0;();();(-2000.0, -2000.0);
07:57:53:221;07:57:53:195;1448046831.14;(0.5189401149749756, 0.5160111321343316);24.1345710754;1.0;;;;;;;;;;;;;;6;0;0;;0;0;();();(-2000.0, -2000.0);
07:57:53:238;07:57:53:195;1448046831.14;(0.5189401149749756, 0.5160111321343316);24.1345710754;1.0;;;;;;;;;;;;;;6;0;0;;0;0;();();(-2000.0, -2000.0);
07:57:53:271;07:57:53:195;1448046831.14;(0.5189401149749756, 0.5160111321343316);24.1345710754;1.0;;;;;;;;;;;;;;6;0;0;;0;0;();();(-2000.0, -2000.0);
07:57:53:288;07:57:53:195;1448046831.14;(0.5189401149749756, 0.5160111321343316);24.1345710754;1.0;;;;;;;;;;;;;;6;0;0;;0;0;();();(-2000.0, -2000.0);
07:57:53:304;07:57:53:195;1448046831.14;(0.5189401149749756, 0.5160111321343316);24.1345710754;1.0;;;;;;;;;;;;;;6;0;0;;0;0;();();(-2000.0, -2000.0);
07:57:53:321;07:57:53:195;1448046831.14;(0.5189401149749756, 0.5160111321343316);24.1345710754;1.0;;;;;;;;;;;;;;6;0;0;;0;0;();();(-2000.0, -2000.0);
07:57:53:338;07:57:53:328;1448046831.27;(0.5190066337585449, 0.5164579179551867);25.6754322052;1.0;;;;;;;;;;;;;;6;0;0;;0;0;();();(-2000.0, -2000.0);
07:57:53:371;07:57:53:328;1448046831.27;(0.5190066337585449, 0.5164579179551867);25.6754322052;1.0;;;;;;;;;;;;;;6;0;0;;0;0;();();(-2000.0, -2000.0);
07:57:53:388;07:57:53:328;1448046831.27;(0.5190066337585449, 0.5164579179551867);25.6754322052;1.0;;;;;;;;;;;;;;6;0;0;;0;0;();();(-2000.0, -2000.0);
07:57:53:404;07:57:53:328;1448046831.27;(0.5190066337585449, 0.5164579179551867);25.6754322052;1.0;;;;;;;;;;;;;;6;0;0;;0;0;();();(-2000.0, -2000.0);
07:57:53:421;07:57:53:328;1448046831.27;(0.5190066337585449, 0.5164579179551867);25.6754322052;1.0;;;;;;;;;;;;;;6;0;0;;0;0;();();(-2000.0, -2000.0);
07:57:53:438;07:57:53:328;1448046831.27;(0.5190066337585449, 0.5164579179551867);25.6754322052;1.0;;;;;;;;;;;;;;6;0;0;;0;0;();();(-2000.0, -2000.0);
07:57:53:472;07:57:53:460;1448046831.41;(0.5184256076812744, 0.516229714287652);24.156414032;0.885164024677;;;;;;;;;;;;;;6;0;0;;0;0;();();(-2000.0, -2000.0);
07:57:53:488;07:57:53:460;1448046831.41;(0.5184256076812744, 0.516229714287652);24.156414032;0.885164024677;;;;;;;;;;;;;;6;0;0;;0;0;();();(-2000.0, -2000.0);
07:57:53:504;07:57:53:460;1448046831.41;(0.5184256076812744, 0.516229714287652);24.156414032;0.885164024677;;;;;;;;;;;;;;6;0;0;;0;0;();();(-2000.0, -2000.0);
07:57:53:521;07:57:53:460;1448046831.41;(0.5184256076812744, 0.516229714287652);24.156414032;0.885164024677;;;;;;;;;;;;;;6;0;0;;0;0;();();(-2000.0, -2000.0);
07:57:53:538;07:57:53:460;1448046831.41;(0.5184256076812744, 0.516229714287652);24.156414032;0.885164024677;;;;;;;;;;;;;;6;0;0;;0;0;();();(-2000.0, -2000.0);
07:57:53:571;07:57:53:460;1448046831.41;(0.5184256076812744, 0.516229714287652);24.156414032;0.885164024677;;;;;;;;;;;;;;6;0;0;;0;0;();();(-2000.0, -2000.0);
07:57:53:588;07:57:53:460;1448046831.41;(0.5184256076812744, 0.516229714287652);24.156414032;0.885164024677;;;;;;;;;;;;;;6;0;0;;0;0;();();(-2000.0, -2000.0);
07:57:53:605;07:57:53:591;1448046831.54;(0.5184226512908936, 0.5162340376112196);23.6155090332;0.823041006531;;;;;;;;;;;;;;6;0;0;;0;0;();();(-2000.0, -2000.0);
07:57:53:621;07:57:53:591;1448046831.54;(0.5184226512908936, 0.5162340376112196);23.6155090332;0.823041006531;;;;;;;;;;;;;;6;0;0;;0;0;();();(-2000.0, -2000.0);
07:57:53:638;07:57:53:591;1448046831.54;(0.5184226512908936, 0.5162340376112196);23.6155090332;0.823041006531;;;;;;;;;;;;;;6;0;0;;0;0;();();(-2000.0, -2000.0);
07:57:53:671;07:57:53:591;1448046831.54;(0.5184226512908936, 0.5162340376112196);23.6155090332;0.823041006531;;;;;;;;;;;;;;6;0;0;;0;0;();();(-2000.0, -2000.0);
07:57:53:688;07:57:53:591;1448046831.54;(0.5184226512908936, 0.5162340376112196);23.6155090332;0.823041006531;;;;;;;;;;;;;;6;0;0;;0;0;();();(-2000.0, -2000.0);
07:57:53:705;07:57:53:591;1448046831.54;(0.5184226512908936, 0.5162340376112196);23.6155090332;0.823041006531;;;;;;;;;;;;;;6;0;0;;0;0;();();(-2000.0, -2000.0);
07:57:53:721;07:57:53:591;1448046831.54;(0.5184226512908936, 0.5162340376112196);23.6155090332;0.823041006531;;;;;;;;;;;;;;6;0;0;;0;0;();();(-2000.0, -2000.0);
07:57:53:738;07:57:53:727;1448046831.67;(0.5185535430908204, 0.516462877061632);23.7317276001;1.0;;;;;;;;;;;;;;6;0;0;;0;0;();();(-2000.0, -2000.0);
07:57:53:771;07:57:53:727;1448046831.67;(0.5185535430908204, 0.516462877061632);23.7317276001;1.0;;;;;;;;;;;;;;6;0;0;;0;0;();();(-2000.0, -2000.0);
07:57:53:788;07:57:53:727;1448046831.67;(0.5185535430908204, 0.516462877061632);23.7317276001;1.0;;;;;;;;;;;;;;6;0;0;;0;0;();();(-2000.0, -2000.0);
07:57:53:805;07:57:53:727;1448046831.67;(0.5185535430908204, 0.516462877061632);23.7317276001;1.0;;;;;;;;;;;;;;6;0;0;;0;0;();();(-2000.0, -2000.0);
07:57:53:821;07:57:53:727;1448046831.67;(0.5185535430908204, 0.516462877061632);23.7317276001;1.0;;;;;;;;;;;;;;6;0;0;;0;0;();();(-2000.0, -2000.0);
07:57:53:838;07:57:53:727;1448046831.67;(0.5185535430908204, 0.516462877061632);23.7317276001;1.0;;;;;;;;;;;;;;6;0;0;;0;0;();();(-2000.0, -2000.0);
07:57:53:871;07:57:53:860;1448046831.81;(0.5184601306915283, 0.5162813398573134);24.2817840576;0.844062873282;;;;;;;;;;;;;;6;0;0;;0;0;();();(-2000.0, -2000.0);
07:57:53:888;07:57:53:860;1448046831.81;(0.5184601306915283, 0.5162813398573134);24.2817840576;0.844062873282;;;;;;;;;;;;;;6;0;0;;0;0;();();(-2000.0, -2000.0);
07:57:53:905;07:57:53:860;1448046831.81;(0.5184601306915283, 0.5162813398573134);24.2817840576;0.844062873282;;;;;;;;;;;;;;6;0;0;;0;0;();();(-2000.0, -2000.0);
07:57:53:922;07:57:53:860;1448046831.81;(0.5184601306915283, 0.5162813398573134);24.2817840576;0.844062873282;;;;;;;;;;;;;;6;0;0;;0;0;();();(-2000.0, -2000.0);
07:57:53:938;07:57:53:860;1448046831.81;(0.5184601306915283, 0.5162813398573134);24.2817840576;0.844062873282;;;;;;;;;;;;;;6;0;0;;0;0;();();(-2000.0, -2000.0);
07:57:53:971;07:57:53:860;1448046831.81;(0.5184601306915283, 0.5162813398573134);24.2817840576;0.844062873282;;;;;;;;;;;;;;6;0;0;;0;0;();();(-2000.0, -2000.0);
07:57:53:988;07:57:53:860;1448046831.81;(0.5184601306915283, 0.5162813398573134);24.2817840576;0.844062873282;;;;;;;;;;;;;;6;0;0;;0;0;();();(-2000.0, -2000.0);
07:57:54:005;07:57:53:998;1448046831.94;(0.5185995101928711, 0.5166224585639105);24.0348758698;0.851429387604;;;;;;;;;;;;;;6;0;0;;0;0;();();(-2000.0, -2000.0);
07:57:54:021;07:57:53:998;1448046831.94;(0.5185995101928711, 0.5166224585639105);24.0348758698;0.851429387604;;;;;;;;;;;;;;6;0;0;;0;0;();();(-2000.0, -2000.0);
07:57:54:038;07:57:53:998;1448046831.94;(0.5185995101928711, 0.5166224585639105);24.0348758698;0.851429387604;;;;;;;;;;;;;;6;0;0;;0;0;();();(-2000.0, -2000.0);
07:57:54:072;07:57:53:998;1448046831.94;(0.5185995101928711, 0.5166224585639105);24.0348758698;0.851429387604;;;;;;;;;;;;;;6;0;0;;0;0;();();(-2000.0, -2000.0);
07:57:54:088;07:57:53:998;1448046831.94;(0.5185995101928711, 0.5166224585639105);24.0348758698;0.851429387604;;;;;;;;;;;;;;6;0;0;;0;0;();();(-2000.0, -2000.0);
07:57:54:105;07:57:53:998;1448046831.94;(0.5185995101928711, 0.5166224585639105);24.0348758698;0.851429387604;;;;;;;;;;;;;;6;0;0;;0;0;();();(-2000.0, -2000.0);
07:57:54:122;07:57:53:998;1448046831.94;(0.5185995101928711, 0.5166224585639105);24.0348758698;0.851429387604;;;;;;;;;;;;;;6;0;0;;0;0;();();(-2000.0, -2000.0);
07:57:54:138;07:57:54:123;1448046832.07;(0.519017505645752, 0.5160311381022136);24.608007431;1.0;;;;;;;;;;;;;;6;0;0;;0;0;();();(-2000.0, -2000.0);
07:57:54:172;07:57:54:123;1448046832.07;(0.519017505645752, 0.5160311381022136);24.608007431;1.0;;;;;;;;;;;;;;6;0;0;;0;0;();();(-2000.0, -2000.0);
07:57:54:188;07:57:54:123;1448046832.07;(0.519017505645752, 0.5160311381022136);24.608007431;1.0;;;;;;;;;;;;;;6;0;0;;0;0;();();(-2000.0, -2000.0);
07:57:54:205;07:57:54:123;1448046832.07;(0.519017505645752, 0.5160311381022136);24.608007431;1.0;;;;;;;;;;;;;;6;0;0;;0;0;();();(-2000.0, -2000.0);
07:57:54:222;07:57:54:123;1448046832.07;(0.519017505645752, 0.5160311381022136);24.608007431;1.0;;;;;;;;;;;;;;6;0;0;;0;0;();();(-2000.0, -2000.0);
07:57:54:238;07:57:54:123;1448046832.07;(0.519017505645752, 0.5160311381022136);24.608007431;1.0;;;;;;;;;;;;;;6;0;0;;0;0;();();(-2000.0, -2000.0);
07:57:54:272;07:57:54:255;1448046832.21;(0.5188019752502442, 0.5161571078830295);25.5251502991;0.954344253556;;;;;;;;;;;;;;6;0;0;;0;0;();();(-2000.0, -2000.0);
07:57:54:288;07:57:54:255;1448046832.21;(0.5188019752502442, 0.5161571078830295);25.5251502991;0.954344253556;;;;;;;;;;;;;;6;0;0;;0;0;();();(-2000.0, -2000.0);
07:57:54:305;07:57:54:255;1448046832.21;(0.5188019752502442, 0.5161571078830295);25.5251502991;0.954344253556;;;;;;;;;;;;;;6;0;0;;0;0;();();(-2000.0, -2000.0);
07:57:54:322;07:57:54:255;1448046832.21;(0.5188019752502442, 0.5161571078830295);25.5251502991;0.954344253556;;;;;;;;;;;;;;6;0;0;;0;0;();();(-2000.0, -2000.0);
07:57:54:338;07:57:54:255;1448046832.21;(0.5188019752502442, 0.5161571078830295);25.5251502991;0.954344253556;;;;;;;;;;;;;;6;0;0;;0;0;();();(-2000.0, -2000.0);
07:57:54:372;07:57:54:255;1448046832.21;(0.5188019752502442, 0.5161571078830295);25.5251502991;0.954344253556;;;;;;;;;;;;;;6;0;0;;0;0;();();(-2000.0, -2000.0);
07:57:54:388;07:57:54:255;1448046832.21;(0.5188019752502442, 0.5161571078830295);25.5251502991;0.954344253556;;;;;;;;;;;;;;6;0;0;;0;0;();();(-2000.0, -2000.0);
07:57:54:405;07:57:54:394;1448046832.34;(0.5189841270446778, 0.5162446763780382);26.3069381714;0.922345512457;;;;;;;;;;;;;;6;0;0;;0;0;();();(-2000.0, -2000.0);
07:57:54:422;07:57:54:394;1448046832.34;(0.5189841270446778, 0.5162446763780382);26.3069381714;0.922345512457;;;;;;;;;;;;;;6;0;0;;0;0;();();(-2000.0, -2000.0);
07:57:54:438;07:57:54:394;1448046832.34;(0.5189841270446778, 0.5162446763780382);26.3069381714;0.922345512457;;;;;;;;;;;;;;6;0;0;;0;0;();();(-2000.0, -2000.0);
07:57:54:472;07:57:54:394;1448046832.34;(0.5189841270446778, 0.5162446763780382);26.3069381714;0.922345512457;;;;;;;;;;;;;;6;0;0;;0;0;();();(-2000.0, -2000.0);
07:57:54:488;07:57:54:394;1448046832.34;(0.5189841270446778, 0.5162446763780382);26.3069381714;0.922345512457;;;;;;;;;;;;;;6;0;0;;0;0;();();(-2000.0, -2000.0);
07:57:54:505;07:57:54:394;1448046832.34;(0.5189841270446778, 0.5162446763780382);26.3069381714;0.922345512457;;;;;;;;;;;;;;6;0;0;;0;0;();();(-2000.0, -2000.0);
07:57:54:522;07:57:54:394;1448046832.34;(0.5189841270446778, 0.5162446763780382);26.3069381714;0.922345512457;;;;;;;;;;;;;;6;0;0;;0;0;();();(-2000.0, -2000.0);
07:57:54:539;07:57:54:524;1448046832.47;(0.6631367683410645, 0.40838038126627607);33.7603187561;0.745009011413;;;;;;;;;;;;;;6;0;0;;0;0;();();(-2000.0, -2000.0);
07:57:54:572;07:57:54:524;1448046832.47;(0.6631367683410645, 0.40838038126627607);33.7603187561;0.745009011413;;;;;;;;;;;;;;6;0;0;;0;0;();();(-2000.0, -2000.0);
07:57:54:589;07:57:54:524;1448046832.47;(0.6631367683410645, 0.40838038126627607);33.7603187561;0.745009011413;;;;;;;;;;;;;;6;0;0;;0;0;();();(-2000.0, -2000.0);
07:57:54:605;07:57:54:524;1448046832.47;(0.6631367683410645, 0.40838038126627607);33.7603187561;0.745009011413;;;;;;;;;;;;;;6;0;0;;0;0;();();(-2000.0, -2000.0);
07:57:54:622;07:57:54:524;1448046832.47;(0.6631367683410645, 0.40838038126627607);33.7603187561;0.745009011413;;;;;;;;;;;;;;6;0;0;;0;0;();();(-2000.0, -2000.0);
07:57:54:639;07:57:54:524;1448046832.47;(0.6631367683410645, 0.40838038126627607);33.7603187561;0.745009011413;;;;;;;;;;;;;;6;0;0;;0;0;();();(-2000.0, -2000.0);
07:57:54:672;07:57:54:655;1448046832.61;(0.518560791015625, 0.5164205763075087);23.2233200073;0.892142539842;;;;;;;;;;;;;;6;0;0;;0;0;();();(-2000.0, -2000.0);
07:57:54:689;07:57:54:655;1448046832.61;(0.518560791015625, 0.5164205763075087);23.2233200073;0.892142539842;;;;;;;;;;;;;;6;0;0;;0;0;();();(-2000.0, -2000.0);
07:57:54:705;07:57:54:655;1448046832.61;(0.518560791015625, 0.5164205763075087);23.2233200073;0.892142539842;;;;;;;;;;;;;;6;0;0;;0;0;();();(-2000.0, -2000.0);
07:57:54:722;07:57:54:655;1448046832.61;(0.518560791015625, 0.5164205763075087);23.2233200073;0.892142539842;;;;;;;;;;;;;;6;0;0;;0;0;();();(-2000.0, -2000.0);
07:57:54:739;07:57:54:655;1448046832.61;(0.518560791015625, 0.5164205763075087);23.2233200073;0.892142539842;;;;;;;;;;;;;;6;0;0;;0;0;();();(-2000.0, -2000.0);
07:57:54:772;07:57:54:655;1448046832.61;(0.518560791015625, 0.5164205763075087);23.2233200073;0.892142539842;;;;;;;;;;;;;;6;0;0;;0;0;();();(-2000.0, -2000.0);
07:57:54:789;07:57:54:787;1448046832.74;(0.6631754398345947, 0.40841988457573786);35.0058784485;0.628920261977;;;;;;;;;;;;;;6;0;0;;0;0;();();(-2000.0, -2000.0);
07:57:54:805;07:57:54:787;1448046832.74;(0.6631754398345947, 0.40841988457573786);35.0058784485;0.628920261977;;;;;;;;;;;;;;6;0;0;;0;0;();();(-2000.0, -2000.0);
07:57:54:822;07:57:54:787;1448046832.74;(0.6631754398345947, 0.40841988457573786);35.0058784485;0.628920261977;;;;;;;;;;;;;;6;0;0;;0;0;();();(-2000.0, -2000.0);
07:57:54:839;07:57:54:787;1448046832.74;(0.6631754398345947, 0.40841988457573786);35.0058784485;0.628920261977;;;;;;;;;;;;;;6;0;0;;0;0;();();(-2000.0, -2000.0);
07:57:54:872;07:57:54:787;1448046832.74;(0.6631754398345947, 0.40841988457573786);35.0058784485;0.628920261977;;;;;;;;;;;;;;6;0;0;;0;0;();();(-2000.0, -2000.0);
07:57:54:889;07:57:54:787;1448046832.74;(0.6631754398345947, 0.40841988457573786);35.0058784485;0.628920261977;;;;;;;;;;;;;;6;0;0;;0;0;();();(-2000.0, -2000.0);
07:57:54:905;07:57:54:787;1448046832.74;(0.6631754398345947, 0.40841988457573786);35.0058784485;0.628920261977;;;;;;;;;;;;;;6;0;0;;0;0;();();(-2000.0, -2000.0);
07:57:54:922;07:57:54:920;1448046832.87;(0.6633306980133057, 0.4086385515001085);34.0509910583;0.736206385848;;;;;;;;;;;;;;6;0;0;;0;0;();();(-2000.0, -2000.0);
07:57:54:939;07:57:54:920;1448046832.87;(0.6633306980133057, 0.4086385515001085);34.0509910583;0.736206385848;;;;;;;;;;;;;;6;0;0;;0;0;();();(-2000.0, -2000.0);
07:57:54:956;07:57:54:920;1448046832.87;(0.6633306980133057, 0.4086385515001085);34.0509910583;0.736206385848;;;;;;;;;;;;;;6;0;0;;0;0;();();(-2000.0, -2000.0);
07:57:54:989;07:57:54:920;1448046832.87;(0.6633306980133057, 0.4086385515001085);34.0509910583;0.736206385848;;;;;;;;;;;;;;6;0;0;;0;0;();();(-2000.0, -2000.0);
07:57:55:006;07:57:54:920;1448046832.87;(0.6633306980133057, 0.4086385515001085);34.0509910583;0.736206385848;;;;;;;;;;;;;;6;0;0;;0;0;();();(-2000.0, -2000.0);
07:57:55:022;07:57:54:920;1448046832.87;(0.6633306980133057, 0.4086385515001085);34.0509910583;0.736206385848;;;;;;;;;;;;;;6;0;0;;0;0;();();(-2000.0, -2000.0);
07:57:55:039;07:57:54:920;1448046832.87;(0.6633306980133057, 0.4086385515001085);34.0509910583;0.736206385848;;;;;;;;;;;;;;6;0;0;;0;0;();();(-2000.0, -2000.0);
07:57:55:056;07:57:55:053;1448046833.01;(0.5194555282592773, 0.51603151957194);24.7028770447;1.0;;;;;;;;;;;;;;6;0;0;;0;0;();();(-2000.0, -2000.0);
07:57:55:089;07:57:55:053;1448046833.01;(0.5194555282592773, 0.51603151957194);24.7028770447;1.0;;;;;;;;;;;;;;6;0;0;;0;0;();();(-2000.0, -2000.0);
07:57:55:106;07:57:55:053;1448046833.01;(0.5194555282592773, 0.51603151957194);24.7028770447;1.0;;;;;;;;;;;;;;6;0;0;;0;0;();();(-2000.0, -2000.0);
07:57:55:122;07:57:55:053;1448046833.01;(0.5194555282592773, 0.51603151957194);24.7028770447;1.0;;;;;;;;;;;;;;6;0;0;;0;0;();();(-2000.0, -2000.0);
07:57:55:139;07:57:55:053;1448046833.01;(0.5194555282592773, 0.51603151957194);24.7028770447;1.0;;;;;;;;;;;;;;6;0;0;;0;0;();();(-2000.0, -2000.0);
07:57:55:156;07:57:55:053;1448046833.01;(0.5194555282592773, 0.51603151957194);24.7028770447;1.0;;;;;;;;;;;;;;6;0;0;;0;0;();();(-2000.0, -2000.0);
07:57:55:189;07:57:55:188;1448046833.14;(0.5191332817077636, 0.515602789984809);23.6019420624;0.927768637626;;;;;;;;;;;;;;6;0;0;;0;0;();();(-2000.0, -2000.0);
07:57:55:205;07:57:55:188;1448046833.14;(0.5191332817077636, 0.515602789984809);23.6019420624;0.927768637626;;;;;;;;;;;;;;6;0;0;;0;0;();();(-2000.0, -2000.0);
07:57:55:222;07:57:55:188;1448046833.14;(0.5191332817077636, 0.515602789984809);23.6019420624;0.927768637626;;;;;;;;;;;;;;6;0;0;;0;0;();();(-2000.0, -2000.0);
07:57:55:239;07:57:55:188;1448046833.14;(0.5191332817077636, 0.515602789984809);23.6019420624;0.927768637626;;;;;;;;;;;;;;6;0;0;;0;0;();();(-2000.0, -2000.0);
07:57:55:256;07:57:55:188;1448046833.14;(0.5191332817077636, 0.515602789984809);23.6019420624;0.927768637626;;;;;;;;;;;;;;6;0;0;;0;0;();();(-2000.0, -2000.0);
07:57:55:289;07:57:55:188;1448046833.14;(0.5191332817077636, 0.515602789984809);23.6019420624;0.927768637626;;;;;;;;;;;;;;6;0;0;;0;0;();();(-2000.0, -2000.0);
07:57:55:306;07:57:55:188;1448046833.14;(0.5191332817077636, 0.515602789984809);23.6019420624;0.927768637626;;;;;;;;;;;;;;6;0;0;;0;0;();();(-2000.0, -2000.0);
07:57:55:322;07:57:55:188;1448046833.14;(0.5191332817077636, 0.515602789984809);23.6019420624;0.927768637626;;;;;;;;;;;;;;6;0;0;;0;0;();();(-2000.0, -2000.0);
07:57:55:339;07:57:55:322;1448046833.27;(0.5193755149841308, 0.5156617482503255);23.8083457947;1.0;;;;;;;;;;;;;;6;0;0;;0;0;();();(-2000.0, -2000.0);
07:57:55:356;07:57:55:322;1448046833.27;(0.5193755149841308, 0.5156617482503255);23.8083457947;1.0;;;;;;;;;;;;;;6;0;0;;0;0;();();(-2000.0, -2000.0);
07:57:55:389;07:57:55:322;1448046833.27;(0.5193755149841308, 0.5156617482503255);23.8083457947;1.0;;;;;;;;;;;;;;6;0;0;;0;0;();();(-2000.0, -2000.0);
07:57:55:406;07:57:55:322;1448046833.27;(0.5193755149841308, 0.5156617482503255);23.8083457947;1.0;;;;;;;;;;;;;;6;0;0;;0;0;();();(-2000.0, -2000.0);
07:57:55:423;07:57:55:322;1448046833.27;(0.5193755149841308, 0.5156617482503255);23.8083457947;1.0;;;;;;;;;;;;;;6;0;0;;0;0;();();(-2000.0, -2000.0);
07:57:55:439;07:57:55:322;1448046833.27;(0.5193755149841308, 0.5156617482503255);23.8083457947;1.0;;;;;;;;;;;;;;6;0;0;;0;0;();();(-2000.0, -2000.0);
07:57:55:456;07:57:55:453;1448046833.41;(0.519564437866211, 0.5160091400146485);25.6017017365;1.0;;;;;;;;;;;;;;6;0;0;;0;0;();();(-2000.0, -2000.0);
07:57:55:489;07:57:55:453;1448046833.41;(0.519564437866211, 0.5160091400146485);25.6017017365;1.0;;;;;;;;;;;;;;6;0;0;;0;0;();();(-2000.0, -2000.0);
07:57:55:506;07:57:55:453;1448046833.41;(0.519564437866211, 0.5160091400146485);25.6017017365;1.0;;;;;;;;;;;;;;6;0;0;;0;0;();();(-2000.0, -2000.0);
07:57:55:523;07:57:55:453;1448046833.41;(0.519564437866211, 0.5160091400146485);25.6017017365;1.0;;;;;;;;;;;;;;6;0;0;;0;0;();();(-2000.0, -2000.0);
07:57:55:539;07:57:55:453;1448046833.41;(0.519564437866211, 0.5160091400146485);25.6017017365;1.0;;;;;;;;;;;;;;6;0;0;;0;0;();();(-2000.0, -2000.0);
07:57:55:556;07:57:55:453;1448046833.41;(0.519564437866211, 0.5160091400146485);25.6017017365;1.0;;;;;;;;;;;;;;6;0;0;;0;0;();();(-2000.0, -2000.0);
07:57:55:589;07:57:55:587;1448046833.54;(0.518931245803833, 0.5165557861328125);23.925699234;0.806770826722;;;;;;;;;;;;;;6;0;0;;0;0;();();(-2000.0, -2000.0);
07:57:55:606;07:57:55:587;1448046833.54;(0.518931245803833, 0.5165557861328125);23.925699234;0.806770826722;;;;;;;;;;;;;;6;0;0;;0;0;();();(-2000.0, -2000.0);
07:57:55:623;07:57:55:587;1448046833.54;(0.518931245803833, 0.5165557861328125);23.925699234;0.806770826722;;;;;;;;;;;;;;6;0;0;;0;0;();();(-2000.0, -2000.0);
07:57:55:639;07:57:55:587;1448046833.54;(0.518931245803833, 0.5165557861328125);23.925699234;0.806770826722;;;;;;;;;;;;;;6;0;0;;0;0;();();(-2000.0, -2000.0);
07:57:55:656;07:57:55:587;1448046833.54;(0.518931245803833, 0.5165557861328125);23.925699234;0.806770826722;;;;;;;;;;;;;;6;0;0;;0;0;();();(-2000.0, -2000.0);
07:57:55:689;07:57:55:587;1448046833.54;(0.518931245803833, 0.5165557861328125);23.925699234;0.806770826722;;;;;;;;;;;;;;6;0;0;;0;0;();();(-2000.0, -2000.0);
07:57:55:707;07:57:55:587;1448046833.54;(0.518931245803833, 0.5165557861328125);23.925699234;0.806770826722;;;;;;;;;;;;;;8;0;0;;0;0;();();(-2000.0, -2000.0);
07:57:55:723;07:57:55:717;1448046833.67;(0.5192864418029786, 0.5158163706461589);24.0186748505;0.982868791907;;;;;;;;;;;;;;8;0;0;;0;0;();();(-2000.0, -2000.0);
07:57:55:739;07:57:55:717;1448046833.67;(0.5192864418029786, 0.5158163706461589);24.0186748505;0.982868791907;;;;;;;;;;;;;;8;0;0;;0;0;();();(-2000.0, -2000.0);
07:57:55:756;07:57:55:717;1448046833.67;(0.5192864418029786, 0.5158163706461589);24.0186748505;0.982868791907;;;;;;;;;;;;;;8;0;0;;0;0;();();(-2000.0, -2000.0);
07:57:55:789;07:57:55:717;1448046833.67;(0.5192864418029786, 0.5158163706461589);24.0186748505;0.982868791907;;;;;;;;;;;;;;8;0;0;;0;0;();();(-2000.0, -2000.0);
07:57:55:806;07:57:55:717;1448046833.67;(0.5192864418029786, 0.5158163706461589);24.0186748505;0.982868791907;;;;;;;;;;;;;;8;0;0;;0;0;();();(-2000.0, -2000.0);
07:57:55:823;07:57:55:717;1448046833.67;(0.5192864418029786, 0.5158163706461589);24.0186748505;0.982868791907;;;;;;;;;;;;;;8;0;0;;0;0;();();(-2000.0, -2000.0);
07:57:55:839;07:57:55:717;1448046833.67;(0.5192864418029786, 0.5158163706461589);24.0186748505;0.982868791907;;;;;;;;;;;;;;8;0;0;;0;0;();();(-2000.0, -2000.0);
07:57:55:856;07:57:55:852;1448046833.81;(0.5196118831634522, 0.515602535671658);25.1913166046;1.0;;;;;;;;;;;;;;8;0;0;;0;0;();();(-2000.0, -2000.0);
07:57:55:890;07:57:55:852;1448046833.81;(0.5196118831634522, 0.515602535671658);25.1913166046;1.0;;;;;;;;;;;;;;8;0;0;;0;0;();();(-2000.0, -2000.0);
07:57:56:299;07:57:56:248;1448046834.21;(0.5191845417022705, 0.5163180033365886);24.1715545654;0.867966008928;;;;;;;;;;;;;;8;0;0;;0;0;();();(-2000.0, -2000.0);
07:57:56:301;07:57:56:248;1448046834.21;(0.5191845417022705, 0.5163180033365886);24.1715545654;0.867966008928;;;;;;;;;;;;;;8;0;0;;0;0;();();(-2000.0, -2000.0);
07:57:56:302;07:57:56:248;1448046834.21;(0.5191845417022705, 0.5163180033365886);24.1715545654;0.867966008928;;;;;;;;;;;;;;8;0;0;;0;0;();();(-2000.0, -2000.0);
07:57:56:303;07:57:56:248;1448046834.21;(0.5191845417022705, 0.5163180033365886);24.1715545654;0.867966008928;;;;;;;;;;;;;;8;0;0;;0;0;();();(-2000.0, -2000.0);
07:57:56:304;07:57:56:248;1448046834.21;(0.5191845417022705, 0.5163180033365886);24.1715545654;0.867966008928;;;;;;;;;;;;;;8;0;0;;0;0;();();(-2000.0, -2000.0);
07:57:56:306;07:57:56:248;1448046834.21;(0.5191845417022705, 0.5163180033365886);24.1715545654;0.867966008928;;;;;;;;;;;;;;8;0;0;;0;0;();();(-2000.0, -2000.0);
07:57:56:307;07:57:56:248;1448046834.21;(0.5191845417022705, 0.5163180033365886);24.1715545654;0.867966008928;;;;;;;;;;;;;;8;0;0;;0;0;();();(-2000.0, -2000.0);
07:57:56:308;07:57:56:248;1448046834.21;(0.5191845417022705, 0.5163180033365886);24.1715545654;0.867966008928;;;;;;;;;;;;;;8;0;0;;0;0;();();(-2000.0, -2000.0);
07:57:56:309;07:57:56:248;1448046834.21;(0.5191845417022705, 0.5163180033365886);24.1715545654;0.867966008928;;;;;;;;;;;;;;8;0;0;;0;0;();();(-2000.0, -2000.0);
07:57:56:310;07:57:56:248;1448046834.21;(0.5191845417022705, 0.5163180033365886);24.1715545654;0.867966008928;;;;;;;;;;;;;;8;0;0;;0;0;();();(-2000.0, -2000.0);
07:57:56:311;07:57:56:248;1448046834.21;(0.5191845417022705, 0.5163180033365886);24.1715545654;0.867966008928;;;;;;;;;;;;;;8;0;0;;0;0;();();(-2000.0, -2000.0);
07:57:56:312;07:57:56:248;1448046834.21;(0.5191845417022705, 0.5163180033365886);24.1715545654;0.867966008928;;;;;;;;;;;;;;8;0;0;;0;0;();();(-2000.0, -2000.0);
07:57:56:313;07:57:56:248;1448046834.21;(0.5191845417022705, 0.5163180033365886);24.1715545654;0.867966008928;;;;;;;;;;;;;;8;0;0;;0;0;();();(-2000.0, -2000.0);
07:57:56:314;07:57:56:248;1448046834.21;(0.5191845417022705, 0.5163180033365886);24.1715545654;0.867966008928;;;;;;;;;;;;;;8;0;0;;0;0;();();(-2000.0, -2000.0);
07:57:56:315;07:57:56:248;1448046834.21;(0.5191845417022705, 0.5163180033365886);24.1715545654;0.867966008928;;;;;;;;;;;;;;8;0;0;;0;0;();();(-2000.0, -2000.0);
07:57:56:317;07:57:56:248;1448046834.21;(0.5191845417022705, 0.5163180033365886);24.1715545654;0.867966008928;;;;;;;;;;;;;;8;0;0;;0;0;();();(-2000.0, -2000.0);
07:57:56:318;07:57:56:248;1448046834.21;(0.5191845417022705, 0.5163180033365886);24.1715545654;0.867966008928;;;;;;;;;;;;;;8;0;0;;0;0;();();(-2000.0, -2000.0);
07:57:56:319;07:57:56:248;1448046834.21;(0.5191845417022705, 0.5163180033365886);24.1715545654;0.867966008928;;;;;;;;;;;;;;8;0;0;;0;0;();();(-2000.0, -2000.0);
07:57:56:340;07:57:56:248;1448046834.21;(0.5191845417022705, 0.5163180033365886);24.1715545654;0.867966008928;;;;;;;;;;;;;;8;0;0;;0;0;();();(-2000.0, -2000.0);
07:57:56:357;07:57:56:248;1448046834.21;(0.5191845417022705, 0.5163180033365886);24.1715545654;0.867966008928;;;;;;;;;;;;;;8;0;0;;0;0;();();(-2000.0, -2000.0);
07:57:56:373;07:57:56:248;1448046834.21;(0.5191845417022705, 0.5163180033365886);24.1715545654;0.867966008928;;;;;;;;;;;;;;8;0;0;;0;0;();();(-2000.0, -2000.0);
07:57:56:407;07:57:56:379;1448046834.34;(0.5190991401672364, 0.5162422180175781);24.6698188782;0.978374206349;;;;;;;;;;;;;;8;0;0;;0;0;();();(-2000.0, -2000.0);
07:57:56:423;07:57:56:379;1448046834.34;(0.5190991401672364, 0.5162422180175781);24.6698188782;0.978374206349;;;;;;;;;;;;;;8;0;0;;0;0;();();(-2000.0, -2000.0);
07:57:56:440;07:57:56:379;1448046834.34;(0.5190991401672364, 0.5162422180175781);24.6698188782;0.978374206349;;;;;;;;;;;;;;8;0;0;;0;0;();();(-2000.0, -2000.0);
07:57:56:457;07:57:56:379;1448046834.34;(0.5190991401672364, 0.5162422180175781);24.6698188782;0.978374206349;;;;;;;;;;;;;;8;0;0;;0;0;();();(-2000.0, -2000.0);
07:57:56:473;07:57:56:379;1448046834.34;(0.5190991401672364, 0.5162422180175781);24.6698188782;0.978374206349;;;;;;;;;;;;;;8;0;0;;0;0;();();(-2000.0, -2000.0);
07:57:56:507;07:57:56:379;1448046834.34;(0.5190991401672364, 0.5162422180175781);24.6698188782;0.978374206349;;;;;;;;;;;;;;8;0;0;;0;0;();();(-2000.0, -2000.0);
07:57:56:523;07:57:56:517;1448046834.47;(0.5186296463012695, 0.5166395823160808);24.2289390564;0.978182690827;;;;;;;;;;;;;;8;0;0;;0;0;();();(-2000.0, -2000.0);
07:57:56:540;07:57:56:517;1448046834.47;(0.5186296463012695, 0.5166395823160808);24.2289390564;0.978182690827;;;;;;;;;;;;;;8;0;0;;0;0;();();(-2000.0, -2000.0);
07:57:56:557;07:57:56:517;1448046834.47;(0.5186296463012695, 0.5166395823160808);24.2289390564;0.978182690827;;;;;;;;;;;;;;8;0;0;;0;0;();();(-2000.0, -2000.0);
07:57:56:573;07:57:56:517;1448046834.47;(0.5186296463012695, 0.5166395823160808);24.2289390564;0.978182690827;;;;;;;;;;;;;;8;0;0;;0;0;();();(-2000.0, -2000.0);
07:57:56:607;07:57:56:517;1448046834.47;(0.5186296463012695, 0.5166395823160808);24.2289390564;0.978182690827;;;;;;;;;;;;;;8;0;0;;0;0;();();(-2000.0, -2000.0);
07:57:56:623;07:57:56:517;1448046834.47;(0.5186296463012695, 0.5166395823160808);24.2289390564;0.978182690827;;;;;;;;;;;;;;8;0;0;;0;0;();();(-2000.0, -2000.0);
07:57:56:640;07:57:56:517;1448046834.47;(0.5186296463012695, 0.5166395823160808);24.2289390564;0.978182690827;;;;;;;;;;;;;;8;0;0;;0;0;();();(-2000.0, -2000.0);
07:57:56:657;07:57:56:654;1448046834.61;(0.5192427158355712, 0.5166417863633898);23.6607551575;0.876712343115;;;;;;;;;;;;;;8;0;0;;0;0;();();(-2000.0, -2000.0);
07:57:56:673;07:57:56:654;1448046834.61;(0.5192427158355712, 0.5166417863633898);23.6607551575;0.876712343115;;;;;;;;;;;;;;8;0;0;;0;0;();();(-2000.0, -2000.0);
07:57:56:707;07:57:56:654;1448046834.61;(0.5192427158355712, 0.5166417863633898);23.6607551575;0.876712343115;;;;;;;;;;;;;;8;0;0;;0;0;();();(-2000.0, -2000.0);
07:57:56:724;07:57:56:654;1448046834.61;(0.5192427158355712, 0.5166417863633898);23.6607551575;0.876712343115;;;;;;;;;;;;;;8;0;0;;0;0;();();(-2000.0, -2000.0);
07:57:56:740;07:57:56:654;1448046834.61;(0.5192427158355712, 0.5166417863633898);23.6607551575;0.876712343115;;;;;;;;;;;;;;8;0;0;;0;0;();();(-2000.0, -2000.0);
07:57:56:757;07:57:56:654;1448046834.61;(0.5192427158355712, 0.5166417863633898);23.6607551575;0.876712343115;;;;;;;;;;;;;;8;0;0;;0;0;();();(-2000.0, -2000.0);
07:57:56:773;07:57:56:654;1448046834.61;(0.5192427158355712, 0.5166417863633898);23.6607551575;0.876712343115;;;;;;;;;;;;;;8;0;0;;0;0;();();(-2000.0, -2000.0);
07:57:56:807;07:57:56:779;1448046834.74;(0.5193245887756348, 0.5164184994167752);24.1334533691;0.997188836119;;;;;;;;;;;;;;8;0;0;;0;0;();();(-2000.0, -2000.0);
07:57:56:824;07:57:56:779;1448046834.74;(0.5193245887756348, 0.5164184994167752);24.1334533691;0.997188836119;;;;;;;;;;;;;;8;0;0;;0;0;();();(-2000.0, -2000.0);
07:57:56:840;07:57:56:779;1448046834.74;(0.5193245887756348, 0.5164184994167752);24.1334533691;0.997188836119;;;;;;;;;;;;;;8;0;0;;0;0;();();(-2000.0, -2000.0);
07:57:56:857;07:57:56:779;1448046834.74;(0.5193245887756348, 0.5164184994167752);24.1334533691;0.997188836119;;;;;;;;;;;;;;8;0;0;;0;0;();();(-2000.0, -2000.0);
07:57:56:874;07:57:56:779;1448046834.74;(0.5193245887756348, 0.5164184994167752);24.1334533691;0.997188836119;;;;;;;;;;;;;;8;0;0;;0;0;();();(-2000.0, -2000.0);
07:57:56:892;07:57:56:779;1448046834.74;(0.5193245887756348, 0.5164184994167752);24.1334533691;0.997188836119;;;;;;;;;;;;;;8;0;0;;0;0;();();(-2000.0, -2000.0);
07:57:56:924;07:57:56:912;1448046834.87;(0.5194743156433106, 0.5160775926378038);24.0626182556;1.0;;;;;;;;;;;;;;8;0;0;;0;0;();();(-2000.0, -2000.0);
07:57:56:940;07:57:56:912;1448046834.87;(0.5194743156433106, 0.5160775926378038);24.0626182556;1.0;;;;;;;;;;;;;;8;0;0;;0;0;();();(-2000.0, -2000.0);
07:57:56:957;07:57:56:912;1448046834.87;(0.5194743156433106, 0.5160775926378038);24.0626182556;1.0;;;;;;;;;;;;;;8;0;0;;0;0;();();(-2000.0, -2000.0);
07:57:56:974;07:57:56:912;1448046834.87;(0.5194743156433106, 0.5160775926378038);24.0626182556;1.0;;;;;;;;;;;;;;8;0;0;;0;0;();();(-2000.0, -2000.0);
07:57:57:007;07:57:56:912;1448046834.87;(0.5194743156433106, 0.5160775926378038);24.0626182556;1.0;;;;;;;;;;;;;;8;0;0;;0;0;();();(-2000.0, -2000.0);
07:57:57:024;07:57:56:912;1448046834.87;(0.5194743156433106, 0.5160775926378038);24.0626182556;1.0;;;;;;;;;;;;;;8;0;0;;0;0;();();(-2000.0, -2000.0);
07:57:57:040;07:57:56:912;1448046834.87;(0.5194743156433106, 0.5160775926378038);24.0626182556;1.0;;;;;;;;;;;;;;8;0;0;;0;0;();();(-2000.0, -2000.0);
07:57:57:057;07:57:57:043;1448046835.01;(0.5193442344665528, 0.5157475789388021);23.4965057373;0.964842597183;;;;;;;;;;;;;;8;0;0;;0;0;();();(-2000.0, -2000.0);
07:57:57:074;07:57:57:043;1448046835.01;(0.5193442344665528, 0.5157475789388021);23.4965057373;0.964842597183;;;;;;;;;;;;;;8;0;0;;0;0;();();(-2000.0, -2000.0);
07:57:57:107;07:57:57:043;1448046835.01;(0.5193442344665528, 0.5157475789388021);23.4965057373;0.964842597183;;;;;;;;;;;;;;8;0;0;;0;0;();();(-2000.0, -2000.0);
07:57:57:124;07:57:57:043;1448046835.01;(0.5193442344665528, 0.5157475789388021);23.4965057373;0.964842597183;;;;;;;;;;;;;;8;0;0;;0;0;();();(-2000.0, -2000.0);
07:57:57:140;07:57:57:043;1448046835.01;(0.5193442344665528, 0.5157475789388021);23.4965057373;0.964842597183;;;;;;;;;;;;;;8;0;0;;0;0;();();(-2000.0, -2000.0);
07:57:57:157;07:57:57:043;1448046835.01;(0.5193442344665528, 0.5157475789388021);23.4965057373;0.964842597183;;;;;;;;;;;;;;8;0;0;;0;0;();();(-2000.0, -2000.0);
07:57:57:174;07:57:57:043;1448046835.01;(0.5193442344665528, 0.5157475789388021);23.4965057373;0.964842597183;;;;;;;;;;;;;;8;0;0;;0;0;();();(-2000.0, -2000.0);
07:57:57:207;07:57:57:179;1448046835.14;(0.5192668437957764, 0.5156160142686632);24.1454982758;1.0;;;;;;;;;;;;;;8;0;0;;0;0;();();(-2000.0, -2000.0);
07:57:57:224;07:57:57:179;1448046835.14;(0.5192668437957764, 0.5156160142686632);24.1454982758;1.0;;;;;;;;;;;;;;8;0;0;;0;0;();();(-2000.0, -2000.0);
07:57:57:240;07:57:57:179;1448046835.14;(0.5192668437957764, 0.5156160142686632);24.1454982758;1.0;;;;;;;;;;;;;;8;0;0;;0;0;();();(-2000.0, -2000.0);
07:57:57:257;07:57:57:179;1448046835.14;(0.5192668437957764, 0.5156160142686632);24.1454982758;1.0;;;;;;;;;;;;;;8;0;0;;0;0;();();(-2000.0, -2000.0);
07:57:57:274;07:57:57:179;1448046835.14;(0.5192668437957764, 0.5156160142686632);24.1454982758;1.0;;;;;;;;;;;;;;8;0;0;;0;0;();();(-2000.0, -2000.0);
07:57:57:291;07:57:57:179;1448046835.14;(0.5192668437957764, 0.5156160142686632);24.1454982758;1.0;;;;;;;;;;;;;;8;0;0;;0;0;();();(-2000.0, -2000.0);
07:57:57:324;07:57:57:311;1448046835.27;(0.519425344467163, 0.5157403310139974);23.8391666412;0.943110242274;;;;;;;;;;;;;;8;0;0;;0;0;();();(-2000.0, -2000.0);
07:57:57:341;07:57:57:311;1448046835.27;(0.519425344467163, 0.5157403310139974);23.8391666412;0.943110242274;;;;;;;;;;;;;;8;0;0;;0;0;();();(-2000.0, -2000.0);
07:57:57:357;07:57:57:311;1448046835.27;(0.519425344467163, 0.5157403310139974);23.8391666412;0.943110242274;;;;;;;;;;;;;;8;0;0;;0;0;();();(-2000.0, -2000.0);
07:57:57:374;07:57:57:311;1448046835.27;(0.519425344467163, 0.5157403310139974);23.8391666412;0.943110242274;;;;;;;;;;;;;;8;0;0;;0;0;();();(-2000.0, -2000.0);
07:57:57:391;07:57:57:311;1448046835.27;(0.519425344467163, 0.5157403310139974);23.8391666412;0.943110242274;;;;;;;;;;;;;;8;0;0;;0;0;();();(-2000.0, -2000.0);
07:57:57:424;07:57:57:311;1448046835.27;(0.519425344467163, 0.5157403310139974);23.8391666412;0.943110242274;;;;;;;;;;;;;;8;0;0;;0;0;();();(-2000.0, -2000.0);
07:57:57:441;07:57:57:311;1448046835.27;(0.519425344467163, 0.5157403310139974);23.8391666412;0.943110242274;;;;;;;;;;;;;;8;0;0;;0;0;();();(-2000.0, -2000.0);
07:57:57:457;07:57:57:443;1448046835.41;(0.5194223880767822, 0.515896224975586);24.5359268188;1.0;;;;;;;;;;;;;;8;0;0;;0;0;();();(-2000.0, -2000.0);
07:57:57:474;07:57:57:443;1448046835.41;(0.5194223880767822, 0.515896224975586);24.5359268188;1.0;;;;;;;;;;;;;;8;0;0;;0;0;();();(-2000.0, -2000.0);
07:57:57:491;07:57:57:443;1448046835.41;(0.5194223880767822, 0.515896224975586);24.5359268188;1.0;;;;;;;;;;;;;;8;0;0;;0;0;();();(-2000.0, -2000.0);
07:57:57:524;07:57:57:443;1448046835.41;(0.5194223880767822, 0.515896224975586);24.5359268188;1.0;;;;;;;;;;;;;;8;0;0;;0;0;();();(-2000.0, -2000.0);
07:57:57:541;07:57:57:443;1448046835.41;(0.5194223880767822, 0.515896224975586);24.5359268188;1.0;;;;;;;;;;;;;;8;0;0;;0;0;();();(-2000.0, -2000.0);
07:57:57:557;07:57:57:443;1448046835.41;(0.5194223880767822, 0.515896224975586);24.5359268188;1.0;;;;;;;;;;;;;;8;0;0;;0;0;();();(-2000.0, -2000.0);
07:57:57:574;07:57:57:443;1448046835.41;(0.5194223880767822, 0.515896224975586);24.5359268188;1.0;;;;;;;;;;;;;;8;0;0;;0;0;();();(-2000.0, -2000.0);
07:57:57:591;07:57:57:575;1448046835.54;(0.5196770191192627, 0.5160057915581597);24.8312416077;0.952164331584;;;;;;;;;;;;;;8;0;0;;0;0;();();(-2000.0, -2000.0);
07:57:57:624;07:57:57:575;1448046835.54;(0.5196770191192627, 0.5160057915581597);24.8312416077;0.952164331584;;;;;;;;;;;;;;8;0;0;;0;0;();();(-2000.0, -2000.0);
07:57:57:641;07:57:57:575;1448046835.54;(0.5196770191192627, 0.5160057915581597);24.8312416077;0.952164331584;;;;;;;;;;;;;;8;0;0;;0;0;();();(-2000.0, -2000.0);
07:57:57:658;07:57:57:575;1448046835.54;(0.5196770191192627, 0.5160057915581597);24.8312416077;0.952164331584;;;;;;;;;;;;;;8;0;0;;0;0;();();(-2000.0, -2000.0);
07:57:57:674;07:57:57:575;1448046835.54;(0.5196770191192627, 0.5160057915581597);24.8312416077;0.952164331584;;;;;;;;;;;;;;8;0;0;;0;0;();();(-2000.0, -2000.0);
07:57:57:691;07:57:57:575;1448046835.54;(0.5196770191192627, 0.5160057915581597);24.8312416077;0.952164331584;;;;;;;;;;;;;;8;0;0;;0;0;();();(-2000.0, -2000.0);
07:57:57:724;07:57:57:707;1448046835.67;(0.5188821792602539, 0.5164310031467014);24.6919555664;0.964706458896;;;;;;;;;;;;;;8;0;0;;0;0;();();(-2000.0, -2000.0);
07:57:57:741;07:57:57:707;1448046835.67;(0.5188821792602539, 0.5164310031467014);24.6919555664;0.964706458896;;;;;;;;;;;;;;8;0;0;;0;0;();();(-2000.0, -2000.0);
07:57:57:758;07:57:57:707;1448046835.67;(0.5188821792602539, 0.5164310031467014);24.6919555664;0.964706458896;;;;;;;;;;;;;;8;0;0;;0;0;();();(-2000.0, -2000.0);
07:57:57:774;07:57:57:707;1448046835.67;(0.5188821792602539, 0.5164310031467014);24.6919555664;0.964706458896;;;;;;;;;;;;;;8;0;0;;0;0;();();(-2000.0, -2000.0);
07:57:57:791;07:57:57:707;1448046835.67;(0.5188821792602539, 0.5164310031467014);24.6919555664;0.964706458896;;;;;;;;;;;;;;8;0;0;;0;0;();();(-2000.0, -2000.0);
07:57:57:824;07:57:57:707;1448046835.67;(0.5188821792602539, 0.5164310031467014);24.6919555664;0.964706458896;;;;;;;;;;;;;;8;0;0;;0;0;();();(-2000.0, -2000.0);
07:57:57:841;07:57:57:839;1448046835.81;(0.5189595222473145, 0.5163179609510633);24.1318683624;0.964706627865;;;;;;;;;;;;;;8;0;0;;0;0;();();(-2000.0, -2000.0);
07:57:57:858;07:57:57:839;1448046835.81;(0.5189595222473145, 0.5163179609510633);24.1318683624;0.964706627865;;;;;;;;;;;;;;8;0;0;;0;0;();();(-2000.0, -2000.0);
07:57:57:874;07:57:57:839;1448046835.81;(0.5189595222473145, 0.5163179609510633);24.1318683624;0.964706627865;;;;;;;;;;;;;;8;0;0;;0;0;();();(-2000.0, -2000.0);
07:57:57:891;07:57:57:839;1448046835.81;(0.5189595222473145, 0.5163179609510633);24.1318683624;0.964706627865;;;;;;;;;;;;;;8;0;0;;0;0;();();(-2000.0, -2000.0);
07:57:57:924;07:57:57:839;1448046835.81;(0.5189595222473145, 0.5163179609510633);24.1318683624;0.964706627865;;;;;;;;;;;;;;8;0;0;;0;0;();();(-2000.0, -2000.0);
07:57:57:941;07:57:57:839;1448046835.81;(0.5189595222473145, 0.5163179609510633);24.1318683624;0.964706627865;;;;;;;;;;;;;;8;0;0;;0;0;();();(-2000.0, -2000.0);
07:57:57:958;07:57:57:839;1448046835.81;(0.5189595222473145, 0.5163179609510633);24.1318683624;0.964706627865;;;;;;;;;;;;;;8;0;0;;0;0;();();(-2000.0, -2000.0);
07:57:57:974;07:57:57:839;1448046835.81;(0.5189595222473145, 0.5163179609510633);24.1318683624;0.964706627865;;;;;;;;;;;;;;8;0;0;;0;0;();();(-2000.0, -2000.0);
07:57:57:991;07:57:57:981;1448046835.94;(0.5192825794219971, 0.5159060160319011);23.4947299957;1.0;;;;;;;;;;;;;;8;0;0;;0;0;();();(-2000.0, -2000.0);
07:57:58:025;07:57:57:981;1448046835.94;(0.5192825794219971, 0.5159060160319011);23.4947299957;1.0;;;;;;;;;;;;;;8;0;0;;0;0;();();(-2000.0, -2000.0);
07:57:58:041;07:57:57:981;1448046835.94;(0.5192825794219971, 0.5159060160319011);23.4947299957;1.0;;;;;;;;;;;;;;8;0;0;;0;0;();();(-2000.0, -2000.0);
07:57:58:058;07:57:57:981;1448046835.94;(0.5192825794219971, 0.5159060160319011);23.4947299957;1.0;;;;;;;;;;;;;;8;0;0;;0;0;();();(-2000.0, -2000.0);
07:57:58:074;07:57:57:981;1448046835.94;(0.5192825794219971, 0.5159060160319011);23.4947299957;1.0;;;;;;;;;;;;;;8;0;0;;0;0;();();(-2000.0, -2000.0);
07:57:58:091;07:57:57:981;1448046835.94;(0.5192825794219971, 0.5159060160319011);23.4947299957;1.0;;;;;;;;;;;;;;8;0;0;;0;0;();();(-2000.0, -2000.0);
07:57:58:125;07:57:58:109;1448046836.07;(0.5191338539123536, 0.5160514407687717);24.1265201569;1.0;;;;;;;;;;;;;;8;0;0;;0;0;();();(-2000.0, -2000.0);
07:57:58:141;07:57:58:109;1448046836.07;(0.5191338539123536, 0.5160514407687717);24.1265201569;1.0;;;;;;;;;;;;;;8;0;0;;0;0;();();(-2000.0, -2000.0);
07:57:58:158;07:57:58:109;1448046836.07;(0.5191338539123536, 0.5160514407687717);24.1265201569;1.0;;;;;;;;;;;;;;8;0;0;;0;0;();();(-2000.0, -2000.0);
07:57:58:174;07:57:58:109;1448046836.07;(0.5191338539123536, 0.5160514407687717);24.1265201569;1.0;;;;;;;;;;;;;;8;0;0;;0;0;();();(-2000.0, -2000.0);
07:57:58:191;07:57:58:109;1448046836.07;(0.5191338539123536, 0.5160514407687717);24.1265201569;1.0;;;;;;;;;;;;;;8;0;0;;0;0;();();(-2000.0, -2000.0);
07:57:58:225;07:57:58:109;1448046836.07;(0.5191338539123536, 0.5160514407687717);24.1265201569;1.0;;;;;;;;;;;;;;8;0;0;;0;0;();();(-2000.0, -2000.0);
07:57:58:241;07:57:58:239;1448046836.21;(0.5191440105438232, 0.515621100531684);23.4978141785;1.0;;;;;;;;;;;;;;8;0;0;;0;0;();();(-2000.0, -2000.0);
07:57:58:258;07:57:58:239;1448046836.21;(0.5191440105438232, 0.515621100531684);23.4978141785;1.0;;;;;;;;;;;;;;8;0;0;;0;0;();();(-2000.0, -2000.0);
07:57:58:275;07:57:58:239;1448046836.21;(0.5191440105438232, 0.515621100531684);23.4978141785;1.0;;;;;;;;;;;;;;8;0;0;;0;0;();();(-2000.0, -2000.0);
07:57:58:291;07:57:58:239;1448046836.21;(0.5191440105438232, 0.515621100531684);23.4978141785;1.0;;;;;;;;;;;;;;8;0;0;;0;0;();();(-2000.0, -2000.0);
07:57:58:325;07:57:58:239;1448046836.21;(0.5191440105438232, 0.515621100531684);23.4978141785;1.0;;;;;;;;;;;;;;8;0;0;;0;0;();();(-2000.0, -2000.0);
07:57:58:341;07:57:58:239;1448046836.21;(0.5191440105438232, 0.515621100531684);23.4978141785;1.0;;;;;;;;;;;;;;8;0;0;;0;0;();();(-2000.0, -2000.0);
07:57:58:358;07:57:58:239;1448046836.21;(0.5191440105438232, 0.515621100531684);23.4978141785;1.0;;;;;;;;;;;;;;8;0;0;;0;0;();();(-2000.0, -2000.0);
07:57:58:375;07:57:58:371;1448046836.34;(0.5185492992401123, 0.5162191602918837);23.577545166;0.91188495102;;;;;;;;;;;;;;8;0;0;;0;0;();();(-2000.0, -2000.0);
07:57:58:391;07:57:58:371;1448046836.34;(0.5185492992401123, 0.5162191602918837);23.577545166;0.91188495102;;;;;;;;;;;;;;8;0;0;;0;0;();();(-2000.0, -2000.0);
07:57:58:425;07:57:58:371;1448046836.34;(0.5185492992401123, 0.5162191602918837);23.577545166;0.91188495102;;;;;;;;;;;;;;8;0;0;;0;0;();();(-2000.0, -2000.0);
07:57:58:441;07:57:58:371;1448046836.34;(0.5185492992401123, 0.5162191602918837);23.577545166;0.91188495102;;;;;;;;;;;;;;8;0;0;;0;0;();();(-2000.0, -2000.0);
07:57:58:458;07:57:58:371;1448046836.34;(0.5185492992401123, 0.5162191602918837);23.577545166;0.91188495102;;;;;;;;;;;;;;8;0;0;;0;0;();();(-2000.0, -2000.0);
07:57:58:475;07:57:58:371;1448046836.34;(0.5185492992401123, 0.5162191602918837);23.577545166;0.91188495102;;;;;;;;;;;;;;8;0;0;;0;0;();();(-2000.0, -2000.0);
07:57:58:491;07:57:58:371;1448046836.34;(0.5185492992401123, 0.5162191602918837);23.577545166;0.91188495102;;;;;;;;;;;;;;8;0;0;;0;0;();();(-2000.0, -2000.0);
07:57:58:525;07:57:58:503;1448046836.47;(0.5184031963348389, 0.5164235856797961);23.9979076385;1.0;;;;;;;;;;;;;;8;0;0;;0;0;();();(-2000.0, -2000.0);
07:57:58:541;07:57:58:503;1448046836.47;(0.5184031963348389, 0.5164235856797961);23.9979076385;1.0;;;;;;;;;;;;;;8;0;0;;0;0;();();(-2000.0, -2000.0);
07:57:58:558;07:57:58:503;1448046836.47;(0.5184031963348389, 0.5164235856797961);23.9979076385;1.0;;;;;;;;;;;;;;8;0;0;;0;0;();();(-2000.0, -2000.0);
07:57:58:575;07:57:58:503;1448046836.47;(0.5184031963348389, 0.5164235856797961);23.9979076385;1.0;;;;;;;;;;;;;;8;0;0;;0;0;();();(-2000.0, -2000.0);
07:57:58:591;07:57:58:503;1448046836.47;(0.5184031963348389, 0.5164235856797961);23.9979076385;1.0;;;;;;;;;;;;;;8;0;0;;0;0;();();(-2000.0, -2000.0);
07:57:58:625;07:57:58:503;1448046836.47;(0.5184031963348389, 0.5164235856797961);23.9979076385;1.0;;;;;;;;;;;;;;8;0;0;;0;0;();();(-2000.0, -2000.0);
07:57:58:642;07:57:58:639;1448046836.61;(0.5186938762664794, 0.5159203423394096);25.5725898743;0.979823334831;;;;;;;;;;;;;;8;0;0;;0;0;();();(-2000.0, -2000.0);
07:57:58:658;07:57:58:639;1448046836.61;(0.5186938762664794, 0.5159203423394096);25.5725898743;0.979823334831;;;;;;;;;;;;;;8;0;0;;0;0;();();(-2000.0, -2000.0);
07:57:58:675;07:57:58:639;1448046836.61;(0.5186938762664794, 0.5159203423394096);25.5725898743;0.979823334831;;;;;;;;;;;;;;8;0;0;;0;0;();();(-2000.0, -2000.0);
07:57:58:691;07:57:58:639;1448046836.61;(0.5186938762664794, 0.5159203423394096);25.5725898743;0.979823334831;;;;;;;;;;;;;;8;0;0;;0;0;();();(-2000.0, -2000.0);
07:57:58:725;07:57:58:639;1448046836.61;(0.5186938762664794, 0.5159203423394096);25.5725898743;0.979823334831;;;;;;;;;;;;;;8;0;0;;0;0;();();(-2000.0, -2000.0);
07:57:58:741;07:57:58:639;1448046836.61;(0.5186938762664794, 0.5159203423394096);25.5725898743;0.979823334831;;;;;;;;;;;;;;8;0;0;;0;0;();();(-2000.0, -2000.0);
07:57:58:758;07:57:58:639;1448046836.61;(0.5186938762664794, 0.5159203423394096);25.5725898743;0.979823334831;;;;;;;;;;;;;;8;0;0;;0;0;();();(-2000.0, -2000.0);
07:57:58:775;07:57:58:772;1448046836.74;(0.6635647296905518, 0.4079740312364366);35.0544586182;0.73019581252;;;;;;;;;;;;;;8;0;0;;0;0;();();(-2000.0, -2000.0);
07:57:58:792;07:57:58:772;1448046836.74;(0.6635647296905518, 0.4079740312364366);35.0544586182;0.73019581252;;;;;;;;;;;;;;8;0;0;;0;0;();();(-2000.0, -2000.0);
07:57:58:825;07:57:58:772;1448046836.74;(0.6635647296905518, 0.4079740312364366);35.0544586182;0.73019581252;;;;;;;;;;;;;;8;0;0;;0;0;();();(-2000.0, -2000.0);
07:57:58:842;07:57:58:772;1448046836.74;(0.6635647296905518, 0.4079740312364366);35.0544586182;0.73019581252;;;;;;;;;;;;;;8;0;0;;0;0;();();(-2000.0, -2000.0);
07:57:58:858;07:57:58:772;1448046836.74;(0.6635647296905518, 0.4079740312364366);35.0544586182;0.73019581252;;;;;;;;;;;;;;8;0;0;;0;0;();();(-2000.0, -2000.0);
07:57:58:875;07:57:58:772;1448046836.74;(0.6635647296905518, 0.4079740312364366);35.0544586182;0.73019581252;;;;;;;;;;;;;;8;0;0;;0;0;();();(-2000.0, -2000.0);
07:57:58:892;07:57:58:772;1448046836.74;(0.6635647296905518, 0.4079740312364366);35.0544586182;0.73019581252;;;;;;;;;;;;;;8;0;0;;0;0;();();(-2000.0, -2000.0);
07:57:58:925;07:57:58:922;1448046836.87;(0.5202744007110596, 0.5157121870252821);24.7665252686;0.866088682256;;;;;;;;;;;;;;8;0;0;;0;0;();();(-2000.0, -2000.0);
07:57:58:942;07:57:58:922;1448046836.87;(0.5202744007110596, 0.5157121870252821);24.7665252686;0.866088682256;;;;;;;;;;;;;;8;0;0;;0;0;();();(-2000.0, -2000.0);
07:57:58:958;07:57:58:922;1448046836.87;(0.5202744007110596, 0.5157121870252821);24.7665252686;0.866088682256;;;;;;;;;;;;;;8;0;0;;0;0;();();(-2000.0, -2000.0);
07:57:58:975;07:57:58:922;1448046836.87;(0.5202744007110596, 0.5157121870252821);24.7665252686;0.866088682256;;;;;;;;;;;;;;8;0;0;;0;0;();();(-2000.0, -2000.0);
07:57:58:992;07:57:58:922;1448046836.87;(0.5202744007110596, 0.5157121870252821);24.7665252686;0.866088682256;;;;;;;;;;;;;;8;0;0;;0;0;();();(-2000.0, -2000.0);
07:57:59:025;07:57:58:922;1448046836.87;(0.5202744007110596, 0.5157121870252821);24.7665252686;0.866088682256;;;;;;;;;;;;;;8;0;0;;0;0;();();(-2000.0, -2000.0);
07:57:59:042;07:57:59:037;1448046837.01;(0.5201874732971191, 0.515214623345269);25.3041038513;1.0;;;;;;;;;;;;;;8;0;0;;0;0;();();(-2000.0, -2000.0);
07:57:59:058;07:57:59:037;1448046837.01;(0.5201874732971191, 0.515214623345269);25.3041038513;1.0;;;;;;;;;;;;;;8;0;0;;0;0;();();(-2000.0, -2000.0);
07:57:59:075;07:57:59:037;1448046837.01;(0.5201874732971191, 0.515214623345269);25.3041038513;1.0;;;;;;;;;;;;;;8;0;0;;0;0;();();(-2000.0, -2000.0);
07:57:59:092;07:57:59:037;1448046837.01;(0.5201874732971191, 0.515214623345269);25.3041038513;1.0;;;;;;;;;;;;;;8;0;0;;0;0;();();(-2000.0, -2000.0);
07:57:59:125;07:57:59:037;1448046837.01;(0.5201874732971191, 0.515214623345269);25.3041038513;1.0;;;;;;;;;;;;;;8;0;0;;0;0;();();(-2000.0, -2000.0);
07:57:59:143;07:57:59:037;1448046837.01;(0.5201874732971191, 0.515214623345269);25.3041038513;1.0;;;;;;;;;;;;;;8;0;0;;0;0;();();(-2000.0, -2000.0);
07:57:59:160;07:57:59:037;1448046837.01;(0.5201874732971191, 0.515214623345269);25.3041038513;1.0;;;;;;;;;;;;;;8;0;0;;0;0;();();(-2000.0, -2000.0);
07:57:59:176;07:57:59:171;1448046837.14;(0.5202423095703125, 0.5157265133327908);26.1941776276;0.889145785201;;;;;;;;;;;;;;8;0;0;;0;0;();();(-2000.0, -2000.0);
07:57:59:193;07:57:59:171;1448046837.14;(0.5202423095703125, 0.5157265133327908);26.1941776276;0.889145785201;;;;;;;;;;;;;;8;0;0;;0;0;();();(-2000.0, -2000.0);
07:57:59:227;07:57:59:171;1448046837.14;(0.5202423095703125, 0.5157265133327908);26.1941776276;0.889145785201;;;;;;;;;;;;;;10;0;0;;0;0;();();(-2000.0, -2000.0);
07:57:59:243;07:57:59:171;1448046837.14;(0.5202423095703125, 0.5157265133327908);26.1941776276;0.889145785201;;;;;;;;;;;;;;10;0;0;;0;0;();();(-2000.0, -2000.0);
07:57:59:259;07:57:59:171;1448046837.14;(0.5202423095703125, 0.5157265133327908);26.1941776276;0.889145785201;;;;;;;;;;;;;;10;0;0;;0;0;();();(-2000.0, -2000.0);
07:57:59:276;07:57:59:171;1448046837.14;(0.5202423095703125, 0.5157265133327908);26.1941776276;0.889145785201;;;;;;;;;;;;;;10;0;0;;0;0;();();(-2000.0, -2000.0);
07:57:59:293;07:57:59:171;1448046837.14;(0.5202423095703125, 0.5157265133327908);26.1941776276;0.889145785201;;;;;;;;;;;;;;10;0;0;;0;0;();();(-2000.0, -2000.0);
07:57:59:326;07:57:59:305;1448046837.27;(0.6626279354095459, 0.4082006242540147);34.6814804077;0.777297511542;;;;;;;;;;;;;;10;0;0;;0;0;();();(-2000.0, -2000.0);
07:57:59:343;07:57:59:305;1448046837.27;(0.6626279354095459, 0.4082006242540147);34.6814804077;0.777297511542;;;;;;;;;;;;;;10;0;0;;0;0;();();(-2000.0, -2000.0);
07:57:59:360;07:57:59:305;1448046837.27;(0.6626279354095459, 0.4082006242540147);34.6814804077;0.777297511542;;;;;;;;;;;;;;10;0;0;;0;0;();();(-2000.0, -2000.0);
07:57:59:376;07:57:59:305;1448046837.27;(0.6626279354095459, 0.4082006242540147);34.6814804077;0.777297511542;;;;;;;;;;;;;;10;0;0;;0;0;();();(-2000.0, -2000.0);
07:57:59:393;07:57:59:305;1448046837.27;(0.6626279354095459, 0.4082006242540147);34.6814804077;0.777297511542;;;;;;;;;;;;;;10;0;0;;0;0;();();(-2000.0, -2000.0);
07:57:59:426;07:57:59:305;1448046837.27;(0.6626279354095459, 0.4082006242540147);34.6814804077;0.777297511542;;;;;;;;;;;;;;10;0;0;;0;0;();();(-2000.0, -2000.0);
07:57:59:443;07:57:59:436;1448046837.41;(0.5199038028717041, 0.515434561835395);23.8902664185;0.909157704505;;;;;;;;;;;;;;10;0;0;;0;0;();();(-2000.0, -2000.0);
