%Timestamp,timestamp_write;timestamp_gotpupil;eyetrackertime;norm_pos;diameter;confidence;timestamp_gotbitdata;CRC;SEQ;AnalogOutp1;AnalogOutp2;AnalogOutp3;AnalogOutp4;AnalogOutp5;AnalogOutp6;DigitalOutp1;DigitalOutp2;igitalOutp3;DigitalOutp4;nplanes;lastaction;lastactiondetails;lastactionairplanenumber;positivescore;negativescore;collidedairplanenumbers;targetpositions;collision_point
10:57:32:301;1448057609.73;(0.5493863105773926, 0.61938353644477);62.5983657837;1.0;;;;;;;;;;;;;;0;0;0;;0;0;();();(0.0, 0.0);
10:57:32:306;1448057609.73;(0.5493863105773926, 0.61938353644477);62.5983657837;1.0;;;;;;;;;;;;;;0;0;0;;0;0;();();(-2000.0, -2000.0);
10:57:32:308;1448057609.73;(0.5493863105773926, 0.61938353644477);62.5983657837;1.0;;;;;;;;;;;;;;0;0;0;;0;0;();();(-2000.0, -2000.0);
10:57:32:310;10:57:32:309;1448057609.8;(0.5494642734527588, 0.6195410198635525);62.6523780823;1.0;;;;;;;;;;;;;;0;0;0;;0;0;();();(-2000.0, -2000.0);
10:57:32:312;10:57:32:309;1448057609.8;(0.5494642734527588, 0.6195410198635525);62.6523780823;1.0;;;;;;;;;;;;;;0;0;0;;0;0;();();(-2000.0, -2000.0);
10:57:32:314;10:57:32:309;1448057609.8;(0.5494642734527588, 0.6195410198635525);62.6523780823;1.0;;;;;;;;;;;;;;0;0;0;;0;0;();();(-2000.0, -2000.0);
10:57:32:316;10:57:32:309;1448057609.8;(0.5494642734527588, 0.6195410198635525);62.6523780823;1.0;;;;;;;;;;;;;;0;0;0;;0;0;();();(-2000.0, -2000.0);
10:57:32:318;10:57:32:309;1448057609.8;(0.5494642734527588, 0.6195410198635525);62.6523780823;1.0;;;;;;;;;;;;;;0;0;0;;0;0;();();(-2000.0, -2000.0);
10:57:32:319;10:57:32:309;1448057609.8;(0.5494642734527588, 0.6195410198635525);62.6523780823;1.0;;;;;;;;;;;;;;0;0;0;;0;0;();();(-2000.0, -2000.0);
10:57:32:321;10:57:32:309;1448057609.8;(0.5494642734527588, 0.6195410198635525);62.6523780823;1.0;;;;;;;;;;;;;;0;0;0;;0;0;();();(-2000.0, -2000.0);
10:57:32:323;10:57:32:309;1448057609.8;(0.5494642734527588, 0.6195410198635525);62.6523780823;1.0;;;;;;;;;;;;;;0;0;0;;0;0;();();(-2000.0, -2000.0);
10:57:32:325;10:57:32:309;1448057609.8;(0.5494642734527588, 0.6195410198635525);62.6523780823;1.0;;;;;;;;;;;;;;0;0;0;;0;0;();();(-2000.0, -2000.0);
10:57:32:327;10:57:32:309;1448057609.8;(0.5494642734527588, 0.6195410198635525);62.6523780823;1.0;;;;;;;;;;;;;;0;0;0;;0;0;();();(-2000.0, -2000.0);
10:57:32:329;10:57:32:309;1448057609.8;(0.5494642734527588, 0.6195410198635525);62.6523780823;1.0;;;;;;;;;;;;;;0;0;0;;0;0;();();(-2000.0, -2000.0);
10:57:32:331;10:57:32:309;1448057609.8;(0.5494642734527588, 0.6195410198635525);62.6523780823;1.0;;;;;;;;;;;;;;0;0;0;;0;0;();();(-2000.0, -2000.0);
10:57:32:332;10:57:32:309;1448057609.8;(0.5494642734527588, 0.6195410198635525);62.6523780823;1.0;;;;;;;;;;;;;;0;0;0;;0;0;();();(-2000.0, -2000.0);
10:57:32:337;10:57:32:309;1448057609.8;(0.5494642734527588, 0.6195410198635525);62.6523780823;1.0;;;;;;;;;;;;;;0;0;0;;0;0;();();(-2000.0, -2000.0);
10:57:32:339;10:57:32:309;1448057609.8;(0.5494642734527588, 0.6195410198635525);62.6523780823;1.0;;;;;;;;;;;;;;0;0;0;;0;0;();();(-2000.0, -2000.0);
10:57:32:353;10:57:32:309;1448057609.8;(0.5494642734527588, 0.6195410198635525);62.6523780823;1.0;;;;;;;;;;;;;;0;0;0;;0;0;();();(-2000.0, -2000.0);
10:57:32:370;10:57:32:369;1448057609.83;(0.5495761394500732, 0.6188542260064018);62.7060012817;1.0;;;;;;;;;;;;;;0;0;0;;0;0;();();(-2000.0, -2000.0);
10:57:32:403;10:57:32:369;1448057609.83;(0.5495761394500732, 0.6188542260064018);62.7060012817;1.0;;;;;;;;;;;;;;0;0;0;;0;0;();();(-2000.0, -2000.0);
10:57:32:420;10:57:32:369;1448057609.83;(0.5495761394500732, 0.6188542260064018);62.7060012817;1.0;;;;;;;;;;;;;;0;0;0;;0;0;();();(-2000.0, -2000.0);
10:57:32:436;10:57:32:425;1448057609.9;(0.5496408939361572, 0.6195586734347873);62.7284622192;1.0;;;;;;;;;;;;;;0;0;0;;0;0;();();(-2000.0, -2000.0);
10:57:32:452;10:57:32:425;1448057609.9;(0.5496408939361572, 0.6195586734347873);62.7284622192;1.0;;;;;;;;;;;;;;0;0;0;;0;0;();();(-2000.0, -2000.0);
10:57:34:335;10:57:34:302;1448057611.77;(0.5428770542144775, 0.524491967095269);62.2043075562;1.0;;;;;;;;;;;;;;0;0;0;;0;0;();();(-2000.0, -2000.0);
10:57:34:338;10:57:34:302;1448057611.77;(0.5428770542144775, 0.524491967095269);62.2043075562;1.0;;;;;;;;;;;;;;0;0;0;;0;0;();();(-2000.0, -2000.0);
10:57:34:340;10:57:34:302;1448057611.77;(0.5428770542144775, 0.524491967095269);62.2043075562;1.0;;;;;;;;;;;;;;0;0;0;;0;0;();();(-2000.0, -2000.0);
10:57:34:342;10:57:34:302;1448057611.77;(0.5428770542144775, 0.524491967095269);62.2043075562;1.0;;;;;;;;;;;;;;0;0;0;;0;0;();();(-2000.0, -2000.0);
10:57:34:344;10:57:34:302;1448057611.77;(0.5428770542144775, 0.524491967095269);62.2043075562;1.0;;;;;;;;;;;;;;0;0;0;;0;0;();();(-2000.0, -2000.0);
10:57:34:346;10:57:34:302;1448057611.77;(0.5428770542144775, 0.524491967095269);62.2043075562;1.0;;;;;;;;;;;;;;0;0;0;;0;0;();();(-2000.0, -2000.0);
10:57:34:348;10:57:34:302;1448057611.77;(0.5428770542144775, 0.524491967095269);62.2043075562;1.0;;;;;;;;;;;;;;0;0;0;;0;0;();();(-2000.0, -2000.0);
10:57:34:350;10:57:34:302;1448057611.77;(0.5428770542144775, 0.524491967095269);62.2043075562;1.0;;;;;;;;;;;;;;0;0;0;;0;0;();();(-2000.0, -2000.0);
10:57:34:352;10:57:34:302;1448057611.77;(0.5428770542144775, 0.524491967095269);62.2043075562;1.0;;;;;;;;;;;;;;0;0;0;;0;0;();();(-2000.0, -2000.0);
10:57:34:354;10:57:34:302;1448057611.77;(0.5428770542144775, 0.524491967095269);62.2043075562;1.0;;;;;;;;;;;;;;0;0;0;;0;0;();();(-2000.0, -2000.0);
10:57:34:356;10:57:34:302;1448057611.77;(0.5428770542144775, 0.524491967095269);62.2043075562;1.0;;;;;;;;;;;;;;0;0;0;;0;0;();();(-2000.0, -2000.0);
10:57:34:359;10:57:34:302;1448057611.77;(0.5428770542144775, 0.524491967095269);62.2043075562;1.0;;;;;;;;;;;;;;0;0;0;;0;0;();();(-2000.0, -2000.0);
10:57:34:361;10:57:34:302;1448057611.77;(0.5428770542144775, 0.524491967095269);62.2043075562;1.0;;;;;;;;;;;;;;0;0;0;;0;0;();();(-2000.0, -2000.0);
10:57:34:363;10:57:34:302;1448057611.77;(0.5428770542144775, 0.524491967095269);62.2043075562;1.0;;;;;;;;;;;;;;0;0;0;;0;0;();();(-2000.0, -2000.0);
10:57:34:365;10:57:34:302;1448057611.77;(0.5428770542144775, 0.524491967095269);62.2043075562;1.0;;;;;;;;;;;;;;0;0;0;;0;0;();();(-2000.0, -2000.0);
10:57:34:367;10:57:34:302;1448057611.77;(0.5428770542144775, 0.524491967095269);62.2043075562;1.0;;;;;;;;;;;;;;0;0;0;;0;0;();();(-2000.0, -2000.0);
10:57:34:371;10:57:34:369;1448057611.83;(0.5421871662139892, 0.5242530822753906);62.0419502258;1.0;;;;;;;;;;;;;;0;0;0;;0;0;();();(-2000.0, -2000.0);
10:57:34:373;10:57:34:369;1448057611.83;(0.5421871662139892, 0.5242530822753906);62.0419502258;1.0;;;;;;;;;;;;;;0;0;0;;0;0;();();(-2000.0, -2000.0);
10:57:34:387;10:57:34:369;1448057611.83;(0.5421871662139892, 0.5242530822753906);62.0419502258;1.0;;;;;;;;;;;;;;0;0;0;;0;0;();();(-2000.0, -2000.0);
10:57:34:404;10:57:34:369;1448057611.83;(0.5421871662139892, 0.5242530822753906);62.0419502258;1.0;;;;;;;;;;;;;;0;0;0;;0;0;();();(-2000.0, -2000.0);
10:57:34:421;10:57:34:369;1448057611.83;(0.5421871662139892, 0.5242530822753906);62.0419502258;1.0;;;;;;;;;;;;;;0;0;0;;0;0;();();(-2000.0, -2000.0);
10:57:34:437;10:57:34:433;1448057611.9;(0.5412897586822509, 0.5239246368408204);61.9188919067;1.0;;;;;;;;;;;;;;0;0;0;;0;0;();();(-2000.0, -2000.0);
10:57:34:470;10:57:34:433;1448057611.9;(0.5412897586822509, 0.5239246368408204);61.9188919067;1.0;;;;;;;;;;;;;;0;0;0;;0;0;();();(-2000.0, -2000.0);
10:57:34:487;10:57:34:433;1448057611.9;(0.5412897586822509, 0.5239246368408204);61.9188919067;1.0;;;;;;;;;;;;;;0;0;0;;0;0;();();(-2000.0, -2000.0);
10:57:34:503;10:57:34:433;1448057611.9;(0.5412897586822509, 0.5239246368408204);61.9188919067;1.0;;;;;;;;;;;;;;0;0;0;;0;0;();();(-2000.0, -2000.0);
10:57:34:520;10:57:34:433;1448057611.9;(0.5412897586822509, 0.5239246368408204);61.9188919067;1.0;;;;;;;;;;;;;;0;0;0;;0;0;();();(-2000.0, -2000.0);
10:57:34:553;10:57:34:433;1448057611.9;(0.5412897586822509, 0.5239246368408204);61.9188919067;1.0;;;;;;;;;;;;;;0;0;0;;0;0;();();(-2000.0, -2000.0);
10:57:34:570;10:57:34:433;1448057611.9;(0.5412897586822509, 0.5239246368408204);61.9188919067;1.0;;;;;;;;;;;;;;0;0;0;;0;0;();();(-2000.0, -2000.0);
10:57:34:587;10:57:34:433;1448057611.9;(0.5412897586822509, 0.5239246368408204);61.9188919067;1.0;;;;;;;;;;;;;;0;0;0;;0;0;();();(-2000.0, -2000.0);
10:57:34:604;10:57:34:433;1448057611.9;(0.5412897586822509, 0.5239246368408204);61.9188919067;1.0;;;;;;;;;;;;;;0;0;0;;0;0;();();(-2000.0, -2000.0);
10:57:34:619;10:57:34:433;1448057611.9;(0.5412897586822509, 0.5239246368408204);61.9188919067;1.0;;;;;;;;;;;;;;0;0;0;;0;0;();();(-2000.0, -2000.0);
10:57:34:653;10:57:34:637;1448057611.93;(0.5540279388427735, 0.52500245836046);61.9093322754;1.0;;;;;;;;;;;;;;0;0;0;;0;0;();();(-2000.0, -2000.0);
10:57:34:669;10:57:34:637;1448057611.93;(0.5540279388427735, 0.52500245836046);61.9093322754;1.0;;;;;;;;;;;;;;0;0;0;;0;0;();();(-2000.0, -2000.0);
10:57:34:686;10:57:34:637;1448057611.93;(0.5540279388427735, 0.52500245836046);61.9093322754;1.0;;;;;;;;;;;;;;0;0;0;;0;0;();();(-2000.0, -2000.0);
10:57:34:702;10:57:34:637;1448057611.93;(0.5540279388427735, 0.52500245836046);61.9093322754;1.0;;;;;;;;;;;;;;0;0;0;;0;0;();();(-2000.0, -2000.0);
10:57:34:718;10:57:34:637;1448057611.93;(0.5540279388427735, 0.52500245836046);61.9093322754;1.0;;;;;;;;;;;;;;0;0;0;;0;0;();();(-2000.0, -2000.0);
10:57:34:752;10:57:34:637;1448057611.93;(0.5540279388427735, 0.52500245836046);61.9093322754;1.0;;;;;;;;;;;;;;0;0;0;;0;0;();();(-2000.0, -2000.0);
10:57:34:768;10:57:34:766;1448057612.25;(0.5491871356964111, 0.5226065317789714);63.0357017517;0.808957513739;;;;;;;;;;;;;;0;0;0;;0;0;();();(-2000.0, -2000.0);
10:57:34:785;10:57:34:766;1448057612.25;(0.5491871356964111, 0.5226065317789714);63.0357017517;0.808957513739;;;;;;;;;;;;;;0;0;0;;0;0;();();(-2000.0, -2000.0);
10:57:34:803;10:57:34:766;1448057612.25;(0.5491871356964111, 0.5226065317789714);63.0357017517;0.808957513739;;;;;;;;;;;;;;0;0;0;;0;0;();();(-2000.0, -2000.0);
10:57:34:819;10:57:34:766;1448057612.25;(0.5491871356964111, 0.5226065317789714);63.0357017517;0.808957513739;;;;;;;;;;;;;;0;0;0;;0;0;();();(-2000.0, -2000.0);
10:57:34:851;10:57:34:766;1448057612.25;(0.5491871356964111, 0.5226065317789714);63.0357017517;0.808957513739;;;;;;;;;;;;;;0;0;0;;0;0;();();(-2000.0, -2000.0);
10:57:34:869;10:57:34:766;1448057612.25;(0.5491871356964111, 0.5226065317789714);63.0357017517;0.808957513739;;;;;;;;;;;;;;0;0;0;;0;0;();();(-2000.0, -2000.0);
10:57:34:884;10:57:34:766;1448057612.25;(0.5491871356964111, 0.5226065317789714);63.0357017517;0.808957513739;;;;;;;;;;;;;;0;0;0;;0;0;();();(-2000.0, -2000.0);
10:57:34:901;10:57:34:766;1448057612.25;(0.5491871356964111, 0.5226065317789714);63.0357017517;0.808957513739;;;;;;;;;;;;;;0;0;0;;0;0;();();(-2000.0, -2000.0);
10:57:34:918;10:57:34:766;1448057612.25;(0.5491871356964111, 0.5226065317789714);63.0357017517;0.808957513739;;;;;;;;;;;;;;0;0;0;;0;0;();();(-2000.0, -2000.0);
10:57:34:951;10:57:34:766;1448057612.25;(0.5491871356964111, 0.5226065317789714);63.0357017517;0.808957513739;;;;;;;;;;;;;;0;0;0;;0;0;();();(-2000.0, -2000.0);
10:57:34:968;10:57:34:965;1448057612.27;(0.5470383644104004, 0.5190242767333985);61.6761245728;1.0;;;;;;;;;;;;;;0;0;0;;0;0;();();(-2000.0, -2000.0);
10:57:34:984;10:57:34:965;1448057612.27;(0.5470383644104004, 0.5190242767333985);61.6761245728;1.0;;;;;;;;;;;;;;0;0;0;;0;0;();();(-2000.0, -2000.0);
10:57:35:001;10:57:34:965;1448057612.27;(0.5470383644104004, 0.5190242767333985);61.6761245728;1.0;;;;;;;;;;;;;;0;0;0;;0;0;();();(-2000.0, -2000.0);
10:57:35:017;10:57:34:965;1448057612.27;(0.5470383644104004, 0.5190242767333985);61.6761245728;1.0;;;;;;;;;;;;;;0;0;0;;0;0;();();(-2000.0, -2000.0);
10:57:35:542;10:57:35:497;1448057612.87;(0.5444902420043946, 0.6591814041137696);58.3901481628;1.0;10:57:35:540;0;9;1.78064516129032;1;0.391006842619746;0;0;0;1;1;1;1;0;0;0;;0;0;();();(-2000.0, -2000.0);
10:57:35:547;10:57:35:497;1448057612.87;(0.5444902420043946, 0.6591814041137696);58.3901481628;1.0;10:57:35:547;0;5;1.78064516129032;1;0.293255131964809;0;0;0;1;1;1;1;0;0;0;;0;0;();();(-2000.0, -2000.0);
10:57:35:552;10:57:35:497;1448057612.87;(0.5444902420043946, 0.6591814041137696);58.3901481628;1.0;10:57:35:551;0;5;1.78064516129032;1;0.293255131964809;0;0;0;1;1;1;1;0;0;0;;0;0;();();(-2000.0, -2000.0);
10:57:35:555;10:57:35:497;1448057612.87;(0.5444902420043946, 0.6591814041137696);58.3901481628;1.0;10:57:35:555;0;5;1.78064516129032;1;0.293255131964809;0;0;0;1;1;1;1;0;0;0;;0;0;();();(-2000.0, -2000.0);
10:57:35:558;10:57:35:497;1448057612.87;(0.5444902420043946, 0.6591814041137696);58.3901481628;1.0;10:57:35:558;0;5;1.78064516129032;1;0.293255131964809;0;0;0;1;1;1;1;0;0;0;;0;0;();();(-2000.0, -2000.0);
10:57:35:560;10:57:35:497;1448057612.87;(0.5444902420043946, 0.6591814041137696);58.3901481628;1.0;10:57:35:560;0;5;1.78064516129032;1;0.293255131964809;0;0;0;1;1;1;1;0;0;0;;0;0;();();(-2000.0, -2000.0);
10:57:35:563;10:57:35:497;1448057612.87;(0.5444902420043946, 0.6591814041137696);58.3901481628;1.0;10:57:35:563;0;0;0.561290322580645;1;0.293255131964809;0;0;0;1;1;1;1;0;0;0;;0;0;();();(-2000.0, -2000.0);
10:57:35:565;10:57:35:565;1448057613.01;(0.27361700534820554, 0.7633843315972222);36.5387420654;0.693284336446;10:57:35:565;0;10;1.48064516129032;1;0.293255131964809;0;0;0;1;1;1;1;0;0;0;;0;0;();();(-2000.0, -2000.0);
10:57:35:568;10:57:35:565;1448057613.01;(0.27361700534820554, 0.7633843315972222);36.5387420654;0.693284336446;10:57:35:568;0;10;1.48064516129032;1;0.293255131964809;0;0;0;1;1;1;1;0;0;0;;0;0;();();(-2000.0, -2000.0);
10:57:35:571;10:57:35:565;1448057613.01;(0.27361700534820554, 0.7633843315972222);36.5387420654;0.693284336446;10:57:35:571;0;10;1.48064516129032;1;0.293255131964809;0;0;0;1;1;1;1;0;0;0;;0;0;();();(-2000.0, -2000.0);
10:57:35:573;10:57:35:565;1448057613.01;(0.27361700534820554, 0.7633843315972222);36.5387420654;0.693284336446;10:57:35:573;0;10;1.48064516129032;1;0.293255131964809;0;0;0;1;1;1;1;0;0;0;;0;0;();();(-2000.0, -2000.0);
10:57:35:576;10:57:35:565;1448057613.01;(0.27361700534820554, 0.7633843315972222);36.5387420654;0.693284336446;10:57:35:576;0;10;1.48064516129032;1;0.293255131964809;0;0;0;1;1;1;1;0;0;0;;0;0;();();(-2000.0, -2000.0);
10:57:35:578;10:57:35:565;1448057613.01;(0.27361700534820554, 0.7633843315972222);36.5387420654;0.693284336446;10:57:35:578;0;10;1.48064516129032;1;0.293255131964809;0;0;0;1;1;1;1;0;0;0;;0;0;();();(-2000.0, -2000.0);
10:57:35:581;10:57:35:565;1448057613.01;(0.27361700534820554, 0.7633843315972222);36.5387420654;0.693284336446;10:57:35:581;0;5;-0.654838709677419;1;0.293255131964809;0;0;0;1;1;1;1;0;0;0;;0;0;();();(-2000.0, -2000.0);
10:57:35:584;10:57:35:565;1448057613.01;(0.27361700534820554, 0.7633843315972222);36.5387420654;0.693284336446;10:57:35:584;0;5;-0.654838709677419;1;0.293255131964809;0;0;0;1;1;1;1;0;0;0;;0;0;();();(-2000.0, -2000.0);
10:57:35:586;10:57:35:565;1448057613.01;(0.27361700534820554, 0.7633843315972222);36.5387420654;0.693284336446;10:57:35:586;0;13;-1.5;1;0.293255131964809;0;0;0;1;1;1;1;0;0;0;;0;0;();();(-2000.0, -2000.0);
10:57:35:590;10:57:35:565;1448057613.01;(0.27361700534820554, 0.7633843315972222);36.5387420654;0.693284336446;10:57:35:590;0;15;-1.5;1;0.293255131964809;0;0;0;1;1;1;1;0;0;0;;0;0;();();(-2000.0, -2000.0);
10:57:35:592;10:57:35:565;1448057613.01;(0.27361700534820554, 0.7633843315972222);36.5387420654;0.693284336446;10:57:35:592;0;15;-1.5;1;0.293255131964809;0;0;0;1;1;1;1;0;0;0;;0;0;();();(-2000.0, -2000.0);
10:57:35:594;10:57:35:565;1448057613.01;(0.27361700534820554, 0.7633843315972222);36.5387420654;0.693284336446;10:57:35:594;0;15;-1.5;1;0.293255131964809;0;0;0;1;1;1;1;0;0;0;;0;0;();();(-2000.0, -2000.0);
10:57:35:607;10:57:35:565;1448057613.01;(0.27361700534820554, 0.7633843315972222);36.5387420654;0.693284336446;10:57:35:607;0;9;-1.5;1;0.293255131964809;0;0;0;1;1;1;1;0;0;0;;0;0;();();(-2000.0, -2000.0);
10:57:35:640;10:57:35:631;1448057613.1;(0.5472265243530273, 0.6781458960639106);57.4995956421;1.0;10:57:35:640;0;5;-0.312903225806452;1;0.293255131964809;0;0;0;1;1;1;1;0;0;0;;0;0;();();(-2000.0, -2000.0);
10:57:35:656;10:57:35:631;1448057613.1;(0.5472265243530273, 0.6781458960639106);57.4995956421;1.0;10:57:35:656;0;15;1.19354838709677;1;0.293255131964809;0;0;0;1;1;1;1;0;0;0;;0;0;();();(-2000.0, -2000.0);
10:57:35:673;10:57:35:631;1448057613.1;(0.5472265243530273, 0.6781458960639106);57.4995956421;1.0;10:57:35:673;0;4;0.406451612903226;1;0.293255131964809;0;0;0;1;1;1;1;0;0;0;;0;0;();();(-2000.0, -2000.0);
10:57:35:689;10:57:35:631;1448057613.1;(0.5472265243530273, 0.6781458960639106);57.4995956421;1.0;10:57:35:689;0;15;0.251612903225806;1;0.293255131964809;0;0;0;1;1;1;1;0;0;0;;0;0;();();(-2000.0, -2000.0);
10:57:35:706;10:57:35:697;1448057613.2;(0.5487900257110596, 0.678026983473036);58.2027435303;1.0;10:57:35:706;0;14;-1.5;1;0.293255131964809;0;0;0;1;1;1;1;0;0;0;;0;0;();();(-2000.0, -2000.0);
10:57:35:739;10:57:35:697;1448057613.2;(0.5487900257110596, 0.678026983473036);58.2027435303;1.0;10:57:35:739;0;5;1.76129032258065;1;0.293255131964809;0;0;0;1;1;1;1;0;0;0;;0;0;();();(-2000.0, -2000.0);
10:57:35:756;10:57:35:697;1448057613.2;(0.5487900257110596, 0.678026983473036);58.2027435303;1.0;10:57:35:756;0;15;1.78064516129032;1;0.293255131964809;0;0;0;1;1;1;1;0;0;0;;0;0;();();(-2000.0, -2000.0);
10:57:35:772;10:57:35:761;1448057613.23;(0.5488101482391358, 0.6772017372979058);58.1932792664;1.0;10:57:35:772;0;4;1.77741935483871;1;0.293255131964809;0;0;0;1;1;1;1;0;0;0;;0;0;();();(-2000.0, -2000.0);
10:57:35:789;10:57:35:761;1448057613.23;(0.5488101482391358, 0.6772017372979058);58.1932792664;1.0;10:57:35:789;0;0;1.78064516129032;1;0.293255131964809;0;0;0;1;1;1;1;0;0;0;;0;0;();();(-2000.0, -2000.0);
10:57:35:805;10:57:35:761;1448057613.23;(0.5488101482391358, 0.6772017372979058);58.1932792664;1.0;10:57:35:805;0;5;1.77741935483871;1;0.293255131964809;0;0;0;1;1;1;1;0;0;0;;0;0;();();(-2000.0, -2000.0);
10:57:35:838;10:57:35:829;1448057613.3;(0.5484890460968017, 0.6762883292304145);58.4863243103;1.0;10:57:35:838;0;4;1.78064516129032;1;0.293255131964809;0;0;0;1;1;1;1;0;0;0;;0;0;();();(-2000.0, -2000.0);
10:57:35:855;10:57:35:829;1448057613.3;(0.5484890460968017, 0.6762883292304145);58.4863243103;1.0;10:57:35:855;0;15;1.78064516129032;1;0.293255131964809;0;0;0;1;1;1;1;0;0;0;;0;0;();();(-2000.0, -2000.0);
10:57:35:872;10:57:35:829;1448057613.3;(0.5484890460968017, 0.6762883292304145);58.4863243103;1.0;10:57:35:872;0;5;1.77741935483871;1;0.293255131964809;0;0;0;1;1;1;1;0;0;0;;0;0;();();(-2000.0, -2000.0);
10:57:35:888;10:57:35:829;1448057613.3;(0.5484890460968017, 0.6762883292304145);58.4863243103;1.0;10:57:35:888;0;10;1.78064516129032;1;0.293255131964809;0;0;0;1;1;1;1;0;0;0;;0;0;();();(-2000.0, -2000.0);
10:57:35:921;10:57:35:897;1448057613.37;(0.2720139741897583, 0.7581937366061741);34.1669502258;0.708748693393;10:57:35:921;0;9;1.78064516129032;1;0.684261974584555;0;0;0;1;1;1;1;0;0;0;;0;0;();();(-2000.0, -2000.0);
10:57:35:938;10:57:35:897;1448057613.37;(0.2720139741897583, 0.7581937366061741);34.1669502258;0.708748693393;10:57:35:938;0;4;1.78064516129032;1;0.293255131964809;0;0;0;1;1;1;1;0;0;0;;0;0;();();(-2000.0, -2000.0);
10:57:35:955;10:57:35:897;1448057613.37;(0.2720139741897583, 0.7581937366061741);34.1669502258;0.708748693393;10:57:35:955;0;10;1.78064516129032;1;0.586510263929619;0;0;0;1;1;1;1;0;0;0;;0;0;();();(-2000.0, -2000.0);
10:57:35:971;10:57:35:897;1448057613.37;(0.2720139741897583, 0.7581937366061741);34.1669502258;0.708748693393;10:57:35:971;0;5;1.76129032258065;1;0.293255131964809;0;0;0;1;1;1;1;0;0;0;;0;0;();();(-2000.0, -2000.0);
10:57:35:988;10:57:35:897;1448057613.37;(0.2720139741897583, 0.7581937366061741);34.1669502258;0.708748693393;10:57:35:988;0;10;-1.5;1;0.293255131964809;0;0;0;1;1;1;1;0;0;0;;0;0;();();(-2000.0, -2000.0);
10:57:36:020;10:57:35:897;1448057613.37;(0.2720139741897583, 0.7581937366061741);34.1669502258;0.708748693393;10:57:36:020;0;15;-1.5;1;0.293255131964809;0;0;0;1;1;1;1;0;0;0;;0;0;();();(-2000.0, -2000.0);
10:57:36:037;10:57:36:030;1448057613.4;(0.5289208889007568, 0.6355216768052843);144.372940063;0.656818540951;10:57:36:037;0;13;-1.5;1;0.684261974584555;0;0;0;1;1;1;1;0;0;0;;0;0;();();(-2000.0, -2000.0);
10:57:36:054;10:57:36:030;1448057613.4;(0.5289208889007568, 0.6355216768052843);144.372940063;0.656818540951;10:57:36:054;0;10;-1.5;1;0.293255131964809;0;0;0;1;1;1;1;0;0;0;;0;0;();();(-2000.0, -2000.0);
10:57:36:070;10:57:36:030;1448057613.4;(0.5289208889007568, 0.6355216768052843);144.372940063;0.656818540951;10:57:36:070;0;4;1.77741935483871;1;0.293255131964809;0;0;0;1;1;1;1;0;0;0;;0;0;();();(-2000.0, -2000.0);
10:57:36:087;10:57:36:030;1448057613.4;(0.5289208889007568, 0.6355216768052843);144.372940063;0.656818540951;10:57:36:087;0;9;1.78064516129032;1;0.293255131964809;0;0;0;1;1;1;1;0;0;0;;0;0;();();(-2000.0, -2000.0);
10:57:36:120;10:57:36:093;1448057613.57;(0.53144850730896, 0.6439137564765083);60.8456916809;1.0;10:57:36:120;0;9;-1.11935483870968;1;0.586510263929619;0;0;0;1;1;1;1;0;0;0;;0;0;();();(-2000.0, -2000.0);
10:57:36:138;10:57:36:093;1448057613.57;(0.53144850730896, 0.6439137564765083);60.8456916809;1.0;10:57:36:138;0;15;0.264516129032258;1;0.293255131964809;0;0;0;1;1;1;1;0;0;0;;0;0;();();(-2000.0, -2000.0);
10:57:36:154;10:57:36:093;1448057613.57;(0.53144850730896, 0.6439137564765083);60.8456916809;1.0;10:57:36:154;0;4;1.77741935483871;1;0.293255131964809;0;0;0;1;1;1;1;0;0;0;;0;0;();();(-2000.0, -2000.0);
10:57:36:169;10:57:36:161;1448057613.63;(0.5305865287780762, 0.644786262512207);61.0279006958;0.887361752973;10:57:36:169;0;15;1.79032258064516;1;0.293255131964809;0;0;0;1;1;1;1;0;0;0;;0;0;();();(-2000.0, -2000.0);
10:57:36:187;10:57:36:161;1448057613.63;(0.5305865287780762, 0.644786262512207);61.0279006958;0.887361752973;10:57:36:187;0;5;1.78064516129032;1;0.293255131964809;0;0;0;1;1;1;1;0;0;0;;0;0;();();(-2000.0, -2000.0);
10:57:36:219;10:57:36:161;1448057613.63;(0.5305865287780762, 0.644786262512207);61.0279006958;0.887361752973;10:57:36:219;0;5;-0.596774193548387;1;0.586510263929619;0;0;0;1;1;1;1;0;0;0;;0;0;();();(-2000.0, -2000.0);
10:57:36:236;10:57:36:228;1448057613.67;(0.5098911762237549, 0.6725560082329645);60.9561042786;1.0;10:57:36:236;0;9;1.79032258064516;1;0.293255131964809;0;0;0;1;1;1;1;0;0;0;;0;0;();();(-2000.0, -2000.0);
10:57:36:253;10:57:36:228;1448057613.67;(0.5098911762237549, 0.6725560082329645);60.9561042786;1.0;10:57:36:253;0;9;1.79032258064516;1;0.293255131964809;0;0;0;1;1;1;1;0;0;0;;0;0;();();(-2000.0, -2000.0);
10:57:36:269;10:57:36:228;1448057613.67;(0.5098911762237549, 0.6725560082329645);60.9561042786;1.0;10:57:36:269;0;0;1.78064516129032;1;0.293255131964809;0;0;0;1;1;1;1;0;0;0;;0;0;();();(-2000.0, -2000.0);
10:57:36:285;10:57:36:228;1448057613.67;(0.5098911762237549, 0.6725560082329645);60.9561042786;1.0;10:57:36:285;0;5;1.78064516129032;1;0.293255131964809;0;0;0;1;1;1;1;0;0;0;;0;0;();();(-2000.0, -2000.0);
10:57:36:319;10:57:36:294;1448057613.77;(0.5131689548492432, 0.6559952629937066);44.0537643433;0.62085419539;10:57:36:319;0;4;1.78064516129032;1;0.293255131964809;0;0;0;1;1;1;1;0;0;0;;0;0;();();(-2000.0, -2000.0);
10:57:36:336;10:57:36:294;1448057613.77;(0.5131689548492432, 0.6559952629937066);44.0537643433;0.62085419539;10:57:36:336;0;10;1.77741935483871;1;0.684261974584555;0;0;0;1;1;1;1;0;0;0;;0;0;();();(-2000.0, -2000.0);
10:57:36:351;10:57:36:294;1448057613.77;(0.5131689548492432, 0.6559952629937066);44.0537643433;0.62085419539;10:57:36:351;0;5;1.79032258064516;1;0.293255131964809;0;0;0;1;1;1;1;0;0;0;;0;0;();();(-2000.0, -2000.0);
10:57:36:368;10:57:36:361;1448057613.85;(0.5102157592773438, 0.682067256503635);60.1407661438;1.0;10:57:36:368;0;10;1.78064516129032;1;0.293255131964809;0;0;0;1;1;1;1;0;0;0;;0;0;();();(-2000.0, -2000.0);
10:57:36:386;10:57:36:361;1448057613.85;(0.5102157592773438, 0.682067256503635);60.1407661438;1.0;10:57:36:386;0;5;1.77741935483871;1;0.293255131964809;0;0;0;1;1;1;1;0;0;0;;0;0;();();(-2000.0, -2000.0);
10:57:36:419;10:57:36:361;1448057613.85;(0.5102157592773438, 0.682067256503635);60.1407661438;1.0;10:57:36:419;0;4;1.76129032258065;1;0.293255131964809;0;0;0;1;1;1;1;0;0;0;;0;0;();();(-2000.0, -2000.0);
10:57:36:434;10:57:36:425;1448057613.9;(0.5125065326690674, 0.6825945536295572);59.8989677429;1.0;10:57:36:434;0;10;1.78064516129032;1;0.293255131964809;0;0;0;1;1;1;1;0;0;0;;0;0;();();(-2000.0, -2000.0);
10:57:36:451;10:57:36:425;1448057613.9;(0.5125065326690674, 0.6825945536295572);59.8989677429;1.0;10:57:36:451;0;5;1.76129032258065;1;0.293255131964809;0;0;0;1;1;1;1;0;0;0;;0;0;();();(-2000.0, -2000.0);
10:57:36:468;10:57:36:425;1448057613.9;(0.5125065326690674, 0.6825945536295572);59.8989677429;1.0;10:57:36:468;0;10;0.00645161290322571;1;0.293255131964809;0;0;0;1;1;1;1;0;0;0;;0;0;();();(-2000.0, -2000.0);
10:57:36:501;10:57:36:493;1448057613.97;(0.5145631313323975, 0.682098748948839);60.2050018311;1.0;10:57:36:501;0;10;-0.767741935483871;1;0.293255131964809;0;0;0;1;1;1;1;0;0;0;;0;0;();();(-2000.0, -2000.0);
10:57:36:518;10:57:36:493;1448057613.97;(0.5145631313323975, 0.682098748948839);60.2050018311;1.0;10:57:36:518;0;0;-1.31935483870968;1;0.293255131964809;0;0;0;1;1;1;1;0;0;0;;0;0;();();(-2000.0, -2000.0);
10:57:36:534;10:57:36:493;1448057613.97;(0.5145631313323975, 0.682098748948839);60.2050018311;1.0;10:57:36:534;0;10;0.264516129032258;1;0.586510263929619;0;0;0;1;1;1;1;0;0;0;;0;0;();();(-2000.0, -2000.0);
10:57:36:551;10:57:36:493;1448057613.97;(0.5145631313323975, 0.682098748948839);60.2050018311;1.0;10:57:36:551;0;5;-1.5;1;0.293255131964809;0;0;0;1;1;1;1;0;0;0;;0;0;();();(-2000.0, -2000.0);
10:57:36:568;10:57:36:561;1448057614.03;(0.5159895420074463, 0.6810657289293077);59.5618858337;1.0;10:57:36:568;0;9;-1.5;1;0.293255131964809;0;0;0;1;1;1;1;0;0;0;;0;0;();();(-2000.0, -2000.0);
10:57:36:600;10:57:36:561;1448057614.03;(0.5159895420074463, 0.6810657289293077);59.5618858337;1.0;10:57:36:600;0;10;-1.5;1;0.293255131964809;0;0;0;1;1;1;1;0;0;0;;0;0;();();(-2000.0, -2000.0);
10:57:36:618;10:57:36:561;1448057614.03;(0.5159895420074463, 0.6810657289293077);59.5618858337;1.0;10:57:36:618;0;0;-1.5;1;0.293255131964809;0;0;0;1;1;1;1;0;0;0;;0;0;();();(-2000.0, -2000.0);
10:57:36:634;10:57:36:618;1448057614.1;(0.5166085720062256, 0.6803486082288954);59.8455162048;1.0;10:57:36:634;0;10;-1.5;1;0.293255131964809;0;0;0;1;1;1;1;0;0;0;;0;0;();();(-2000.0, -2000.0);
10:57:36:650;10:57:36:618;1448057614.1;(0.5166085720062256, 0.6803486082288954);59.8455162048;1.0;10:57:36:650;0;4;-1.5;1;0.293255131964809;0;0;0;1;1;1;1;0;0;0;;0;0;();();(-2000.0, -2000.0);
10:57:36:667;10:57:36:618;1448057614.1;(0.5166085720062256, 0.6803486082288954);59.8455162048;1.0;10:57:36:667;0;15;0.406451612903226;1;0.293255131964809;0;0;0;1;1;1;1;0;0;0;;0;0;();();(-2000.0, -2000.0);
10:57:36:699;10:57:36:677;1448057614.17;(0.5170844078063965, 0.6794246249728733);60.575466156;1.0;10:57:36:699;0;4;-0.364516129032258;1;0.293255131964809;0;0;0;1;1;1;1;0;0;0;;0;0;();();(-2000.0, -2000.0);
10:57:36:716;10:57:36:677;1448057614.17;(0.5170844078063965, 0.6794246249728733);60.575466156;1.0;10:57:36:716;0;15;-1.5;1;0.293255131964809;0;0;0;1;1;1;1;0;0;0;;0;0;();();(-2000.0, -2000.0);
10:57:36:734;10:57:36:733;1448057614.2;(0.5173463344573974, 0.6797708087497287);60.6606254578;1.0;10:57:36:734;0;4;-1.5;1;0.293255131964809;0;0;0;1;1;1;1;0;0;0;;0;0;();();(-2000.0, -2000.0);
10:57:36:749;10:57:36:733;1448057614.2;(0.5173463344573974, 0.6797708087497287);60.6606254578;1.0;10:57:36:749;0;15;-1.16774193548387;1;0.293255131964809;0;0;0;1;1;1;1;0;0;0;;0;0;();();(-2000.0, -2000.0);
10:57:36:767;10:57:36:733;1448057614.2;(0.5173463344573974, 0.6797708087497287);60.6606254578;1.0;10:57:36:767;0;5;1.10322580645161;1;0.293255131964809;0;0;0;1;1;1;1;0;0;0;;0;0;();();(-2000.0, -2000.0);
10:57:36:799;10:57:36:793;1448057614.23;(0.27396841049194337, 0.7166293885972765);33.9433708191;0.670399996013;10:57:36:799;0;4;-1.5;1;0.293255131964809;0;0;0;1;1;1;1;0;0;0;;0;0;();();(-2000.0, -2000.0);
10:57:36:817;10:57:36:793;1448057614.23;(0.27396841049194337, 0.7166293885972765);33.9433708191;0.670399996013;10:57:36:817;0;10;-1.5;1;0.293255131964809;0;0;0;1;1;1;1;0;0;0;;0;0;();();(-2000.0, -2000.0);
10:57:36:832;10:57:36:793;1448057614.23;(0.27396841049194337, 0.7166293885972765);33.9433708191;0.670399996013;10:57:36:832;0;5;-1.5;1;0.293255131964809;0;0;0;1;1;1;1;0;0;0;;0;0;();();(-2000.0, -2000.0);
10:57:36:849;10:57:36:793;1448057614.23;(0.27396841049194337, 0.7166293885972765);33.9433708191;0.670399996013;10:57:36:849;0;0;-1.5;1;0.293255131964809;0;0;0;1;1;1;1;0;0;0;;0;0;();();(-2000.0, -2000.0);
10:57:36:866;10:57:36:849;1448057614.3;(0.5512671947479248, 0.6341183768378365);61.1049232483;1.0;10:57:36:866;0;4;-1.5;1;0.293255131964809;0;0;0;1;1;1;1;0;0;0;;0;0;();();(-2000.0, -2000.0);
10:57:36:898;10:57:36:849;1448057614.3;(0.5512671947479248, 0.6341183768378365);61.1049232483;1.0;10:57:36:898;0;4;-1.5;1;0.293255131964809;0;0;0;1;1;1;1;0;0;0;;0;0;();();(-2000.0, -2000.0);
10:57:36:915;10:57:36:909;1448057614.38;(0.5508099555969238, 0.636360592312283);62.3007278442;0.942079543222;10:57:36:915;0;9;-1.5;1;0.293255131964809;0;0;0;1;1;1;1;0;0;0;;0;0;();();(-2000.0, -2000.0);
10:57:36:932;10:57:36:909;1448057614.38;(0.5508099555969238, 0.636360592312283);62.3007278442;0.942079543222;10:57:36:932;0;13;-1.5;1;0.293255131964809;0;0;0;1;1;1;1;0;0;0;;0;0;();();(-2000.0, -2000.0);
10:57:36:948;10:57:36:909;1448057614.38;(0.5508099555969238, 0.636360592312283);62.3007278442;0.942079543222;10:57:36:948;0;10;-1.5;1;0.293255131964809;0;0;0;1;1;1;1;0;0;0;;0;0;();();(-2000.0, -2000.0);
10:57:36:981;10:57:36:965;1448057614.43;(0.5513933181762696, 0.6362502415974935);61.2815170288;1.0;10:57:36:981;0;9;-1.5;1;0.293255131964809;0;0;0;1;1;1;1;0;0;0;;0;0;();();(-2000.0, -2000.0);
10:57:36:998;10:57:36:965;1448057614.43;(0.5513933181762696, 0.6362502415974935);61.2815170288;1.0;10:57:36:998;0;15;0.145161290322581;1;0.293255131964809;0;0;0;1;1;1;1;0;0;0;;0;0;();();(-2000.0, -2000.0);
10:57:37:014;10:57:36:965;1448057614.43;(0.5513933181762696, 0.6362502415974935);61.2815170288;1.0;10:57:37:014;0;10;0.251612903225806;1;0.293255131964809;0;0;0;1;1;1;1;0;0;0;;0;0;();();(-2000.0, -2000.0);
10:57:37:032;10:57:37:025;1448057614.5;(0.5555944919586182, 0.6649489508734809);60.2367210388;1.0;10:57:37:032;0;15;0.790322580645161;1;0.293255131964809;0;0;0;1;1;1;1;0;0;0;;0;0;();();(-2000.0, -2000.0);
10:57:37:047;10:57:37:025;1448057614.5;(0.5555944919586182, 0.6649489508734809);60.2367210388;1.0;10:57:37:047;0;4;1.34838709677419;1;0.293255131964809;0;0;0;1;1;1;1;0;0;0;;0;0;();();(-2000.0, -2000.0);
10:57:37:081;10:57:37:025;1448057614.5;(0.5555944919586182, 0.6649489508734809);60.2367210388;1.0;10:57:37:081;0;10;1.78064516129032;1;0.293255131964809;0;0;0;1;1;1;1;0;0;0;;0;0;();();(-2000.0, -2000.0);
10:57:37:097;10:57:37:082;1448057614.57;(0.5553757667541503, 0.6673119015163845);60.2606468201;1.0;10:57:37:097;0;15;1.78064516129032;1;0.293255131964809;0;0;0;1;1;1;1;0;0;0;;0;0;();();(-2000.0, -2000.0);
10:57:37:114;10:57:37:082;1448057614.57;(0.5553757667541503, 0.6673119015163845);60.2606468201;1.0;10:57:37:113;0;10;1.78064516129032;1;0.293255131964809;0;0;0;1;1;1;1;0;0;0;;0;0;();();(-2000.0, -2000.0);
10:57:37:131;10:57:37:082;1448057614.57;(0.5553757667541503, 0.6673119015163845);60.2606468201;1.0;10:57:37:130;0;15;1.78064516129032;1;0.293255131964809;0;0;0;1;1;1;1;0;0;0;;0;0;();();(-2000.0, -2000.0);
10:57:37:150;10:57:37:150;1448057614.63;(0.5551345348358154, 0.6688553068372938);60.1417884827;1.0;10:57:37:150;0;11;1.77741935483871;1;0.293255131964809;0;0;0;1;1;1;1;0;0;0;;0;0;();();(-2000.0, -2000.0);
10:57:37:180;10:57:37:150;1448057614.63;(0.5551345348358154, 0.6688553068372938);60.1417884827;1.0;10:57:37:180;0;10;1.78064516129032;1;0.293255131964809;0;0;0;1;1;1;1;0;0;0;;0;0;();();(-2000.0, -2000.0);
10:57:37:197;10:57:37:150;1448057614.63;(0.5551345348358154, 0.6688553068372938);60.1417884827;1.0;10:57:37:197;0;15;1.78064516129032;1;0.293255131964809;0;0;0;1;1;1;1;0;0;0;;0;0;();();(-2000.0, -2000.0);
10:57:37:213;10:57:37:202;1448057614.67;(0.5549643516540528, 0.6690679550170898);60.2367095947;1.0;10:57:37:213;0;4;1.78064516129032;1;0.293255131964809;0;0;0;1;1;1;1;0;0;0;;0;0;();();(-2000.0, -2000.0);
10:57:37:230;10:57:37:202;1448057614.67;(0.5549643516540528, 0.6690679550170898);60.2367095947;1.0;10:57:37:230;0;0;1.78064516129032;1;0.293255131964809;0;0;0;1;1;1;1;0;0;0;;0;0;();();(-2000.0, -2000.0);
10:57:37:247;10:57:37:202;1448057614.67;(0.5549643516540528, 0.6690679550170898);60.2367095947;1.0;10:57:37:247;0;5;1.77741935483871;1;0.293255131964809;0;0;0;1;1;1;1;0;0;0;;0;0;();();(-2000.0, -2000.0);
10:57:37:280;10:57:37:259;1448057614.73;(0.553987693786621, 0.6714650472005208);60.0810127258;1.0;10:57:37:280;0;4;1.78064516129032;1;0.293255131964809;0;0;0;1;1;1;1;0;0;0;;0;0;();();(-2000.0, -2000.0);
10:57:37:296;10:57:37:259;1448057614.73;(0.553987693786621, 0.6714650472005208);60.0810127258;1.0;10:57:37:296;0;15;1.77741935483871;1;0.293255131964809;0;0;0;1;1;1;1;0;0;0;;0;0;();();(-2000.0, -2000.0);
10:57:37:313;10:57:37:259;1448057614.73;(0.553987693786621, 0.6714650472005208);60.0810127258;1.0;10:57:37:313;0;15;1.77741935483871;1;0.293255131964809;0;0;0;1;1;1;1;0;0;0;;0;0;();();(-2000.0, -2000.0);
10:57:37:329;10:57:37:314;1448057614.8;(0.5533942222595215, 0.6720514721340604);60.2684135437;1.0;10:57:37:329;0;0;1.77741935483871;1;0.293255131964809;0;0;0;1;1;1;1;0;0;0;;0;0;();();(-2000.0, -2000.0);
10:57:37:345;10:57:37:314;1448057614.8;(0.5533942222595215, 0.6720514721340604);60.2684135437;1.0;10:57:37:345;0;4;1.1258064516129;1;0.293255131964809;0;0;0;1;1;1;1;0;0;0;;0;0;();();(-2000.0, -2000.0);
10:57:37:379;10:57:37:373;1448057614.87;(0.5526505947113037, 0.6722433302137587);61.1551704407;1.0;10:57:37:379;0;5;-1.5;1;0.293255131964809;0;0;0;1;1;1;1;0;0;0;;0;0;();();(-2000.0, -2000.0);
10:57:37:395;10:57:37:373;1448057614.87;(0.5526505947113037, 0.6722433302137587);61.1551704407;1.0;10:57:37:395;0;9;-1.5;1;0.293255131964809;0;0;0;1;1;1;1;0;0;0;;0;0;();();(-2000.0, -2000.0);
10:57:37:412;10:57:37:373;1448057614.87;(0.5526505947113037, 0.6722433302137587);61.1551704407;1.0;10:57:37:412;0;5;-1.06774193548387;1;0.293255131964809;0;0;0;1;1;1;1;0;0;0;;0;0;();();(-2000.0, -2000.0);
10:57:37:429;10:57:37:373;1448057614.87;(0.5526505947113037, 0.6722433302137587);61.1551704407;1.0;10:57:37:429;0;10;1.79032258064516;1;0.293255131964809;0;0;0;1;1;1;1;0;0;0;;0;0;();();(-2000.0, -2000.0);
10:57:37:445;10:57:37:430;1448057614.9;(0.5525042057037354, 0.6715673446655274);61.2980499268;1.0;10:57:37:445;0;4;1.76129032258065;1;0.293255131964809;0;0;0;1;1;1;1;0;0;0;;0;0;();();(-2000.0, -2000.0);
10:57:37:478;10:57:37:430;1448057614.9;(0.5525042057037354, 0.6715673446655274);61.2980499268;1.0;10:57:37:478;0;5;1.77741935483871;1;0.293255131964809;0;0;0;1;1;1;1;0;0;0;;0;0;();();(-2000.0, -2000.0);
10:57:37:494;10:57:37:430;1448057614.9;(0.5525042057037354, 0.6715673446655274);61.2980499268;1.0;10:57:37:494;0;10;0.793548387096774;1;0.293255131964809;0;0;0;1;1;1;1;0;0;0;;0;0;();();(-2000.0, -2000.0);
10:57:37:511;10:57:37:430;1448057614.9;(0.5525042057037354, 0.6715673446655274);61.2980499268;1.0;10:57:37:511;0;15;1.30967741935484;1;0.293255131964809;0;0;0;1;1;1;1;0;0;0;;0;0;();();(-2000.0, -2000.0);
10:57:37:528;10:57:37:430;1448057614.9;(0.5525042057037354, 0.6715673446655274);61.2980499268;1.0;10:57:37:527;0;9;-0.0548387096774194;1;0.293255131964809;0;0;0;1;1;1;1;0;0;0;;0;0;();();(-2000.0, -2000.0);
10:57:37:561;10:57:37:430;1448057614.9;(0.5525042057037354, 0.6715673446655274);61.2980499268;1.0;10:57:37:561;0;5;1.37741935483871;1;0.293255131964809;0;0;0;1;1;1;1;0;0;0;;0;0;();();(-2000.0, -2000.0);
10:57:37:577;10:57:37:430;1448057614.9;(0.5525042057037354, 0.6715673446655274);61.2980499268;1.0;10:57:37:577;0;15;1.42903225806452;1;0.293255131964809;0;0;0;1;1;1;1;0;0;0;;0;0;();();(-2000.0, -2000.0);
10:57:37:594;10:57:37:430;1448057614.9;(0.5525042057037354, 0.6715673446655274);61.2980499268;1.0;10:57:37:594;0;11;1.36451612903226;1;0.293255131964809;0;0;0;1;1;1;1;0;0;0;;0;0;();();(-2000.0, -2000.0);
10:57:37:611;10:57:37:606;1448057615.1;(0.5444207668304444, 0.6295921749538845);62.8466911316;1.0;10:57:37:611;0;15;1.70967741935484;1;0.293255131964809;0;0;0;1;1;1;1;0;0;0;;0;0;();();(-2000.0, -2000.0);
10:57:37:628;10:57:37:606;1448057615.1;(0.5444207668304444, 0.6295921749538845);62.8466911316;1.0;10:57:37:628;0;4;0.935483870967742;1;0.293255131964809;0;0;0;1;1;1;1;0;0;0;;0;0;();();(-2000.0, -2000.0);
10:57:37:660;10:57:37:606;1448057615.1;(0.5444207668304444, 0.6295921749538845);62.8466911316;1.0;10:57:37:660;0;5;1.00645161290323;1;0.293255131964809;0;0;0;1;1;1;1;0;0;0;;0;0;();();(-2000.0, -2000.0);
10:57:37:677;10:57:37:661;1448057615.13;(0.5444398403167725, 0.6298312081231011);63.1272087097;1.0;10:57:37:677;0;15;1.18064516129032;1;0.293255131964809;0;0;0;1;1;1;1;0;0;0;;0;0;();();(-2000.0, -2000.0);
10:57:37:694;10:57:37:661;1448057615.13;(0.5444398403167725, 0.6298312081231011);63.1272087097;1.0;10:57:37:694;0;5;-0.880645161290323;1;0.293255131964809;0;0;0;1;1;1;1;0;0;0;;0;0;();();(-2000.0, -2000.0);
10:57:37:710;10:57:37:661;1448057615.13;(0.5444398403167725, 0.6298312081231011);63.1272087097;1.0;10:57:37:710;0;0;-0.7;1;0.293255131964809;0;0;0;1;1;1;1;0;0;0;;0;0;();();(-2000.0, -2000.0);
10:57:37:727;10:57:37:721;1448057615.2;(0.5442182540893554, 0.6305022769504123);63.2288093567;1.0;10:57:37:727;0;4;-1.40322580645161;1;0.293255131964809;0;0;0;1;1;1;1;0;0;0;;0;0;();();(-2000.0, -2000.0);
10:57:37:760;10:57:37:721;1448057615.2;(0.5442182540893554, 0.6305022769504123);63.2288093567;1.0;10:57:37:760;0;4;0.332258064516129;1;0.586510263929619;0;0;0;1;1;1;1;0;0;0;;0;0;();();(-2000.0, -2000.0);
10:57:37:777;10:57:37:721;1448057615.2;(0.5442182540893554, 0.6305022769504123);63.2288093567;1.0;10:57:37:777;0;15;-1.0258064516129;1;0.293255131964809;0;0;0;1;1;1;1;0;0;0;;0;0;();();(-2000.0, -2000.0);
10:57:37:793;10:57:37:721;1448057615.2;(0.5442182540893554, 0.6305022769504123);63.2288093567;1.0;10:57:37:793;0;4;0.0612903225806449;1;0.293255131964809;0;0;0;1;1;1;1;0;0;0;;0;0;();();(-2000.0, -2000.0);
10:57:37:809;10:57:37:721;1448057615.2;(0.5442182540893554, 0.6305022769504123);63.2288093567;1.0;10:57:37:809;0;10;-1.5;1;0.293255131964809;0;0;0;1;1;1;1;0;0;0;;0;0;();();(-2000.0, -2000.0);
10:57:37:827;10:57:37:721;1448057615.2;(0.5442182540893554, 0.6305022769504123);63.2288093567;1.0;10:57:37:827;0;15;-0.858064516129032;1;0.586510263929619;0;0;0;1;1;1;1;0;0;0;;0;0;();();(-2000.0, -2000.0);
10:57:37:867;10:57:37:837;1448057615.23;(0.5362827777862549, 0.6338064405653212);63.0862083435;0.960977468325;10:57:37:867;0;0;0.00645161290322571;1;0.684261974584555;0;0;0;1;1;1;1;2;0;0;;0;0;();();(-2000.0, -2000.0);
10:57:37:876;10:57:37:837;1448057615.23;(0.5362827777862549, 0.6338064405653212);63.0862083435;0.960977468325;10:57:37:876;0;10;1.78064516129032;1;0.293255131964809;0;0;0;1;1;1;1;2;0;0;;0;0;();();(-2000.0, -2000.0);
10:57:37:892;10:57:37:837;1448057615.23;(0.5362827777862549, 0.6338064405653212);63.0862083435;0.960977468325;10:57:37:892;0;5;1.58387096774194;1;0.293255131964809;0;0;0;1;1;1;1;2;0;0;;0;0;();();(-2000.0, -2000.0);
10:57:37:909;10:57:37:893;1448057615.37;(0.5289428234100342, 0.6397219975789388);62.9408569336;0.847415752738;10:57:37:909;0;10;1.14193548387097;1;0.684261974584555;0;0;0;1;1;1;1;2;0;0;;0;0;();();(-2000.0, -2000.0);
10:57:37:925;10:57:37:893;1448057615.37;(0.5289428234100342, 0.6397219975789388);62.9408569336;0.847415752738;10:57:37:925;0;10;1.14193548387097;1;0.684261974584555;0;0;0;1;1;1;1;2;0;0;;0;0;();();(-2000.0, -2000.0);
10:57:37:959;10:57:37:954;1448057615.43;(0.5295645236968994, 0.6403798421223958);61.7704772949;1.0;10:57:37:959;0;4;-0.135483870967742;1;0.293255131964809;0;0;0;1;1;1;1;2;0;0;;0;0;();();(-2000.0, -2000.0);
10:57:37:976;10:57:37:954;1448057615.43;(0.5295645236968994, 0.6403798421223958);61.7704772949;1.0;10:57:37:976;0;10;0.770967741935484;1;0.293255131964809;0;0;0;1;1;1;1;2;0;0;;0;0;();();(-2000.0, -2000.0);
10:57:37:992;10:57:37:954;1448057615.43;(0.5295645236968994, 0.6403798421223958);61.7704772949;1.0;10:57:37:992;0;15;1.6741935483871;1;0.293255131964809;0;0;0;1;1;1;1;2;0;0;;0;0;();();(-2000.0, -2000.0);
10:57:38:008;10:57:37:954;1448057615.43;(0.5295645236968994, 0.6403798421223958);61.7704772949;1.0;10:57:38:008;0;9;-1.09032258064516;1;0.293255131964809;0;0;0;1;1;1;1;2;0;0;;0;0;();();(-2000.0, -2000.0);
10:57:38:041;10:57:38:013;1448057615.5;(0.5275277614593505, 0.633855692545573);58.8612556458;0.633598516;10:57:38:041;0;4;-1.5;1;0.293255131964809;0;0;0;1;1;1;1;2;0;0;;0;0;();();(-2000.0, -2000.0);
10:57:38:058;10:57:38:013;1448057615.5;(0.5275277614593505, 0.633855692545573);58.8612556458;0.633598516;10:57:38:058;0;0;-1.5;1;0.684261974584555;0;0;0;1;1;1;1;2;0;0;;0;0;();();(-2000.0, -2000.0);
10:57:38:074;10:57:38:013;1448057615.5;(0.5275277614593505, 0.633855692545573);58.8612556458;0.633598516;10:57:38:074;0;3;-0.212903225806452;1;0.293255131964809;0;0;0;1;1;1;1;2;0;0;;0;0;();();(-2000.0, -2000.0);
10:57:38:091;10:57:38:013;1448057615.5;(0.5275277614593505, 0.633855692545573);58.8612556458;0.633598516;10:57:38:091;0;15;1.2741935483871;1;0.293255131964809;0;0;0;1;1;1;1;2;0;0;;0;0;();();(-2000.0, -2000.0);
10:57:38:108;10:57:38:013;1448057615.5;(0.5275277614593505, 0.633855692545573);58.8612556458;0.633598516;10:57:38:108;0;5;-0.170967741935484;1;0.293255131964809;0;0;0;1;1;1;1;2;0;0;;0;0;();();(-2000.0, -2000.0);
10:57:38:141;10:57:38:130;1448057615.62;(0, 0);0;0;10:57:38:141;0;4;1.51612903225806;1;0.293255131964809;0;0;0;1;1;1;1;2;0;0;;0;0;();();(-2000.0, -2000.0);
10:57:38:157;10:57:38:130;1448057615.62;(0, 0);0;0;10:57:38:157;0;9;1.49032258064516;1;0.293255131964809;0;0;0;1;1;1;1;2;0;0;;0;0;();();(-2000.0, -2000.0);
10:57:38:174;10:57:38:130;1448057615.62;(0, 0);0;0;10:57:38:174;0;4;1.77741935483871;1;0.293255131964809;0;0;0;1;1;1;1;2;0;0;;0;0;();();(-2000.0, -2000.0);
10:57:38:191;10:57:38:130;1448057615.62;(0, 0);0;0;10:57:38:191;0;3;1.69354838709677;1;0.293255131964809;0;0;0;1;1;1;1;2;0;0;;0;0;();();(-2000.0, -2000.0);
10:57:38:208;10:57:38:192;1448057615.64;(0.5410787105560303, 0.6363297780354817);60.4284896851;1.0;10:57:38:208;0;5;0.196774193548387;1;0.293255131964809;0;0;0;1;1;1;1;2;0;0;;0;0;();();(-2000.0, -2000.0);
10:57:38:240;10:57:38:192;1448057615.64;(0.5410787105560303, 0.6363297780354817);60.4284896851;1.0;10:57:38:240;0;4;0.37741935483871;1;0.293255131964809;0;0;0;1;1;1;1;2;0;0;;0;0;();();(-2000.0, -2000.0);
10:57:38:257;10:57:38:245;1448057615.73;(0.542506217956543, 0.6373450385199653);60.6189727783;1.0;10:57:38:257;0;9;-0.412903225806452;1;0.293255131964809;0;0;0;1;1;1;1;2;0;0;;0;0;();();(-2000.0, -2000.0);
10:57:38:273;10:57:38:245;1448057615.73;(0.542506217956543, 0.6373450385199653);60.6189727783;1.0;10:57:38:273;0;5;-0.406451612903226;1;0.293255131964809;0;0;0;1;1;1;1;2;0;0;;0;0;();();(-2000.0, -2000.0);
10:57:38:290;10:57:38:245;1448057615.73;(0.542506217956543, 0.6373450385199653);60.6189727783;1.0;10:57:38:290;0;10;1.30967741935484;1;0.293255131964809;0;0;0;1;1;1;1;2;0;0;;0;0;();();(-2000.0, -2000.0);
10:57:38:307;10:57:38:300;1448057615.77;(0.5430895328521729, 0.6362041261461047);60.9035110474;1.0;10:57:38:307;0;5;1.13548387096774;1;0.293255131964809;0;0;0;1;1;1;1;2;0;0;;0;0;();();(-2000.0, -2000.0);
10:57:38:340;10:57:38:300;1448057615.77;(0.5430895328521729, 0.6362041261461047);60.9035110474;1.0;10:57:38:340;0;14;1.20645161290323;1;0.293255131964809;0;0;0;1;1;1;1;2;0;0;;0;0;();();(-2000.0, -2000.0);
10:57:38:356;10:57:38:300;1448057615.77;(0.5430895328521729, 0.6362041261461047);60.9035110474;1.0;10:57:38:356;0;10;0.293548387096774;1;0.293255131964809;0;0;0;1;1;1;1;2;0;0;;0;0;();();(-2000.0, -2000.0);
10:57:38:373;10:57:38:361;1448057615.83;(0.5608230590820312, 0.6076584710015192);60.3799247742;1.0;10:57:38:373;0;5;-0.00645161290322593;1;0.293255131964809;0;0;0;1;1;1;1;2;0;0;;0;0;();();(-2000.0, -2000.0);
10:57:38:390;10:57:38:361;1448057615.83;(0.5608230590820312, 0.6076584710015192);60.3799247742;1.0;10:57:38:390;0;10;1.50322580645161;1;0.293255131964809;0;0;0;1;1;1;1;2;0;0;;0;0;();();(-2000.0, -2000.0);
10:57:38:405;10:57:38:361;1448057615.83;(0.5608230590820312, 0.6076584710015192);60.3799247742;1.0;10:57:38:405;0;4;1.20645161290323;1;0.293255131964809;0;0;0;1;1;1;1;2;0;0;;0;0;();();(-2000.0, -2000.0);
10:57:38:439;10:57:38:417;1448057615.9;(0.5609665870666504, 0.6083648681640625);60.1922683716;1.0;10:57:38:439;0;15;-1.5;1;0.293255131964809;0;0;0;1;1;1;1;2;0;0;;0;0;();();(-2000.0, -2000.0);
10:57:38:456;10:57:38:417;1448057615.9;(0.5609665870666504, 0.6083648681640625);60.1922683716;1.0;10:57:38:456;0;10;-1.42903225806452;1;0.293255131964809;0;0;0;1;1;1;1;2;0;0;;0;0;();();(-2000.0, -2000.0);
10:57:38:472;10:57:38:417;1448057615.9;(0.5609665870666504, 0.6083648681640625);60.1922683716;1.0;10:57:38:472;0;15;0.00645161290322571;1;0.293255131964809;0;0;0;1;1;1;1;2;0;0;;0;0;();();(-2000.0, -2000.0);
10:57:38:488;10:57:38:477;1448057615.97;(0.5607697486877441, 0.609100341796875);60.6508483887;1.0;10:57:38:488;0;4;0.229032258064516;1;0.293255131964809;0;0;0;1;1;1;1;2;0;0;;0;0;();();(-2000.0, -2000.0);
10:57:38:506;10:57:38:477;1448057615.97;(0.5607697486877441, 0.609100341796875);60.6508483887;1.0;10:57:38:506;0;15;0.483870967741936;1;0.293255131964809;0;0;0;1;1;1;1;2;0;0;;0;0;();();(-2000.0, -2000.0);
10:57:38:539;10:57:38:533;1448057616.03;(0.5606361865997315, 0.6094354841444227);60.8986549377;1.0;10:57:38:539;0;15;0.306451612903226;1;0.293255131964809;0;0;0;1;1;1;1;2;0;0;;0;0;();();(-2000.0, -2000.0);
10:57:38:555;10:57:38:533;1448057616.03;(0.5606361865997315, 0.6094354841444227);60.8986549377;1.0;10:57:38:555;0;10;0.206451612903226;1;0.293255131964809;0;0;0;1;1;1;1;2;0;0;;0;0;();();(-2000.0, -2000.0);
10:57:38:572;10:57:38:533;1448057616.03;(0.5606361865997315, 0.6094354841444227);60.8986549377;1.0;10:57:38:572;0;15;0.264516129032258;1;0.293255131964809;0;0;0;1;1;1;1;2;0;0;;0;0;();();(-2000.0, -2000.0);
10:57:38:588;10:57:38:533;1448057616.03;(0.5606361865997315, 0.6094354841444227);60.8986549377;1.0;10:57:38:588;0;15;0.264516129032258;1;0.293255131964809;0;0;0;1;1;1;1;2;0;0;;0;0;();();(-2000.0, -2000.0);
10:57:38:606;10:57:38:593;1448057616.07;(0.5605315685272216, 0.6096513960096571);60.8723564148;1.0;10:57:38:606;0;10;0.72258064516129;1;0.293255131964809;0;0;0;1;1;1;1;2;0;0;;0;0;();();(-2000.0, -2000.0);
10:57:38:638;10:57:38:593;1448057616.07;(0.5605315685272216, 0.6096513960096571);60.8723564148;1.0;10:57:38:638;0;15;1.43870967741935;1;0.293255131964809;0;0;0;1;1;1;1;2;0;0;;0;0;();();(-2000.0, -2000.0);
10:57:38:655;10:57:38:649;1448057616.13;(0.560299301147461, 0.6100731319851346);61.1982688904;1.0;10:57:38:655;0;4;-0.790322580645161;1;0.293255131964809;0;0;0;1;1;1;1;2;0;0;;0;0;();();(-2000.0, -2000.0);
10:57:38:672;10:57:38:649;1448057616.13;(0.560299301147461, 0.6100731319851346);61.1982688904;1.0;10:57:38:672;0;9;0.770967741935484;1;0.684261974584555;0;0;0;1;1;1;1;2;0;0;;0;0;();();(-2000.0, -2000.0);
10:57:38:688;10:57:38:649;1448057616.13;(0.560299301147461, 0.6100731319851346);61.1982688904;1.0;10:57:38:688;0;5;1.39032258064516;1;0.293255131964809;0;0;0;1;1;1;1;2;0;0;;0;0;();();(-2000.0, -2000.0);
10:57:38:721;10:57:38:709;1448057616.17;(0.2551142930984497, 0.6004429711235895);21.1618041992;0.767592458273;10:57:38:721;0;4;1.77741935483871;1;0.293255131964809;0;0;0;1;1;1;1;2;0;0;;0;0;();();(-2000.0, -2000.0);
10:57:38:738;10:57:38:709;1448057616.17;(0.2551142930984497, 0.6004429711235895);21.1618041992;0.767592458273;10:57:38:738;0;9;1.78064516129032;1;0.293255131964809;0;0;0;1;1;1;1;2;0;0;;0;0;();();(-2000.0, -2000.0);
10:57:38:754;10:57:38:709;1448057616.17;(0.2551142930984497, 0.6004429711235895);21.1618041992;0.767592458273;10:57:38:754;0;5;1.23225806451613;1;0.293255131964809;0;0;0;1;1;1;1;2;0;0;;0;0;();();(-2000.0, -2000.0);
10:57:38:771;10:57:38:765;1448057616.23;(0.5517970561981201, 0.6170237859090169);61.6673851013;1.0;10:57:38:771;0;10;1.75161290322581;1;0.293255131964809;0;0;0;1;1;1;1;2;0;0;;0;0;();();(-2000.0, -2000.0);
10:57:38:787;10:57:38:765;1448057616.23;(0.5517970561981201, 0.6170237859090169);61.6673851013;1.0;10:57:38:787;0;4;1.77741935483871;1;0.293255131964809;0;0;0;1;1;1;1;2;0;0;;0;0;();();(-2000.0, -2000.0);
10:57:38:820;10:57:38:765;1448057616.23;(0.5517970561981201, 0.6170237859090169);61.6673851013;1.0;10:57:38:820;0;15;1.10322580645161;1;0.586510263929619;0;0;0;1;1;1;1;2;0;0;;0;0;();();(-2000.0, -2000.0);
10:57:38:837;10:57:38:825;1448057616.3;(0.5516506671905518, 0.6176247066921658);61.6634635925;1.0;10:57:38:837;0;11;0.867741935483871;1;0.293255131964809;0;0;0;1;1;1;1;2;0;0;;0;0;();();(-2000.0, -2000.0);
10:57:38:854;10:57:38:825;1448057616.3;(0.5516506671905518, 0.6176247066921658);61.6634635925;1.0;10:57:38:854;0;15;1.1258064516129;1;0.293255131964809;0;0;0;1;1;1;1;2;0;0;;0;0;();();(-2000.0, -2000.0);
10:57:38:870;10:57:38:825;1448057616.3;(0.5516506671905518, 0.6176247066921658);61.6634635925;1.0;10:57:38:870;0;9;0.770967741935484;1;0.684261974584555;0;0;0;1;1;1;1;2;0;0;;0;0;();();(-2000.0, -2000.0);
10:57:38:891;10:57:38:881;1448057616.37;(0.5517596244812012, 0.6184089872572157);61.1235389709;1.0;10:57:38:887;0;4;1.20645161290323;1;0.293255131964809;0;0;0;1;1;1;1;2;0;0;;0;0;();();(-2000.0, -2000.0);
10:57:38:919;10:57:38:881;1448057616.37;(0.5517596244812012, 0.6184089872572157);61.1235389709;1.0;10:57:38:919;0;15;-0.0806451612903225;1;0.293255131964809;0;0;0;1;1;1;1;2;0;0;;0;0;();();(-2000.0, -2000.0);
10:57:38:936;10:57:38:881;1448057616.37;(0.5517596244812012, 0.6184089872572157);61.1235389709;1.0;10:57:38:936;0;4;0.367741935483871;1;0.684261974584555;0;0;0;1;1;1;1;2;0;0;;0;0;();();(-2000.0, -2000.0);
10:57:38:954;10:57:38:941;1448057616.43;(0.5516562938690186, 0.6176510704888238);61.5250091553;1.0;10:57:38:954;0;15;1.26129032258065;1;0.293255131964809;0;0;0;1;1;1;1;2;0;0;;0;0;();();(-2000.0, -2000.0);
10:57:38:969;10:57:38:941;1448057616.43;(0.5516562938690186, 0.6176510704888238);61.5250091553;1.0;10:57:38:969;0;4;0.212903225806452;1;0.293255131964809;0;0;0;1;1;1;1;2;0;0;;0;0;();();(-2000.0, -2000.0);
10:57:38:987;10:57:38:941;1448057616.43;(0.5516562938690186, 0.6176510704888238);61.5250091553;1.0;10:57:38:987;0;0;1.05483870967742;1;0.293255131964809;0;0;0;1;1;1;1;2;0;0;;0;0;();();(-2000.0, -2000.0);
10:57:39:019;10:57:38:941;1448057616.43;(0.5516562938690186, 0.6176510704888238);61.5250091553;1.0;10:57:39:019;0;15;-1.5;1;0.684261974584555;0;0;0;1;1;1;1;2;0;0;;0;0;();();(-2000.0, -2000.0);
10:57:39:035;10:57:38:941;1448057616.43;(0.5516562938690186, 0.6176510704888238);61.5250091553;1.0;10:57:39:035;0;10;-1.5;1;0.293255131964809;0;0;0;1;1;1;1;2;0;0;;0;0;();();(-2000.0, -2000.0);
10:57:39:052;10:57:38:941;1448057616.43;(0.5516562938690186, 0.6176510704888238);61.5250091553;1.0;10:57:39:052;0;15;0.832258064516129;1;0.293255131964809;0;0;0;1;1;1;1;2;0;0;;0;0;();();(-2000.0, -2000.0);
10:57:39:069;10:57:38:941;1448057616.43;(0.5516562938690186, 0.6176510704888238);61.5250091553;1.0;10:57:39:069;0;5;0.180645161290323;1;0.293255131964809;0;0;0;1;1;1;1;2;0;0;;0;0;();();(-2000.0, -2000.0);
10:57:39:085;10:57:38:941;1448057616.43;(0.5516562938690186, 0.6176510704888238);61.5250091553;1.0;10:57:39:085;0;0;0.435483870967742;1;0.293255131964809;0;0;0;1;1;1;1;2;0;0;;0;0;();();(-2000.0, -2000.0);
10:57:39:118;10:57:39:113;1448057616.57;(0.5632932662963868, 0.5694323221842448);60.4357872009;1.0;10:57:39:118;0;4;-0.861290322580645;1;0.293255131964809;0;0;0;1;1;1;1;2;0;0;;0;0;();();(-2000.0, -2000.0);
10:57:39:136;10:57:39:113;1448057616.57;(0.5632932662963868, 0.5694323221842448);60.4357872009;1.0;10:57:39:136;0;4;-1.5;1;0.586510263929619;0;0;0;1;1;1;1;2;0;0;;0;0;();();(-2000.0, -2000.0);
10:57:39:152;10:57:39:113;1448057616.57;(0.5632932662963868, 0.5694323221842448);60.4357872009;1.0;10:57:39:152;0;10;1.23225806451613;1;0.293255131964809;0;0;0;1;1;1;1;2;0;0;;0;0;();();(-2000.0, -2000.0);
10:57:39:168;10:57:39:113;1448057616.57;(0.5632932662963868, 0.5694323221842448);60.4357872009;1.0;10:57:39:168;0;5;-1.1;1;0.684261974584555;0;0;0;1;1;1;1;2;0;0;;0;0;();();(-2000.0, -2000.0);
10:57:39:201;10:57:39:174;1448057616.67;(0.5629233360290528, 0.5714746263292101);60.4609718323;1.0;10:57:39:201;0;10;-1.11290322580645;1;0.293255131964809;0;0;0;1;1;1;1;2;0;0;;0;0;();();(-2000.0, -2000.0);
10:57:39:217;10:57:39:174;1448057616.67;(0.5629233360290528, 0.5714746263292101);60.4609718323;1.0;10:57:39:217;0;15;0.293548387096774;1;0.684261974584555;0;0;0;1;1;1;1;2;0;0;;0;0;();();(-2000.0, -2000.0);
10:57:39:234;10:57:39:229;1448057616.7;(0.562730360031128, 0.5725747426350911);60.7835731506;1.0;10:57:39:234;0;15;0.293548387096774;1;0.684261974584555;0;0;0;1;1;1;1;2;0;0;;0;0;();();(-2000.0, -2000.0);
10:57:39:252;10:57:39:229;1448057616.7;(0.562730360031128, 0.5725747426350911);60.7835731506;1.0;10:57:39:252;0;10;1.39032258064516;1;0.293255131964809;0;0;0;1;1;1;1;2;0;0;;0;0;();();(-2000.0, -2000.0);
10:57:39:268;10:57:39:229;1448057616.7;(0.562730360031128, 0.5725747426350911);60.7835731506;1.0;10:57:39:268;0;4;-0.112903225806452;1;0.293255131964809;0;0;0;1;1;1;1;2;0;0;;0;0;();();(-2000.0, -2000.0);
10:57:39:301;10:57:39:289;1448057616.77;(0.5622374057769776, 0.5744208441840277);60.8781814575;1.0;10:57:39:301;0;15;-1.5;1;0.293255131964809;0;0;0;1;1;1;1;2;0;0;;0;0;();();(-2000.0, -2000.0);
10:57:39:317;10:57:39:289;1448057616.77;(0.5622374057769776, 0.5744208441840277);60.8781814575;1.0;10:57:39:317;0;9;-1.06774193548387;1;0.293255131964809;0;0;0;1;1;1;1;2;0;0;;0;0;();();(-2000.0, -2000.0);
10:57:39:334;10:57:39:289;1448057616.77;(0.5622374057769776, 0.5744208441840277);60.8781814575;1.0;10:57:39:334;0;15;-1.5;1;0.293255131964809;0;0;0;1;1;1;1;2;0;0;;0;0;();();(-2000.0, -2000.0);
10:57:39:352;10:57:39:345;1448057616.83;(0.5618711948394776, 0.5755126953125);61.3729705811;1.0;10:57:39:352;0;9;-1.5;1;0.293255131964809;0;0;0;1;1;1;1;2;0;0;;0;0;();();(-2000.0, -2000.0);
10:57:39:368;10:57:39:345;1448057616.83;(0.5618711948394776, 0.5755126953125);61.3729705811;1.0;10:57:39:368;0;15;-1.5;1;0.293255131964809;0;0;0;1;1;1;1;2;0;0;;0;0;();();(-2000.0, -2000.0);
10:57:39:399;10:57:39:345;1448057616.83;(0.5618711948394776, 0.5755126953125);61.3729705811;1.0;10:57:39:399;0;0;-1.5;1;0.293255131964809;0;0;0;1;1;1;1;2;0;0;;0;0;();();(-2000.0, -2000.0);
10:57:39:418;10:57:39:411;1448057616.9;(0.5615390777587891, 0.577098634507921);61.1438407898;1.0;10:57:39:418;0;10;-1.5;1;0.293255131964809;0;0;0;1;1;1;1;2;0;0;;0;0;();();(-2000.0, -2000.0);
10:57:39:434;10:57:39:411;1448057616.9;(0.5615390777587891, 0.577098634507921);61.1438407898;1.0;10:57:39:434;0;15;0.780645161290323;1;0.293255131964809;0;0;0;1;1;1;1;2;0;0;;0;0;();();(-2000.0, -2000.0);
10:57:39:450;10:57:39:411;1448057616.9;(0.5615390777587891, 0.577098634507921);61.1438407898;1.0;10:57:39:450;0;9;-0.287096774193548;1;0.293255131964809;0;0;0;1;1;1;1;2;0;0;;0;0;();();(-2000.0, -2000.0);
10:57:39:467;10:57:39:465;1448057616.97;(0.5609304428100585, 0.5787358601888021);61.1703796387;1.0;10:57:39:467;0;0;-1.5;1;0.293255131964809;0;0;0;1;1;1;1;2;0;0;;0;0;();();(-2000.0, -2000.0);
10:57:39:500;10:57:39:465;1448057616.97;(0.5609304428100585, 0.5787358601888021);61.1703796387;1.0;10:57:39:500;0;15;-1.5;1;0.293255131964809;0;0;0;1;1;1;1;2;0;0;;0;0;();();(-2000.0, -2000.0);
10:57:39:516;10:57:39:465;1448057616.97;(0.5609304428100585, 0.5787358601888021);61.1703796387;1.0;10:57:39:516;0;10;-1.5;1;0.293255131964809;0;0;0;1;1;1;1;2;0;0;;0;0;();();(-2000.0, -2000.0);
10:57:39:533;10:57:39:523;1448057617.0;(0.5547516345977783, 0.5838344150119358);61.5404434204;1.0;10:57:39:533;0;15;-1.5;1;0.293255131964809;0;0;0;1;1;1;1;2;0;0;;0;0;();();(-2000.0, -2000.0);
10:57:39:550;10:57:39:523;1448057617.0;(0.5547516345977783, 0.5838344150119358);61.5404434204;1.0;10:57:39:550;0;5;-1.5;1;0.586510263929619;0;0;0;1;1;1;1;2;0;0;;0;0;();();(-2000.0, -2000.0);
10:57:39:566;10:57:39:523;1448057617.0;(0.5547516345977783, 0.5838344150119358);61.5404434204;1.0;10:57:39:566;0;0;-1.06451612903226;1;0.293255131964809;0;0;0;1;1;1;1;2;0;0;;0;0;();();(-2000.0, -2000.0);
10:57:39:599;10:57:39:581;1448057617.07;(0.5541947364807129, 0.585478252834744);61.3499755859;1.0;10:57:39:599;0;9;-1.5;1;0.293255131964809;0;0;0;1;1;1;1;2;0;0;;0;0;();();(-2000.0, -2000.0);
10:57:39:616;10:57:39:581;1448057617.07;(0.5541947364807129, 0.585478252834744);61.3499755859;1.0;10:57:39:616;0;4;-1.5;1;0.293255131964809;0;0;0;1;1;1;1;2;0;0;;0;0;();();(-2000.0, -2000.0);
10:57:39:632;10:57:39:581;1448057617.07;(0.5541947364807129, 0.585478252834744);61.3499755859;1.0;10:57:39:632;0;15;-1.5;1;0.293255131964809;0;0;0;1;1;1;1;2;0;0;;0;0;();();(-2000.0, -2000.0);
10:57:39:649;10:57:39:638;1448057617.13;(0.5538978099822998, 0.588004642062717);61.0809631348;1.0;10:57:39:649;0;5;-1.4;1;0.293255131964809;0;0;0;1;1;1;1;2;0;0;;0;0;();();(-2000.0, -2000.0);
10:57:39:681;10:57:39:638;1448057617.13;(0.5538978099822998, 0.588004642062717);61.0809631348;1.0;10:57:39:681;0;4;0.151612903225806;1;0.293255131964809;0;0;0;1;1;1;1;2;0;0;;0;0;();();(-2000.0, -2000.0);
10:57:39:698;10:57:39:698;1448057617.2;(0.5534832954406739, 0.589940940009223);61.4857521057;1.0;10:57:39:698;0;9;-0.170967741935484;1;0.293255131964809;0;0;0;1;1;1;1;2;0;0;;0;0;();();(-2000.0, -2000.0);
10:57:39:714;10:57:39:698;1448057617.2;(0.5534832954406739, 0.589940940009223);61.4857521057;1.0;10:57:39:714;0;5;-0.754838709677419;1;0.293255131964809;0;0;0;1;1;1;1;2;0;0;;0;0;();();(-2000.0, -2000.0);
10:57:39:731;10:57:39:698;1448057617.2;(0.5534832954406739, 0.589940940009223);61.4857521057;1.0;10:57:39:731;0;10;1.36451612903226;1;0.293255131964809;0;0;0;1;1;1;1;2;0;0;;0;0;();();(-2000.0, -2000.0);
10:57:39:748;10:57:39:698;1448057617.2;(0.5534832954406739, 0.589940940009223);61.4857521057;1.0;10:57:39:748;0;5;-1.5;1;0.293255131964809;0;0;0;1;1;1;1;2;0;0;;0;0;();();(-2000.0, -2000.0);
10:57:39:767;10:57:39:753;1448057617.23;(0.5535914421081543, 0.5907299041748046);61.6220932007;1.0;10:57:39:767;0;5;-1.46129032258065;1;0.586510263929619;0;0;0;1;1;1;1;2;0;0;;0;0;();();(-2000.0, -2000.0);
10:57:39:797;10:57:39:753;1448057617.23;(0.5535914421081543, 0.5907299041748046);61.6220932007;1.0;10:57:39:797;0;10;0.248387096774193;1;0.293255131964809;0;0;0;1;1;1;1;2;0;0;;0;0;();();(-2000.0, -2000.0);
10:57:39:815;10:57:39:813;1448057617.3;(0.5534238815307617, 0.5927076127794053);61.5266189575;1.0;10:57:39:815;0;15;-1.5;1;0.293255131964809;0;0;0;1;1;1;1;2;0;0;;0;0;();();(-2000.0, -2000.0);
10:57:39:831;10:57:39:813;1448057617.3;(0.5534238815307617, 0.5927076127794053);61.5266189575;1.0;10:57:39:831;0;4;0.229032258064516;1;0.293255131964809;0;0;0;1;1;1;1;2;0;0;;0;0;();();(-2000.0, -2000.0);
10:57:39:848;10:57:39:813;1448057617.3;(0.5534238815307617, 0.5927076127794053);61.5266189575;1.0;10:57:39:848;0;15;-1.5;1;0.293255131964809;0;0;0;1;1;1;1;2;0;0;;0;0;();();(-2000.0, -2000.0);
10:57:39:880;10:57:39:869;1448057617.33;(0.5422516822814941, 0.5988113827175564);62.4082260132;0.912472164248;10:57:39:880;0;4;1.78064516129032;1;0.293255131964809;0;0;0;1;1;1;1;2;0;0;;0;0;();();(-2000.0, -2000.0);
10:57:39:897;10:57:39:869;1448057617.33;(0.5422516822814941, 0.5988113827175564);62.4082260132;0.912472164248;10:57:39:897;0;10;-0.532258064516129;1;0.293255131964809;0;0;0;1;1;1;1;2;0;0;;0;0;();();(-2000.0, -2000.0);
10:57:39:914;10:57:39:869;1448057617.33;(0.5422516822814941, 0.5988113827175564);62.4082260132;0.912472164248;10:57:39:914;0;15;-0.261290322580645;1;0.293255131964809;0;0;0;1;1;1;1;2;0;0;;0;0;();();(-2000.0, -2000.0);
10:57:39:930;10:57:39:869;1448057617.33;(0.5422516822814941, 0.5988113827175564);62.4082260132;0.912472164248;10:57:39:930;0;9;-1.5;1;0.293255131964809;0;0;0;1;1;1;1;2;0;0;;0;0;();();(-2000.0, -2000.0);
10:57:39:947;10:57:39:930;1448057617.41;(0.5428629875183105, 0.6005197736952039);61.7420501709;1.0;10:57:39:947;0;0;-1.5;1;0.293255131964809;0;0;0;1;1;1;1;2;0;0;;0;0;();();(-2000.0, -2000.0);
10:57:39:980;10:57:39:930;1448057617.41;(0.5428629875183105, 0.6005197736952039);61.7420501709;1.0;10:57:39:980;0;15;-1.5;1;0.293255131964809;0;0;0;1;1;1;1;2;0;0;;0;0;();();(-2000.0, -2000.0);
10:57:39:997;10:57:39:985;1448057617.47;(0.5430482864379883, 0.6025617811414931);62.1770515442;1.0;10:57:39:997;0;4;-1.5;1;0.293255131964809;0;0;0;1;1;1;1;2;0;0;;0;0;();();(-2000.0, -2000.0);
10:57:40:013;10:57:39:985;1448057617.47;(0.5430482864379883, 0.6025617811414931);62.1770515442;1.0;10:57:40:013;0;9;0.664516129032258;1;0.293255131964809;0;0;0;1;1;1;1;2;0;0;;0;0;();();(-2000.0, -2000.0);
10:57:40:030;10:57:39:985;1448057617.47;(0.5430482864379883, 0.6025617811414931);62.1770515442;1.0;10:57:40:030;0;5;-1.5;1;0.293255131964809;0;0;0;1;1;1;1;2;0;0;;0;0;();();(-2000.0, -2000.0);
10:57:40:047;10:57:40:045;1448057617.53;(0.5432769775390625, 0.6037392934163411);62.5609588623;1.0;10:57:40:047;0;10;-1.5;1;0.293255131964809;0;0;0;1;1;1;1;2;0;0;;0;0;();();(-2000.0, -2000.0);
10:57:40:079;10:57:40:045;1448057617.53;(0.5432769775390625, 0.6037392934163411);62.5609588623;1.0;10:57:40:079;0;9;-1.5;1;0.293255131964809;0;0;0;1;1;1;1;2;0;0;;0;0;();();(-2000.0, -2000.0);
10:57:40:095;10:57:40:045;1448057617.53;(0.5432769775390625, 0.6037392934163411);62.5609588623;1.0;10:57:40:095;0;4;-1.5;1;0.293255131964809;0;0;0;1;1;1;1;2;0;0;;0;0;();();(-2000.0, -2000.0);
10:57:40:112;10:57:40:101;1448057617.6;(0.5436854839324952, 0.6044048309326172);62.3067169189;1.0;10:57:40:112;0;15;-1.5;1;0.293255131964809;0;0;0;1;1;1;1;2;0;0;;0;0;();();(-2000.0, -2000.0);
10:57:40:129;10:57:40:101;1448057617.6;(0.5436854839324952, 0.6044048309326172);62.3067169189;1.0;10:57:40:129;0;5;-1.5;1;0.293255131964809;0;0;0;1;1;1;1;2;0;0;;0;0;();();(-2000.0, -2000.0);
10:57:40:146;10:57:40:101;1448057617.6;(0.5436854839324952, 0.6044048309326172);62.3067169189;1.0;10:57:40:146;0;10;-1.5;1;0.293255131964809;0;0;0;1;1;1;1;2;0;0;;0;0;();();(-2000.0, -2000.0);
10:57:40:179;10:57:40:161;1448057617.63;(0.5436721801757812, 0.604255125257704);62.1362991333;1.0;10:57:40:179;0;9;1.06774193548387;1;0.293255131964809;0;0;0;1;1;1;1;2;0;0;;0;0;();();(-2000.0, -2000.0);
10:57:40:195;10:57:40:161;1448057617.63;(0.5436721801757812, 0.604255125257704);62.1362991333;1.0;10:57:40:195;0;5;-1.5;1;0.293255131964809;0;0;0;1;1;1;1;2;0;0;;0;0;();();(-2000.0, -2000.0);
10:57:40:212;10:57:40:161;1448057617.63;(0.5436721801757812, 0.604255125257704);62.1362991333;1.0;10:57:40:212;0;10;1.77741935483871;1;0.293255131964809;0;0;0;1;1;1;1;2;0;0;;0;0;();();(-2000.0, -2000.0);
10:57:40:228;10:57:40:217;1448057617.7;(0.5436738014221192, 0.6051366594102647);62.4462966919;1.0;10:57:40:228;0;4;1.77741935483871;1;0.293255131964809;0;0;0;1;1;1;1;2;0;0;;0;0;();();(-2000.0, -2000.0);
10:57:40:261;10:57:40:217;1448057617.7;(0.5436738014221192, 0.6051366594102647);62.4462966919;1.0;10:57:40:261;0;15;1.07741935483871;1;0.293255131964809;0;0;0;1;1;1;1;2;0;0;;0;0;();();(-2000.0, -2000.0);
10:57:40:278;10:57:40:278;1448057617.77;(0.5438267707824707, 0.6055051167805989);61.855922699;1.0;10:57:40:278;0;10;-1.5;1;0.391006842619746;0;0;0;1;1;1;1;2;0;0;;0;0;();();(-2000.0, -2000.0);
10:57:40:295;10:57:40:278;1448057617.77;(0.5438267707824707, 0.6055051167805989);61.855922699;1.0;10:57:40:295;0;4;-1.5;1;0.293255131964809;0;0;0;1;1;1;1;2;0;0;;0;0;();();(-2000.0, -2000.0);
10:57:40:315;10:57:40:278;1448057617.77;(0.5438267707824707, 0.6055051167805989);61.855922699;1.0;10:57:40:315;0;10;-1.5;1;0.293255131964809;0;0;0;1;1;1;1;4;0;0;;0;0;();();(-2000.0, -2000.0);
10:57:40:329;10:57:40:278;1448057617.77;(0.5438267707824707, 0.6055051167805989);61.855922699;1.0;10:57:40:329;0;15;-1.5;1;0.293255131964809;0;0;0;1;1;1;1;4;0;0;;0;0;();();(-2000.0, -2000.0);
10:57:40:361;10:57:40:333;1448057617.83;(0.5438371658325195, 0.6054716322157119);61.9793281555;1.0;10:57:40:361;0;0;-1.5;1;0.293255131964809;0;0;0;1;1;1;1;4;0;0;;0;0;();();(-2000.0, -2000.0);
10:57:40:377;10:57:40:333;1448057617.83;(0.5438371658325195, 0.6054716322157119);61.9793281555;1.0;10:57:40:377;0;10;-1.5;1;0.293255131964809;0;0;0;1;1;1;1;4;0;0;;0;0;();();(-2000.0, -2000.0);
10:57:40:394;10:57:40:393;1448057617.87;(0.536591911315918, 0.6100042555067274);62.2418861389;1.0;10:57:40:393;0;15;-1.5;1;0.684261974584555;0;0;0;1;1;1;1;4;0;0;;0;0;();();(-2000.0, -2000.0);
10:57:40:410;10:57:40:393;1448057617.87;(0.536591911315918, 0.6100042555067274);62.2418861389;1.0;10:57:40:410;0;9;-1.5;1;0.293255131964809;0;0;0;1;1;1;1;4;0;0;;0;0;();();(-2000.0, -2000.0);
10:57:40:427;10:57:40:393;1448057617.87;(0.536591911315918, 0.6100042555067274);62.2418861389;1.0;10:57:40:427;0;0;-1.5;1;0.293255131964809;0;0;0;1;1;1;1;4;0;0;;0;0;();();(-2000.0, -2000.0);
10:57:40:461;10:57:40:449;1448057617.93;(0.536711597442627, 0.6107388814290364);62.0359115601;1.0;10:57:40:461;0;15;-1.5;1;0.293255131964809;0;0;0;1;1;1;1;4;0;0;;0;0;();();(-2000.0, -2000.0);
10:57:40:477;10:57:40:449;1448057617.93;(0.536711597442627, 0.6107388814290364);62.0359115601;1.0;10:57:40:477;0;15;-1.5;1;0.293255131964809;0;0;0;1;1;1;1;4;0;0;;0;0;();();(-2000.0, -2000.0);
10:57:40:493;10:57:40:449;1448057617.93;(0.536711597442627, 0.6107388814290364);62.0359115601;1.0;10:57:40:493;0;4;-1.5;1;0.293255131964809;0;0;0;1;1;1;1;4;0;0;;0;0;();();(-2000.0, -2000.0);
10:57:40:510;10:57:40:509;1448057618.0;(0.5372797966003418, 0.610944112141927);62.1848106384;1.0;10:57:40:510;0;4;-1.5;1;0.293255131964809;0;0;0;1;1;1;1;4;0;0;;0;0;();();(-2000.0, -2000.0);
10:57:40:527;10:57:40:509;1448057618.0;(0.5372797966003418, 0.610944112141927);62.1848106384;1.0;10:57:40:527;0;10;1.77741935483871;1;0.293255131964809;0;0;0;1;1;1;1;4;0;0;;0;0;();();(-2000.0, -2000.0);
10:57:40:560;10:57:40:509;1448057618.0;(0.5372797966003418, 0.610944112141927);62.1848106384;1.0;10:57:40:560;0;15;1.79032258064516;1;0.293255131964809;0;0;0;1;1;1;1;4;0;0;;0;0;();();(-2000.0, -2000.0);
10:57:40:576;10:57:40:565;1448057618.03;(0.5372025966644287, 0.6111149258083768);62.6135559082;1.0;10:57:40:576;0;4;1.78064516129032;1;0.293255131964809;0;0;0;1;1;1;1;4;0;0;;0;0;();();(-2000.0, -2000.0);
10:57:40:593;10:57:40:565;1448057618.03;(0.5372025966644287, 0.6111149258083768);62.6135559082;1.0;10:57:40:593;0;10;1.77741935483871;1;0.293255131964809;0;0;0;1;1;1;1;4;0;0;;0;0;();();(-2000.0, -2000.0);
10:57:40:609;10:57:40:565;1448057618.03;(0.5372025966644287, 0.6111149258083768);62.6135559082;1.0;10:57:40:609;0;5;1.78064516129032;1;0.293255131964809;0;0;0;1;1;1;1;4;0;0;;0;0;();();(-2000.0, -2000.0);
10:57:40:626;10:57:40:625;1448057618.1;(0.5377390384674072, 0.6112050374348958);62.3863334656;1.0;10:57:40:626;0;8;-0.7;1;0.293255131964809;0;0;0;1;1;1;1;4;0;0;;0;0;();();(-2000.0, -2000.0);
10:57:40:660;10:57:40:625;1448057618.1;(0.5377390384674072, 0.6112050374348958);62.3863334656;1.0;10:57:40:660;0;9;-1.5;1;0.293255131964809;0;0;0;1;1;1;1;4;0;0;;0;0;();();(-2000.0, -2000.0);
10:57:40:676;10:57:40:625;1448057618.1;(0.5377390384674072, 0.6112050374348958);62.3863334656;1.0;10:57:40:676;0;0;1.78064516129032;1;0.293255131964809;0;0;0;1;1;1;1;4;0;0;;0;0;();();(-2000.0, -2000.0);
10:57:40:692;10:57:40:682;1448057618.17;(0.5383108615875244, 0.6108807033962673);62.4637107849;1.0;10:57:40:692;0;10;1.78064516129032;1;0.293255131964809;0;0;0;1;1;1;1;4;0;0;;0;0;();();(-2000.0, -2000.0);
10:57:40:708;10:57:40:682;1448057618.17;(0.5383108615875244, 0.6108807033962673);62.4637107849;1.0;10:57:40:708;0;15;1.78064516129032;1;0.293255131964809;0;0;0;1;1;1;1;4;0;0;;0;0;();();(-2000.0, -2000.0);
10:57:40:726;10:57:40:682;1448057618.17;(0.5383108615875244, 0.6108807033962673);62.4637107849;1.0;10:57:40:726;0;9;1.78064516129032;1;0.293255131964809;0;0;0;1;1;1;1;4;0;0;;0;0;();();(-2000.0, -2000.0);
10:57:40:758;10:57:40:741;1448057618.23;(0.5389114379882812, 0.6107402801513672);61.8501052856;1.0;10:57:40:758;0;10;1.78064516129032;1;0.293255131964809;0;0;0;1;1;1;1;4;0;0;;0;0;();();(-2000.0, -2000.0);
10:57:40:775;10:57:40:741;1448057618.23;(0.5389114379882812, 0.6107402801513672);61.8501052856;1.0;10:57:40:775;0;15;1.78064516129032;1;0.586510263929619;0;0;0;1;1;1;1;4;0;0;;0;0;();();(-2000.0, -2000.0);
10:57:40:792;10:57:40:741;1448057618.23;(0.5389114379882812, 0.6107402801513672);61.8501052856;1.0;10:57:40:792;0;10;1.77741935483871;1;0.293255131964809;0;0;0;1;1;1;1;4;0;0;;0;0;();();(-2000.0, -2000.0);
10:57:40:808;10:57:40:797;1448057618.27;(0.5382137775421143, 0.6109661950005425);61.0635070801;1.0;10:57:40:808;0;4;1.76129032258065;1;0.293255131964809;0;0;0;1;1;1;1;4;0;0;;0;0;();();(-2000.0, -2000.0);
10:57:40:841;10:57:40:797;1448057618.27;(0.5382137775421143, 0.6109661950005425);61.0635070801;1.0;10:57:40:841;0;0;-0.819354838709678;1;0.293255131964809;0;0;0;1;1;1;1;4;0;0;;0;0;();();(-2000.0, -2000.0);
10:57:40:858;10:57:40:797;1448057618.27;(0.5382137775421143, 0.6109661950005425);61.0635070801;1.0;10:57:40:858;0;4;1.78064516129032;1;0.293255131964809;0;0;0;1;1;1;1;4;0;0;;0;0;();();(-2000.0, -2000.0);
10:57:40:874;10:57:40:859;1448057618.33;(0.5324212074279785, 0.614410146077474);60.3332023621;1.0;10:57:40:874;0;15;1.78064516129032;1;0.293255131964809;0;0;0;1;1;1;1;4;0;0;;0;0;();();(-2000.0, -2000.0);
10:57:40:891;10:57:40:859;1448057618.33;(0.5324212074279785, 0.614410146077474);60.3332023621;1.0;10:57:40:891;0;4;1.76129032258065;1;0.293255131964809;0;0;0;1;1;1;1;4;0;0;;0;0;();();(-2000.0, -2000.0);
10:57:40:908;10:57:40:859;1448057618.33;(0.5324212074279785, 0.614410146077474);60.3332023621;1.0;10:57:40:908;0;15;1.78064516129032;1;0.293255131964809;0;0;0;1;1;1;1;4;0;0;;0;0;();();(-2000.0, -2000.0);
10:57:40:941;10:57:40:918;1448057618.4;(0.5325146198272706, 0.6156100802951389);60.2813606262;1.0;10:57:40:941;0;15;1.77741935483871;1;0.293255131964809;0;0;0;1;1;1;1;4;0;0;;0;0;();();(-2000.0, -2000.0);
10:57:40:957;10:57:40:918;1448057618.4;(0.5325146198272706, 0.6156100802951389);60.2813606262;1.0;10:57:40:957;0;15;1.77741935483871;1;0.293255131964809;0;0;0;1;1;1;1;4;0;0;;0;0;();();(-2000.0, -2000.0);
10:57:40:973;10:57:40:973;1448057618.47;(0.5324519634246826, 0.6155838860405816);60.1839103699;1.0;10:57:40:973;0;10;1.76129032258065;1;0.293255131964809;0;0;0;1;1;1;1;4;0;0;;0;0;();();(-2000.0, -2000.0);
10:57:40:990;10:57:40:973;1448057618.47;(0.5324519634246826, 0.6155838860405816);60.1839103699;1.0;10:57:40:990;0;5;1.78064516129032;1;0.293255131964809;0;0;0;1;1;1;1;4;0;0;;0;0;();();(-2000.0, -2000.0);
10:57:41:007;10:57:40:973;1448057618.47;(0.5324519634246826, 0.6155838860405816);60.1839103699;1.0;10:57:41:007;0;6;0.848387096774194;1;0.293255131964809;0;0;0;1;1;1;1;4;0;0;;0;0;();();(-2000.0, -2000.0);
10:57:41:040;10:57:41:033;1448057618.53;(0.5325352191925049, 0.6159378899468315);60.9405403137;1.0;10:57:41:040;0;9;-1.38709677419355;1;0.293255131964809;0;0;0;1;1;1;1;4;0;0;;0;0;();();(-2000.0, -2000.0);
10:57:41:057;10:57:41:033;1448057618.53;(0.5325352191925049, 0.6159378899468315);60.9405403137;1.0;10:57:41:057;0;4;1.79032258064516;1;0.293255131964809;0;0;0;1;1;1;1;4;0;0;;0;0;();();(-2000.0, -2000.0);
10:57:41:074;10:57:41:033;1448057618.53;(0.5325352191925049, 0.6159378899468315);60.9405403137;1.0;10:57:41:074;0;9;1.76129032258065;1;0.293255131964809;0;0;0;1;1;1;1;4;0;0;;0;0;();();(-2000.0, -2000.0);
10:57:41:089;10:57:41:088;1448057618.57;(0.5325982570648193, 0.6158544328477648);60.8916397095;1.0;10:57:41:089;0;5;1.78064516129032;1;0.293255131964809;0;0;0;1;1;1;1;4;0;0;;0;0;();();(-2000.0, -2000.0);
10:57:41:107;10:57:41:088;1448057618.57;(0.5325982570648193, 0.6158544328477648);60.8916397095;1.0;10:57:41:107;0;15;1.14516129032258;1;0.293255131964809;0;0;0;1;1;1;1;4;0;0;;0;0;();();(-2000.0, -2000.0);
10:57:41:139;10:57:41:088;1448057618.57;(0.5325982570648193, 0.6158544328477648);60.8916397095;1.0;10:57:41:139;0;15;-1.38709677419355;1;0.293255131964809;0;0;0;1;1;1;1;4;0;0;;0;0;();();(-2000.0, -2000.0);
10:57:41:156;10:57:41:151;1448057618.63;(0.5324470520019531, 0.6155897776285808);61.7202606201;1.0;10:57:41:156;0;4;-1.5;1;0.293255131964809;0;0;0;1;1;1;1;4;0;0;;0;0;();();(-2000.0, -2000.0);
10:57:41:173;10:57:41:151;1448057618.63;(0.5324470520019531, 0.6155897776285808);61.7202606201;1.0;10:57:41:173;0;10;-1.5;1;0.293255131964809;0;0;0;1;1;1;1;4;0;0;;0;0;();();(-2000.0, -2000.0);
10:57:41:189;10:57:41:151;1448057618.63;(0.5324470520019531, 0.6155897776285808);61.7202606201;1.0;10:57:41:189;0;4;-1.5;1;0.293255131964809;0;0;0;1;1;1;1;4;0;0;;0;0;();();(-2000.0, -2000.0);
10:57:41:206;10:57:41:205;1448057618.7;(0.5324916362762451, 0.616016599867079);62.204120636;1.0;10:57:41:206;0;9;-1.5;1;0.293255131964809;0;0;0;1;1;1;1;4;0;0;;0;0;();();(-2000.0, -2000.0);
10:57:41:239;10:57:41:205;1448057618.7;(0.5324916362762451, 0.616016599867079);62.204120636;1.0;10:57:41:239;0;10;-1.5;1;0.293255131964809;0;0;0;1;1;1;1;4;0;0;;0;0;();();(-2000.0, -2000.0);
10:57:41:255;10:57:41:205;1448057618.7;(0.5324916362762451, 0.616016599867079);62.204120636;1.0;10:57:41:255;0;15;-1.5;1;0.293255131964809;0;0;0;1;1;1;1;4;0;0;;0;0;();();(-2000.0, -2000.0);
10:57:41:272;10:57:41:266;1448057618.77;(0.5323851585388184, 0.6161955091688368);62.1726455688;1.0;10:57:41:272;0;13;-1.5;1;0.293255131964809;0;0;0;1;1;1;1;4;0;0;;0;0;();();(-2000.0, -2000.0);
10:57:41:289;10:57:41:266;1448057618.77;(0.5323851585388184, 0.6161955091688368);62.1726455688;1.0;10:57:41:289;0;15;-1.5;1;0.293255131964809;0;0;0;1;1;1;1;4;0;0;;0;0;();();(-2000.0, -2000.0);
10:57:41:305;10:57:41:266;1448057618.77;(0.5323851585388184, 0.6161955091688368);62.1726455688;1.0;10:57:41:305;0;9;1.1;1;0.293255131964809;0;0;0;1;1;1;1;4;0;0;;0;0;();();(-2000.0, -2000.0);
10:57:41:338;10:57:41:321;1448057618.8;(0.5321880340576172, 0.6168200810750326);62.1375160217;1.0;10:57:41:338;0;10;1.78064516129032;1;0.293255131964809;0;0;0;1;1;1;1;4;0;0;;0;0;();();(-2000.0, -2000.0);
10:57:41:355;10:57:41:321;1448057618.8;(0.5321880340576172, 0.6168200810750326);62.1375160217;1.0;10:57:41:355;0;15;1.78064516129032;1;0.293255131964809;0;0;0;1;1;1;1;4;0;0;;0;0;();();(-2000.0, -2000.0);
10:57:41:372;10:57:41:321;1448057618.8;(0.5321880340576172, 0.6168200810750326);62.1375160217;1.0;10:57:41:372;0;4;-1.5;1;0.293255131964809;0;0;0;1;1;1;1;4;0;0;;0;0;();();(-2000.0, -2000.0);
10:57:41:398;10:57:41:382;1448057618.83;(0.5321864128112793, 0.6164509667290581);62.5505447388;1.0;10:57:41:398;0;0;-1.5;1;0.293255131964809;0;0;0;1;1;1;1;4;0;0;;0;0;();();(-2000.0, -2000.0);
10:57:41:422;10:57:41:382;1448057618.83;(0.5321864128112793, 0.6164509667290581);62.5505447388;1.0;10:57:41:422;0;15;-1.5;1;0.293255131964809;0;0;0;1;1;1;1;4;0;0;;0;0;();();(-2000.0, -2000.0);
10:57:41:439;10:57:41:382;1448057618.83;(0.5321864128112793, 0.6164509667290581);62.5505447388;1.0;10:57:41:439;0;4;-1.5;1;0.293255131964809;0;0;0;1;1;1;1;4;0;0;;0;0;();();(-2000.0, -2000.0);
10:57:41:454;10:57:41:382;1448057618.83;(0.5321864128112793, 0.6164509667290581);62.5505447388;1.0;10:57:41:454;0;9;-1.5;1;0.293255131964809;0;0;0;1;1;1;1;4;0;0;;0;0;();();(-2000.0, -2000.0);
10:57:41:471;10:57:41:382;1448057618.83;(0.5321864128112793, 0.6164509667290581);62.5505447388;1.0;10:57:41:471;0;4;-1.5;1;0.293255131964809;0;0;0;1;1;1;1;4;0;0;;0;0;();();(-2000.0, -2000.0);
10:57:41:488;10:57:41:382;1448057618.83;(0.5321864128112793, 0.6164509667290581);62.5505447388;1.0;10:57:41:488;0;10;1.78064516129032;1;0.293255131964809;0;0;0;1;1;1;1;4;0;0;;0;0;();();(-2000.0, -2000.0);
10:57:41:521;10:57:41:497;1448057618.87;(0.5352613925933838, 0.6146680196126302);62.7407073975;1.0;10:57:41:521;0;9;-1.5;1;0.293255131964809;0;0;0;1;1;1;1;4;0;0;;0;0;();();(-2000.0, -2000.0);
10:57:41:538;10:57:41:497;1448057618.87;(0.5352613925933838, 0.6146680196126302);62.7407073975;1.0;10:57:41:538;0;5;-1.5;1;0.293255131964809;0;0;0;1;1;1;1;4;0;0;;0;0;();();(-2000.0, -2000.0);
10:57:41:555;10:57:41:553;1448057619.03;(0.5356562614440918, 0.6134002261691623);62.7336196899;1.0;10:57:41:555;0;10;0.74516129032258;1;0.293255131964809;0;0;0;1;1;1;1;4;0;0;;0;0;();();(-2000.0, -2000.0);
10:57:41:571;10:57:41:553;1448057619.03;(0.5356562614440918, 0.6134002261691623);62.7336196899;1.0;10:57:41:571;0;15;1.18064516129032;1;0.391006842619746;0;0;0;1;1;1;1;4;0;0;;0;0;();();(-2000.0, -2000.0);
10:57:41:588;10:57:41:553;1448057619.03;(0.5356562614440918, 0.6134002261691623);62.7336196899;1.0;10:57:41:588;0;10;-1.5;1;0.293255131964809;0;0;0;1;1;1;1;4;0;0;;0;0;();();(-2000.0, -2000.0);
10:57:41:621;10:57:41:613;1448057619.1;(0.5359678745269776, 0.6124212053087023);62.7163352966;1.0;10:57:41:621;0;9;1.78064516129032;1;0.684261974584555;0;0;0;1;1;1;1;4;0;0;;0;0;();();(-2000.0, -2000.0);
10:57:41:638;10:57:41:613;1448057619.1;(0.5359678745269776, 0.6124212053087023);62.7163352966;1.0;10:57:41:638;0;5;1.78064516129032;1;0.293255131964809;0;0;0;1;1;1;1;4;0;0;;0;0;();();(-2000.0, -2000.0);
10:57:41:653;10:57:41:613;1448057619.1;(0.5359678745269776, 0.6124212053087023);62.7163352966;1.0;10:57:41:653;0;10;1.78064516129032;1;0.293255131964809;0;0;0;1;1;1;1;4;0;0;;0;0;();();(-2000.0, -2000.0);
10:57:41:671;10:57:41:613;1448057619.1;(0.5359678745269776, 0.6124212053087023);62.7163352966;1.0;10:57:41:671;0;7;1.78064516129032;1;0.293255131964809;0;0;0;1;1;1;1;4;0;0;;0;0;();();(-2000.0, -2000.0);
10:57:41:687;10:57:41:678;1448057619.13;(0.5359134674072266, 0.6127980973985461);63.008895874;1.0;10:57:41:687;0;9;1.77741935483871;1;0.293255131964809;0;0;0;1;1;1;1;4;0;0;;0;0;();();(-2000.0, -2000.0);
10:57:41:721;10:57:41:678;1448057619.13;(0.5359134674072266, 0.6127980973985461);63.008895874;1.0;10:57:41:721;0;10;1.78064516129032;1;0.293255131964809;0;0;0;1;1;1;1;4;0;0;;0;0;();();(-2000.0, -2000.0);
10:57:41:737;10:57:41:730;1448057619.2;(0.5359885692596436, 0.6127378251817491);63.2383537292;1.0;10:57:41:737;0;15;1.79032258064516;1;0.293255131964809;0;0;0;1;1;1;1;4;0;0;;0;0;();();(-2000.0, -2000.0);
10:57:41:754;10:57:41:730;1448057619.2;(0.5359885692596436, 0.6127378251817491);63.2383537292;1.0;10:57:41:754;0;10;1.78064516129032;1;0.293255131964809;0;0;0;1;1;1;1;4;0;0;;0;0;();();(-2000.0, -2000.0);
10:57:41:770;10:57:41:730;1448057619.2;(0.5359885692596436, 0.6127378251817491);63.2383537292;1.0;10:57:41:770;0;4;1.78064516129032;1;0.293255131964809;0;0;0;1;1;1;1;4;0;0;;0;0;();();(-2000.0, -2000.0);
10:57:41:787;10:57:41:785;1448057619.27;(0.5359047412872314, 0.6123274061414931);63.7677536011;1.0;10:57:41:787;0;15;-0.183870967741936;1;0.684261974584555;0;0;0;1;1;1;1;4;0;0;;0;0;();();(-2000.0, -2000.0);
10:57:41:819;10:57:41:785;1448057619.27;(0.5359047412872314, 0.6123274061414931);63.7677536011;1.0;10:57:41:819;0;10;1.79032258064516;1;0.293255131964809;0;0;0;1;1;1;1;4;0;0;;0;0;();();(-2000.0, -2000.0);
10:57:41:836;10:57:41:785;1448057619.27;(0.5359047412872314, 0.6123274061414931);63.7677536011;1.0;10:57:41:836;0;15;1.76129032258065;1;0.293255131964809;0;0;0;1;1;1;1;4;0;0;;0;0;();();(-2000.0, -2000.0);
10:57:41:852;10:57:41:845;1448057619.3;(0.5326324462890625, 0.6129306793212891);64.2076187134;0.905942613153;10:57:41:852;0;9;1.78064516129032;1;0.293255131964809;0;0;0;1;1;1;1;4;0;0;;0;0;();();(-2000.0, -2000.0);
10:57:41:869;10:57:41:845;1448057619.3;(0.5326324462890625, 0.6129306793212891);64.2076187134;0.905942613153;10:57:41:869;0;0;1.10322580645161;1;0.293255131964809;0;0;0;1;1;1;1;4;0;0;;0;0;();();(-2000.0, -2000.0);
10:57:41:886;10:57:41:845;1448057619.3;(0.5326324462890625, 0.6129306793212891);64.2076187134;0.905942613153;10:57:41:886;0;4;1.78064516129032;1;0.684261974584555;0;0;0;1;1;1;1;4;0;0;;0;0;();();(-2000.0, -2000.0);
10:57:41:919;10:57:41:901;1448057619.4;(0.5283127307891846, 0.6158333248562283);64.1390533447;1.0;10:57:41:919;0;4;1.78064516129032;1;0.293255131964809;0;0;0;1;1;1;1;4;0;0;;0;0;();();(-2000.0, -2000.0);
10:57:41:936;10:57:41:901;1448057619.4;(0.5283127307891846, 0.6158333248562283);64.1390533447;1.0;10:57:41:936;0;9;-1.3741935483871;1;0.293255131964809;0;0;0;1;1;1;1;4;0;0;;0;0;();();(-2000.0, -2000.0);
10:57:41:953;10:57:41:901;1448057619.4;(0.5283127307891846, 0.6158333248562283);64.1390533447;1.0;10:57:41:953;0;5;-0.212903225806452;1;0.293255131964809;0;0;0;1;1;1;1;4;0;0;;0;0;();();(-2000.0, -2000.0);
10:57:41:969;10:57:41:961;1448057619.43;(0.52822265625, 0.6160761091444227);64.0753707886;1.0;10:57:41:969;0;15;1.77741935483871;1;0.684261974584555;0;0;0;1;1;1;1;4;0;0;;0;0;();();(-2000.0, -2000.0);
10:57:42:002;10:57:41:961;1448057619.43;(0.52822265625, 0.6160761091444227);64.0753707886;1.0;10:57:42:002;0;9;1.77741935483871;1;0.586510263929619;0;0;0;1;1;1;1;4;0;0;;0;0;();();(-2000.0, -2000.0);
10:57:42:018;10:57:42:017;1448057619.47;(0.5282587528228759, 0.61618775261773);64.5365066528;1.0;10:57:42:018;0;4;1.78064516129032;1;0.293255131964809;0;0;0;1;1;1;1;4;0;0;;0;0;();();(-2000.0, -2000.0);
10:57:42:036;10:57:42:018;1448057619.5;(0.5282673835754395, 0.6166139814588758);64.5228729248;1.0;10:57:42:036;0;10;1.78064516129032;1;0.684261974584555;0;0;0;1;1;1;1;4;0;0;;0;0;();();(-2000.0, -2000.0);
10:57:42:052;10:57:42:018;1448057619.5;(0.5282673835754395, 0.6166139814588758);64.5228729248;1.0;10:57:42:052;0;5;1.78064516129032;1;0.293255131964809;0;0;0;1;1;1;1;4;0;0;;0;0;();();(-2000.0, -2000.0);
10:57:42:068;10:57:42:018;1448057619.5;(0.5282673835754395, 0.6166139814588758);64.5228729248;1.0;10:57:42:068;0;10;1.78064516129032;1;0.293255131964809;0;0;0;1;1;1;1;4;0;0;;0;0;();();(-2000.0, -2000.0);
10:57:42:101;10:57:42:077;1448057619.57;(0.5282187938690186, 0.6166303846571181);64.5479125977;1.0;10:57:42:101;0;15;1.77741935483871;1;0.293255131964809;0;0;0;1;1;1;1;4;0;0;;0;0;();();(-2000.0, -2000.0);
10:57:42:118;10:57:42:077;1448057619.57;(0.5282187938690186, 0.6166303846571181);64.5479125977;1.0;10:57:42:118;0;5;1.78064516129032;1;0.684261974584555;0;0;0;1;1;1;1;4;0;0;;0;0;();();(-2000.0, -2000.0);
10:57:42:134;10:57:42:134;1448057619.6;(0.5284182071685791, 0.6165250142415364);64.1817169189;1.0;10:57:42:134;0;10;1.78064516129032;1;0.293255131964809;0;0;0;1;1;1;1;4;0;0;;0;0;();();(-2000.0, -2000.0);
10:57:42:151;10:57:42:134;1448057619.6;(0.5284182071685791, 0.6165250142415364);64.1817169189;1.0;10:57:42:151;0;15;1.78064516129032;1;0.684261974584555;0;0;0;1;1;1;1;4;0;0;;0;0;();();(-2000.0, -2000.0);
10:57:42:168;10:57:42:134;1448057619.6;(0.5284182071685791, 0.6165250142415364);64.1817169189;1.0;10:57:42:168;0;4;1.6741935483871;1;0.293255131964809;0;0;0;1;1;1;1;4;0;0;;0;0;();();(-2000.0, -2000.0);
10:57:42:200;10:57:42:194;1448057619.67;(0.5286239624023438, 0.616482416788737);63.1699752808;1.0;10:57:42:200;0;5;1.77741935483871;1;0.293255131964809;0;0;0;1;1;1;1;4;0;0;;0;0;();();(-2000.0, -2000.0);
10:57:42:217;10:57:42:194;1448057619.67;(0.5286239624023438, 0.616482416788737);63.1699752808;1.0;10:57:42:217;0;15;1.78064516129032;1;0.293255131964809;0;0;0;1;1;1;1;4;0;0;;0;0;();();(-2000.0, -2000.0);
10:57:42:234;10:57:42:194;1448057619.67;(0.5286239624023438, 0.616482416788737);63.1699752808;1.0;10:57:42:234;0;9;1.78064516129032;1;0.293255131964809;0;0;0;1;1;1;1;4;0;0;;0;0;();();(-2000.0, -2000.0);
10:57:42:255;10:57:42:249;1448057619.73;(0.5288718700408935, 0.6167645772298177);62.8187828064;1.0;10:57:42:255;0;15;1.78064516129032;1;0.293255131964809;0;0;0;1;1;1;1;4;0;0;;0;0;();();(-2000.0, -2000.0);
10:57:42:267;10:57:42:249;1448057619.73;(0.5288718700408935, 0.6167645772298177);62.8187828064;1.0;10:57:42:267;0;5;1.77741935483871;1;0.293255131964809;0;0;0;1;1;1;1;4;0;0;;0;0;();();(-2000.0, -2000.0);
10:57:42:300;10:57:42:249;1448057619.73;(0.5288718700408935, 0.6167645772298177);62.8187828064;1.0;10:57:42:299;0;4;1.78064516129032;1;0.293255131964809;0;0;0;1;1;1;1;4;0;0;;0;0;();();(-2000.0, -2000.0);
10:57:42:317;10:57:42:309;1448057619.8;(0.5298401355743408, 0.616657469007704);62.7171478271;0.927626175309;10:57:42:317;0;15;1.78064516129032;1;0.293255131964809;0;0;0;1;1;1;1;4;0;0;;0;0;();();(-2000.0, -2000.0);
10:57:42:332;10:57:42:309;1448057619.8;(0.5298401355743408, 0.616657469007704);62.7171478271;0.927626175309;10:57:42:332;0;4;1.78064516129032;1;0.293255131964809;0;0;0;1;1;1;1;4;0;0;;0;0;();();(-2000.0, -2000.0);
10:57:42:351;10:57:42:309;1448057619.8;(0.5298401355743408, 0.616657469007704);62.7171478271;0.927626175309;10:57:42:351;0;10;1.77741935483871;1;0.293255131964809;0;0;0;1;1;1;1;4;0;0;;0;0;();();(-2000.0, -2000.0);
10:57:42:366;10:57:42:309;1448057619.8;(0.5298401355743408, 0.616657469007704);62.7171478271;0.927626175309;10:57:42:366;0;5;-1.5;1;0.293255131964809;0;0;0;1;1;1;1;4;0;0;;0;0;();();(-2000.0, -2000.0);
10:57:42:399;10:57:42:368;1448057619.83;(0.533445405960083, 0.6140525817871094);61.9935913086;1.0;10:57:42:399;0;4;1.77741935483871;1;0.293255131964809;0;0;0;1;1;1;1;4;0;0;;0;0;();();(-2000.0, -2000.0);
10:57:42:416;10:57:42:368;1448057619.83;(0.533445405960083, 0.6140525817871094);61.9935913086;1.0;10:57:42:416;0;15;1.76129032258065;1;0.293255131964809;0;0;0;1;1;1;1;4;0;0;;0;0;();();(-2000.0, -2000.0);
10:57:42:433;10:57:42:425;1448057619.9;(0.5339396953582763, 0.6136275397406684);61.8537025452;1.0;10:57:42:433;0;15;1.76129032258065;1;0.293255131964809;0;0;0;1;1;1;1;4;0;0;;0;0;();();(-2000.0, -2000.0);
10:57:42:449;10:57:42:425;1448057619.9;(0.5339396953582763, 0.6136275397406684);61.8537025452;1.0;10:57:42:449;0;10;1.78064516129032;1;0.293255131964809;0;0;0;1;1;1;1;4;0;0;;0;0;();();(-2000.0, -2000.0);
10:57:42:466;10:57:42:425;1448057619.9;(0.5339396953582763, 0.6136275397406684);61.8537025452;1.0;10:57:42:466;0;4;1.78064516129032;1;0.293255131964809;0;0;0;1;1;1;1;4;0;0;;0;0;();();(-2000.0, -2000.0);
10:57:42:499;10:57:42:485;1448057619.97;(0.5342101573944091, 0.6143221537272135);62.1174507141;1.0;10:57:42:499;0;4;1.79032258064516;1;0.293255131964809;0;0;0;1;1;1;1;4;0;0;;0;0;();();(-2000.0, -2000.0);
10:57:42:515;10:57:42:485;1448057619.97;(0.5342101573944091, 0.6143221537272135);62.1174507141;1.0;10:57:42:515;0;9;1.77741935483871;1;0.293255131964809;0;0;0;1;1;1;1;4;0;0;;0;0;();();(-2000.0, -2000.0);
10:57:42:532;10:57:42:485;1448057619.97;(0.5342101573944091, 0.6143221537272135);62.1174507141;1.0;10:57:42:532;0;4;0.0225806451612902;1;0.293255131964809;0;0;0;1;1;1;1;4;0;0;;0;0;();();(-2000.0, -2000.0);
10:57:42:549;10:57:42:541;1448057620.03;(0.5345101833343506, 0.6146363576253255);62.7078132629;1.0;10:57:42:549;0;9;0.612903225806452;1;0.293255131964809;0;0;0;1;1;1;1;4;0;0;;0;0;();();(-2000.0, -2000.0);
10:57:42:581;10:57:42:541;1448057620.03;(0.5345101833343506, 0.6146363576253255);62.7078132629;1.0;10:57:42:581;0;9;-1.00967741935484;1;0.293255131964809;0;0;0;1;1;1;1;4;0;0;;0;0;();();(-2000.0, -2000.0);
10:57:42:598;10:57:42:541;1448057620.03;(0.5345101833343506, 0.6146363576253255);62.7078132629;1.0;10:57:42:598;0;5;1.78064516129032;1;0.293255131964809;0;0;0;1;1;1;1;4;0;0;;0;0;();();(-2000.0, -2000.0);
10:57:42:614;10:57:42:601;1448057620.07;(0.5344471454620361, 0.6142982482910156);62.5170288086;1.0;10:57:42:614;0;10;1.20645161290323;1;0.293255131964809;0;0;0;1;1;1;1;4;0;0;;0;0;();();(-2000.0, -2000.0);
10:57:42:632;10:57:42:601;1448057620.07;(0.5344471454620361, 0.6142982482910156);62.5170288086;1.0;10:57:42:632;0;15;-0.445161290322581;1;0.293255131964809;0;0;0;1;1;1;1;4;0;0;;0;0;();();(-2000.0, -2000.0);
10:57:42:647;10:57:42:601;1448057620.07;(0.5344471454620361, 0.6142982482910156);62.5170288086;1.0;10:57:42:647;0;9;1;1;0.293255131964809;0;0;0;1;1;1;1;4;0;0;;0;0;();();(-2000.0, -2000.0);
10:57:42:681;10:57:42:657;1448057620.13;(0.5343665599822998, 0.6148054334852431);63.1232795715;1.0;10:57:42:681;0;4;-0.0677419354838711;1;0.293255131964809;0;0;0;1;1;1;1;4;0;0;;0;0;();();(-2000.0, -2000.0);
10:57:42:697;10:57:42:657;1448057620.13;(0.5343665599822998, 0.6148054334852431);63.1232795715;1.0;10:57:42:697;0;15;0.248387096774193;1;0.293255131964809;0;0;0;1;1;1;1;4;0;0;;0;0;();();(-2000.0, -2000.0);
10:57:42:713;10:57:42:657;1448057620.13;(0.5343665599822998, 0.6148054334852431);63.1232795715;1.0;10:57:42:713;0;4;-0.406451612903226;1;0.293255131964809;0;0;0;1;1;1;1;4;0;0;;0;0;();();(-2000.0, -2000.0);
10:57:42:730;10:57:42:717;1448057620.2;(0.5341281414031982, 0.6145592583550348);64.0018157959;1.0;10:57:42:730;0;15;-1.5;1;0.293255131964809;0;0;0;1;1;1;1;4;0;0;;0;0;();();(-2000.0, -2000.0);
10:57:42:748;10:57:42:717;1448057620.2;(0.5341281414031982, 0.6145592583550348);64.0018157959;1.0;10:57:42:748;0;5;-1.5;1;0.293255131964809;0;0;0;1;1;1;1;4;0;0;;0;0;();();(-2000.0, -2000.0);
10:57:42:780;10:57:42:773;1448057620.23;(0.5389026165008545, 0.6110883076985677);63.8349227905;1.0;10:57:42:780;0;4;-0.561290322580645;1;0.293255131964809;0;0;0;1;1;1;1;4;0;0;;0;0;();();(-2000.0, -2000.0);
10:57:42:797;10:57:42:773;1448057620.23;(0.5389026165008545, 0.6110883076985677);63.8349227905;1.0;10:57:42:797;0;15;1.46774193548387;1;0.293255131964809;0;0;0;1;1;1;1;4;0;0;;0;0;();();(-2000.0, -2000.0);
10:57:42:813;10:57:42:773;1448057620.23;(0.5389026165008545, 0.6110883076985677);63.8349227905;1.0;10:57:42:813;0;12;-1.5;1;0.293255131964809;0;0;0;1;1;1;1;4;0;0;;0;0;();();(-2000.0, -2000.0);
10:57:42:830;10:57:42:773;1448057620.23;(0.5389026165008545, 0.6110883076985677);63.8349227905;1.0;10:57:42:830;0;0;-1.5;1;0.293255131964809;0;0;0;1;1;1;1;4;0;0;;0;0;();();(-2000.0, -2000.0);
10:57:42:847;10:57:42:833;1448057620.3;(0.5386913299560547, 0.611627663506402);64.5063095093;1.0;10:57:42:847;0;5;-1.5;1;0.293255131964809;0;0;0;1;1;1;1;4;0;0;;0;0;();();(-2000.0, -2000.0);
10:57:42:880;10:57:42:833;1448057620.3;(0.5386913299560547, 0.611627663506402);64.5063095093;1.0;10:57:42:880;0;4;-1.31612903225806;1;0.293255131964809;0;0;0;1;1;1;1;4;0;0;;0;0;();();(-2000.0, -2000.0);
10:57:42:896;10:57:42:833;1448057620.3;(0.5386913299560547, 0.611627663506402);64.5063095093;1.0;10:57:42:896;0;9;0.0483870967741935;1;0.293255131964809;0;0;0;1;1;1;1;4;0;0;;0;0;();();(-2000.0, -2000.0);
10:57:42:913;10:57:42:897;1448057620.37;(0.5386949062347413, 0.6118515438503689);64.6641159058;1.0;10:57:42:913;0;5;-0.180645161290323;1;0.293255131964809;0;0;0;1;1;1;1;4;0;0;;0;0;();();(-2000.0, -2000.0);
10:57:42:929;10:57:42:897;1448057620.37;(0.5386949062347413, 0.6118515438503689);64.6641159058;1.0;10:57:42:929;0;15;-0.651612903225806;1;0.293255131964809;0;0;0;1;1;1;1;4;0;0;;0;0;();();(-2000.0, -2000.0);
10:57:42:947;10:57:42:897;1448057620.37;(0.5386949062347413, 0.6118515438503689);64.6641159058;1.0;10:57:42:947;0;4;0.27741935483871;1;0.293255131964809;0;0;0;1;1;1;1;4;0;0;;0;0;();();(-2000.0, -2000.0);
10:57:42:979;10:57:42:949;1448057620.43;(0.5386888027191162, 0.6120840708414714);64.6721725464;1.0;10:57:42:979;0;4;1.23225806451613;1;0.293255131964809;0;0;0;1;1;1;1;4;0;0;;0;0;();();(-2000.0, -2000.0);
10:57:42:995;10:57:42:949;1448057620.43;(0.5386888027191162, 0.6120840708414714);64.6721725464;1.0;10:57:42:995;0;10;1.78064516129032;1;0.293255131964809;0;0;0;1;1;1;1;4;0;0;;0;0;();();(-2000.0, -2000.0);
10:57:43:013;10:57:43:005;1448057620.5;(0.5386527061462403, 0.6122184329562717);64.8651046753;1.0;10:57:43:013;0;15;1.78064516129032;1;0.293255131964809;0;0;0;1;1;1;1;4;0;0;;0;0;();();(-2000.0, -2000.0);
10:57:43:029;10:57:43:005;1448057620.5;(0.5386527061462403, 0.6122184329562717);64.8651046753;1.0;10:57:43:029;0;10;1.30645161290323;1;0.293255131964809;0;0;0;1;1;1;1;4;0;0;;0;0;();();(-2000.0, -2000.0);
10:57:43:045;10:57:43:005;1448057620.5;(0.5386527061462403, 0.6122184329562717);64.8651046753;1.0;10:57:43:045;0;10;1.30645161290323;1;0.293255131964809;0;0;0;1;1;1;1;4;0;0;;0;0;();();(-2000.0, -2000.0);
10:57:43:078;10:57:43:065;1448057620.57;(0.5384081363677978, 0.6120185004340277);64.8922348022;1.0;10:57:43:078;0;11;1.78064516129032;1;0.293255131964809;0;0;0;1;1;1;1;4;0;0;;0;0;();();(-2000.0, -2000.0);
10:57:43:095;10:57:43:065;1448057620.57;(0.5384081363677978, 0.6120185004340277);64.8922348022;1.0;10:57:43:094;0;10;1.03870967741935;1;0.293255131964809;0;0;0;1;1;1;1;4;0;0;;0;0;();();(-2000.0, -2000.0);
10:57:43:112;10:57:43:065;1448057620.57;(0.5384081363677978, 0.6120185004340277);64.8922348022;1.0;10:57:43:112;0;4;0.874193548387097;1;0.293255131964809;0;0;0;1;1;1;1;4;0;0;;0;0;();();(-2000.0, -2000.0);
10:57:43:129;10:57:43:121;1448057620.6;(0.5386351108551025, 0.6119321611192492);65.0095748901;1.0;10:57:43:129;0;10;-1.5;1;0.293255131964809;0;0;0;1;1;1;1;4;0;0;;0;0;();();(-2000.0, -2000.0);
10:57:43:161;10:57:43:121;1448057620.6;(0.5386351108551025, 0.6119321611192492);65.0095748901;1.0;10:57:43:161;0;10;-0.00645161290322593;1;0.293255131964809;0;0;0;1;1;1;1;4;0;0;;0;0;();();(-2000.0, -2000.0);
10:57:43:178;10:57:43:121;1448057620.6;(0.5386351108551025, 0.6119321611192492);65.0095748901;1.0;10:57:43:178;0;15;1.28709677419355;1;0.293255131964809;0;0;0;1;1;1;1;4;0;0;;0;0;();();(-2000.0, -2000.0);
10:57:43:194;10:57:43:181;1448057620.67;(0.5385091781616211, 0.6120052337646484);64.6828384399;1.0;10:57:43:194;0;4;1.09032258064516;1;0.293255131964809;0;0;0;1;1;1;1;4;0;0;;0;0;();();(-2000.0, -2000.0);
10:57:43:212;10:57:43:181;1448057620.67;(0.5385091781616211, 0.6120052337646484);64.6828384399;1.0;10:57:43:212;0;15;1.77741935483871;1;0.293255131964809;0;0;0;1;1;1;1;4;0;0;;0;0;();();(-2000.0, -2000.0);
10:57:43:228;10:57:43:181;1448057620.67;(0.5385091781616211, 0.6120052337646484);64.6828384399;1.0;10:57:43:228;0;5;1.79032258064516;1;0.293255131964809;0;0;0;1;1;1;1;4;0;0;;0;0;();();(-2000.0, -2000.0);
10:57:43:261;10:57:43:238;1448057620.7;(0.5381218910217285, 0.6123185475667318);64.1617279053;1.0;10:57:43:261;0;4;1.78064516129032;1;0.684261974584555;0;0;0;1;1;1;1;4;0;0;;0;0;();();(-2000.0, -2000.0);
10:57:43:277;10:57:43:238;1448057620.7;(0.5381218910217285, 0.6123185475667318);64.1617279053;1.0;10:57:43:277;0;15;1.77741935483871;1;0.293255131964809;0;0;0;1;1;1;1;4;0;0;;0;0;();();(-2000.0, -2000.0);
10:57:43:294;10:57:43:238;1448057620.7;(0.5381218910217285, 0.6123185475667318);64.1617279053;1.0;10:57:43:294;0;4;1.78064516129032;1;0.293255131964809;0;0;0;1;1;1;1;4;0;0;;0;0;();();(-2000.0, -2000.0);
10:57:43:310;10:57:43:299;1448057620.77;(0.5381007194519043, 0.6125132666693793);64.3830413818;1.0;10:57:43:310;0;10;0.609677419354838;1;0.293255131964809;0;0;0;1;1;1;1;4;0;0;;0;0;();();(-2000.0, -2000.0);
10:57:43:328;10:57:43:299;1448057620.77;(0.5381007194519043, 0.6125132666693793);64.3830413818;1.0;10:57:43:328;0;4;-0.961290322580645;1;0.293255131964809;0;0;0;1;1;1;1;4;0;0;;0;0;();();(-2000.0, -2000.0);
10:57:43:361;10:57:43:353;1448057620.83;(0.5381595134735108, 0.6123505486382379);64.3506317139;1.0;10:57:43:361;0;4;1.78064516129032;1;0.293255131964809;0;0;0;1;1;1;1;4;0;0;;0;0;();();(-2000.0, -2000.0);
10:57:43:377;10:57:43:353;1448057620.83;(0.5381595134735108, 0.6123505486382379);64.3506317139;1.0;10:57:43:377;0;9;1.78064516129032;1;0.586510263929619;0;0;0;1;1;1;1;4;0;0;;0;0;();();(-2000.0, -2000.0);
10:57:43:393;10:57:43:353;1448057620.83;(0.5381595134735108, 0.6123505486382379);64.3506317139;1.0;10:57:43:393;0;5;1.78064516129032;1;0.293255131964809;0;0;0;1;1;1;1;4;0;0;;0;0;();();(-2000.0, -2000.0);
10:57:43:410;10:57:43:353;1448057620.83;(0.5381595134735108, 0.6123505486382379);64.3506317139;1.0;10:57:43:410;0;10;1.78064516129032;1;0.684261974584555;0;0;0;1;1;1;1;4;0;0;;0;0;();();(-2000.0, -2000.0);
10:57:43:427;10:57:43:413;1448057620.9;(0.5381727695465088, 0.6121247185601129);64.1059951782;1.0;10:57:43:427;0;4;1.77741935483871;1;0.293255131964809;0;0;0;1;1;1;1;4;0;0;;0;0;();();(-2000.0, -2000.0);
10:57:43:459;10:57:43:413;1448057620.9;(0.5381727695465088, 0.6121247185601129);64.1059951782;1.0;10:57:43:459;0;5;-0.119354838709677;1;0.293255131964809;0;0;0;1;1;1;1;4;0;0;;0;0;();();(-2000.0, -2000.0);
10:57:43:476;10:57:43:469;1448057620.93;(0.5383984088897705, 0.6123508029513889);63.9988861084;1.0;10:57:43:476;0;10;1.76129032258065;1;0.293255131964809;0;0;0;1;1;1;1;4;0;0;;0;0;();();(-2000.0, -2000.0);
10:57:43:493;10:57:43:469;1448057620.93;(0.5383984088897705, 0.6123508029513889);63.9988861084;1.0;10:57:43:493;0;4;1.78064516129032;1;0.293255131964809;0;0;0;1;1;1;1;4;0;0;;0;0;();();(-2000.0, -2000.0);
10:57:43:510;10:57:43:469;1448057620.93;(0.5383984088897705, 0.6123508029513889);63.9988861084;1.0;10:57:43:510;0;10;1.76129032258065;1;0.293255131964809;0;0;0;1;1;1;1;4;0;0;;0;0;();();(-2000.0, -2000.0);
10:57:43:526;10:57:43:469;1448057620.93;(0.5383984088897705, 0.6123508029513889);63.9988861084;1.0;10:57:43:526;0;4;1.78064516129032;1;0.293255131964809;0;0;0;1;1;1;1;4;0;0;;0;0;();();(-2000.0, -2000.0);
10:57:43:559;10:57:43:529;1448057621.0;(0.538304615020752, 0.6124095069037543);64.0725250244;1.0;10:57:43:559;0;5;1.76129032258065;1;0.293255131964809;0;0;0;1;1;1;1;4;0;0;;0;0;();();(-2000.0, -2000.0);
10:57:43:576;10:57:43:529;1448057621.0;(0.538304615020752, 0.6124095069037543);64.0725250244;1.0;10:57:43:576;0;10;1.76129032258065;1;0.293255131964809;0;0;0;1;1;1;1;4;0;0;;0;0;();();(-2000.0, -2000.0);
10:57:43:591;10:57:43:585;1448057621.07;(0.5384305477142334, 0.612056393093533);63.6985244751;1.0;10:57:43:591;0;4;1.77741935483871;1;0.293255131964809;0;0;0;1;1;1;1;4;0;0;;0;0;();();(-2000.0, -2000.0);
10:57:43:609;10:57:43:585;1448057621.07;(0.5384305477142334, 0.612056393093533);63.6985244751;1.0;10:57:43:609;0;4;1.78064516129032;1;0.293255131964809;0;0;0;1;1;1;1;4;0;0;;0;0;();();(-2000.0, -2000.0);
10:57:43:647;10:57:43:645;1448057621.1;(0.5382320404052734, 0.6119224972195095);63.8867721558;1.0;10:57:43:647;0;5;-0.319354838709677;1;0.293255131964809;0;0;0;1;1;1;1;6;0;0;;0;0;();();(-2000.0, -2000.0);
10:57:43:659;10:57:43:645;1448057621.1;(0.5382320404052734, 0.6119224972195095);63.8867721558;1.0;10:57:43:659;0;15;-0.625806451612903;1;0.293255131964809;0;0;0;1;1;1;1;6;0;0;;0;0;();();(-2000.0, -2000.0);
10:57:43:675;10:57:43:645;1448057621.1;(0.5382320404052734, 0.6119224972195095);63.8867721558;1.0;10:57:43:675;0;4;1.77741935483871;1;0.293255131964809;0;0;0;1;1;1;1;6;0;0;;0;0;();();(-2000.0, -2000.0);
10:57:43:691;10:57:43:645;1448057621.1;(0.5382320404052734, 0.6119224972195095);63.8867721558;1.0;10:57:43:691;0;15;1.75161290322581;1;0.293255131964809;0;0;0;1;1;1;1;6;0;0;;0;0;();();(-2000.0, -2000.0);
10:57:43:708;10:57:43:701;1448057621.17;(0.5441879272460938, 0.6071459452311199);62.7347602844;1.0;10:57:43:707;0;15;1.75161290322581;1;0.293255131964809;0;0;0;1;1;1;1;6;0;0;;0;0;();();(-2000.0, -2000.0);
10:57:43:741;10:57:43:701;1448057621.17;(0.5441879272460938, 0.6071459452311199);62.7347602844;1.0;10:57:43:741;0;4;0.861290322580645;1;0.293255131964809;0;0;0;1;1;1;1;6;0;0;;0;0;();();(-2000.0, -2000.0);
10:57:43:757;10:57:43:701;1448057621.17;(0.5441879272460938, 0.6071459452311199);62.7347602844;1.0;10:57:43:757;0;15;1.05483870967742;1;0.293255131964809;0;0;0;1;1;1;1;6;0;0;;0;0;();();(-2000.0, -2000.0);
10:57:43:774;10:57:43:762;1448057621.23;(0.5440180778503418, 0.6080437554253473);63.2310752869;1.0;10:57:43:774;0;4;1.33225806451613;1;0.293255131964809;0;0;0;1;1;1;1;6;0;0;;0;0;();();(-2000.0, -2000.0);
10:57:43:791;10:57:43:762;1448057621.23;(0.5440180778503418, 0.6080437554253473);63.2310752869;1.0;10:57:43:791;0;0;0.706451612903225;1;0.293255131964809;0;0;0;1;1;1;1;6;0;0;;0;0;();();(-2000.0, -2000.0);
10:57:43:807;10:57:43:762;1448057621.23;(0.5440180778503418, 0.6080437554253473);63.2310752869;1.0;10:57:43:807;0;5;0.0225806451612902;1;0.293255131964809;0;0;0;1;1;1;1;6;0;0;;0;0;();();(-2000.0, -2000.0);
10:57:43:841;10:57:43:825;1448057621.3;(0.543681001663208, 0.6081393771701389);63.7032623291;1.0;10:57:43:841;0;4;-0.625806451612903;1;0.293255131964809;0;0;0;1;1;1;1;6;0;0;;0;0;();();(-2000.0, -2000.0);
10:57:43:857;10:57:43:825;1448057621.3;(0.543681001663208, 0.6081393771701389);63.7032623291;1.0;10:57:43:857;0;10;0.483870967741936;1;0.293255131964809;0;0;0;1;1;1;1;6;0;0;;0;0;();();(-2000.0, -2000.0);
10:57:43:873;10:57:43:825;1448057621.3;(0.543681001663208, 0.6081393771701389);63.7032623291;1.0;10:57:43:873;0;5;0.558064516129032;1;0.586510263929619;0;0;0;1;1;1;1;6;0;0;;0;0;();();(-2000.0, -2000.0);
10:57:43:890;10:57:43:877;1448057621.37;(0.5437705516815186, 0.6082254197862413);63.9841423035;1.0;10:57:43:890;0;10;0.793548387096774;1;0.293255131964809;0;0;0;1;1;1;1;6;0;0;;0;0;();();(-2000.0, -2000.0);
10:57:43:908;10:57:43:877;1448057621.37;(0.5437705516815186, 0.6082254197862413);63.9841423035;1.0;10:57:43:908;0;4;1.20322580645161;1;0.293255131964809;0;0;0;1;1;1;1;6;0;0;;0;0;();();(-2000.0, -2000.0);
10:57:43:941;10:57:43:937;1448057621.4;(0.5434967041015625, 0.608129162258572);63.8304176331;1.0;10:57:43:941;0;4;-1.5;1;0.293255131964809;0;0;0;1;1;1;1;6;0;0;;0;0;();();(-2000.0, -2000.0);
10:57:43:957;10:57:43:937;1448057621.4;(0.5434967041015625, 0.608129162258572);63.8304176331;1.0;10:57:43:957;0;10;-1.5;1;0.293255131964809;0;0;0;1;1;1;1;6;0;0;;0;0;();();(-2000.0, -2000.0);
10:57:43:973;10:57:43:937;1448057621.4;(0.5434967041015625, 0.608129162258572);63.8304176331;1.0;10:57:43:973;0;15;-1.5;1;0.293255131964809;0;0;0;1;1;1;1;6;0;0;;0;0;();();(-2000.0, -2000.0);
10:57:43:989;10:57:43:937;1448057621.4;(0.5434967041015625, 0.608129162258572);63.8304176331;1.0;10:57:43:989;0;10;-1.5;1;0.293255131964809;0;0;0;1;1;1;1;6;0;0;;0;0;();();(-2000.0, -2000.0);
10:57:44:007;10:57:43:994;1448057621.47;(0.543649435043335, 0.6087769402398003);63.490524292;1.0;10:57:44:007;0;15;-1.45483870967742;1;0.293255131964809;0;0;0;1;1;1;1;6;0;0;;0;0;();();(-2000.0, -2000.0);
10:57:44:040;10:57:43:994;1448057621.47;(0.543649435043335, 0.6087769402398003);63.490524292;1.0;10:57:44:040;0;0;-1.5;1;0.293255131964809;0;0;0;1;1;1;1;6;0;0;;0;0;();();(-2000.0, -2000.0);
10:57:44:056;10:57:44:053;1448057621.53;(0.321830153465271, 0.5252171834309896);27.1832065582;0.608511224435;10:57:44:056;0;10;-1.5;1;0.293255131964809;0;0;0;1;1;1;1;6;0;0;;0;0;();();(-2000.0, -2000.0);
10:57:44:073;10:57:44:053;1448057621.53;(0.321830153465271, 0.5252171834309896);27.1832065582;0.608511224435;10:57:44:073;0;14;-1.4;1;0.293255131964809;0;0;0;1;1;1;1;6;0;0;;0;0;();();(-2000.0, -2000.0);
10:57:44:089;10:57:44:053;1448057621.53;(0.321830153465271, 0.5252171834309896);27.1832065582;0.608511224435;10:57:44:089;0;9;0.138709677419355;1;0.293255131964809;0;0;0;1;1;1;1;6;0;0;;0;0;();();(-2000.0, -2000.0);
10:57:44:106;10:57:44:053;1448057621.53;(0.321830153465271, 0.5252171834309896);27.1832065582;0.608511224435;10:57:44:106;0;0;0.977419354838709;1;0.293255131964809;0;0;0;1;1;1;1;6;0;0;;0;0;();();(-2000.0, -2000.0);
10:57:44:139;10:57:44:109;1448057621.57;(0, 0);0;0;10:57:44:139;0;15;1.41935483870968;1;0.293255131964809;0;0;0;1;1;1;1;6;0;0;;0;0;();();(-2000.0, -2000.0);
10:57:44:156;10:57:44:109;1448057621.57;(0, 0);0;0;10:57:44:156;0;4;0.0870967741935482;1;0.293255131964809;0;0;0;1;1;1;1;6;0;0;;0;0;();();(-2000.0, -2000.0);
10:57:44:172;10:57:44:169;1448057621.6;(0.3024153232574463, 0.5393788655598959);62.9647598267;0.632607826045;10:57:44:172;0;9;-0.303225806451613;1;0.293255131964809;0;0;0;1;1;1;1;6;0;0;;0;0;();();(-2000.0, -2000.0);
10:57:44:188;10:57:44:169;1448057621.6;(0.3024153232574463, 0.5393788655598959);62.9647598267;0.632607826045;10:57:44:188;0;5;0.00645161290322571;1;0.293255131964809;0;0;0;1;1;1;1;6;0;0;;0;0;();();(-2000.0, -2000.0);
10:57:44:222;10:57:44:169;1448057621.6;(0.3024153232574463, 0.5393788655598959);62.9647598267;0.632607826045;10:57:44:222;0;4;0.641935483870967;1;0.293255131964809;0;0;0;1;1;1;1;6;0;0;;0;0;();();(-2000.0, -2000.0);
10:57:44:238;10:57:44:225;1448057621.63;(0.5355238914489746, 0.6280587302313911);66.6700973511;0.60158629732;10:57:44:238;0;9;-0.738709677419355;1;0.293255131964809;0;0;0;1;1;1;1;6;0;0;;0;0;();();(-2000.0, -2000.0);
10:57:44:255;10:57:44:225;1448057621.63;(0.5355238914489746, 0.6280587302313911);66.6700973511;0.60158629732;10:57:44:255;0;4;0.512903225806451;1;0.293255131964809;0;0;0;1;1;1;1;6;0;0;;0;0;();();(-2000.0, -2000.0);
10:57:44:271;10:57:44:225;1448057621.63;(0.5355238914489746, 0.6280587302313911);66.6700973511;0.60158629732;10:57:44:271;0;15;0.67741935483871;1;0.293255131964809;0;0;0;1;1;1;1;6;0;0;;0;0;();();(-2000.0, -2000.0);
10:57:44:288;10:57:44:285;1448057621.77;(0.5400393962860107, 0.6205260806613498);61.4621810913;1.0;10:57:44:288;0;5;0.148387096774194;1;0.293255131964809;0;0;0;1;1;1;1;6;0;0;;0;0;();();(-2000.0, -2000.0);
10:57:44:321;10:57:44:285;1448057621.77;(0.5400393962860107, 0.6205260806613498);61.4621810913;1.0;10:57:44:321;0;9;0.174193548387097;1;0.293255131964809;0;0;0;1;1;1;1;6;0;0;;0;0;();();(-2000.0, -2000.0);
10:57:44:337;10:57:44:285;1448057621.77;(0.5400393962860107, 0.6205260806613498);61.4621810913;1.0;10:57:44:337;0;15;0.538709677419355;1;0.293255131964809;0;0;0;1;1;1;1;6;0;0;;0;0;();();(-2000.0, -2000.0);
10:57:44:354;10:57:44:341;1448057621.83;(0.5405457496643067, 0.620643933614095);61.490146637;1.0;10:57:44:354;0;15;0.538709677419355;1;0.293255131964809;0;0;0;1;1;1;1;6;0;0;;0;0;();();(-2000.0, -2000.0);
10:57:44:370;10:57:44:341;1448057621.83;(0.5405457496643067, 0.620643933614095);61.490146637;1.0;10:57:44:370;0;10;0.551612903225806;1;0.293255131964809;0;0;0;1;1;1;1;6;0;0;;0;0;();();(-2000.0, -2000.0);
10:57:44:387;10:57:44:341;1448057621.83;(0.5405457496643067, 0.620643933614095);61.490146637;1.0;10:57:44:387;0;4;-0.148387096774194;1;0.293255131964809;0;0;0;1;1;1;1;6;0;0;;0;0;();();(-2000.0, -2000.0);
10:57:44:420;10:57:44:401;1448057621.87;(0.5419849395751953, 0.6106763203938802);61.8834762573;1.0;10:57:44:420;0;14;-1.29677419354839;1;0.293255131964809;0;0;0;1;1;1;1;6;0;0;;0;0;();();(-2000.0, -2000.0);
10:57:44:436;10:57:44:401;1448057621.87;(0.5419849395751953, 0.6106763203938802);61.8834762573;1.0;10:57:44:436;0;9;0.609677419354838;1;0.293255131964809;0;0;0;1;1;1;1;6;0;0;;0;0;();();(-2000.0, -2000.0);
10:57:44:454;10:57:44:401;1448057621.87;(0.5419849395751953, 0.6106763203938802);61.8834762573;1.0;10:57:44:454;0;12;0.0483870967741935;1;0.293255131964809;0;0;0;1;1;1;1;6;0;0;;0;0;();();(-2000.0, -2000.0);
10:57:44:471;10:57:44:457;1448057621.93;(0.5420063018798829, 0.6108122083875869);61.8846511841;1.0;10:57:44:471;0;9;-0.519354838709677;1;0.293255131964809;0;0;0;1;1;1;1;6;0;0;;0;0;();();(-2000.0, -2000.0);
10:57:44:487;10:57:44:457;1448057621.93;(0.5420063018798829, 0.6108122083875869);61.8846511841;1.0;10:57:44:487;0;15;1.16129032258065;1;0.293255131964809;0;0;0;1;1;1;1;6;0;0;;0;0;();();(-2000.0, -2000.0);
10:57:44:520;10:57:44:517;1448057622.0;(0.5418455123901367, 0.6106892479790582);61.9609603882;1.0;10:57:44:520;0;15;0.925806451612903;1;0.586510263929619;0;0;0;1;1;1;1;6;0;0;;0;0;();();(-2000.0, -2000.0);
10:57:44:537;10:57:44:517;1448057622.0;(0.5418455123901367, 0.6106892479790582);61.9609603882;1.0;10:57:44:537;0;10;-0.103225806451613;1;0.293255131964809;0;0;0;1;1;1;1;6;0;0;;0;0;();();(-2000.0, -2000.0);
10:57:44:553;10:57:44:517;1448057622.0;(0.5418455123901367, 0.6106892479790582);61.9609603882;1.0;10:57:44:553;0;15;-0.596774193548387;1;0.293255131964809;0;0;0;1;1;1;1;6;0;0;;0;0;();();(-2000.0, -2000.0);
10:57:44:569;10:57:44:517;1448057622.0;(0.5418455123901367, 0.6106892479790582);61.9609603882;1.0;10:57:44:569;0;9;-0.490322580645161;1;0.684261974584555;0;0;0;1;1;1;1;6;0;0;;0;0;();();(-2000.0, -2000.0);
10:57:44:586;10:57:44:573;1448057622.03;(0.5416082859039306, 0.6106884002685546);62.7109565735;1.0;10:57:44:586;0;15;-0.725806451612903;1;0.293255131964809;0;0;0;1;1;1;1;6;0;0;;0;0;();();(-2000.0, -2000.0);
10:57:44:619;10:57:44:573;1448057622.03;(0.5416082859039306, 0.6106884002685546);62.7109565735;1.0;10:57:44:619;0;15;-0.261290322580645;1;0.293255131964809;0;0;0;1;1;1;1;6;0;0;;0;0;();();(-2000.0, -2000.0);
10:57:44:641;10:57:44:633;1448057622.1;(0.5418467044830322, 0.6105716281467014);62.5566596985;1.0;10:57:44:635;0;4;-0.261290322580645;1;0.684261974584555;0;0;0;1;1;1;1;6;0;0;;0;0;();();(-2000.0, -2000.0);
10:57:44:652;10:57:44:633;1448057622.1;(0.5418467044830322, 0.6105716281467014);62.5566596985;1.0;10:57:44:652;0;9;1.05483870967742;1;0.293255131964809;0;0;0;1;1;1;1;6;0;0;;0;0;();();(-2000.0, -2000.0);
10:57:44:670;10:57:44:633;1448057622.1;(0.5418467044830322, 0.6105716281467014);62.5566596985;1.0;10:57:44:670;0;5;0.925806451612903;1;0.293255131964809;0;0;0;1;1;1;1;6;0;0;;0;0;();();(-2000.0, -2000.0);
10:57:44:685;10:57:44:633;1448057622.1;(0.5418467044830322, 0.6105716281467014);62.5566596985;1.0;10:57:44:685;0;10;0.480645161290322;1;0.293255131964809;0;0;0;1;1;1;1;6;0;0;;0;0;();();(-2000.0, -2000.0);
10:57:44:718;10:57:44:689;1448057622.17;(0.5420017242431641, 0.6104996151394314);62.5916023254;1.0;10:57:44:718;0;9;-0.0419354838709678;1;0.293255131964809;0;0;0;1;1;1;1;6;0;0;;0;0;();();(-2000.0, -2000.0);
10:57:44:735;10:57:44:689;1448057622.17;(0.5420017242431641, 0.6104996151394314);62.5916023254;1.0;10:57:44:735;0;4;-0.935483870967742;1;0.293255131964809;0;0;0;1;1;1;1;6;0;0;;0;0;();();(-2000.0, -2000.0);
10:57:44:752;10:57:44:749;1448057622.23;(0.5420545101165771, 0.6104369269476997);62.8375015259;1.0;10:57:44:752;0;10;-1.24516129032258;1;0.293255131964809;0;0;0;1;1;1;1;6;0;0;;0;0;();();(-2000.0, -2000.0);
10:57:44:768;10:57:44:749;1448057622.23;(0.5420545101165771, 0.6104369269476997);62.8375015259;1.0;10:57:44:768;0;6;-1.5;1;0.293255131964809;0;0;0;1;1;1;1;6;0;0;;0;0;();();(-2000.0, -2000.0);
10:57:44:802;10:57:44:749;1448057622.23;(0.5420545101165771, 0.6104369269476997);62.8375015259;1.0;10:57:44:802;0;4;-1.23870967741935;1;0.293255131964809;0;0;0;1;1;1;1;6;0;0;;0;0;();();(-2000.0, -2000.0);
10:57:44:818;10:57:44:806;1448057622.3;(0.5418541431427002, 0.6113150278727213);62.6268463135;1.0;10:57:44:818;0;9;-0.180645161290323;1;0.293255131964809;0;0;0;1;1;1;1;6;0;0;;0;0;();();(-2000.0, -2000.0);
10:57:44:834;10:57:44:806;1448057622.3;(0.5418541431427002, 0.6113150278727213);62.6268463135;1.0;10:57:44:834;0;5;-0.170967741935484;1;0.293255131964809;0;0;0;1;1;1;1;6;0;0;;0;0;();();(-2000.0, -2000.0);
10:57:44:850;10:57:44:806;1448057622.3;(0.5418541431427002, 0.6113150278727213);62.6268463135;1.0;10:57:44:850;0;10;-0.261290322580645;1;0.293255131964809;0;0;0;1;1;1;1;6;0;0;;0;0;();();(-2000.0, -2000.0);
10:57:44:867;10:57:44:865;1448057622.33;(0.5419741153717041, 0.6111317528618707);62.1791419983;1.0;10:57:44:867;0;4;0.0225806451612902;1;0.293255131964809;0;0;0;1;1;1;1;6;0;0;;0;0;();();(-2000.0, -2000.0);
10:57:44:901;10:57:44:865;1448057622.33;(0.5419741153717041, 0.6111317528618707);62.1791419983;1.0;10:57:44:901;0;15;0.641935483870967;1;0.684261974584555;0;0;0;1;1;1;1;6;0;0;;0;0;();();(-2000.0, -2000.0);
10:57:44:917;10:57:44:865;1448057622.33;(0.5419741153717041, 0.6111317528618707);62.1791419983;1.0;10:57:44:917;0;9;1.15806451612903;1;0.293255131964809;0;0;0;1;1;1;1;6;0;0;;0;0;();();(-2000.0, -2000.0);
10:57:44:934;10:57:44:922;1448057622.4;(0.5475737094879151, 0.6065935346815321);61.6487350464;1.0;10:57:44:934;0;15;0.925806451612903;1;0.293255131964809;0;0;0;1;1;1;1;6;0;0;;0;0;();();(-2000.0, -2000.0);
10:57:44:951;10:57:44:922;1448057622.4;(0.5475737094879151, 0.6065935346815321);61.6487350464;1.0;10:57:44:951;0;9;0.251612903225806;1;0.391006842619746;0;0;0;1;1;1;1;6;0;0;;0;0;();();(-2000.0, -2000.0);
10:57:44:968;10:57:44:922;1448057622.4;(0.5475737094879151, 0.6065935346815321);61.6487350464;1.0;10:57:44:968;0;15;-0.238709677419355;1;0.293255131964809;0;0;0;1;1;1;1;6;0;0;;0;0;();();(-2000.0, -2000.0);
10:57:45:001;10:57:44:983;1448057622.47;(0.5477977275848389, 0.6069878896077474);61.6041412354;1.0;10:57:45:001;0;5;0.380645161290323;1;0.293255131964809;0;0;0;1;1;1;1;6;0;0;;0;0;();();(-2000.0, -2000.0);
10:57:45:017;10:57:44:983;1448057622.47;(0.5477977275848389, 0.6069878896077474);61.6041412354;1.0;10:57:45:017;0;10;-0.0548387096774194;1;0.293255131964809;0;0;0;1;1;1;1;6;0;0;;0;0;();();(-2000.0, -2000.0);
10:57:45:033;10:57:44:983;1448057622.47;(0.5477977275848389, 0.6069878896077474);61.6041412354;1.0;10:57:45:033;0;15;0.0870967741935482;1;0.293255131964809;0;0;0;1;1;1;1;6;0;0;;0;0;();();(-2000.0, -2000.0);
10:57:45:050;10:57:45:037;1448057622.5;(0.5476726055145263, 0.6068357255723742);61.4296798706;1.0;10:57:45:050;0;9;0.283870967741935;1;0.293255131964809;0;0;0;1;1;1;1;6;0;0;;0;0;();();(-2000.0, -2000.0);
10:57:45:067;10:57:45:037;1448057622.5;(0.5476726055145263, 0.6068357255723742);61.4296798706;1.0;10:57:45:067;0;15;0.448387096774193;1;0.293255131964809;0;0;0;1;1;1;1;6;0;0;;0;0;();();(-2000.0, -2000.0);
10:57:45:100;10:57:45:097;1448057622.6;(0.5477363586425781, 0.6072204165988498);61.2756385803;1.0;10:57:45:100;0;15;-1.30645161290323;1;0.586510263929619;0;0;0;1;1;1;1;6;0;0;;0;0;();();(-2000.0, -2000.0);
10:57:45:117;10:57:45:097;1448057622.6;(0.5477363586425781, 0.6072204165988498);61.2756385803;1.0;10:57:45:117;0;4;-1.33548387096774;1;0.293255131964809;0;0;0;1;1;1;1;6;0;0;;0;0;();();(-2000.0, -2000.0);
10:57:45:133;10:57:45:097;1448057622.6;(0.5477363586425781, 0.6072204165988498);61.2756385803;1.0;10:57:45:133;0;9;1.0741935483871;1;0.293255131964809;0;0;0;1;1;1;1;6;0;0;;0;0;();();(-2000.0, -2000.0);
10:57:45:149;10:57:45:097;1448057622.6;(0.5477363586425781, 0.6072204165988498);61.2756385803;1.0;10:57:45:149;0;5;0.87741935483871;1;0.293255131964809;0;0;0;1;1;1;1;6;0;0;;0;0;();();(-2000.0, -2000.0);
10:57:45:165;10:57:45:153;1448057622.63;(0.5480683803558349, 0.6072129991319444);61.1725006104;1.0;10:57:45:165;0;15;0.664516129032258;1;0.293255131964809;0;0;0;1;1;1;1;6;0;0;;0;0;();();(-2000.0, -2000.0);
10:57:45:199;10:57:45:153;1448057622.63;(0.5480683803558349, 0.6072129991319444);61.1725006104;1.0;10:57:45:199;0;15;0.851612903225806;1;0.293255131964809;0;0;0;1;1;1;1;6;0;0;;0;0;();();(-2000.0, -2000.0);
10:57:45:215;10:57:45:213;1448057622.7;(0.5481533527374267, 0.6072851816813152);60.93359375;1.0;10:57:45:215;0;4;0.977419354838709;1;0.293255131964809;0;0;0;1;1;1;1;6;0;0;;0;0;();();(-2000.0, -2000.0);
10:57:45:232;10:57:45:213;1448057622.7;(0.5481533527374267, 0.6072851816813152);60.93359375;1.0;10:57:45:232;0;10;0.293548387096774;1;0.293255131964809;0;0;0;1;1;1;1;6;0;0;;0;0;();();(-2000.0, -2000.0);
10:57:45:248;10:57:45:213;1448057622.7;(0.5481533527374267, 0.6072851816813152);60.93359375;1.0;10:57:45:248;0;15;-0.135483870967742;1;0.293255131964809;0;0;0;1;1;1;1;6;0;0;;0;0;();();(-2000.0, -2000.0);
10:57:45:265;10:57:45:213;1448057622.7;(0.5481533527374267, 0.6072851816813152);60.93359375;1.0;10:57:45:265;0;10;1.15806451612903;1;0.293255131964809;0;0;0;1;1;1;1;6;0;0;;0;0;();();(-2000.0, -2000.0);
10:57:45:299;10:57:45:273;1448057622.77;(0.5479904651641846, 0.6074702368842231);60.6556968689;1.0;10:57:45:299;0;9;-0.493548387096774;1;0.293255131964809;0;0;0;1;1;1;1;6;0;0;;0;0;();();(-2000.0, -2000.0);
10:57:45:315;10:57:45:273;1448057622.77;(0.5479904651641846, 0.6074702368842231);60.6556968689;1.0;10:57:45:315;0;5;0.138709677419355;1;0.293255131964809;0;0;0;1;1;1;1;6;0;0;;0;0;();();(-2000.0, -2000.0);
10:57:45:332;10:57:45:329;1448057622.8;(0.5480119228363037, 0.607159169514974);60.2607192993;1.0;10:57:45:332;0;10;0.512903225806451;1;0.293255131964809;0;0;0;1;1;1;1;6;0;0;;0;0;();();(-2000.0, -2000.0);
10:57:45:348;10:57:45:329;1448057622.8;(0.5480119228363037, 0.607159169514974);60.2607192993;1.0;10:57:45:348;0;4;0.196774193548387;1;0.293255131964809;0;0;0;1;1;1;1;6;0;0;;0;0;();();(-2000.0, -2000.0);
10:57:45:381;10:57:45:329;1448057622.8;(0.5480119228363037, 0.607159169514974);60.2607192993;1.0;10:57:45:381;0;4;1.01612903225806;1;0.293255131964809;0;0;0;1;1;1;1;6;0;0;;0;0;();();(-2000.0, -2000.0);
10:57:45:398;10:57:45:389;1448057622.87;(0.5457421779632569, 0.6082359737820096);60.6230201721;1.0;10:57:45:398;0;10;0.435483870967742;1;0.293255131964809;0;0;0;1;1;1;1;6;0;0;;0;0;();();(-2000.0, -2000.0);
10:57:45:416;10:57:45:389;1448057622.87;(0.5457421779632569, 0.6082359737820096);60.6230201721;1.0;10:57:45:416;0;15;0.435483870967742;1;0.293255131964809;0;0;0;1;1;1;1;6;0;0;;0;0;();();(-2000.0, -2000.0);
10:57:45:431;10:57:45:389;1448057622.87;(0.5457421779632569, 0.6082359737820096);60.6230201721;1.0;10:57:45:431;0;10;0.138709677419355;1;0.293255131964809;0;0;0;1;1;1;1;6;0;0;;0;0;();();(-2000.0, -2000.0);
10:57:45:448;10:57:45:446;1448057622.93;(0.5455079555511475, 0.6084946102566189);60.9205970764;1.0;10:57:45:448;0;0;-0.625806451612903;1;0.293255131964809;0;0;0;1;1;1;1;6;0;0;;0;0;();();(-2000.0, -2000.0);
10:57:45:481;10:57:45:446;1448057622.93;(0.5455079555511475, 0.6084946102566189);60.9205970764;1.0;10:57:45:481;0;15;-0.429032258064516;1;0.293255131964809;0;0;0;1;1;1;1;6;0;0;;0;0;();();(-2000.0, -2000.0);
10:57:45:498;10:57:45:446;1448057622.93;(0.5455079555511475, 0.6084946102566189);60.9205970764;1.0;10:57:45:498;0;4;-0.509677419354839;1;0.293255131964809;0;0;0;1;1;1;1;6;0;0;;0;0;();();(-2000.0, -2000.0);
10:57:45:514;10:57:45:510;1448057623.0;(0.5456607341766357, 0.6088628133138021);61.1001853943;1.0;10:57:45:514;0;15;0.380645161290323;1;0.293255131964809;0;0;0;1;1;1;1;6;0;0;;0;0;();();(-2000.0, -2000.0);
10:57:45:530;10:57:45:510;1448057623.0;(0.5456607341766357, 0.6088628133138021);61.1001853943;1.0;10:57:45:530;0;4;-0.841935483870968;1;0.293255131964809;0;0;0;1;1;1;1;6;0;0;;0;0;();();(-2000.0, -2000.0);
10:57:45:547;10:57:45:510;1448057623.0;(0.5456607341766357, 0.6088628133138021);61.1001853943;1.0;10:57:45:547;0;0;1.06774193548387;1;0.293255131964809;0;0;0;1;1;1;1;6;0;0;;0;0;();();(-2000.0, -2000.0);
10:57:45:581;10:57:45:562;1448057623.03;(0.5457050323486328, 0.6080973307291666);61.1271972656;1.0;10:57:45:581;0;15;0.251612903225806;1;0.293255131964809;0;0;0;1;1;1;1;6;0;0;;0;0;();();(-2000.0, -2000.0);
10:57:45:597;10:57:45:562;1448057623.03;(0.5457050323486328, 0.6080973307291666);61.1271972656;1.0;10:57:45:597;0;10;0.293548387096774;1;0.293255131964809;0;0;0;1;1;1;1;6;0;0;;0;0;();();(-2000.0, -2000.0);
10:57:45:613;10:57:45:562;1448057623.03;(0.5457050323486328, 0.6080973307291666);61.1271972656;1.0;10:57:45:613;0;4;-0.0677419354838711;1;0.293255131964809;0;0;0;1;1;1;1;6;0;0;;0;0;();();(-2000.0, -2000.0);
10:57:45:630;10:57:45:621;1448057623.1;(0.5457605361938477, 0.6082526312934028);61.4835777283;1.0;10:57:45:630;0;4;-0.0677419354838711;1;0.293255131964809;0;0;0;1;1;1;1;6;0;0;;0;0;();();(-2000.0, -2000.0);
10:57:45:646;10:57:45:621;1448057623.1;(0.5457605361938477, 0.6082526312934028);61.4835777283;1.0;10:57:45:646;0;10;1.30967741935484;1;0.293255131964809;0;0;0;1;1;1;1;6;0;0;;0;0;();();(-2000.0, -2000.0);
10:57:45:679;10:57:45:677;1448057623.17;(0.545904541015625, 0.6083797030978733);61.1695632935;1.0;10:57:45:679;0;15;0.438709677419355;1;0.293255131964809;0;0;0;1;1;1;1;6;0;0;;0;0;();();(-2000.0, -2000.0);
10:57:45:695;10:57:45:677;1448057623.17;(0.545904541015625, 0.6083797030978733);61.1695632935;1.0;10:57:45:695;0;4;-0.625806451612903;1;0.293255131964809;0;0;0;1;1;1;1;6;0;0;;0;0;();();(-2000.0, -2000.0);
10:57:45:713;10:57:45:677;1448057623.17;(0.545904541015625, 0.6083797030978733);61.1695632935;1.0;10:57:45:713;0;10;0.809677419354839;1;0.293255131964809;0;0;0;1;1;1;1;6;0;0;;0;0;();();(-2000.0, -2000.0);
10:57:45:729;10:57:45:677;1448057623.17;(0.545904541015625, 0.6083797030978733);61.1695632935;1.0;10:57:45:729;0;15;0.893548387096774;1;0.293255131964809;0;0;0;1;1;1;1;6;0;0;;0;0;();();(-2000.0, -2000.0);
10:57:45:746;10:57:45:737;1448057623.23;(0.5453620433807373, 0.608675045437283);61.4164276123;1.0;10:57:45:746;0;10;0.2;1;0.293255131964809;0;0;0;1;1;1;1;6;0;0;;0;0;();();(-2000.0, -2000.0);
10:57:45:779;10:57:45:737;1448057623.23;(0.5453620433807373, 0.608675045437283);61.4164276123;1.0;10:57:45:779;0;9;0.896774193548387;1;0.293255131964809;0;0;0;1;1;1;1;6;0;0;;0;0;();();(-2000.0, -2000.0);
10:57:45:795;10:57:45:793;1448057623.27;(0.5451382637023926, 0.6095194922553169);61.8785972595;1.0;10:57:45:795;0;5;0.770967741935484;1;0.293255131964809;0;0;0;1;1;1;1;6;0;0;;0;0;();();(-2000.0, -2000.0);
10:57:45:812;10:57:45:793;1448057623.27;(0.5451382637023926, 0.6095194922553169);61.8785972595;1.0;10:57:45:812;0;10;1.47096774193548;1;0.293255131964809;0;0;0;1;1;1;1;6;0;0;;0;0;();();(-2000.0, -2000.0);
10:57:45:829;10:57:45:793;1448057623.27;(0.5451382637023926, 0.6095194922553169);61.8785972595;1.0;10:57:45:829;0;4;0.587096774193548;1;0.586510263929619;0;0;0;1;1;1;1;6;0;0;;0;0;();();(-2000.0, -2000.0);
10:57:45:846;10:57:45:793;1448057623.27;(0.5451382637023926, 0.6095194922553169);61.8785972595;1.0;10:57:45:846;0;10;0.74516129032258;1;0.293255131964809;0;0;0;1;1;1;1;6;0;0;;0;0;();();(-2000.0, -2000.0);
10:57:45:878;10:57:45:853;1448057623.33;(0.54508056640625, 0.6091029273139106);61.3728485107;1.0;10:57:45:878;0;10;0.896774193548387;1;0.293255131964809;0;0;0;1;1;1;1;6;0;0;;0;0;();();(-2000.0, -2000.0);
10:57:45:894;10:57:45:853;1448057623.33;(0.54508056640625, 0.6091029273139106);61.3728485107;1.0;10:57:45:894;0;5;0.654838709677419;1;0.293255131964809;0;0;0;1;1;1;1;6;0;0;;0;0;();();(-2000.0, -2000.0);
10:57:45:911;10:57:45:910;1448057623.4;(0.5450406074523926, 0.6090692732069227);61.5519943237;1.0;10:57:45:911;0;10;0.00967741935483857;1;0.293255131964809;0;0;0;1;1;1;1;6;0;0;;0;0;();();(-2000.0, -2000.0);
