%Timestamp,timestamp_write;timestamp_gotpupil;eyetrackertime;norm_pos;diameter;confidence;timestamp_gotbitdata;CRC;SEQ;AnalogOutp1;AnalogOutp2;AnalogOutp3;AnalogOutp4;AnalogOutp5;AnalogOutp6;DigitalOutp1;DigitalOutp2;igitalOutp3;DigitalOutp4;nplanes;lastaction;lastactiondetails;lastactionairplanenumber;positivescore;negativescore;collidedairplanenumbers;targetpositions;collision_point
04:28:17:735;04:28:17:714;1448034255.75;(0.3913935422897339, 0.741041013929579);19.5445652008;0.937240512594;;;;;;;;;;;;;;0;0;0;;0;0;();();(0.0, 0.0);
04:28:17:739;04:28:17:714;1448034255.75;(0.3913935422897339, 0.741041013929579);19.5445652008;0.937240512594;;;;;;;;;;;;;;0;0;0;;0;0;();();(-2000.0, -2000.0);
04:28:17:739;04:28:17:714;1448034255.75;(0.3913935422897339, 0.741041013929579);19.5445652008;0.937240512594;;;;;;;;;;;;;;0;0;0;;0;0;();();(-2000.0, -2000.0);
04:28:17:739;04:28:17:714;1448034255.75;(0.3913935422897339, 0.741041013929579);19.5445652008;0.937240512594;;;;;;;;;;;;;;0;0;0;;0;0;();();(-2000.0, -2000.0);
04:28:17:740;04:28:17:714;1448034255.75;(0.3913935422897339, 0.741041013929579);19.5445652008;0.937240512594;;;;;;;;;;;;;;0;0;0;;0;0;();();(-2000.0, -2000.0);
04:28:17:740;04:28:17:714;1448034255.75;(0.3913935422897339, 0.741041013929579);19.5445652008;0.937240512594;;;;;;;;;;;;;;0;0;0;;0;0;();();(-2000.0, -2000.0);
04:28:17:740;04:28:17:714;1448034255.75;(0.3913935422897339, 0.741041013929579);19.5445652008;0.937240512594;;;;;;;;;;;;;;0;0;0;;0;0;();();(-2000.0, -2000.0);
04:28:17:740;04:28:17:714;1448034255.75;(0.3913935422897339, 0.741041013929579);19.5445652008;0.937240512594;;;;;;;;;;;;;;0;0;0;;0;0;();();(-2000.0, -2000.0);
04:28:17:741;04:28:17:714;1448034255.75;(0.3913935422897339, 0.741041013929579);19.5445652008;0.937240512594;;;;;;;;;;;;;;0;0;0;;0;0;();();(-2000.0, -2000.0);
04:28:17:741;04:28:17:714;1448034255.75;(0.3913935422897339, 0.741041013929579);19.5445652008;0.937240512594;;;;;;;;;;;;;;0;0;0;;0;0;();();(-2000.0, -2000.0);
04:28:17:741;04:28:17:714;1448034255.75;(0.3913935422897339, 0.741041013929579);19.5445652008;0.937240512594;;;;;;;;;;;;;;0;0;0;;0;0;();();(-2000.0, -2000.0);
04:28:17:741;04:28:17:714;1448034255.75;(0.3913935422897339, 0.741041013929579);19.5445652008;0.937240512594;;;;;;;;;;;;;;0;0;0;;0;0;();();(-2000.0, -2000.0);
04:28:17:742;04:28:17:714;1448034255.75;(0.3913935422897339, 0.741041013929579);19.5445652008;0.937240512594;;;;;;;;;;;;;;0;0;0;;0;0;();();(-2000.0, -2000.0);
04:28:17:742;04:28:17:714;1448034255.75;(0.3913935422897339, 0.741041013929579);19.5445652008;0.937240512594;;;;;;;;;;;;;;0;0;0;;0;0;();();(-2000.0, -2000.0);
04:28:17:742;04:28:17:714;1448034255.75;(0.3913935422897339, 0.741041013929579);19.5445652008;0.937240512594;;;;;;;;;;;;;;0;0;0;;0;0;();();(-2000.0, -2000.0);
04:28:17:742;04:28:17:714;1448034255.75;(0.3913935422897339, 0.741041013929579);19.5445652008;0.937240512594;;;;;;;;;;;;;;0;0;0;;0;0;();();(-2000.0, -2000.0);
04:28:17:765;04:28:17:714;1448034255.75;(0.3913935422897339, 0.741041013929579);19.5445652008;0.937240512594;;;;;;;;;;;;;;0;0;0;;0;0;();();(-2000.0, -2000.0);
04:28:17:765;04:28:17:714;1448034255.75;(0.3913935422897339, 0.741041013929579);19.5445652008;0.937240512594;;;;;;;;;;;;;;0;0;0;;0;0;();();(-2000.0, -2000.0);
04:28:17:782;04:28:17:714;1448034255.75;(0.3913935422897339, 0.741041013929579);19.5445652008;0.937240512594;;;;;;;;;;;;;;0;0;0;;0;0;();();(-2000.0, -2000.0);
04:28:17:815;04:28:17:714;1448034255.75;(0.3913935422897339, 0.741041013929579);19.5445652008;0.937240512594;;;;;;;;;;;;;;0;0;0;;0;0;();();(-2000.0, -2000.0);
04:28:17:832;04:28:17:714;1448034255.75;(0.3913935422897339, 0.741041013929579);19.5445652008;0.937240512594;;;;;;;;;;;;;;0;0;0;;0;0;();();(-2000.0, -2000.0);
04:28:17:849;04:28:17:714;1448034255.75;(0.3913935422897339, 0.741041013929579);19.5445652008;0.937240512594;;;;;;;;;;;;;;0;0;0;;0;0;();();(-2000.0, -2000.0);
04:28:17:865;04:28:17:714;1448034255.75;(0.3913935422897339, 0.741041013929579);19.5445652008;0.937240512594;;;;;;;;;;;;;;0;0;0;;0;0;();();(-2000.0, -2000.0);
04:28:17:898;04:28:17:881;1448034255.77;(0.6092602729797363, 0.6456539154052734);70.4888916016;1.0;;;;;;;;;;;;;;0;0;0;;0;0;();();(-2000.0, -2000.0);
04:28:17:914;04:28:17:881;1448034255.77;(0.6092602729797363, 0.6456539154052734);70.4888916016;1.0;;;;;;;;;;;;;;0;0;0;;0;0;();();(-2000.0, -2000.0);
04:28:17:930;04:28:17:881;1448034255.77;(0.6092602729797363, 0.6456539154052734);70.4888916016;1.0;;;;;;;;;;;;;;0;0;0;;0;0;();();(-2000.0, -2000.0);
04:28:17:947;04:28:17:881;1448034255.77;(0.6092602729797363, 0.6456539154052734);70.4888916016;1.0;;;;;;;;;;;;;;0;0;0;;0;0;();();(-2000.0, -2000.0);
04:28:17:964;04:28:17:881;1448034255.77;(0.6092602729797363, 0.6456539154052734);70.4888916016;1.0;;;;;;;;;;;;;;0;0;0;;0;0;();();(-2000.0, -2000.0);
04:28:17:997;04:28:17:881;1448034255.77;(0.6092602729797363, 0.6456539154052734);70.4888916016;1.0;;;;;;;;;;;;;;0;0;0;;0;0;();();(-2000.0, -2000.0);
04:28:18:014;04:28:17:881;1448034255.77;(0.6092602729797363, 0.6456539154052734);70.4888916016;1.0;;;;;;;;;;;;;;0;0;0;;0;0;();();(-2000.0, -2000.0);
04:28:18:030;04:28:18:027;1448034255.95;(0.6064366817474365, 0.6532116995917426);70.7050628662;1.0;;;;;;;;;;;;;;0;0;0;;0;0;();();(-2000.0, -2000.0);
04:28:18:047;04:28:18:045;1448034256.09;(0.608420991897583, 0.6571158727010091);68.6358795166;0.99627398242;;;;;;;;;;;;;;0;0;0;;0;0;();();(-2000.0, -2000.0);
04:28:18:064;04:28:18:045;1448034256.09;(0.608420991897583, 0.6571158727010091);68.6358795166;0.99627398242;;;;;;;;;;;;;;0;0;0;;0;0;();();(-2000.0, -2000.0);
04:28:18:096;04:28:18:045;1448034256.09;(0.608420991897583, 0.6571158727010091);68.6358795166;0.99627398242;;;;;;;;;;;;;;0;0;0;;0;0;();();(-2000.0, -2000.0);
04:28:18:113;04:28:18:045;1448034256.09;(0.608420991897583, 0.6571158727010091);68.6358795166;0.99627398242;;;;;;;;;;;;;;0;0;0;;0;0;();();(-2000.0, -2000.0);
04:28:18:130;04:28:18:129;1448034256.18;(0.6406879901885987, 0.6438352584838867);66.7906494141;0.915206793795;;;;;;;;;;;;;;0;0;0;;0;0;();();(-2000.0, -2000.0);
04:28:18:146;04:28:18:129;1448034256.18;(0.6406879901885987, 0.6438352584838867);66.7906494141;0.915206793795;;;;;;;;;;;;;;0;0;0;;0;0;();();(-2000.0, -2000.0);
04:28:18:163;04:28:18:129;1448034256.18;(0.6406879901885987, 0.6438352584838867);66.7906494141;0.915206793795;;;;;;;;;;;;;;0;0;0;;0;0;();();(-2000.0, -2000.0);
04:28:18:196;04:28:18:169;1448034256.2;(0.6405567646026611, 0.6456608030531141);66.2128143311;0.980598580979;;;;;;;;;;;;;;0;0;0;;0;0;();();(-2000.0, -2000.0);
04:28:18:213;04:28:18:211;1448034256.29;(0.6387727737426758, 0.6492879867553711);66.2185058594;1.0;;;;;;;;;;;;;;0;0;0;;0;0;();();(-2000.0, -2000.0);
04:28:18:230;04:28:18:211;1448034256.29;(0.6387727737426758, 0.6492879867553711);66.2185058594;1.0;;;;;;;;;;;;;;0;0;0;;0;0;();();(-2000.0, -2000.0);
04:28:18:246;04:28:18:211;1448034256.29;(0.6387727737426758, 0.6492879867553711);66.2185058594;1.0;;;;;;;;;;;;;;0;0;0;;0;0;();();(-2000.0, -2000.0);
04:28:18:262;04:28:18:211;1448034256.29;(0.6387727737426758, 0.6492879867553711);66.2185058594;1.0;;;;;;;;;;;;;;0;0;0;;0;0;();();(-2000.0, -2000.0);
04:28:18:295;04:28:18:211;1448034256.29;(0.6387727737426758, 0.6492879867553711);66.2185058594;1.0;;;;;;;;;;;;;;0;0;0;;0;0;();();(-2000.0, -2000.0);
04:28:18:312;04:28:18:306;1448034256.36;(0.6380451202392579, 0.6505214479234483);65.9694976807;1.0;;;;;;;;;;;;;;0;0;0;;0;0;();();(-2000.0, -2000.0);
04:28:18:329;04:28:18:306;1448034256.36;(0.6380451202392579, 0.6505214479234483);65.9694976807;1.0;;;;;;;;;;;;;;0;0;0;;0;0;();();(-2000.0, -2000.0);
04:28:18:345;04:28:18:341;1448034256.39;(0.6378151893615722, 0.6507180955674914);66.0906448364;1.0;;;;;;;;;;;;;;0;0;0;;0;0;();();(-2000.0, -2000.0);
04:28:18:361;04:28:18:341;1448034256.39;(0.6378151893615722, 0.6507180955674914);66.0906448364;1.0;;;;;;;;;;;;;;0;0;0;;0;0;();();(-2000.0, -2000.0);
04:28:18:394;04:28:18:341;1448034256.39;(0.6378151893615722, 0.6507180955674914);66.0906448364;1.0;;;;;;;;;;;;;;0;0;0;;0;0;();();(-2000.0, -2000.0);
04:28:18:411;04:28:18:341;1448034256.39;(0.6378151893615722, 0.6507180955674914);66.0906448364;1.0;;;;;;;;;;;;;;0;0;0;;0;0;();();(-2000.0, -2000.0);
04:28:18:429;04:28:18:417;1448034256.46;(0.6279661178588867, 0.6629067526923286);66.7824630737;0.988860481906;;;;;;;;;;;;;;0;0;0;;0;0;();();(-2000.0, -2000.0);
04:28:18:444;04:28:18:417;1448034256.46;(0.6279661178588867, 0.6629067526923286);66.7824630737;0.988860481906;;;;;;;;;;;;;;0;0;0;;0;0;();();(-2000.0, -2000.0);
04:28:18:478;04:28:18:462;1448034256.53;(0.6282455921173096, 0.6645782258775499);66.3494033813;1.0;;;;;;;;;;;;;;0;0;0;;0;0;();();(-2000.0, -2000.0);
04:28:18:494;04:28:18:462;1448034256.53;(0.6282455921173096, 0.6645782258775499);66.3494033813;1.0;;;;;;;;;;;;;;0;0;0;;0;0;();();(-2000.0, -2000.0);
04:28:18:511;04:28:18:501;1448034256.56;(0.6279200553894043, 0.6650624593098958);66.8874893188;1.0;;;;;;;;;;;;;;0;0;0;;0;0;();();(-2000.0, -2000.0);
04:28:18:527;04:28:18:501;1448034256.56;(0.6279200553894043, 0.6650624593098958);66.8874893188;1.0;;;;;;;;;;;;;;0;0;0;;0;0;();();(-2000.0, -2000.0);
04:28:18:544;04:28:18:501;1448034256.56;(0.6279200553894043, 0.6650624593098958);66.8874893188;1.0;;;;;;;;;;;;;;0;0;0;;0;0;();();(-2000.0, -2000.0);
04:28:18:577;04:28:18:501;1448034256.56;(0.6279200553894043, 0.6650624593098958);66.8874893188;1.0;;;;;;;;;;;;;;0;0;0;;0;0;();();(-2000.0, -2000.0);
04:28:18:594;04:28:18:501;1448034256.56;(0.6279200553894043, 0.6650624593098958);66.8874893188;1.0;;;;;;;;;;;;;;0;0;0;;0;0;();();(-2000.0, -2000.0);
04:28:18:611;04:28:18:595;1448034256.66;(0.6274206638336182, 0.6654337777031792);67.6805953979;1.0;;;;;;;;;;;;;;0;0;0;;0;0;();();(-2000.0, -2000.0);
04:28:18:626;04:28:18:595;1448034256.66;(0.6274206638336182, 0.6654337777031792);67.6805953979;1.0;;;;;;;;;;;;;;0;0;0;;0;0;();();(-2000.0, -2000.0);
04:28:18:643;04:28:18:628;1448034256.69;(0.627947998046875, 0.6653255038791233);67.6666870117;1.0;;;;;;;;;;;;;;0;0;0;;0;0;();();(-2000.0, -2000.0);
04:28:18:677;04:28:18:628;1448034256.69;(0.627947998046875, 0.6653255038791233);67.6666870117;1.0;;;;;;;;;;;;;;0;0;0;;0;0;();();(-2000.0, -2000.0);
04:28:18:693;04:28:18:628;1448034256.69;(0.627947998046875, 0.6653255038791233);67.6666870117;1.0;;;;;;;;;;;;;;0;0;0;;0;0;();();(-2000.0, -2000.0);
04:28:18:709;04:28:18:709;1448034256.73;(0.3512611150741577, 0.7928762435913086);26.6485214233;0.894996102984;;;;;;;;;;;;;;0;0;0;;0;0;();();(-2000.0, -2000.0);
04:28:18:725;04:28:18:709;1448034256.73;(0.3512611150741577, 0.7928762435913086);26.6485214233;0.894996102984;;;;;;;;;;;;;;0;0;0;;0;0;();();(-2000.0, -2000.0);
04:28:18:744;04:28:18:709;1448034256.73;(0.3512611150741577, 0.7928762435913086);26.6485214233;0.894996102984;;;;;;;;;;;;;;0;0;0;;0;0;();();(-2000.0, -2000.0);
04:28:18:775;04:28:18:767;1448034256.8;(0.34144206047058107, 0.7999834908379448);31.9535140991;0.700383181519;;;;;;;;;;;;;;0;0;0;;0;0;();();(-2000.0, -2000.0);
04:28:18:793;04:28:18:767;1448034256.8;(0.34144206047058107, 0.7999834908379448);31.9535140991;0.700383181519;;;;;;;;;;;;;;0;0;0;;0;0;();();(-2000.0, -2000.0);
04:28:18:809;04:28:18:793;1448034256.83;(0.5910728931427002, 0.6798060099283854);68.1410675049;0.874652523323;;;;;;;;;;;;;;0;0;0;;0;0;();();(-2000.0, -2000.0);
04:28:18:825;04:28:18:793;1448034256.83;(0.5910728931427002, 0.6798060099283854);68.1410675049;0.874652523323;;;;;;;;;;;;;;0;0;0;;0;0;();();(-2000.0, -2000.0);
04:28:18:842;04:28:18:793;1448034256.83;(0.5910728931427002, 0.6798060099283854);68.1410675049;0.874652523323;;;;;;;;;;;;;;0;0;0;;0;0;();();(-2000.0, -2000.0);
04:28:18:875;04:28:18:793;1448034256.83;(0.5910728931427002, 0.6798060099283854);68.1410675049;0.874652523323;;;;;;;;;;;;;;0;0;0;;0;0;();();(-2000.0, -2000.0);
04:28:18:892;04:28:18:891;1448034256.93;(0.5907117366790772, 0.6801979276869032);69.1209335327;1.0;;;;;;;;;;;;;;0;0;0;;0;0;();();(-2000.0, -2000.0);
04:28:18:908;04:28:18:891;1448034256.93;(0.5907117366790772, 0.6801979276869032);69.1209335327;1.0;;;;;;;;;;;;;;0;0;0;;0;0;();();(-2000.0, -2000.0);
04:28:18:925;04:28:18:917;1448034256.96;(0.5908017635345459, 0.6804354137844509);69.1385803223;1.0;;;;;;;;;;;;;;0;0;0;;0;0;();();(-2000.0, -2000.0);
04:28:18:958;04:28:18:957;1448034256.99;(0.3413276672363281, 0.8056179258558485);33.8528442383;0.658877034758;;;;;;;;;;;;;;0;0;0;;0;0;();();(-2000.0, -2000.0);
04:28:18:974;04:28:18:957;1448034256.99;(0.3413276672363281, 0.8056179258558485);33.8528442383;0.658877034758;;;;;;;;;;;;;;0;0;0;;0;0;();();(-2000.0, -2000.0);
04:28:18:991;04:28:18:957;1448034256.99;(0.3413276672363281, 0.8056179258558485);33.8528442383;0.658877034758;;;;;;;;;;;;;;0;0;0;;0;0;();();(-2000.0, -2000.0);
04:28:19:008;04:28:19:001;1448034257.03;(0.6055197715759277, 0.720624287923177);71.4930801392;0.757178657459;;;;;;;;;;;;;;0;0;0;;0;0;();();(-2000.0, -2000.0);
04:28:19:025;04:28:19:001;1448034257.03;(0.6055197715759277, 0.720624287923177);71.4930801392;0.757178657459;;;;;;;;;;;;;;0;0;0;;0;0;();();(-2000.0, -2000.0);
04:28:19:057;04:28:19:054;1448034257.07;(0.2847241163253784, 0.7342147827148438);24.8854961395;1.0;;;;;;;;;;;;;;0;0;0;;0;0;();();(-2000.0, -2000.0);
04:28:19:075;04:28:19:062;1448034257.1;(0.34983580112457274, 0.8664184040493436);41.668598175;0.62560237263;;;;;;;;;;;;;;0;0;0;;0;0;();();(-2000.0, -2000.0);
04:28:19:090;04:28:19:083;1448034257.13;(0.34957337379455566, 0.8684430652194552);41.3394546509;0.611437882992;;;;;;;;;;;;;;0;0;0;;0;0;();();(-2000.0, -2000.0);
04:28:19:108;04:28:19:083;1448034257.13;(0.34957337379455566, 0.8684430652194552);41.3394546509;0.611437882992;;;;;;;;;;;;;;0;0;0;;0;0;();();(-2000.0, -2000.0);
04:28:19:124;04:28:19:083;1448034257.13;(0.34957337379455566, 0.8684430652194552);41.3394546509;0.611437882992;;;;;;;;;;;;;;0;0;0;;0;0;();();(-2000.0, -2000.0);
04:28:19:157;04:28:19:083;1448034257.13;(0.34957337379455566, 0.8684430652194552);41.3394546509;0.611437882992;;;;;;;;;;;;;;0;0;0;;0;0;();();(-2000.0, -2000.0);
04:28:19:173;04:28:19:083;1448034257.13;(0.34957337379455566, 0.8684430652194552);41.3394546509;0.611437882992;;;;;;;;;;;;;;0;0;0;;0;0;();();(-2000.0, -2000.0);
04:28:19:190;04:28:19:186;1448034257.19;(0.6129642963409424, 0.722570292154948);67.2035827637;0.941798987898;;;;;;;;;;;;;;0;0;0;;0;0;();();(-2000.0, -2000.0);
04:28:19:207;04:28:19:186;1448034257.19;(0.6129642963409424, 0.722570292154948);67.2035827637;0.941798987898;;;;;;;;;;;;;;0;0;0;;0;0;();();(-2000.0, -2000.0);
04:28:19:223;04:28:19:218;1448034257.26;(0.612645959854126, 0.7221563127305772);66.568069458;0.917399640857;;;;;;;;;;;;;;0;0;0;;0;0;();();(-2000.0, -2000.0);
04:28:19:256;04:28:19:251;1448034257.29;(0.6127255439758301, 0.7220289442274306);66.0884399414;1.0;;;;;;;;;;;;;;0;0;0;;0;0;();();(-2000.0, -2000.0);
04:28:19:273;04:28:19:251;1448034257.29;(0.6127255439758301, 0.7220289442274306);66.0884399414;1.0;;;;;;;;;;;;;;0;0;0;;0;0;();();(-2000.0, -2000.0);
04:28:19:289;04:28:19:289;1448034257.33;(0.6125277042388916, 0.7211273405287001);66.2149276733;0.968360701399;;;;;;;;;;;;;;0;0;0;;0;0;();();(-2000.0, -2000.0);
04:28:19:307;04:28:19:289;1448034257.36;(0.6125057697296142, 0.7210132598876953);66.0917434692;0.979495661483;;;;;;;;;;;;;;0;0;0;;0;0;();();(-2000.0, -2000.0);
04:28:19:322;04:28:19:289;1448034257.36;(0.6125057697296142, 0.7210132598876953);66.0917434692;0.979495661483;;;;;;;;;;;;;;0;0;0;;0;0;();();(-2000.0, -2000.0);
04:28:19:355;04:28:19:330;1448034257.39;(0.34963407516479494, 0.8710093180338542);39.5800247192;0.715857446895;;;;;;;;;;;;;;0;0;0;;0;0;();();(-2000.0, -2000.0);
04:28:19:372;04:28:19:330;1448034257.39;(0.34963407516479494, 0.8710093180338542);39.5800247192;0.715857446895;;;;;;;;;;;;;;0;0;0;;0;0;();();(-2000.0, -2000.0);
04:28:19:389;04:28:19:373;1448034257.42;(0.34972825050354006, 0.869886122809516);39.5307197571;0.751565031622;;;;;;;;;;;;;;0;0;0;;0;0;();();(-2000.0, -2000.0);
04:28:19:405;04:28:19:373;1448034257.42;(0.34972825050354006, 0.869886122809516);39.5307197571;0.751565031622;;;;;;;;;;;;;;0;0;0;;0;0;();();(-2000.0, -2000.0);
04:28:19:422;04:28:19:373;1448034257.42;(0.34972825050354006, 0.869886122809516);39.5307197571;0.751565031622;;;;;;;;;;;;;;0;0;0;;0;0;();();(-2000.0, -2000.0);
04:28:19:455;04:28:19:373;1448034257.42;(0.34972825050354006, 0.869886122809516);39.5307197571;0.751565031622;;;;;;;;;;;;;;0;0;0;;0;0;();();(-2000.0, -2000.0);
04:28:19:472;04:28:19:373;1448034257.42;(0.34972825050354006, 0.869886122809516);39.5307197571;0.751565031622;;;;;;;;;;;;;;0;0;0;;0;0;();();(-2000.0, -2000.0);
04:28:19:489;04:28:19:474;1448034257.52;(0.6172788619995118, 0.7140330844455295);66.1045227051;1.0;;;;;;;;;;;;;;0;0;0;;0;0;();();(-2000.0, -2000.0);
04:28:19:504;04:28:19:497;1448034257.56;(0.6173511028289795, 0.7134460025363498);66.1923980713;1.0;;;;;;;;;;;;;;0;0;0;;0;0;();();(-2000.0, -2000.0);
04:28:19:538;04:28:19:497;1448034257.56;(0.6173511028289795, 0.7134460025363498);66.1923980713;1.0;;;;;;;;;;;;;;0;0;0;;0;0;();();(-2000.0, -2000.0);
04:28:19:554;04:28:19:541;1448034257.59;(0.6170566082000732, 0.7133535808987088);66.9856719971;1.0;;;;;;;;;;;;;;0;0;0;;0;0;();();(-2000.0, -2000.0);
04:28:19:571;04:28:19:541;1448034257.59;(0.6170566082000732, 0.7133535808987088);66.9856719971;1.0;;;;;;;;;;;;;;0;0;0;;0;0;();();(-2000.0, -2000.0);
04:28:19:588;04:28:19:541;1448034257.59;(0.6170566082000732, 0.7133535808987088);66.9856719971;1.0;;;;;;;;;;;;;;0;0;0;;0;0;();();(-2000.0, -2000.0);
04:28:19:604;04:28:19:541;1448034257.59;(0.6170566082000732, 0.7133535808987088);66.9856719971;1.0;;;;;;;;;;;;;;0;0;0;;0;0;();();(-2000.0, -2000.0);
04:28:19:637;04:28:19:622;1448034257.62;(0.3477839708328247, 0.8590656492445203);39.2272949219;0.630798699104;;;;;;;;;;;;;;0;0;0;;0;0;();();(-2000.0, -2000.0);
04:28:19:654;04:28:19:622;1448034257.62;(0.3477839708328247, 0.8590656492445203);39.2272949219;0.630798699104;;;;;;;;;;;;;;0;0;0;;0;0;();();(-2000.0, -2000.0);
04:28:19:670;04:28:19:622;1448034257.62;(0.3477839708328247, 0.8590656492445203);39.2272949219;0.630798699104;;;;;;;;;;;;;;0;0;0;;0;0;();();(-2000.0, -2000.0);
04:28:19:687;04:28:19:622;1448034257.62;(0.3477839708328247, 0.8590656492445203);39.2272949219;0.630798699104;;;;;;;;;;;;;;0;0;0;;0;0;();();(-2000.0, -2000.0);
04:28:19:703;04:28:19:622;1448034257.62;(0.3477839708328247, 0.8590656492445203);39.2272949219;0.630798699104;;;;;;;;;;;;;;0;0;0;;0;0;();();(-2000.0, -2000.0);
04:28:19:736;04:28:19:622;1448034257.62;(0.3477839708328247, 0.8590656492445203);39.2272949219;0.630798699104;;;;;;;;;;;;;;0;0;0;;0;0;();();(-2000.0, -2000.0);
04:28:19:753;04:28:19:622;1448034257.62;(0.3477839708328247, 0.8590656492445203);39.2272949219;0.630798699104;;;;;;;;;;;;;;0;0;0;;0;0;();();(-2000.0, -2000.0);
04:28:19:770;04:28:19:763;1448034257.82;(0.6133305072784424, 0.6526648627387153);69.401008606;0.990919056707;;;;;;;;;;;;;;0;0;0;;0;0;();();(-2000.0, -2000.0);
04:28:19:786;04:28:19:763;1448034257.82;(0.6133305072784424, 0.6526648627387153);69.401008606;0.990919056707;;;;;;;;;;;;;;0;0;0;;0;0;();();(-2000.0, -2000.0);
04:28:19:803;04:28:19:789;1448034257.86;(0.6129304885864257, 0.6547346115112305);70.0567398071;1.0;;;;;;;;;;;;;;0;0;0;;0;0;();();(-2000.0, -2000.0);
04:28:19:836;04:28:19:834;1448034257.89;(0.6123492240905761, 0.6551511976453993);70.0638961792;1.0;;;;;;;;;;;;;;0;0;0;;0;0;();();(-2000.0, -2000.0);
04:28:19:853;04:28:19:834;1448034257.89;(0.6123492240905761, 0.6551511976453993);70.0638961792;1.0;;;;;;;;;;;;;;0;0;0;;0;0;();();(-2000.0, -2000.0);
04:28:19:870;04:28:19:834;1448034257.89;(0.6123492240905761, 0.6551511976453993);70.0638961792;1.0;;;;;;;;;;;;;;0;0;0;;0;0;();();(-2000.0, -2000.0);
04:28:19:885;04:28:19:885;1448034257.92;(0.6087648868560791, 0.6543654123942058);69.4486846924;1.0;;;;;;;;;;;;;;0;0;0;;0;0;();();(-2000.0, -2000.0);
04:28:19:902;04:28:19:885;1448034257.92;(0.6087648868560791, 0.6543654123942058);69.4486846924;1.0;;;;;;;;;;;;;;0;0;0;;0;0;();();(-2000.0, -2000.0);
04:28:19:935;04:28:19:913;1448034257.96;(0.7583220481872559, 0.520865461561415);27.1256332397;0.726485477231;;;;;;;;;;;;;;0;0;0;;0;0;();();(-2000.0, -2000.0);
04:28:19:952;04:28:19:913;1448034257.96;(0.7583220481872559, 0.520865461561415);27.1256332397;0.726485477231;;;;;;;;;;;;;;0;0;0;;0;0;();();(-2000.0, -2000.0);
04:28:19:969;04:28:19:953;1448034257.99;(0, 0);0;0;;;;;;;;;;;;;;0;0;0;;0;0;();();(-2000.0, -2000.0);
04:28:19:986;04:28:19:953;1448034257.99;(0, 0);0;0;;;;;;;;;;;;;;0;0;0;;0;0;();();(-2000.0, -2000.0);
04:28:20:003;04:28:19:953;1448034257.99;(0, 0);0;0;;;;;;;;;;;;;;0;0;0;;0;0;();();(-2000.0, -2000.0);
04:28:20:035;04:28:19:953;1448034257.99;(0, 0);0;0;;;;;;;;;;;;;;0;0;0;;0;0;();();(-2000.0, -2000.0);
04:28:20:051;04:28:20:051;1448034258.06;(0.6463395595550537, 0.6542207929823134);69.3543014526;1.0;;;;;;;;;;;;;;0;0;0;;0;0;();();(-2000.0, -2000.0);
04:28:20:068;04:28:20:051;1448034258.06;(0.6463395595550537, 0.6542207929823134);69.3543014526;1.0;;;;;;;;;;;;;;0;0;0;;0;0;();();(-2000.0, -2000.0);
04:28:20:087;04:28:20:087;1448034258.14;(0.6479510307312012, 0.6548344718085395);69.1110992432;0.953580402741;;;;;;;;;;;;;;0;0;0;;0;0;();();(-2000.0, -2000.0);
04:28:20:102;04:28:20:087;1448034258.16;(0.6480804920196533, 0.6555542204115126);68.8674850464;1.0;;;;;;;;;;;;;;0;0;0;;0;0;();();(-2000.0, -2000.0);
04:28:20:134;04:28:20:117;1448034258.19;(0.6477349281311036, 0.6568759918212891);69.0428466797;1.0;;;;;;;;;;;;;;0;0;0;;0;0;();();(-2000.0, -2000.0);
04:28:20:151;04:28:20:117;1448034258.19;(0.6477349281311036, 0.6568759918212891);69.0428466797;1.0;;;;;;;;;;;;;;0;0;0;;0;0;();();(-2000.0, -2000.0);
04:28:20:167;04:28:20:162;1448034258.22;(0.6469426631927491, 0.6580311245388455);68.8237915039;1.0;;;;;;;;;;;;;;0;0;0;;0;0;();();(-2000.0, -2000.0);
04:28:20:183;04:28:20:162;1448034258.22;(0.6469426631927491, 0.6580311245388455);68.8237915039;1.0;;;;;;;;;;;;;;0;0;0;;0;0;();();(-2000.0, -2000.0);
04:28:20:217;04:28:20:201;1448034258.26;(0.6458792209625244, 0.6594226625230577);68.6282424927;0.952626482407;;;;;;;;;;;;;;0;0;0;;0;0;();();(-2000.0, -2000.0);
04:28:20:234;04:28:20:201;1448034258.26;(0.6458792209625244, 0.6594226625230577);68.6282424927;0.952626482407;;;;;;;;;;;;;;0;0;0;;0;0;();();(-2000.0, -2000.0);
04:28:20:250;04:28:20:246;1448034258.29;(0.6437437534332275, 0.662373775906033);68.394821167;1.0;;;;;;;;;;;;;;0;0;0;;0;0;();();(-2000.0, -2000.0);
04:28:20:266;04:28:20:246;1448034258.29;(0.6437437534332275, 0.662373775906033);68.394821167;1.0;;;;;;;;;;;;;;0;0;0;;0;0;();();(-2000.0, -2000.0);
04:28:20:283;04:28:20:246;1448034258.29;(0.6437437534332275, 0.662373775906033);68.394821167;1.0;;;;;;;;;;;;;;0;0;0;;0;0;();();(-2000.0, -2000.0);
04:28:20:316;04:28:20:246;1448034258.29;(0.6437437534332275, 0.662373775906033);68.394821167;1.0;;;;;;;;;;;;;;0;0;0;;0;0;();();(-2000.0, -2000.0);
04:28:20:333;04:28:20:246;1448034258.29;(0.6437437534332275, 0.662373775906033);68.394821167;1.0;;;;;;;;;;;;;;0;0;0;;0;0;();();(-2000.0, -2000.0);
04:28:20:350;04:28:20:344;1448034258.39;(0.6399966716766358, 0.6657491260104709);68.8210296631;0.963711516346;;;;;;;;;;;;;;0;0;0;;0;0;();();(-2000.0, -2000.0);
04:28:20:366;04:28:20:344;1448034258.39;(0.6399966716766358, 0.6657491260104709);68.8210296631;0.963711516346;;;;;;;;;;;;;;0;0;0;;0;0;();();(-2000.0, -2000.0);
04:28:20:383;04:28:20:369;1448034258.42;(0.35276479721069337, 0.8166812896728516);38.3144416809;0.651545488004;;;;;;;;;;;;;;0;0;0;;0;0;();();(-2000.0, -2000.0);
04:28:20:416;04:28:20:409;1448034258.46;(0.6583500385284424, 0.6432238260904948);69.1910934448;0.949417774885;;;;;;;;;;;;;;0;0;0;;0;0;();();(-2000.0, -2000.0);
04:28:20:433;04:28:20:409;1448034258.46;(0.6583500385284424, 0.6432238260904948);69.1910934448;0.949417774885;;;;;;;;;;;;;;0;0;0;;0;0;();();(-2000.0, -2000.0);
04:28:20:448;04:28:20:409;1448034258.46;(0.6583500385284424, 0.6432238260904948);69.1910934448;0.949417774885;;;;;;;;;;;;;;0;0;0;;0;0;();();(-2000.0, -2000.0);
04:28:20:465;04:28:20:449;1448034258.52;(0.6567744255065918, 0.6440399805704753);68.7307510376;1.0;;;;;;;;;;;;;;0;0;0;;0;0;();();(-2000.0, -2000.0);
04:28:20:482;04:28:20:449;1448034258.52;(0.6567744255065918, 0.6440399805704753);68.7307510376;1.0;;;;;;;;;;;;;;0;0;0;;0;0;();();(-2000.0, -2000.0);
04:28:20:516;04:28:20:493;1448034258.56;(0.6559286117553711, 0.6455698861016168);68.5805282593;1.0;;;;;;;;;;;;;;0;0;0;;0;0;();();(-2000.0, -2000.0);
04:28:20:532;04:28:20:493;1448034258.56;(0.6559286117553711, 0.6455698861016168);68.5805282593;1.0;;;;;;;;;;;;;;0;0;0;;0;0;();();(-2000.0, -2000.0);
04:28:20:548;04:28:20:535;1448034258.59;(0.655067777633667, 0.6471891615125869);68.4262237549;0.940356179419;;;;;;;;;;;;;;0;0;0;;0;0;();();(-2000.0, -2000.0);
04:28:20:566;04:28:20:535;1448034258.59;(0.655067777633667, 0.6471891615125869);68.4262237549;0.940356179419;;;;;;;;;;;;;;0;0;0;;0;0;();();(-2000.0, -2000.0);
04:28:20:582;04:28:20:535;1448034258.59;(0.655067777633667, 0.6471891615125869);68.4262237549;0.940356179419;;;;;;;;;;;;;;0;0;0;;0;0;();();(-2000.0, -2000.0);
04:28:20:614;04:28:20:535;1448034258.59;(0.655067777633667, 0.6471891615125869);68.4262237549;0.940356179419;;;;;;;;;;;;;;0;0;0;;0;0;();();(-2000.0, -2000.0);
04:28:20:631;04:28:20:628;1448034258.69;(0.6530934333801269, 0.6493446350097656);68.8952941895;1.0;;;;;;;;;;;;;;0;0;0;;0;0;();();(-2000.0, -2000.0);
04:28:20:648;04:28:20:628;1448034258.69;(0.6530934333801269, 0.6493446350097656);68.8952941895;1.0;;;;;;;;;;;;;;0;0;0;;0;0;();();(-2000.0, -2000.0);
04:28:20:664;04:28:20:657;1448034258.72;(0, 0);0;0;;;;;;;;;;;;;;0;0;0;;0;0;();();(-2000.0, -2000.0);
04:28:20:697;04:28:20:657;1448034258.72;(0, 0);0;0;;;;;;;;;;;;;;0;0;0;;0;0;();();(-2000.0, -2000.0);
04:28:20:714;04:28:20:701;1448034258.76;(0.8319738388061524, 0.42244118584526913);20.0110244751;0.713682728504;;;;;;;;;;;;;;0;0;0;;0;0;();();(-2000.0, -2000.0);
04:28:20:731;04:28:20:701;1448034258.76;(0.8319738388061524, 0.42244118584526913);20.0110244751;0.713682728504;;;;;;;;;;;;;;0;0;0;;0;0;();();(-2000.0, -2000.0);
04:28:20:747;04:28:20:701;1448034258.76;(0.8319738388061524, 0.42244118584526913);20.0110244751;0.713682728504;;;;;;;;;;;;;;0;0;0;;0;0;();();(-2000.0, -2000.0);
04:28:20:764;04:28:20:701;1448034258.76;(0.8319738388061524, 0.42244118584526913);20.0110244751;0.713682728504;;;;;;;;;;;;;;0;0;0;;0;0;();();(-2000.0, -2000.0);
04:28:20:797;04:28:20:782;1448034258.86;(0.6248213291168213, 0.6616049236721463);69.0225906372;1.0;;;;;;;;;;;;;;0;0;0;;0;0;();();(-2000.0, -2000.0);
04:28:20:813;04:28:20:782;1448034258.86;(0.6248213291168213, 0.6616049236721463);69.0225906372;1.0;;;;;;;;;;;;;;0;0;0;;0;0;();();(-2000.0, -2000.0);
04:28:20:830;04:28:20:825;1448034258.89;(0.6254822731018066, 0.6619590971204969);69.0964508057;1.0;;;;;;;;;;;;;;0;0;0;;0;0;();();(-2000.0, -2000.0);
04:28:20:846;04:28:20:825;1448034258.89;(0.6254822731018066, 0.6619590971204969);69.0964508057;1.0;;;;;;;;;;;;;;0;0;0;;0;0;();();(-2000.0, -2000.0);
04:28:20:863;04:28:20:825;1448034258.89;(0.6254822731018066, 0.6619590971204969);69.0964508057;1.0;;;;;;;;;;;;;;0;0;0;;0;0;();();(-2000.0, -2000.0);
04:28:20:897;04:28:20:825;1448034258.89;(0.6254822731018066, 0.6619590971204969);69.0964508057;1.0;;;;;;;;;;;;;;0;0;0;;0;0;();();(-2000.0, -2000.0);
04:28:20:914;04:28:20:825;1448034258.89;(0.6254822731018066, 0.6619590971204969);69.0964508057;1.0;;;;;;;;;;;;;;0;0;0;;0;0;();();(-2000.0, -2000.0);
04:28:20:929;04:28:20:914;1448034258.92;(0.6259260654449463, 0.6620314492119683);69.4674606323;1.0;;;;;;;;;;;;;;0;0;0;;0;0;();();(-2000.0, -2000.0);
04:28:20:946;04:28:20:914;1448034258.92;(0.6259260654449463, 0.6620314492119683);69.4674606323;1.0;;;;;;;;;;;;;;0;0;0;;0;0;();();(-2000.0, -2000.0);
04:28:20:963;04:28:20:949;1448034259.01;(0.5829197406768799, 0.6863348219129775);68.7042617798;0.914166226629;;;;;;;;;;;;;;0;0;0;;0;0;();();(-2000.0, -2000.0);
04:28:20:996;04:28:20:949;1448034259.01;(0.5829197406768799, 0.6863348219129775);68.7042617798;0.914166226629;;;;;;;;;;;;;;0;0;0;;0;0;();();(-2000.0, -2000.0);
04:28:21:012;04:28:20:949;1448034259.01;(0.5829197406768799, 0.6863348219129775);68.7042617798;0.914166226629;;;;;;;;;;;;;;0;0;0;;0;0;();();(-2000.0, -2000.0);
04:28:21:029;04:28:20:949;1448034259.01;(0.5829197406768799, 0.6863348219129775);68.7042617798;0.914166226629;;;;;;;;;;;;;;0;0;0;;0;0;();();(-2000.0, -2000.0);
04:28:21:046;04:28:20:949;1448034259.01;(0.5829197406768799, 0.6863348219129775);68.7042617798;0.914166226629;;;;;;;;;;;;;;0;0;0;;0;0;();();(-2000.0, -2000.0);
04:28:21:062;04:28:20:949;1448034259.01;(0.5829197406768799, 0.6863348219129775);68.7042617798;0.914166226629;;;;;;;;;;;;;;0;0;0;;0;0;();();(-2000.0, -2000.0);
04:28:21:096;04:28:21:073;1448034259.04;(0.5807126522064209, 0.68928099738227);70.3613967896;0.957744566577;;;;;;;;;;;;;;0;0;0;;0;0;();();(-2000.0, -2000.0);
04:28:21:111;04:28:21:073;1448034259.04;(0.5807126522064209, 0.68928099738227);70.3613967896;0.957744566577;;;;;;;;;;;;;;0;0;0;;0;0;();();(-2000.0, -2000.0);
04:28:21:128;04:28:21:114;1448034259.19;(0.589161729812622, 0.6860716289944119);70.2947006226;0.9297979774;;;;;;;;;;;;;;0;0;0;;0;0;();();(-2000.0, -2000.0);
04:28:21:144;04:28:21:114;1448034259.19;(0.589161729812622, 0.6860716289944119);70.2947006226;0.9297979774;;;;;;;;;;;;;;0;0;0;;0;0;();();(-2000.0, -2000.0);
04:28:21:178;04:28:21:114;1448034259.19;(0.589161729812622, 0.6860716289944119);70.2947006226;0.9297979774;;;;;;;;;;;;;;0;0;0;;0;0;();();(-2000.0, -2000.0);
04:28:21:194;04:28:21:114;1448034259.19;(0.589161729812622, 0.6860716289944119);70.2947006226;0.9297979774;;;;;;;;;;;;;;0;0;0;;0;0;();();(-2000.0, -2000.0);
04:28:21:211;04:28:21:114;1448034259.19;(0.589161729812622, 0.6860716289944119);70.2947006226;0.9297979774;;;;;;;;;;;;;;0;0;0;;0;0;();();(-2000.0, -2000.0);
04:28:21:231;04:28:21:218;1448034259.26;(0.5909220695495605, 0.6846678415934244);69.2264175415;1.0;;;;;;;;;;;;;;0;0;0;;0;0;();();(-2000.0, -2000.0);
04:28:21:245;04:28:21:218;1448034259.26;(0.5909220695495605, 0.6846678415934244);69.2264175415;1.0;;;;;;;;;;;;;;0;0;0;;0;0;();();(-2000.0, -2000.0);
04:28:21:278;04:28:21:218;1448034259.26;(0.5909220695495605, 0.6846678415934244);69.2264175415;1.0;;;;;;;;;;;;;;0;0;0;;0;0;();();(-2000.0, -2000.0);
04:28:21:294;04:28:21:282;1448034259.33;(0.5794008255004883, 0.6919293721516927);68.2119216919;0.925371827179;;;;;;;;;;;;;;0;0;0;;0;0;();();(-2000.0, -2000.0);
04:28:21:310;04:28:21:282;1448034259.33;(0.5794008255004883, 0.6919293721516927);68.2119216919;0.925371827179;;;;;;;;;;;;;;0;0;0;;0;0;();();(-2000.0, -2000.0);
04:28:21:327;04:28:21:322;1448034259.39;(0.5804231643676758, 0.6913189993964302);68.5889587402;0.990146572104;;;;;;;;;;;;;;0;0;0;;0;0;();();(-2000.0, -2000.0);
04:28:21:343;04:28:21:322;1448034259.39;(0.5804231643676758, 0.6913189993964302);68.5889587402;0.990146572104;;;;;;;;;;;;;;0;0;0;;0;0;();();(-2000.0, -2000.0);
04:28:21:377;04:28:21:365;1448034259.42;(0.5812423706054688, 0.6903136995103625);68.2793884277;0.950246431907;;;;;;;;;;;;;;0;0;0;;0;0;();();(-2000.0, -2000.0);
04:28:21:393;04:28:21:365;1448034259.42;(0.5812423706054688, 0.6903136995103625);68.2793884277;0.950246431907;;;;;;;;;;;;;;0;0;0;;0;0;();();(-2000.0, -2000.0);
04:28:21:409;04:28:21:365;1448034259.42;(0.5812423706054688, 0.6903136995103625);68.2793884277;0.950246431907;;;;;;;;;;;;;;0;0;0;;0;0;();();(-2000.0, -2000.0);
04:28:21:426;04:28:21:365;1448034259.42;(0.5812423706054688, 0.6903136995103625);68.2793884277;0.950246431907;;;;;;;;;;;;;;0;0;0;;0;0;();();(-2000.0, -2000.0);
04:28:21:442;04:28:21:365;1448034259.42;(0.5812423706054688, 0.6903136995103625);68.2793884277;0.950246431907;;;;;;;;;;;;;;0;0;0;;0;0;();();(-2000.0, -2000.0);
04:28:21:476;04:28:21:365;1448034259.42;(0.5812423706054688, 0.6903136995103625);68.2793884277;0.950246431907;;;;;;;;;;;;;;0;0;0;;0;0;();();(-2000.0, -2000.0);
04:28:21:492;04:28:21:365;1448034259.42;(0.5812423706054688, 0.6903136995103625);68.2793884277;0.950246431907;;;;;;;;;;;;;;0;0;0;;0;0;();();(-2000.0, -2000.0);
04:28:21:510;04:28:21:365;1448034259.42;(0.5812423706054688, 0.6903136995103625);68.2793884277;0.950246431907;;;;;;;;;;;;;;0;0;0;;0;0;();();(-2000.0, -2000.0);
04:28:21:525;04:28:21:365;1448034259.42;(0.5812423706054688, 0.6903136995103625);68.2793884277;0.950246431907;;;;;;;;;;;;;;0;0;0;;0;0;();();(-2000.0, -2000.0);
04:28:21:976;04:28:21:945;1448034259.99;(0.5844785690307617, 0.7117752499050565);67.1277694702;1.0;;;;;;;;;;;;;;0;0;0;;0;0;();();(-2000.0, -2000.0);
04:28:21:976;04:28:21:945;1448034259.99;(0.5844785690307617, 0.7117752499050565);67.1277694702;1.0;;;;;;;;;;;;;;0;0;0;;0;0;();();(-2000.0, -2000.0);
04:28:21:976;04:28:21:945;1448034259.99;(0.5844785690307617, 0.7117752499050565);67.1277694702;1.0;;;;;;;;;;;;;;0;0;0;;0;0;();();(-2000.0, -2000.0);
04:28:21:976;04:28:21:945;1448034259.99;(0.5844785690307617, 0.7117752499050565);67.1277694702;1.0;;;;;;;;;;;;;;0;0;0;;0;0;();();(-2000.0, -2000.0);
04:28:21:977;04:28:21:945;1448034259.99;(0.5844785690307617, 0.7117752499050565);67.1277694702;1.0;;;;;;;;;;;;;;0;0;0;;0;0;();();(-2000.0, -2000.0);
04:28:21:977;04:28:21:945;1448034259.99;(0.5844785690307617, 0.7117752499050565);67.1277694702;1.0;;;;;;;;;;;;;;0;0;0;;0;0;();();(-2000.0, -2000.0);
04:28:21:977;04:28:21:945;1448034259.99;(0.5844785690307617, 0.7117752499050565);67.1277694702;1.0;;;;;;;;;;;;;;0;0;0;;0;0;();();(-2000.0, -2000.0);
04:28:21:978;04:28:21:945;1448034259.99;(0.5844785690307617, 0.7117752499050565);67.1277694702;1.0;;;;;;;;;;;;;;0;0;0;;0;0;();();(-2000.0, -2000.0);
04:28:21:978;04:28:21:945;1448034259.99;(0.5844785690307617, 0.7117752499050565);67.1277694702;1.0;;;;;;;;;;;;;;0;0;0;;0;0;();();(-2000.0, -2000.0);
04:28:21:978;04:28:21:945;1448034259.99;(0.5844785690307617, 0.7117752499050565);67.1277694702;1.0;;;;;;;;;;;;;;0;0;0;;0;0;();();(-2000.0, -2000.0);
04:28:21:978;04:28:21:945;1448034259.99;(0.5844785690307617, 0.7117752499050565);67.1277694702;1.0;;;;;;;;;;;;;;0;0;0;;0;0;();();(-2000.0, -2000.0);
04:28:21:979;04:28:21:945;1448034259.99;(0.5844785690307617, 0.7117752499050565);67.1277694702;1.0;;;;;;;;;;;;;;0;0;0;;0;0;();();(-2000.0, -2000.0);
04:28:21:979;04:28:21:945;1448034259.99;(0.5844785690307617, 0.7117752499050565);67.1277694702;1.0;;;;;;;;;;;;;;0;0;0;;0;0;();();(-2000.0, -2000.0);
04:28:21:979;04:28:21:945;1448034259.99;(0.5844785690307617, 0.7117752499050565);67.1277694702;1.0;;;;;;;;;;;;;;0;0;0;;0;0;();();(-2000.0, -2000.0);
04:28:21:979;04:28:21:945;1448034259.99;(0.5844785690307617, 0.7117752499050565);67.1277694702;1.0;;;;;;;;;;;;;;0;0;0;;0;0;();();(-2000.0, -2000.0);
04:28:21:980;04:28:21:945;1448034259.99;(0.5844785690307617, 0.7117752499050565);67.1277694702;1.0;;;;;;;;;;;;;;0;0;0;;0;0;();();(-2000.0, -2000.0);
04:28:21:992;04:28:21:945;1448034259.99;(0.5844785690307617, 0.7117752499050565);67.1277694702;1.0;;;;;;;;;;;;;;0;0;0;;0;0;();();(-2000.0, -2000.0);
04:28:22:009;04:28:21:945;1448034259.99;(0.5844785690307617, 0.7117752499050565);67.1277694702;1.0;;;;;;;;;;;;;;0;0;0;;0;0;();();(-2000.0, -2000.0);
04:28:22:025;04:28:21:945;1448034259.99;(0.5844785690307617, 0.7117752499050565);67.1277694702;1.0;;;;;;;;;;;;;;0;0;0;;0;0;();();(-2000.0, -2000.0);
04:28:22:042;04:28:21:945;1448034259.99;(0.5844785690307617, 0.7117752499050565);67.1277694702;1.0;;;;;;;;;;;;;;0;0;0;;0;0;();();(-2000.0, -2000.0);
04:28:22:058;04:28:21:945;1448034259.99;(0.5844785690307617, 0.7117752499050565);67.1277694702;1.0;;;;;;;;;;;;;;0;0;0;;0;0;();();(-2000.0, -2000.0);
04:28:22:091;04:28:22:079;1448034260.12;(0.620948076248169, 0.7052276823255751);67.3013305664;1.0;;;;;;;;;;;;;;0;0;0;;0;0;();();(-2000.0, -2000.0);
04:28:22:108;04:28:22:079;1448034260.12;(0.620948076248169, 0.7052276823255751);67.3013305664;1.0;;;;;;;;;;;;;;0;0;0;;0;0;();();(-2000.0, -2000.0);
04:28:22:125;04:28:22:079;1448034260.12;(0.620948076248169, 0.7052276823255751);67.3013305664;1.0;;;;;;;;;;;;;;0;0;0;;0;0;();();(-2000.0, -2000.0);
04:28:22:141;04:28:22:079;1448034260.12;(0.620948076248169, 0.7052276823255751);67.3013305664;1.0;;;;;;;;;;;;;;0;0;0;;0;0;();();(-2000.0, -2000.0);
04:28:22:175;04:28:22:079;1448034260.12;(0.620948076248169, 0.7052276823255751);67.3013305664;1.0;;;;;;;;;;;;;;0;0;0;;0;0;();();(-2000.0, -2000.0);
04:28:22:191;04:28:22:079;1448034260.12;(0.620948076248169, 0.7052276823255751);67.3013305664;1.0;;;;;;;;;;;;;;0;0;0;;0;0;();();(-2000.0, -2000.0);
04:28:22:208;04:28:22:079;1448034260.12;(0.620948076248169, 0.7052276823255751);67.3013305664;1.0;;;;;;;;;;;;;;0;0;0;;0;0;();();(-2000.0, -2000.0);
04:28:22:224;04:28:22:079;1448034260.12;(0.620948076248169, 0.7052276823255751);67.3013305664;1.0;;;;;;;;;;;;;;0;0;0;;0;0;();();(-2000.0, -2000.0);
04:28:22:241;04:28:22:240;1448034260.29;(0.6183792114257812, 0.7062282986111111);69.3523178101;1.0;;;;;;;;;;;;;;0;0;0;;0;0;();();(-2000.0, -2000.0);
04:28:22:275;04:28:22:240;1448034260.29;(0.6183792114257812, 0.7062282986111111);69.3523178101;1.0;;;;;;;;;;;;;;0;0;0;;0;0;();();(-2000.0, -2000.0);
04:28:22:291;04:28:22:277;1448034260.32;(0.6186908721923828, 0.7049999660915799);69.7047653198;1.0;;;;;;;;;;;;;;0;0;0;;0;0;();();(-2000.0, -2000.0);
04:28:22:307;04:28:22:277;1448034260.32;(0.6186908721923828, 0.7049999660915799);69.7047653198;1.0;;;;;;;;;;;;;;0;0;0;;0;0;();();(-2000.0, -2000.0);
04:28:22:323;04:28:22:277;1448034260.32;(0.6186908721923828, 0.7049999660915799);69.7047653198;1.0;;;;;;;;;;;;;;0;0;0;;0;0;();();(-2000.0, -2000.0);
04:28:22:340;04:28:22:333;1448034260.36;(0.6189448833465576, 0.704582150777181);70.0849609375;1.0;;;;;;;;;;;;;;0;0;0;;0;0;();();(-2000.0, -2000.0);
04:28:22:374;04:28:22:346;1448034260.39;(0.6185114860534668, 0.7045662773980035);69.8337631226;1.0;;;;;;;;;;;;;;0;0;0;;0;0;();();(-2000.0, -2000.0);
04:28:22:390;04:28:22:346;1448034260.39;(0.6185114860534668, 0.7045662773980035);69.8337631226;1.0;;;;;;;;;;;;;;0;0;0;;0;0;();();(-2000.0, -2000.0);
04:28:22:406;04:28:22:401;1448034260.42;(0.6144138813018799, 0.6935480117797852);67.286819458;0.707971953423;;;;;;;;;;;;;;0;0;0;;0;0;();();(-2000.0, -2000.0);
04:28:22:423;04:28:22:401;1448034260.42;(0.6144138813018799, 0.6935480117797852);67.286819458;0.707971953423;;;;;;;;;;;;;;0;0;0;;0;0;();();(-2000.0, -2000.0);
04:28:22:439;04:28:22:401;1448034260.42;(0.6144138813018799, 0.6935480117797852);67.286819458;0.707971953423;;;;;;;;;;;;;;0;0;0;;0;0;();();(-2000.0, -2000.0);
04:28:22:472;04:28:22:441;1448034260.49;(0.38637547492980956, 0.6344994439019097);40.1158256531;0.617900944384;;;;;;;;;;;;;;0;0;0;;0;0;();();(-2000.0, -2000.0);
04:28:22:495;04:28:22:487;1448034260.53;(0.6360276222229004, 0.5044341617160373);18.18699646;0.658422124616;;;;;;;;;;;;;;0;0;0;;0;0;();();(-2000.0, -2000.0);
04:28:22:506;04:28:22:487;1448034260.53;(0.6360276222229004, 0.5044341617160373);18.18699646;0.658422124616;;;;;;;;;;;;;;0;0;0;;0;0;();();(-2000.0, -2000.0);
04:28:22:523;04:28:22:487;1448034260.53;(0.6360276222229004, 0.5044341617160373);18.18699646;0.658422124616;;;;;;;;;;;;;;0;0;0;;0;0;();();(-2000.0, -2000.0);
04:28:22:539;04:28:22:533;1448034260.56;(0.6160981178283691, 0.7095339881049263);69.4282531738;0.846184726165;;;;;;;;;;;;;;0;0;0;;0;0;();();(-2000.0, -2000.0);
04:28:22:573;04:28:22:566;1448034260.62;(0.6173370838165283, 0.7098718219333224);70.1787033081;1.0;;;;;;;;;;;;;;0;0;0;;0;0;();();(-2000.0, -2000.0);
04:28:22:589;04:28:22:566;1448034260.62;(0.6173370838165283, 0.7098718219333224);70.1787033081;1.0;;;;;;;;;;;;;;0;0;0;;0;0;();();(-2000.0, -2000.0);
04:28:22:605;04:28:22:566;1448034260.62;(0.6173370838165283, 0.7098718219333224);70.1787033081;1.0;;;;;;;;;;;;;;0;0;0;;0;0;();();(-2000.0, -2000.0);
04:28:22:622;04:28:22:609;1448034260.69;(0.6186961174011231, 0.7101362652248806);69.8463516235;1.0;;;;;;;;;;;;;;0;0;0;;0;0;();();(-2000.0, -2000.0);
04:28:22:638;04:28:22:609;1448034260.69;(0.6186961174011231, 0.7101362652248806);69.8463516235;1.0;;;;;;;;;;;;;;0;0;0;;0;0;();();(-2000.0, -2000.0);
04:28:22:671;04:28:22:609;1448034260.69;(0.6186961174011231, 0.7101362652248806);69.8463516235;1.0;;;;;;;;;;;;;;0;0;0;;0;0;();();(-2000.0, -2000.0);
04:28:22:688;04:28:22:609;1448034260.69;(0.6186961174011231, 0.7101362652248806);69.8463516235;1.0;;;;;;;;;;;;;;0;0;0;;0;0;();();(-2000.0, -2000.0);
04:28:22:704;04:28:22:693;1448034260.76;(0.6196667671203613, 0.7103398852878147);69.9939498901;1.0;;;;;;;;;;;;;;0;0;0;;0;0;();();(-2000.0, -2000.0);
04:28:22:721;04:28:22:693;1448034260.76;(0.6196667671203613, 0.7103398852878147);69.9939498901;1.0;;;;;;;;;;;;;;0;0;0;;0;0;();();(-2000.0, -2000.0);
04:28:22:754;04:28:22:693;1448034260.76;(0.6196667671203613, 0.7103398852878147);69.9939498901;1.0;;;;;;;;;;;;;;0;0;0;;0;0;();();(-2000.0, -2000.0);
04:28:22:771;04:28:22:693;1448034260.76;(0.6196667671203613, 0.7103398852878147);69.9939498901;1.0;;;;;;;;;;;;;;0;0;0;;0;0;();();(-2000.0, -2000.0);
04:28:22:788;04:28:22:693;1448034260.76;(0.6196667671203613, 0.7103398852878147);69.9939498901;1.0;;;;;;;;;;;;;;0;0;0;;0;0;();();(-2000.0, -2000.0);
04:28:22:804;04:28:22:693;1448034260.76;(0.6196667671203613, 0.7103398852878147);69.9939498901;1.0;;;;;;;;;;;;;;0;0;0;;0;0;();();(-2000.0, -2000.0);
04:28:22:820;04:28:22:813;1448034260.79;(0.35483248233795167, 0.8214191648695204);25.3232555389;0.852679342825;;;;;;;;;;;;;;0;0;0;;0;0;();();(-2000.0, -2000.0);
04:28:22:854;04:28:22:813;1448034260.79;(0.35483248233795167, 0.8214191648695204);25.3232555389;0.852679342825;;;;;;;;;;;;;;0;0;0;;0;0;();();(-2000.0, -2000.0);
04:28:22:870;04:28:22:858;1448034260.9;(0.33939077854156496, 0.7714881261189779);18.7339611053;0.92189171602;;;;;;;;;;;;;;0;0;0;;0;0;();();(-2000.0, -2000.0);
04:28:22:887;04:28:22:858;1448034260.9;(0.33939077854156496, 0.7714881261189779);18.7339611053;0.92189171602;;;;;;;;;;;;;;0;0;0;;0;0;();();(-2000.0, -2000.0);
04:28:22:904;04:28:22:898;1448034260.96;(0.579684066772461, 0.7096737543741862);69.9301834106;0.967140883876;;;;;;;;;;;;;;0;0;0;;0;0;();();(-2000.0, -2000.0);
04:28:22:920;04:28:22:898;1448034260.96;(0.579684066772461, 0.7096737543741862);69.9301834106;0.967140883876;;;;;;;;;;;;;;0;0;0;;0;0;();();(-2000.0, -2000.0);
04:28:22:953;04:28:22:941;1448034261.02;(0.5807921886444092, 0.7101895226372612);70.0207748413;1.0;;;;;;;;;;;;;;0;0;0;;0;0;();();(-2000.0, -2000.0);
04:28:22:970;04:28:22:941;1448034261.02;(0.5807921886444092, 0.7101895226372612);70.0207748413;1.0;;;;;;;;;;;;;;0;0;0;;0;0;();();(-2000.0, -2000.0);
04:28:22:986;04:28:22:982;1448034261.06;(0.5814019680023194, 0.7097466786702473);70.1159820557;1.0;;;;;;;;;;;;;;0;0;0;;0;0;();();(-2000.0, -2000.0);
04:28:23:003;04:28:22:982;1448034261.06;(0.5814019680023194, 0.7097466786702473);70.1159820557;1.0;;;;;;;;;;;;;;0;0;0;;0;0;();();(-2000.0, -2000.0);
04:28:23:019;04:28:22:982;1448034261.06;(0.5814019680023194, 0.7097466786702473);70.1159820557;1.0;;;;;;;;;;;;;;0;0;0;;0;0;();();(-2000.0, -2000.0);
04:28:23:053;04:28:23:021;1448034261.09;(0.581669282913208, 0.7095569186740451);70.2394256592;1.0;;;;;;;;;;;;;;0;0;0;;0;0;();();(-2000.0, -2000.0);
04:28:23:069;04:28:23:066;1448034261.12;(0.584811782836914, 0.7116043302747939);69.8030548096;0.994209922006;;;;;;;;;;;;;;0;0;0;;0;0;();();(-2000.0, -2000.0);
04:28:23:086;04:28:23:066;1448034261.12;(0.584811782836914, 0.7116043302747939);69.8030548096;0.994209922006;;;;;;;;;;;;;;0;0;0;;0;0;();();(-2000.0, -2000.0);
04:28:23:103;04:28:23:066;1448034261.12;(0.584811782836914, 0.7116043302747939);69.8030548096;0.994209922006;;;;;;;;;;;;;;0;0;0;;0;0;();();(-2000.0, -2000.0);
04:28:23:119;04:28:23:105;1448034261.16;(0.5854549407958984, 0.7125171025594075);70.5406417847;0.918122427975;;;;;;;;;;;;;;0;0;0;;0;0;();();(-2000.0, -2000.0);
04:28:23:152;04:28:23:145;1448034261.22;(0.5856378555297852, 0.7128273222181531);69.940032959;1.0;;;;;;;;;;;;;;0;0;0;;0;0;();();(-2000.0, -2000.0);
04:28:23:169;04:28:23:145;1448034261.22;(0.5856378555297852, 0.7128273222181531);69.940032959;1.0;;;;;;;;;;;;;;0;0;0;;0;0;();();(-2000.0, -2000.0);
04:28:23:185;04:28:23:145;1448034261.22;(0.5856378555297852, 0.7128273222181531);69.940032959;1.0;;;;;;;;;;;;;;0;0;0;;0;0;();();(-2000.0, -2000.0);
04:28:23:201;04:28:23:189;1448034261.26;(0.5851009368896485, 0.713138304816352);69.7780303955;1.0;;;;;;;;;;;;;;0;0;0;;0;0;();();(-2000.0, -2000.0);
04:28:23:218;04:28:23:189;1448034261.26;(0.5851009368896485, 0.713138304816352);69.7780303955;1.0;;;;;;;;;;;;;;0;0;0;;0;0;();();(-2000.0, -2000.0);
04:28:23:266;04:28:23:230;1448034261.29;(0.585554838180542, 0.7127833896213107);70.1027526855;1.0;;;;;;;;;;;;;;2;0;0;;0;0;();();(-2000.0, -2000.0);
04:28:23:278;04:28:23:274;1448034261.32;(0.5854979515075683, 0.7137009090847439);69.4347229004;1.0;;;;;;;;;;;;;;2;0;0;;0;0;();();(-2000.0, -2000.0);
04:28:23:295;04:28:23:274;1448034261.32;(0.5854979515075683, 0.7137009090847439);69.4347229004;1.0;;;;;;;;;;;;;;2;0;0;;0;0;();();(-2000.0, -2000.0);
04:28:23:311;04:28:23:274;1448034261.32;(0.5854979515075683, 0.7137009090847439);69.4347229004;1.0;;;;;;;;;;;;;;2;0;0;;0;0;();();(-2000.0, -2000.0);
04:28:23:328;04:28:23:313;1448034261.39;(0.5859468460083008, 0.7135851330227322);68.8925857544;1.0;;;;;;;;;;;;;;2;0;0;;0;0;();();(-2000.0, -2000.0);
04:28:23:345;04:28:23:313;1448034261.39;(0.5859468460083008, 0.7135851330227322);68.8925857544;1.0;;;;;;;;;;;;;;2;0;0;;0;0;();();(-2000.0, -2000.0);
04:28:23:360;04:28:23:313;1448034261.39;(0.5859468460083008, 0.7135851330227322);68.8925857544;1.0;;;;;;;;;;;;;;2;0;0;;0;0;();();(-2000.0, -2000.0);
04:28:23:394;04:28:23:313;1448034261.39;(0.5859468460083008, 0.7135851330227322);68.8925857544;1.0;;;;;;;;;;;;;;2;0;0;;0;0;();();(-2000.0, -2000.0);
04:28:23:411;04:28:23:313;1448034261.39;(0.5859468460083008, 0.7135851330227322);68.8925857544;1.0;;;;;;;;;;;;;;2;0;0;;0;0;();();(-2000.0, -2000.0);
04:28:23:426;04:28:23:313;1448034261.39;(0.5859468460083008, 0.7135851330227322);68.8925857544;1.0;;;;;;;;;;;;;;2;0;0;;0;0;();();(-2000.0, -2000.0);
04:28:23:444;04:28:23:437;1448034261.42;(0.3366022348403931, 0.7645774841308594);18.9800224304;0.694113755502;;;;;;;;;;;;;;2;0;0;;0;0;();();(-2000.0, -2000.0);
04:28:23:460;04:28:23:437;1448034261.42;(0.3366022348403931, 0.7645774841308594);18.9800224304;0.694113755502;;;;;;;;;;;;;;2;0;0;;0;0;();();(-2000.0, -2000.0);
04:28:23:494;04:28:23:437;1448034261.42;(0.3366022348403931, 0.7645774841308594);18.9800224304;0.694113755502;;;;;;;;;;;;;;2;0;0;;0;0;();();(-2000.0, -2000.0);
04:28:23:510;04:28:23:437;1448034261.42;(0.3366022348403931, 0.7645774841308594);18.9800224304;0.694113755502;;;;;;;;;;;;;;2;0;0;;0;0;();();(-2000.0, -2000.0);
04:28:23:527;04:28:23:437;1448034261.42;(0.3366022348403931, 0.7645774841308594);18.9800224304;0.694113755502;;;;;;;;;;;;;;2;0;0;;0;0;();();(-2000.0, -2000.0);
04:28:23:543;04:28:23:437;1448034261.42;(0.3366022348403931, 0.7645774841308594);18.9800224304;0.694113755502;;;;;;;;;;;;;;2;0;0;;0;0;();();(-2000.0, -2000.0);
04:28:23:560;04:28:23:437;1448034261.42;(0.3366022348403931, 0.7645774841308594);18.9800224304;0.694113755502;;;;;;;;;;;;;;2;0;0;;0;0;();();(-2000.0, -2000.0);
04:28:23:593;04:28:23:437;1448034261.42;(0.3366022348403931, 0.7645774841308594);18.9800224304;0.694113755502;;;;;;;;;;;;;;2;0;0;;0;0;();();(-2000.0, -2000.0);
04:28:23:610;04:28:23:437;1448034261.42;(0.3366022348403931, 0.7645774841308594);18.9800224304;0.694113755502;;;;;;;;;;;;;;2;0;0;;0;0;();();(-2000.0, -2000.0);
04:28:23:627;04:28:23:437;1448034261.42;(0.3366022348403931, 0.7645774841308594);18.9800224304;0.694113755502;;;;;;;;;;;;;;2;0;0;;0;0;();();(-2000.0, -2000.0);
04:28:23:642;04:28:23:437;1448034261.42;(0.3366022348403931, 0.7645774841308594);18.9800224304;0.694113755502;;;;;;;;;;;;;;2;0;0;;0;0;();();(-2000.0, -2000.0);
04:28:23:659;04:28:23:645;1448034261.52;(0.6012073516845703, 0.665077018737793);68.3123703003;1.0;;;;;;;;;;;;;;2;0;0;;0;0;();();(-2000.0, -2000.0);
04:28:23:692;04:28:23:645;1448034261.52;(0.6012073516845703, 0.665077018737793);68.3123703003;1.0;;;;;;;;;;;;;;2;0;0;;0;0;();();(-2000.0, -2000.0);
04:28:23:709;04:28:23:645;1448034261.52;(0.6012073516845703, 0.665077018737793);68.3123703003;1.0;;;;;;;;;;;;;;2;0;0;;0;0;();();(-2000.0, -2000.0);
04:28:23:726;04:28:23:645;1448034261.52;(0.6012073516845703, 0.665077018737793);68.3123703003;1.0;;;;;;;;;;;;;;2;0;0;;0;0;();();(-2000.0, -2000.0);
04:28:23:742;04:28:23:645;1448034261.52;(0.6012073516845703, 0.665077018737793);68.3123703003;1.0;;;;;;;;;;;;;;2;0;0;;0;0;();();(-2000.0, -2000.0);
04:28:23:758;04:28:23:645;1448034261.52;(0.6012073516845703, 0.665077018737793);68.3123703003;1.0;;;;;;;;;;;;;;2;0;0;;0;0;();();(-2000.0, -2000.0);
04:28:23:791;04:28:23:769;1448034261.7;(0.6414904594421387, 0.6490403493245442);67.460357666;1.0;;;;;;;;;;;;;;2;0;0;;0;0;();();(-2000.0, -2000.0);
04:28:23:808;04:28:23:769;1448034261.7;(0.6414904594421387, 0.6490403493245442);67.460357666;1.0;;;;;;;;;;;;;;2;0;0;;0;0;();();(-2000.0, -2000.0);
04:28:23:825;04:28:23:809;1448034261.87;(0.640400505065918, 0.6557392332288954);66.1841812134;0.976134030243;;;;;;;;;;;;;;2;0;0;;0;0;();();(-2000.0, -2000.0);
04:28:23:841;04:28:23:809;1448034261.87;(0.640400505065918, 0.6557392332288954);66.1841812134;0.976134030243;;;;;;;;;;;;;;2;0;0;;0;0;();();(-2000.0, -2000.0);
04:28:23:875;04:28:23:853;1448034261.92;(0.638590669631958, 0.6573760774400499);65.9722061157;1.0;;;;;;;;;;;;;;2;0;0;;0;0;();();(-2000.0, -2000.0);
04:28:23:892;04:28:23:853;1448034261.92;(0.638590669631958, 0.6573760774400499);65.9722061157;1.0;;;;;;;;;;;;;;2;0;0;;0;0;();();(-2000.0, -2000.0);
04:28:23:908;04:28:23:896;1448034261.96;(0.6377485752105713, 0.658373769124349);65.6599502563;1.0;;;;;;;;;;;;;;2;0;0;;0;0;();();(-2000.0, -2000.0);
04:28:23:923;04:28:23:896;1448034261.96;(0.6377485752105713, 0.658373769124349);65.6599502563;1.0;;;;;;;;;;;;;;2;0;0;;0;0;();();(-2000.0, -2000.0);
04:28:23:941;04:28:23:934;1448034261.99;(0.6374296188354492, 0.658772087097168);65.8908691406;1.0;;;;;;;;;;;;;;2;0;0;;0;0;();();(-2000.0, -2000.0);
04:28:23:974;04:28:23:934;1448034261.99;(0.6374296188354492, 0.658772087097168);65.8908691406;1.0;;;;;;;;;;;;;;2;0;0;;0;0;();();(-2000.0, -2000.0);
04:28:23:990;04:28:23:977;1448034262.06;(0.6371822834014893, 0.6591007444593642);66.1859054565;1.0;;;;;;;;;;;;;;2;0;0;;0;0;();();(-2000.0, -2000.0);
04:28:24:007;04:28:23:977;1448034262.06;(0.6371822834014893, 0.6591007444593642);66.1859054565;1.0;;;;;;;;;;;;;;2;0;0;;0;0;();();(-2000.0, -2000.0);
04:28:24:024;04:28:23:977;1448034262.06;(0.6371822834014893, 0.6591007444593642);66.1859054565;1.0;;;;;;;;;;;;;;2;0;0;;0;0;();();(-2000.0, -2000.0);
04:28:24:040;04:28:24:031;1448034262.09;(0.6368036270141602, 0.6589914109971788);66.0340118408;1.0;;;;;;;;;;;;;;2;0;0;;0;0;();();(-2000.0, -2000.0);
04:28:24:073;04:28:24:069;1448034262.12;(0.6363837718963623, 0.660440084669325);66.068572998;1.0;;;;;;;;;;;;;;2;0;0;;0;0;();();(-2000.0, -2000.0);
04:28:24:090;04:28:24:069;1448034262.12;(0.6363837718963623, 0.660440084669325);66.068572998;1.0;;;;;;;;;;;;;;2;0;0;;0;0;();();(-2000.0, -2000.0);
04:28:24:106;04:28:24:102;1448034262.16;(0.6360299587249756, 0.6615010367499458);66.2172164917;1.0;;;;;;;;;;;;;;2;0;0;;0;0;();();(-2000.0, -2000.0);
04:28:24:124;04:28:24:102;1448034262.16;(0.6360299587249756, 0.6615010367499458);66.2172164917;1.0;;;;;;;;;;;;;;2;0;0;;0;0;();();(-2000.0, -2000.0);
04:28:24:139;04:28:24:102;1448034262.16;(0.6360299587249756, 0.6615010367499458);66.2172164917;1.0;;;;;;;;;;;;;;2;0;0;;0;0;();();(-2000.0, -2000.0);
04:28:24:173;04:28:24:141;1448034262.22;(0.6344975471496582, 0.6622506459554036);67.3100891113;1.0;;;;;;;;;;;;;;2;0;0;;0;0;();();(-2000.0, -2000.0);
04:28:24:189;04:28:24:141;1448034262.22;(0.6344975471496582, 0.6622506459554036);67.3100891113;1.0;;;;;;;;;;;;;;2;0;0;;0;0;();();(-2000.0, -2000.0);
04:28:24:206;04:28:24:141;1448034262.22;(0.6344975471496582, 0.6622506459554036);67.3100891113;1.0;;;;;;;;;;;;;;2;0;0;;0;0;();();(-2000.0, -2000.0);
04:28:24:222;04:28:24:141;1448034262.22;(0.6344975471496582, 0.6622506459554036);67.3100891113;1.0;;;;;;;;;;;;;;2;0;0;;0;0;();();(-2000.0, -2000.0);
04:28:24:239;04:28:24:224;1448034262.26;(0.345911431312561, 0.8147011862860786);33.7351226807;0.704896329947;;;;;;;;;;;;;;2;0;0;;0;0;();();(-2000.0, -2000.0);
04:28:24:272;04:28:24:267;1448034262.29;(0.6217378616333008, 0.6726363076104058);67.4508972168;0.99000013767;;;;;;;;;;;;;;2;0;0;;0;0;();();(-2000.0, -2000.0);
04:28:24:289;04:28:24:267;1448034262.29;(0.6217378616333008, 0.6726363076104058);67.4508972168;0.99000013767;;;;;;;;;;;;;;2;0;0;;0;0;();();(-2000.0, -2000.0);
04:28:24:306;04:28:24:267;1448034262.29;(0.6217378616333008, 0.6726363076104058);67.4508972168;0.99000013767;;;;;;;;;;;;;;2;0;0;;0;0;();();(-2000.0, -2000.0);
04:28:24:322;04:28:24:310;1448034262.39;(0.6216063976287842, 0.6731548097398545);68.5437927246;1.0;;;;;;;;;;;;;;2;0;0;;0;0;();();(-2000.0, -2000.0);
04:28:24:338;04:28:24:310;1448034262.39;(0.6216063976287842, 0.6731548097398545);68.5437927246;1.0;;;;;;;;;;;;;;2;0;0;;0;0;();();(-2000.0, -2000.0);
04:28:24:371;04:28:24:350;1448034262.42;(0.6213047981262207, 0.6733557807074653);68.4662399292;1.0;;;;;;;;;;;;;;2;0;0;;0;0;();();(-2000.0, -2000.0);
04:28:24:389;04:28:24:350;1448034262.42;(0.6213047981262207, 0.6733557807074653);68.4662399292;1.0;;;;;;;;;;;;;;2;0;0;;0;0;();();(-2000.0, -2000.0);
04:28:24:405;04:28:24:393;1448034262.46;(0.621198034286499, 0.674117554558648);68.9707641602;1.0;;;;;;;;;;;;;;2;0;0;;0;0;();();(-2000.0, -2000.0);
04:28:24:421;04:28:24:393;1448034262.46;(0.621198034286499, 0.674117554558648);68.9707641602;1.0;;;;;;;;;;;;;;2;0;0;;0;0;();();(-2000.0, -2000.0);
04:28:24:454;04:28:24:441;1448034262.49;(0.6206175804138183, 0.674577882554796);68.520324707;1.0;;;;;;;;;;;;;;2;0;0;;0;0;();();(-2000.0, -2000.0);
04:28:24:471;04:28:24:441;1448034262.49;(0.6206175804138183, 0.674577882554796);68.520324707;1.0;;;;;;;;;;;;;;2;0;0;;0;0;();();(-2000.0, -2000.0);
04:28:24:488;04:28:24:474;1448034262.52;(0.6180886268615723, 0.6757767571343316);69.2226715088;0.989397911355;;;;;;;;;;;;;;2;0;0;;0;0;();();(-2000.0, -2000.0);
04:28:24:503;04:28:24:474;1448034262.52;(0.6180886268615723, 0.6757767571343316);69.2226715088;0.989397911355;;;;;;;;;;;;;;2;0;0;;0;0;();();(-2000.0, -2000.0);
04:28:24:520;04:28:24:518;1448034262.59;(0.6171120166778564, 0.6765500174628364);69.6938095093;1.0;;;;;;;;;;;;;;2;0;0;;0;0;();();(-2000.0, -2000.0);
04:28:24:554;04:28:24:518;1448034262.59;(0.6171120166778564, 0.6765500174628364);69.6938095093;1.0;;;;;;;;;;;;;;2;0;0;;0;0;();();(-2000.0, -2000.0);
04:28:24:571;04:28:24:557;1448034262.62;(0.6178899765014648, 0.6773149490356445);70.0487518311;1.0;;;;;;;;;;;;;;2;0;0;;0;0;();();(-2000.0, -2000.0);
04:28:24:586;04:28:24:557;1448034262.62;(0.6178899765014648, 0.6773149490356445);70.0487518311;1.0;;;;;;;;;;;;;;2;0;0;;0;0;();();(-2000.0, -2000.0);
04:28:24:604;04:28:24:557;1448034262.62;(0.6178899765014648, 0.6773149490356445);70.0487518311;1.0;;;;;;;;;;;;;;2;0;0;;0;0;();();(-2000.0, -2000.0);
04:28:24:620;04:28:24:557;1448034262.62;(0.6178899765014648, 0.6773149490356445);70.0487518311;1.0;;;;;;;;;;;;;;2;0;0;;0;0;();();(-2000.0, -2000.0);
04:28:24:653;04:28:24:557;1448034262.62;(0.6178899765014648, 0.6773149490356445);70.0487518311;1.0;;;;;;;;;;;;;;2;0;0;;0;0;();();(-2000.0, -2000.0);
04:28:24:670;04:28:24:557;1448034262.62;(0.6178899765014648, 0.6773149490356445);70.0487518311;1.0;;;;;;;;;;;;;;2;0;0;;0;0;();();(-2000.0, -2000.0);
04:28:24:687;04:28:24:557;1448034262.62;(0.6178899765014648, 0.6773149490356445);70.0487518311;1.0;;;;;;;;;;;;;;2;0;0;;0;0;();();(-2000.0, -2000.0);
04:28:24:703;04:28:24:557;1448034262.62;(0.6178899765014648, 0.6773149490356445);70.0487518311;1.0;;;;;;;;;;;;;;2;0;0;;0;0;();();(-2000.0, -2000.0);
04:28:24:720;04:28:24:557;1448034262.62;(0.6178899765014648, 0.6773149490356445);70.0487518311;1.0;;;;;;;;;;;;;;2;0;0;;0;0;();();(-2000.0, -2000.0);
04:28:24:752;04:28:24:723;1448034262.78;(0.6527553081512452, 0.694643931918674);68.4284362793;1.0;;;;;;;;;;;;;;2;0;0;;0;0;();();(-2000.0, -2000.0);
04:28:24:769;04:28:24:765;1448034262.82;(0.6505144596099853, 0.696005990770128);69.0121994019;0.89222950688;;;;;;;;;;;;;;2;0;0;;0;0;();();(-2000.0, -2000.0);
04:28:24:785;04:28:24:765;1448034262.82;(0.6505144596099853, 0.696005990770128);69.0121994019;0.89222950688;;;;;;;;;;;;;;2;0;0;;0;0;();();(-2000.0, -2000.0);
04:28:24:802;04:28:24:765;1448034262.82;(0.6505144596099853, 0.696005990770128);69.0121994019;0.89222950688;;;;;;;;;;;;;;2;0;0;;0;0;();();(-2000.0, -2000.0);
04:28:24:819;04:28:24:805;1448034262.86;(0.6505823135375977, 0.6976605945163303);68.6748046875;0.9850958727;;;;;;;;;;;;;;2;0;0;;0;0;();();(-2000.0, -2000.0);
04:28:24:851;04:28:24:849;1448034262.89;(0.6547152996063232, 0.6965947257147895);67.8144378662;1.0;;;;;;;;;;;;;;2;0;0;;0;0;();();(-2000.0, -2000.0);
04:28:24:868;04:28:24:849;1448034262.89;(0.6547152996063232, 0.6965947257147895);67.8144378662;1.0;;;;;;;;;;;;;;2;0;0;;0;0;();();(-2000.0, -2000.0);
04:28:24:886;04:28:24:849;1448034262.89;(0.6547152996063232, 0.6965947257147895);67.8144378662;1.0;;;;;;;;;;;;;;2;0;0;;0;0;();();(-2000.0, -2000.0);
04:28:24:902;04:28:24:890;1448034262.96;(0.653411865234375, 0.6986684799194336);67.8895187378;1.0;;;;;;;;;;;;;;2;0;0;;0;0;();();(-2000.0, -2000.0);
04:28:24:919;04:28:24:890;1448034262.96;(0.653411865234375, 0.6986684799194336);67.8895187378;1.0;;;;;;;;;;;;;;2;0;0;;0;0;();();(-2000.0, -2000.0);
04:28:24:951;04:28:24:930;1448034262.99;(0.6528037071228028, 0.698282962375217);67.3303451538;1.0;;;;;;;;;;;;;;2;0;0;;0;0;();();(-2000.0, -2000.0);
04:28:24:968;04:28:24:930;1448034262.99;(0.6528037071228028, 0.698282962375217);67.3303451538;1.0;;;;;;;;;;;;;;2;0;0;;0;0;();();(-2000.0, -2000.0);
04:28:24:984;04:28:24:974;1448034263.02;(0.6525898456573487, 0.6980143441094293);67.1658477783;1.0;;;;;;;;;;;;;;2;0;0;;0;0;();();(-2000.0, -2000.0);
04:28:25:001;04:28:24:974;1448034263.02;(0.6525898456573487, 0.6980143441094293);67.1658477783;1.0;;;;;;;;;;;;;;2;0;0;;0;0;();();(-2000.0, -2000.0);
04:28:25:034;04:28:25:013;1448034263.06;(0.6519089698791504, 0.697469605339898);67.7785263062;1.0;;;;;;;;;;;;;;2;0;0;;0;0;();();(-2000.0, -2000.0);
04:28:25:051;04:28:25:013;1448034263.06;(0.6519089698791504, 0.697469605339898);67.7785263062;1.0;;;;;;;;;;;;;;2;0;0;;0;0;();();(-2000.0, -2000.0);
04:28:25:068;04:28:25:053;1448034263.12;(0.6516570568084716, 0.6975064595540365);67.0634078979;1.0;;;;;;;;;;;;;;2;0;0;;0;0;();();(-2000.0, -2000.0);
04:28:25:084;04:28:25:053;1448034263.12;(0.6516570568084716, 0.6975064595540365);67.0634078979;1.0;;;;;;;;;;;;;;2;0;0;;0;0;();();(-2000.0, -2000.0);
04:28:25:100;04:28:25:098;1448034263.16;(0.6512099266052246, 0.6981171502007378);67.5492858887;1.0;;;;;;;;;;;;;;2;0;0;;0;0;();();(-2000.0, -2000.0);
04:28:25:133;04:28:25:098;1448034263.16;(0.6512099266052246, 0.6981171502007378);67.5492858887;1.0;;;;;;;;;;;;;;2;0;0;;0;0;();();(-2000.0, -2000.0);
04:28:25:150;04:28:25:141;1448034263.19;(0.6508245944976807, 0.6976963255140516);67.7780914307;1.0;;;;;;;;;;;;;;2;0;0;;0;0;();();(-2000.0, -2000.0);
04:28:25:167;04:28:25:141;1448034263.19;(0.6508245944976807, 0.6976963255140516);67.7780914307;1.0;;;;;;;;;;;;;;2;0;0;;0;0;();();(-2000.0, -2000.0);
04:28:25:183;04:28:25:181;1448034263.26;(0.6499889373779297, 0.695587052239312);68.0080947876;1.0;;;;;;;;;;;;;;2;0;0;;0;0;();();(-2000.0, -2000.0);
04:28:25:200;04:28:25:181;1448034263.26;(0.6499889373779297, 0.695587052239312);68.0080947876;1.0;;;;;;;;;;;;;;2;0;0;;0;0;();();(-2000.0, -2000.0);
04:28:25:232;04:28:25:221;1448034263.29;(0.6497407913208008, 0.6959572050306533);68.3089370728;1.0;;;;;;;;;;;;;;2;0;0;;0;0;();();(-2000.0, -2000.0);
04:28:25:250;04:28:25:221;1448034263.29;(0.6497407913208008, 0.6959572050306533);68.3089370728;1.0;;;;;;;;;;;;;;2;0;0;;0;0;();();(-2000.0, -2000.0);
04:28:25:267;04:28:25:262;1448034263.32;(0.6496042251586914, 0.6956038157145182);69.2815170288;1.0;;;;;;;;;;;;;;2;0;0;;0;0;();();(-2000.0, -2000.0);
04:28:25:283;04:28:25:262;1448034263.32;(0.6496042251586914, 0.6956038157145182);69.2815170288;1.0;;;;;;;;;;;;;;2;0;0;;0;0;();();(-2000.0, -2000.0);
04:28:25:300;04:28:25:262;1448034263.32;(0.6496042251586914, 0.6956038157145182);69.2815170288;1.0;;;;;;;;;;;;;;2;0;0;;0;0;();();(-2000.0, -2000.0);
04:28:25:332;04:28:25:305;1448034263.36;(0.6498695373535156, 0.6949226167466905);68.9725875854;1.0;;;;;;;;;;;;;;2;0;0;;0;0;();();(-2000.0, -2000.0);
04:28:25:349;04:28:25:346;1448034263.42;(0.6503650188446045, 0.6951089647081163);69.3752212524;1.0;;;;;;;;;;;;;;2;0;0;;0;0;();();(-2000.0, -2000.0);
04:28:25:366;04:28:25:346;1448034263.42;(0.6503650188446045, 0.6951089647081163);69.3752212524;1.0;;;;;;;;;;;;;;2;0;0;;0;0;();();(-2000.0, -2000.0);
04:28:25:382;04:28:25:346;1448034263.42;(0.6503650188446045, 0.6951089647081163);69.3752212524;1.0;;;;;;;;;;;;;;2;0;0;;0;0;();();(-2000.0, -2000.0);
04:28:25:399;04:28:25:346;1448034263.42;(0.6503650188446045, 0.6951089647081163);69.3752212524;1.0;;;;;;;;;;;;;;2;0;0;;0;0;();();(-2000.0, -2000.0);
04:28:25:431;04:28:25:346;1448034263.42;(0.6503650188446045, 0.6951089647081163);69.3752212524;1.0;;;;;;;;;;;;;;2;0;0;;0;0;();();(-2000.0, -2000.0);
04:28:25:448;04:28:25:433;1448034263.46;(0.645336103439331, 0.6899043401082356);70.5127334595;0.790644794952;;;;;;;;;;;;;;2;0;0;;0;0;();();(-2000.0, -2000.0);
04:28:25:465;04:28:25:433;1448034263.46;(0.645336103439331, 0.6899043401082356);70.5127334595;0.790644794952;;;;;;;;;;;;;;2;0;0;;0;0;();();(-2000.0, -2000.0);
04:28:25:482;04:28:25:469;1448034263.5;(0.6377786636352539, 0.66025816599528);71.4828491211;0.943213412606;;;;;;;;;;;;;;2;0;0;;0;0;();();(-2000.0, -2000.0);
04:28:25:515;04:28:25:509;1448034263.55;(0, 0);0;0;;;;;;;;;;;;;;2;0;0;;0;0;();();(-2000.0, -2000.0);
04:28:25:531;04:28:25:509;1448034263.55;(0, 0);0;0;;;;;;;;;;;;;;2;0;0;;0;0;();();(-2000.0, -2000.0);
04:28:25:548;04:28:25:509;1448034263.55;(0, 0);0;0;;;;;;;;;;;;;;2;0;0;;0;0;();();(-2000.0, -2000.0);
04:28:25:564;04:28:25:555;1448034263.62;(0.6353551387786865, 0.6537736468844944);70.8756103516;1.0;;;;;;;;;;;;;;2;0;0;;0;0;();();(-2000.0, -2000.0);
04:28:25:581;04:28:25:555;1448034263.62;(0.6353551387786865, 0.6537736468844944);70.8756103516;1.0;;;;;;;;;;;;;;2;0;0;;0;0;();();(-2000.0, -2000.0);
04:28:25:613;04:28:25:555;1448034263.62;(0.6353551387786865, 0.6537736468844944);70.8756103516;1.0;;;;;;;;;;;;;;2;0;0;;0;0;();();(-2000.0, -2000.0);
04:28:25:631;04:28:25:614;1448034263.66;(0.63557448387146, 0.6541174358791775);71.0344467163;1.0;;;;;;;;;;;;;;2;0;0;;0;0;();();(-2000.0, -2000.0);
04:28:25:648;04:28:25:638;1448034263.69;(0.6356387615203858, 0.654080327351888);70.8953781128;1.0;;;;;;;;;;;;;;2;0;0;;0;0;();();(-2000.0, -2000.0);
04:28:25:663;04:28:25:638;1448034263.69;(0.6356387615203858, 0.654080327351888);70.8953781128;1.0;;;;;;;;;;;;;;2;0;0;;0;0;();();(-2000.0, -2000.0);
04:28:25:680;04:28:25:678;1448034263.76;(0.6359474182128906, 0.6539808697170681);70.4802398682;1.0;;;;;;;;;;;;;;2;0;0;;0;0;();();(-2000.0, -2000.0);
04:28:25:714;04:28:25:678;1448034263.76;(0.6359474182128906, 0.6539808697170681);70.4802398682;1.0;;;;;;;;;;;;;;2;0;0;;0;0;();();(-2000.0, -2000.0);
04:28:25:730;04:28:25:718;1448034263.79;(0.6353955745697022, 0.6545051574707031);71.0200958252;1.0;;;;;;;;;;;;;;2;0;0;;0;0;();();(-2000.0, -2000.0);
04:28:25:747;04:28:25:718;1448034263.79;(0.6353955745697022, 0.6545051574707031);71.0200958252;1.0;;;;;;;;;;;;;;2;0;0;;0;0;();();(-2000.0, -2000.0);
04:28:25:763;04:28:25:762;1448034263.82;(0.6350468158721924, 0.6545568678114149);70.4692382812;1.0;;;;;;;;;;;;;;2;0;0;;0;0;();();(-2000.0, -2000.0);
04:28:25:780;04:28:25:762;1448034263.82;(0.6350468158721924, 0.6545568678114149);70.4692382812;1.0;;;;;;;;;;;;;;2;0;0;;0;0;();();(-2000.0, -2000.0);
04:28:25:813;04:28:25:802;1448034263.86;(0.6346521377563477, 0.6551440768771701);70.5083236694;1.0;;;;;;;;;;;;;;2;0;0;;0;0;();();(-2000.0, -2000.0);
04:28:25:829;04:28:25:802;1448034263.86;(0.6346521377563477, 0.6551440768771701);70.5083236694;1.0;;;;;;;;;;;;;;2;0;0;;0;0;();();(-2000.0, -2000.0);
04:28:25:846;04:28:25:842;1448034263.89;(0.3484626054763794, 0.8017828623453775);21.6685295105;0.926664185189;;;;;;;;;;;;;;2;0;0;;0;0;();();(-2000.0, -2000.0);
04:28:25:862;04:28:25:842;1448034263.89;(0.3484626054763794, 0.8017828623453775);21.6685295105;0.926664185189;;;;;;;;;;;;;;2;0;0;;0;0;();();(-2000.0, -2000.0);
04:28:25:879;04:28:25:842;1448034263.89;(0.3484626054763794, 0.8017828623453775);21.6685295105;0.926664185189;;;;;;;;;;;;;;2;0;0;;0;0;();();(-2000.0, -2000.0);
04:28:25:912;04:28:25:886;1448034263.96;(0.6134414672851562, 0.6669133080376519);70.3363494873;1.0;;;;;;;;;;;;;;2;0;0;;0;0;();();(-2000.0, -2000.0);
04:28:25:929;04:28:25:925;1448034263.99;(0.6138467788696289, 0.667015626695421);70.0438156128;1.0;;;;;;;;;;;;;;2;0;0;;0;0;();();(-2000.0, -2000.0);
04:28:25:945;04:28:25:925;1448034263.99;(0.6138467788696289, 0.667015626695421);70.0438156128;1.0;;;;;;;;;;;;;;2;0;0;;0;0;();();(-2000.0, -2000.0);
04:28:25:962;04:28:25:925;1448034263.99;(0.6138467788696289, 0.667015626695421);70.0438156128;1.0;;;;;;;;;;;;;;2;0;0;;0;0;();();(-2000.0, -2000.0);
04:28:25:978;04:28:25:970;1448034264.02;(0.614539909362793, 0.6667128033108182);69.7405090332;1.0;;;;;;;;;;;;;;2;0;0;;0;0;();();(-2000.0, -2000.0);
04:28:26:012;04:28:25:970;1448034264.02;(0.614539909362793, 0.6667128033108182);69.7405090332;1.0;;;;;;;;;;;;;;2;0;0;;0;0;();();(-2000.0, -2000.0);
04:28:26:028;04:28:25:970;1448034264.02;(0.614539909362793, 0.6667128033108182);69.7405090332;1.0;;;;;;;;;;;;;;2;0;0;;0;0;();();(-2000.0, -2000.0);
04:28:26:045;04:28:25:970;1448034264.02;(0.614539909362793, 0.6667128033108182);69.7405090332;1.0;;;;;;;;;;;;;;2;0;0;;0;0;();();(-2000.0, -2000.0);
04:28:26:062;04:28:26:050;1448034264.12;(0.6149878978729248, 0.6678765402899849);70.1406097412;1.0;;;;;;;;;;;;;;2;0;0;;0;0;();();(-2000.0, -2000.0);
04:28:26:094;04:28:26:094;1448034264.16;(0.6146972179412842, 0.6684487872653537);70.4493942261;1.0;;;;;;;;;;;;;;2;0;0;;0;0;();();(-2000.0, -2000.0);
04:28:26:111;04:28:26:094;1448034264.16;(0.6146972179412842, 0.6684487872653537);70.4493942261;1.0;;;;;;;;;;;;;;2;0;0;;0;0;();();(-2000.0, -2000.0);
04:28:26:127;04:28:26:094;1448034264.16;(0.6146972179412842, 0.6684487872653537);70.4493942261;1.0;;;;;;;;;;;;;;2;0;0;;0;0;();();(-2000.0, -2000.0);
04:28:26:145;04:28:26:133;1448034264.19;(0.6151609420776367, 0.6683351092868381);70.3845214844;1.0;;;;;;;;;;;;;;2;0;0;;0;0;();();(-2000.0, -2000.0);
04:28:26:160;04:28:26:133;1448034264.19;(0.6151609420776367, 0.6683351092868381);70.3845214844;1.0;;;;;;;;;;;;;;2;0;0;;0;0;();();(-2000.0, -2000.0);
04:28:26:194;04:28:26:173;1448034264.22;(0.6154505252838135, 0.668358760409885);70.4822921753;1.0;;;;;;;;;;;;;;2;0;0;;0;0;();();(-2000.0, -2000.0);
04:28:26:210;04:28:26:173;1448034264.22;(0.6154505252838135, 0.668358760409885);70.4822921753;1.0;;;;;;;;;;;;;;2;0;0;;0;0;();();(-2000.0, -2000.0);
04:28:26:227;04:28:26:223;1448034264.29;(0.616039514541626, 0.6687358220418294);69.8781738281;1.0;;;;;;;;;;;;;;2;0;0;;0;0;();();(-2000.0, -2000.0);
04:28:26:244;04:28:26:223;1448034264.29;(0.616039514541626, 0.6687358220418294);69.8781738281;1.0;;;;;;;;;;;;;;2;0;0;;0;0;();();(-2000.0, -2000.0);
04:28:26:260;04:28:26:258;1448034264.32;(0.616644811630249, 0.6683508767022026);69.4828033447;1.0;;;;;;;;;;;;;;2;0;0;;0;0;();();(-2000.0, -2000.0);
04:28:26:293;04:28:26:258;1448034264.32;(0.616644811630249, 0.6683508767022026);69.4828033447;1.0;;;;;;;;;;;;;;2;0;0;;0;0;();();(-2000.0, -2000.0);
04:28:26:310;04:28:26:302;1448034264.36;(0.6164463996887207, 0.6682341893513997);69.7349624634;1.0;;;;;;;;;;;;;;2;0;0;;0;0;();();(-2000.0, -2000.0);
04:28:26:327;04:28:26:302;1448034264.36;(0.6164463996887207, 0.6682341893513997);69.7349624634;1.0;;;;;;;;;;;;;;2;0;0;;0;0;();();(-2000.0, -2000.0);
04:28:26:343;04:28:26:341;1448034264.39;(0, 0);0;0;;;;;;;;;;;;;;2;0;0;;0;0;();();(-2000.0, -2000.0);
04:28:26:359;04:28:26:341;1448034264.39;(0, 0);0;0;;;;;;;;;;;;;;2;0;0;;0;0;();();(-2000.0, -2000.0);
04:28:26:392;04:28:26:382;1448034264.42;(0.3785587787628174, 0.6530042860243055);19.2986946106;0.632207341605;;;;;;;;;;;;;;2;0;0;;0;0;();();(-2000.0, -2000.0);
04:28:26:409;04:28:26:382;1448034264.42;(0.3785587787628174, 0.6530042860243055);19.2986946106;0.632207341605;;;;;;;;;;;;;;2;0;0;;0;0;();();(-2000.0, -2000.0);
04:28:26:426;04:28:26:382;1448034264.42;(0.3785587787628174, 0.6530042860243055);19.2986946106;0.632207341605;;;;;;;;;;;;;;2;0;0;;0;0;();();(-2000.0, -2000.0);
04:28:26:443;04:28:26:426;1448034264.46;(0.3482000112533569, 0.6075779808892143);35.1897735596;0.613531177561;;;;;;;;;;;;;;2;0;0;;0;0;();();(-2000.0, -2000.0);
04:28:26:460;04:28:26:426;1448034264.46;(0.3482000112533569, 0.6075779808892143);35.1897735596;0.613531177561;;;;;;;;;;;;;;2;0;0;;0;0;();();(-2000.0, -2000.0);
04:28:26:492;04:28:26:426;1448034264.46;(0.3482000112533569, 0.6075779808892143);35.1897735596;0.613531177561;;;;;;;;;;;;;;2;0;0;;0;0;();();(-2000.0, -2000.0);
04:28:26:509;04:28:26:505;1448034264.51;(0.638571310043335, 0.6513653861151801);65.4580230713;0.81661784561;;;;;;;;;;;;;;2;0;0;;0;0;();();(-2000.0, -2000.0);
04:28:26:526;04:28:26:505;1448034264.51;(0.638571310043335, 0.6513653861151801);65.4580230713;0.81661784561;;;;;;;;;;;;;;2;0;0;;0;0;();();(-2000.0, -2000.0);
04:28:26:543;04:28:26:505;1448034264.51;(0.638571310043335, 0.6513653861151801);65.4580230713;0.81661784561;;;;;;;;;;;;;;2;0;0;;0;0;();();(-2000.0, -2000.0);
04:28:26:559;04:28:26:549;1448034264.62;(0.6412436962127686, 0.6513586044311523);67.3482437134;1.0;;;;;;;;;;;;;;2;0;0;;0;0;();();(-2000.0, -2000.0);
04:28:26:592;04:28:26:590;1448034264.66;(0.6415318012237549, 0.6518035888671875);67.0328140259;1.0;;;;;;;;;;;;;;2;0;0;;0;0;();();(-2000.0, -2000.0);
04:28:26:609;04:28:26:590;1448034264.66;(0.6415318012237549, 0.6518035888671875);67.0328140259;1.0;;;;;;;;;;;;;;2;0;0;;0;0;();();(-2000.0, -2000.0);
04:28:26:625;04:28:26:590;1448034264.66;(0.6415318012237549, 0.6518035888671875);67.0328140259;1.0;;;;;;;;;;;;;;2;0;0;;0;0;();();(-2000.0, -2000.0);
04:28:26:642;04:28:26:629;1448034264.69;(0.6419689655303955, 0.6520476235283745);67.2188034058;1.0;;;;;;;;;;;;;;2;0;0;;0;0;();();(-2000.0, -2000.0);
04:28:26:674;04:28:26:673;1448034264.72;(0.6419528484344482, 0.6523807949490017);67.2518386841;1.0;;;;;;;;;;;;;;2;0;0;;0;0;();();(-2000.0, -2000.0);
04:28:26:691;04:28:26:673;1448034264.72;(0.6419528484344482, 0.6523807949490017);67.2518386841;1.0;;;;;;;;;;;;;;2;0;0;;0;0;();();(-2000.0, -2000.0);
04:28:26:708;04:28:26:673;1448034264.72;(0.6419528484344482, 0.6523807949490017);67.2518386841;1.0;;;;;;;;;;;;;;2;0;0;;0;0;();();(-2000.0, -2000.0);
04:28:26:724;04:28:26:714;1448034264.76;(0.6419451236724854, 0.65243468814426);67.0826873779;1.0;;;;;;;;;;;;;;2;0;0;;0;0;();();(-2000.0, -2000.0);
04:28:26:741;04:28:26:714;1448034264.76;(0.6419451236724854, 0.65243468814426);67.0826873779;1.0;;;;;;;;;;;;;;2;0;0;;0;0;();();(-2000.0, -2000.0);
04:28:26:774;04:28:26:758;1448034264.82;(0.6418736457824707, 0.6523800320095486);66.9563903809;1.0;;;;;;;;;;;;;;2;0;0;;0;0;();();(-2000.0, -2000.0);
04:28:26:790;04:28:26:758;1448034264.82;(0.6418736457824707, 0.6523800320095486);66.9563903809;1.0;;;;;;;;;;;;;;2;0;0;;0;0;();();(-2000.0, -2000.0);
04:28:26:807;04:28:26:797;1448034264.86;(0, 0);0;0;;;;;;;;;;;;;;2;0;0;;0;0;();();(-2000.0, -2000.0);
04:28:26:824;04:28:26:797;1448034264.86;(0, 0);0;0;;;;;;;;;;;;;;2;0;0;;0;0;();();(-2000.0, -2000.0);
04:28:26:839;04:28:26:837;1448034264.89;(0.3475658416748047, 0.7801537831624349);30.2035446167;0.811594094849;;;;;;;;;;;;;;2;0;0;;0;0;();();(-2000.0, -2000.0);
04:28:26:873;04:28:26:837;1448034264.89;(0.3475658416748047, 0.7801537831624349);30.2035446167;0.811594094849;;;;;;;;;;;;;;2;0;0;;0;0;();();(-2000.0, -2000.0);
04:28:26:890;04:28:26:837;1448034264.89;(0.3475658416748047, 0.7801537831624349);30.2035446167;0.811594094849;;;;;;;;;;;;;;2;0;0;;0;0;();();(-2000.0, -2000.0);
04:28:26:906;04:28:26:902;1448034264.92;(0.3459150791168213, 0.7904488033718533);35.3947639465;0.727343377828;;;;;;;;;;;;;;2;0;0;;0;0;();();(-2000.0, -2000.0);
04:28:26:923;04:28:26:921;1448034264.96;(0.6202920436859131, 0.6703006744384765);68.0052032471;1.0;;;;;;;;;;;;;;2;0;0;;0;0;();();(-2000.0, -2000.0);
04:28:26:940;04:28:26:921;1448034264.96;(0.6202920436859131, 0.6703006744384765);68.0052032471;1.0;;;;;;;;;;;;;;2;0;0;;0;0;();();(-2000.0, -2000.0);
04:28:26:973;04:28:26:962;1448034265.02;(0.6211534976959229, 0.6700360192192925);68.2986526489;1.0;;;;;;;;;;;;;;2;0;0;;0;0;();();(-2000.0, -2000.0);
04:28:26:989;04:28:26:962;1448034265.02;(0.6211534976959229, 0.6700360192192925);68.2986526489;1.0;;;;;;;;;;;;;;2;0;0;;0;0;();();(-2000.0, -2000.0);
04:28:27:006;04:28:27:005;1448034265.06;(0.6216179370880127, 0.6700663460625542);68.2691574097;1.0;;;;;;;;;;;;;;2;0;0;;0;0;();();(-2000.0, -2000.0);
04:28:27:021;04:28:27:005;1448034265.06;(0.6216179370880127, 0.6700663460625542);68.2691574097;1.0;;;;;;;;;;;;;;2;0;0;;0;0;();();(-2000.0, -2000.0);
04:28:27:039;04:28:27:005;1448034265.06;(0.6216179370880127, 0.6700663460625542);68.2691574097;1.0;;;;;;;;;;;;;;2;0;0;;0;0;();();(-2000.0, -2000.0);
04:28:27:071;04:28:27:045;1448034265.12;(0.6216410160064697, 0.6702730390760634);68.5913925171;1.0;;;;;;;;;;;;;;2;0;0;;0;0;();();(-2000.0, -2000.0);
04:28:27:089;04:28:27:045;1448034265.12;(0.6216410160064697, 0.6702730390760634);68.5913925171;1.0;;;;;;;;;;;;;;2;0;0;;0;0;();();(-2000.0, -2000.0);
04:28:27:106;04:28:27:090;1448034265.16;(0.6217926979064942, 0.6698749118381077);68.2845993042;1.0;;;;;;;;;;;;;;2;0;0;;0;0;();();(-2000.0, -2000.0);
04:28:27:122;04:28:27:090;1448034265.16;(0.6217926979064942, 0.6698749118381077);68.2845993042;1.0;;;;;;;;;;;;;;2;0;0;;0;0;();();(-2000.0, -2000.0);
04:28:27:154;04:28:27:129;1448034265.19;(0.6218345642089844, 0.66976867251926);68.4120788574;1.0;;;;;;;;;;;;;;2;0;0;;0;0;();();(-2000.0, -2000.0);
04:28:27:171;04:28:27:129;1448034265.19;(0.6218345642089844, 0.66976867251926);68.4120788574;1.0;;;;;;;;;;;;;;2;0;0;;0;0;();();(-2000.0, -2000.0);
04:28:27:188;04:28:27:172;1448034265.22;(0.6221923351287841, 0.6696821000840929);68.2678146362;1.0;;;;;;;;;;;;;;2;0;0;;0;0;();();(-2000.0, -2000.0);
04:28:27:205;04:28:27:172;1448034265.22;(0.6221923351287841, 0.6696821000840929);68.2678146362;1.0;;;;;;;;;;;;;;2;0;0;;0;0;();();(-2000.0, -2000.0);
04:28:27:220;04:28:27:214;1448034265.29;(0.622908067703247, 0.670353020562066);68.7074661255;1.0;;;;;;;;;;;;;;2;0;0;;0;0;();();(-2000.0, -2000.0);
04:28:27:254;04:28:27:253;1448034265.32;(0.34885809421539304, 0.7917430453830295);36.7536392212;0.689829580084;;;;;;;;;;;;;;2;0;0;;0;0;();();(-2000.0, -2000.0);
04:28:27:271;04:28:27:253;1448034265.32;(0.34885809421539304, 0.7917430453830295);36.7536392212;0.689829580084;;;;;;;;;;;;;;2;0;0;;0;0;();();(-2000.0, -2000.0);
04:28:27:287;04:28:27:253;1448034265.32;(0.34885809421539304, 0.7917430453830295);36.7536392212;0.689829580084;;;;;;;;;;;;;;2;0;0;;0;0;();();(-2000.0, -2000.0);
04:28:27:304;04:28:27:253;1448034265.32;(0.34885809421539304, 0.7917430453830295);36.7536392212;0.689829580084;;;;;;;;;;;;;;2;0;0;;0;0;();();(-2000.0, -2000.0);
04:28:27:320;04:28:27:253;1448034265.32;(0.34885809421539304, 0.7917430453830295);36.7536392212;0.689829580084;;;;;;;;;;;;;;2;0;0;;0;0;();();(-2000.0, -2000.0);
04:28:27:353;04:28:27:253;1448034265.32;(0.34885809421539304, 0.7917430453830295);36.7536392212;0.689829580084;;;;;;;;;;;;;;2;0;0;;0;0;();();(-2000.0, -2000.0);
04:28:27:370;04:28:27:253;1448034265.32;(0.34885809421539304, 0.7917430453830295);36.7536392212;0.689829580084;;;;;;;;;;;;;;2;0;0;;0;0;();();(-2000.0, -2000.0);
04:28:27:386;04:28:27:378;1448034265.44;(0.6133517742156982, 0.6735683865017361);68.9410247803;1.0;;;;;;;;;;;;;;2;0;0;;0;0;();();(-2000.0, -2000.0);
04:28:27:404;04:28:27:378;1448034265.44;(0.6133517742156982, 0.6735683865017361);68.9410247803;1.0;;;;;;;;;;;;;;2;0;0;;0;0;();();(-2000.0, -2000.0);
04:28:27:419;04:28:27:418;1448034265.49;(0.6131176471710205, 0.6726802614000109);69.0063552856;1.0;;;;;;;;;;;;;;2;0;0;;0;0;();();(-2000.0, -2000.0);
04:28:27:452;04:28:27:418;1448034265.49;(0.6131176471710205, 0.6726802614000109);69.0063552856;1.0;;;;;;;;;;;;;;2;0;0;;0;0;();();(-2000.0, -2000.0);
04:28:27:470;04:28:27:461;1448034265.52;(0.6132617473602295, 0.6731823391384548);69.1490249634;1.0;;;;;;;;;;;;;;2;0;0;;0;0;();();(-2000.0, -2000.0);
04:28:27:486;04:28:27:461;1448034265.52;(0.6132617473602295, 0.6731823391384548);69.1490249634;1.0;;;;;;;;;;;;;;2;0;0;;0;0;();();(-2000.0, -2000.0);
04:28:27:503;04:28:27:461;1448034265.52;(0.6132617473602295, 0.6731823391384548);69.1490249634;1.0;;;;;;;;;;;;;;2;0;0;;0;0;();();(-2000.0, -2000.0);
04:28:27:518;04:28:27:461;1448034265.52;(0.6132617473602295, 0.6731823391384548);69.1490249634;1.0;;;;;;;;;;;;;;2;0;0;;0;0;();();(-2000.0, -2000.0);
04:28:27:552;04:28:27:461;1448034265.52;(0.6132617473602295, 0.6731823391384548);69.1490249634;1.0;;;;;;;;;;;;;;2;0;0;;0;0;();();(-2000.0, -2000.0);
04:28:27:569;04:28:27:461;1448034265.52;(0.6132617473602295, 0.6731823391384548);69.1490249634;1.0;;;;;;;;;;;;;;2;0;0;;0;0;();();(-2000.0, -2000.0);
04:28:27:586;04:28:27:585;1448034265.66;(0.609587574005127, 0.6775719112820096);68.5808792114;0.821424680714;;;;;;;;;;;;;;2;0;0;;0;0;();();(-2000.0, -2000.0);
04:28:27:602;04:28:27:585;1448034265.66;(0.609587574005127, 0.6775719112820096);68.5808792114;0.821424680714;;;;;;;;;;;;;;2;0;0;;0;0;();();(-2000.0, -2000.0);
04:28:27:619;04:28:27:585;1448034265.66;(0.609587574005127, 0.6775719112820096);68.5808792114;0.821424680714;;;;;;;;;;;;;;2;0;0;;0;0;();();(-2000.0, -2000.0);
04:28:27:652;04:28:27:626;1448034265.69;(0.6098506927490235, 0.6784412595960829);67.7170333862;1.0;;;;;;;;;;;;;;2;0;0;;0;0;();();(-2000.0, -2000.0);
04:28:27:669;04:28:27:626;1448034265.69;(0.6098506927490235, 0.6784412595960829);67.7170333862;1.0;;;;;;;;;;;;;;2;0;0;;0;0;();();(-2000.0, -2000.0);
04:28:27:685;04:28:27:670;1448034265.72;(0.6098414421081543, 0.6791902542114258);66.8625640869;1.0;;;;;;;;;;;;;;2;0;0;;0;0;();();(-2000.0, -2000.0);
04:28:27:702;04:28:27:670;1448034265.72;(0.6098414421081543, 0.6791902542114258);66.8625640869;1.0;;;;;;;;;;;;;;2;0;0;;0;0;();();(-2000.0, -2000.0);
04:28:27:734;04:28:27:710;1448034265.79;(0.6098604679107666, 0.6787042405870225);66.6477584839;1.0;;;;;;;;;;;;;;2;0;0;;0;0;();();(-2000.0, -2000.0);
04:28:27:751;04:28:27:750;1448034265.82;(0.6101289749145508, 0.6792465845743816);66.6166152954;1.0;;;;;;;;;;;;;;2;0;0;;0;0;();();(-2000.0, -2000.0);
04:28:27:768;04:28:27:750;1448034265.82;(0.6101289749145508, 0.6792465845743816);66.6166152954;1.0;;;;;;;;;;;;;;2;0;0;;0;0;();();(-2000.0, -2000.0);
04:28:27:784;04:28:27:750;1448034265.82;(0.6101289749145508, 0.6792465845743816);66.6166152954;1.0;;;;;;;;;;;;;;2;0;0;;0;0;();();(-2000.0, -2000.0);
04:28:27:801;04:28:27:750;1448034265.82;(0.6101289749145508, 0.6792465845743816);66.6166152954;1.0;;;;;;;;;;;;;;2;0;0;;0;0;();();(-2000.0, -2000.0);
04:28:27:834;04:28:27:750;1448034265.82;(0.6101289749145508, 0.6792465845743816);66.6166152954;1.0;;;;;;;;;;;;;;2;0;0;;0;0;();();(-2000.0, -2000.0);
04:28:27:851;04:28:27:750;1448034265.82;(0.6101289749145508, 0.6792465845743816);66.6166152954;1.0;;;;;;;;;;;;;;2;0;0;;0;0;();();(-2000.0, -2000.0);
04:28:27:867;04:28:27:750;1448034265.82;(0.6101289749145508, 0.6792465845743816);66.6166152954;1.0;;;;;;;;;;;;;;2;0;0;;0;0;();();(-2000.0, -2000.0);
04:28:27:884;04:28:27:878;1448034265.92;(0.6243432521820068, 0.6763378779093425);65.6622467041;1.0;;;;;;;;;;;;;;2;0;0;;0;0;();();(-2000.0, -2000.0);
04:28:27:901;04:28:27:878;1448034265.92;(0.6243432521820068, 0.6763378779093425);65.6622467041;1.0;;;;;;;;;;;;;;2;0;0;;0;0;();();(-2000.0, -2000.0);
04:28:27:933;04:28:27:917;1448034265.96;(0.6244245529174804, 0.6761225170559353);65.7224884033;1.0;;;;;;;;;;;;;;2;0;0;;0;0;();();(-2000.0, -2000.0);
04:28:27:950;04:28:27:917;1448034265.96;(0.6244245529174804, 0.6761225170559353);65.7224884033;1.0;;;;;;;;;;;;;;2;0;0;;0;0;();();(-2000.0, -2000.0);
04:28:27:966;04:28:27:958;1448034266.02;(0.6247964859008789, 0.6757528940836588);66.0074081421;1.0;;;;;;;;;;;;;;2;0;0;;0;0;();();(-2000.0, -2000.0);
04:28:27:983;04:28:27:958;1448034266.02;(0.6247964859008789, 0.6757528940836588);66.0074081421;1.0;;;;;;;;;;;;;;2;0;0;;0;0;();();(-2000.0, -2000.0);
04:28:28:000;04:28:27:958;1448034266.02;(0.6247964859008789, 0.6757528940836588);66.0074081421;1.0;;;;;;;;;;;;;;2;0;0;;0;0;();();(-2000.0, -2000.0);
04:28:28:032;04:28:28:001;1448034266.06;(0.3490321636199951, 0.8016574647691515);34.6289901733;0.685655716541;;;;;;;;;;;;;;2;0;0;;0;0;();();(-2000.0, -2000.0);
04:28:28:050;04:28:28:042;1448034266.09;(0.634593915939331, 0.6649959564208985);64.9782791138;0.948847517058;;;;;;;;;;;;;;2;0;0;;0;0;();();(-2000.0, -2000.0);
04:28:28:066;04:28:28:042;1448034266.09;(0.634593915939331, 0.6649959564208985);64.9782791138;0.948847517058;;;;;;;;;;;;;;2;0;0;;0;0;();();(-2000.0, -2000.0);
04:28:28:082;04:28:28:081;1448034266.13;(0.6344247817993164, 0.6641641616821289);64.0106277466;1.0;;;;;;;;;;;;;;2;0;0;;0;0;();();(-2000.0, -2000.0);
04:28:28:100;04:28:28:081;1448034266.13;(0.6344247817993164, 0.6641641616821289);64.0106277466;1.0;;;;;;;;;;;;;;2;0;0;;0;0;();();(-2000.0, -2000.0);
04:28:28:132;04:28:28:125;1448034266.19;(0.6346930503845215, 0.6646208657158745);64.100692749;1.0;;;;;;;;;;;;;;2;0;0;;0;0;();();(-2000.0, -2000.0);
04:28:28:149;04:28:28:125;1448034266.19;(0.6346930503845215, 0.6646208657158745);64.100692749;1.0;;;;;;;;;;;;;;2;0;0;;0;0;();();(-2000.0, -2000.0);
04:28:28:165;04:28:28:125;1448034266.19;(0.6346930503845215, 0.6646208657158745);64.100692749;1.0;;;;;;;;;;;;;;2;0;0;;0;0;();();(-2000.0, -2000.0);
04:28:28:181;04:28:28:165;1448034266.22;(0.6350727081298828, 0.6643281088935005);64.0054244995;1.0;;;;;;;;;;;;;;2;0;0;;0;0;();();(-2000.0, -2000.0);
04:28:28:198;04:28:28:165;1448034266.22;(0.6350727081298828, 0.6643281088935005);64.0054244995;1.0;;;;;;;;;;;;;;2;0;0;;0;0;();();(-2000.0, -2000.0);
04:28:28:231;04:28:28:205;1448034266.26;(0.6349063396453858, 0.6648374345567492);64.1658630371;1.0;;;;;;;;;;;;;;2;0;0;;0;0;();();(-2000.0, -2000.0);
04:28:28:248;04:28:28:205;1448034266.26;(0.6349063396453858, 0.6648374345567492);64.1658630371;1.0;;;;;;;;;;;;;;2;0;0;;0;0;();();(-2000.0, -2000.0);
04:28:28:265;04:28:28:249;1448034266.32;(0.6351743221282959, 0.6652007632785373);64.2542572021;1.0;;;;;;;;;;;;;;2;0;0;;0;0;();();(-2000.0, -2000.0);
04:28:28:282;04:28:28:249;1448034266.32;(0.6351743221282959, 0.6652007632785373);64.2542572021;1.0;;;;;;;;;;;;;;2;0;0;;0;0;();();(-2000.0, -2000.0);
04:28:28:314;04:28:28:289;1448034266.36;(0.6348203182220459, 0.6656787448459202);64.5247573853;1.0;;;;;;;;;;;;;;2;0;0;;0;0;();();(-2000.0, -2000.0);
04:28:28:332;04:28:28:289;1448034266.36;(0.6348203182220459, 0.6656787448459202);64.5247573853;1.0;;;;;;;;;;;;;;2;0;0;;0;0;();();(-2000.0, -2000.0);
04:28:28:348;04:28:28:335;1448034266.39;(0.6347214698791503, 0.6662641101413302);65.4244842529;1.0;;;;;;;;;;;;;;2;0;0;;0;0;();();(-2000.0, -2000.0);
04:28:28:364;04:28:28:335;1448034266.39;(0.6347214698791503, 0.6662641101413302);65.4244842529;1.0;;;;;;;;;;;;;;2;0;0;;0;0;();();(-2000.0, -2000.0);
04:28:28:380;04:28:28:377;1448034266.42;(0.6347604751586914, 0.665822728474935);65.6441192627;1.0;;;;;;;;;;;;;;2;0;0;;0;0;();();(-2000.0, -2000.0);
04:28:28:414;04:28:28:377;1448034266.42;(0.6347604751586914, 0.665822728474935);65.6441192627;1.0;;;;;;;;;;;;;;2;0;0;;0;0;();();(-2000.0, -2000.0);
04:28:28:430;04:28:28:420;1448034266.49;(0.6342279434204101, 0.6659169303046333);66.8101577759;1.0;;;;;;;;;;;;;;2;0;0;;0;0;();();(-2000.0, -2000.0);
04:28:28:447;04:28:28:420;1448034266.49;(0.6342279434204101, 0.6659169303046333);66.8101577759;1.0;;;;;;;;;;;;;;2;0;0;;0;0;();();(-2000.0, -2000.0);
04:28:28:464;04:28:28:457;1448034266.52;(0.6343757629394531, 0.6663066228230794);67.1763534546;1.0;;;;;;;;;;;;;;2;0;0;;0;0;();();(-2000.0, -2000.0);
04:28:28:480;04:28:28:457;1448034266.52;(0.6343757629394531, 0.6663066228230794);67.1763534546;1.0;;;;;;;;;;;;;;2;0;0;;0;0;();();(-2000.0, -2000.0);
04:28:28:512;04:28:28:497;1448034266.56;(0.6342694759368896, 0.6666708840264215);67.5377807617;1.0;;;;;;;;;;;;;;2;0;0;;0;0;();();(-2000.0, -2000.0);
04:28:28:530;04:28:28:497;1448034266.56;(0.6342694759368896, 0.6666708840264215);67.5377807617;1.0;;;;;;;;;;;;;;2;0;0;;0;0;();();(-2000.0, -2000.0);
04:28:28:546;04:28:28:537;1448034266.59;(0.3431121826171875, 0.7952899720933702);30.6026439667;0.683201096063;;;;;;;;;;;;;;2;0;0;;0;0;();();(-2000.0, -2000.0);
04:28:28:563;04:28:28:537;1448034266.59;(0.3431121826171875, 0.7952899720933702);30.6026439667;0.683201096063;;;;;;;;;;;;;;2;0;0;;0;0;();();(-2000.0, -2000.0);
04:28:28:580;04:28:28:537;1448034266.59;(0.3431121826171875, 0.7952899720933702);30.6026439667;0.683201096063;;;;;;;;;;;;;;2;0;0;;0;0;();();(-2000.0, -2000.0);
04:28:28:612;04:28:28:581;1448034266.62;(0.3470184803009033, 0.788230472140842);29.7131690979;1.0;;;;;;;;;;;;;;2;0;0;;0;0;();();(-2000.0, -2000.0);
04:28:28:629;04:28:28:627;1448034266.66;(0.6177421092987061, 0.6600523418850369);69.3394317627;1.0;;;;;;;;;;;;;;2;0;0;;0;0;();();(-2000.0, -2000.0);
04:28:28:655;04:28:28:627;1448034266.66;(0.6177421092987061, 0.6600523418850369);69.3394317627;1.0;;;;;;;;;;;;;;4;0;0;;0;0;();();(-2000.0, -2000.0);
04:28:28:663;04:28:28:627;1448034266.66;(0.6177421092987061, 0.6600523418850369);69.3394317627;1.0;;;;;;;;;;;;;;4;0;0;;0;0;();();(-2000.0, -2000.0);
04:28:28:679;04:28:28:666;1448034266.72;(0.6168941974639892, 0.6614496231079101);69.4195022583;1.0;;;;;;;;;;;;;;4;0;0;;0;0;();();(-2000.0, -2000.0);
04:28:28:712;04:28:28:709;1448034266.76;(0.616771650314331, 0.662215338812934);69.6609420776;1.0;;;;;;;;;;;;;;4;0;0;;0;0;();();(-2000.0, -2000.0);
04:28:28:729;04:28:28:709;1448034266.76;(0.616771650314331, 0.662215338812934);69.6609420776;1.0;;;;;;;;;;;;;;4;0;0;;0;0;();();(-2000.0, -2000.0);
04:28:28:745;04:28:28:745;1448034266.79;(0.6169919490814209, 0.6622926076253255);70.1284179688;1.0;;;;;;;;;;;;;;4;0;0;;0;0;();();(-2000.0, -2000.0);
04:28:28:761;04:28:28:745;1448034266.79;(0.6169919490814209, 0.6622926076253255);70.1284179688;1.0;;;;;;;;;;;;;;4;0;0;;0;0;();();(-2000.0, -2000.0);
04:28:28:779;04:28:28:745;1448034266.79;(0.6169919490814209, 0.6622926076253255);70.1284179688;1.0;;;;;;;;;;;;;;4;0;0;;0;0;();();(-2000.0, -2000.0);
04:28:28:811;04:28:28:790;1448034266.82;(0.34853472709655764, 0.767296748691135);28.4126605988;0.645514597916;;;;;;;;;;;;;;4;0;0;;0;0;();();(-2000.0, -2000.0);
04:28:28:829;04:28:28:790;1448034266.82;(0.34853472709655764, 0.767296748691135);28.4126605988;0.645514597916;;;;;;;;;;;;;;4;0;0;;0;0;();();(-2000.0, -2000.0);
04:28:28:846;04:28:28:833;1448034266.89;(0.6336968421936036, 0.5574576059977214);67.7941207886;0.974168639868;;;;;;;;;;;;;;4;0;0;;0;0;();();(-2000.0, -2000.0);
04:28:28:861;04:28:28:833;1448034266.89;(0.6336968421936036, 0.5574576059977214);67.7941207886;0.974168639868;;;;;;;;;;;;;;4;0;0;;0;0;();();(-2000.0, -2000.0);
04:28:28:879;04:28:28:870;1448034266.92;(0.6336685180664062, 0.5589923434787326);67.8347396851;0.896235148679;;;;;;;;;;;;;;4;0;0;;0;0;();();(-2000.0, -2000.0);
04:28:28:911;04:28:28:870;1448034266.92;(0.6336685180664062, 0.5589923434787326);67.8347396851;0.896235148679;;;;;;;;;;;;;;4;0;0;;0;0;();();(-2000.0, -2000.0);
04:28:28:928;04:28:28:915;1448034266.99;(0.633744764328003, 0.5633449978298611);67.1420288086;0.868462846324;;;;;;;;;;;;;;4;0;0;;0;0;();();(-2000.0, -2000.0);
04:28:28:944;04:28:28:915;1448034266.99;(0.633744764328003, 0.5633449978298611);67.1420288086;0.868462846324;;;;;;;;;;;;;;4;0;0;;0;0;();();(-2000.0, -2000.0);
04:28:28:961;04:28:28:953;1448034267.02;(0.6340262413024902, 0.5648250155978732);66.3949966431;1.0;;;;;;;;;;;;;;4;0;0;;0;0;();();(-2000.0, -2000.0);
04:28:28:994;04:28:28:953;1448034267.02;(0.6340262413024902, 0.5648250155978732);66.3949966431;1.0;;;;;;;;;;;;;;4;0;0;;0;0;();();(-2000.0, -2000.0);
04:28:29:011;04:28:28:997;1448034267.06;(0.6342496395111084, 0.5667124854193794);66.3960037231;1.0;;;;;;;;;;;;;;4;0;0;;0;0;();();(-2000.0, -2000.0);
04:28:29:027;04:28:28:997;1448034267.06;(0.6342496395111084, 0.5667124854193794);66.3960037231;1.0;;;;;;;;;;;;;;4;0;0;;0;0;();();(-2000.0, -2000.0);
04:28:29:044;04:28:29:037;1448034267.09;(0.6347735404968262, 0.5678387112087674);65.7258682251;1.0;;;;;;;;;;;;;;4;0;0;;0;0;();();(-2000.0, -2000.0);
04:28:29:060;04:28:29:037;1448034267.09;(0.6347735404968262, 0.5678387112087674);65.7258682251;1.0;;;;;;;;;;;;;;4;0;0;;0;0;();();(-2000.0, -2000.0);
04:28:29:093;04:28:29:092;1448034267.12;(0.6281666278839111, 0.7632564968532987);23.9343681335;0.621461166085;;;;;;;;;;;;;;4;0;0;;0;0;();();(-2000.0, -2000.0);
04:28:29:111;04:28:29:092;1448034267.12;(0.6281666278839111, 0.7632564968532987);23.9343681335;0.621461166085;;;;;;;;;;;;;;4;0;0;;0;0;();();(-2000.0, -2000.0);
04:28:29:128;04:28:29:122;1448034267.19;(0.6238300323486328, 0.6004672580295138);65.7301559448;0.913040264855;;;;;;;;;;;;;;4;0;0;;0;0;();();(-2000.0, -2000.0);
04:28:29:143;04:28:29:122;1448034267.19;(0.6238300323486328, 0.6004672580295138);65.7301559448;0.913040264855;;;;;;;;;;;;;;4;0;0;;0;0;();();(-2000.0, -2000.0);
04:28:29:160;04:28:29:122;1448034267.19;(0.6238300323486328, 0.6004672580295138);65.7301559448;0.913040264855;;;;;;;;;;;;;;4;0;0;;0;0;();();(-2000.0, -2000.0);
04:28:29:192;04:28:29:161;1448034267.22;(0.624632740020752, 0.6013442145453559);64.6272277832;0.923829962676;;;;;;;;;;;;;;4;0;0;;0;0;();();(-2000.0, -2000.0);
04:28:29:210;04:28:29:201;1448034267.26;(0.6255017757415772, 0.6018292321099175);64.2092132568;1.0;;;;;;;;;;;;;;4;0;0;;0;0;();();(-2000.0, -2000.0);
04:28:29:226;04:28:29:201;1448034267.26;(0.6255017757415772, 0.6018292321099175);64.2092132568;1.0;;;;;;;;;;;;;;4;0;0;;0;0;();();(-2000.0, -2000.0);
04:28:29:243;04:28:29:201;1448034267.26;(0.6255017757415772, 0.6018292321099175);64.2092132568;1.0;;;;;;;;;;;;;;4;0;0;;0;0;();();(-2000.0, -2000.0);
04:28:29:259;04:28:29:245;1448034267.29;(0.6259751796722413, 0.6029998355441624);63.994052887;1.0;;;;;;;;;;;;;;4;0;0;;0;0;();();(-2000.0, -2000.0);
04:28:29:293;04:28:29:286;1448034267.32;(0.6241279602050781, 0.6043936411539714);61.109992981;0.742239395144;;;;;;;;;;;;;;4;0;0;;0;0;();();(-2000.0, -2000.0);
04:28:29:309;04:28:29:286;1448034267.32;(0.6241279602050781, 0.6043936411539714);61.109992981;0.742239395144;;;;;;;;;;;;;;4;0;0;;0;0;();();(-2000.0, -2000.0);
04:28:29:326;04:28:29:325;1448034267.39;(0.5110683917999268, 0.6795430713229709);20.1363277435;0.76015261974;;;;;;;;;;;;;;4;0;0;;0;0;();();(-2000.0, -2000.0);
04:28:29:342;04:28:29:325;1448034267.39;(0.5110683917999268, 0.6795430713229709);20.1363277435;0.76015261974;;;;;;;;;;;;;;4;0;0;;0;0;();();(-2000.0, -2000.0);
04:28:29:359;04:28:29:325;1448034267.39;(0.5110683917999268, 0.6795430713229709);20.1363277435;0.76015261974;;;;;;;;;;;;;;4;0;0;;0;0;();();(-2000.0, -2000.0);
04:28:29:392;04:28:29:325;1448034267.39;(0.5110683917999268, 0.6795430713229709);20.1363277435;0.76015261974;;;;;;;;;;;;;;4;0;0;;0;0;();();(-2000.0, -2000.0);
04:28:29:408;04:28:29:325;1448034267.39;(0.5110683917999268, 0.6795430713229709);20.1363277435;0.76015261974;;;;;;;;;;;;;;4;0;0;;0;0;();();(-2000.0, -2000.0);
04:28:29:425;04:28:29:409;1448034267.46;(0.6119220733642579, 0.7154214011298285);63.1825332642;1.0;;;;;;;;;;;;;;4;0;0;;0;0;();();(-2000.0, -2000.0);
04:28:29:441;04:28:29:409;1448034267.46;(0.6119220733642579, 0.7154214011298285);63.1825332642;1.0;;;;;;;;;;;;;;4;0;0;;0;0;();();(-2000.0, -2000.0);
04:28:29:474;04:28:29:454;1448034267.52;(0.6132903575897217, 0.7168230268690321);63.9328041077;1.0;;;;;;;;;;;;;;4;0;0;;0;0;();();(-2000.0, -2000.0);
04:28:29:491;04:28:29:454;1448034267.52;(0.6132903575897217, 0.7168230268690321);63.9328041077;1.0;;;;;;;;;;;;;;4;0;0;;0;0;();();(-2000.0, -2000.0);
04:28:29:508;04:28:29:495;1448034267.56;(0.614091444015503, 0.7169020546807183);64.139175415;1.0;;;;;;;;;;;;;;4;0;0;;0;0;();();(-2000.0, -2000.0);
04:28:29:524;04:28:29:495;1448034267.56;(0.614091444015503, 0.7169020546807183);64.139175415;1.0;;;;;;;;;;;;;;4;0;0;;0;0;();();(-2000.0, -2000.0);
04:28:29:541;04:28:29:533;1448034267.59;(0.6140551090240478, 0.716633669535319);64.3376693726;1.0;;;;;;;;;;;;;;4;0;0;;0;0;();();(-2000.0, -2000.0);
04:28:29:575;04:28:29:533;1448034267.59;(0.6140551090240478, 0.716633669535319);64.3376693726;1.0;;;;;;;;;;;;;;4;0;0;;0;0;();();(-2000.0, -2000.0);
04:28:29:591;04:28:29:578;1448034267.62;(0.614255952835083, 0.7164031558566624);64.5397644043;1.0;;;;;;;;;;;;;;4;0;0;;0;0;();();(-2000.0, -2000.0);
04:28:29:607;04:28:29:578;1448034267.62;(0.614255952835083, 0.7164031558566624);64.5397644043;1.0;;;;;;;;;;;;;;4;0;0;;0;0;();();(-2000.0, -2000.0);
04:28:29:623;04:28:29:617;1448034267.69;(0.6147919178009034, 0.7148167292277019);65.6541900635;1.0;;;;;;;;;;;;;;4;0;0;;0;0;();();(-2000.0, -2000.0);
04:28:29:639;04:28:29:617;1448034267.69;(0.6147919178009034, 0.7148167292277019);65.6541900635;1.0;;;;;;;;;;;;;;4;0;0;;0;0;();();(-2000.0, -2000.0);
04:28:29:673;04:28:29:617;1448034267.69;(0.6147919178009034, 0.7148167292277019);65.6541900635;1.0;;;;;;;;;;;;;;4;0;0;;0;0;();();(-2000.0, -2000.0);
04:28:29:690;04:28:29:617;1448034267.69;(0.6147919178009034, 0.7148167292277019);65.6541900635;1.0;;;;;;;;;;;;;;4;0;0;;0;0;();();(-2000.0, -2000.0);
04:28:29:706;04:28:29:702;1448034267.72;(0.642107343673706, 0.6744622548421224);65.4398422241;0.913170972382;;;;;;;;;;;;;;4;0;0;;0;0;();();(-2000.0, -2000.0);
04:28:29:723;04:28:29:702;1448034267.72;(0.642107343673706, 0.6744622548421224);65.4398422241;0.913170972382;;;;;;;;;;;;;;4;0;0;;0;0;();();(-2000.0, -2000.0);
04:28:29:739;04:28:29:702;1448034267.72;(0.642107343673706, 0.6744622548421224);65.4398422241;0.913170972382;;;;;;;;;;;;;;4;0;0;;0;0;();();(-2000.0, -2000.0);
04:28:29:772;04:28:29:741;1448034267.79;(0.6410585880279541, 0.6757460276285807);65.4970092773;1.0;;;;;;;;;;;;;;4;0;0;;0;0;();();(-2000.0, -2000.0);
04:28:29:789;04:28:29:785;1448034267.86;(0.6413533687591553, 0.6750695758395725);65.5285339355;1.0;;;;;;;;;;;;;;4;0;0;;0;0;();();(-2000.0, -2000.0);
04:28:29:805;04:28:29:785;1448034267.86;(0.6413533687591553, 0.6750695758395725);65.5285339355;1.0;;;;;;;;;;;;;;4;0;0;;0;0;();();(-2000.0, -2000.0);
04:28:29:822;04:28:29:785;1448034267.86;(0.6413533687591553, 0.6750695758395725);65.5285339355;1.0;;;;;;;;;;;;;;4;0;0;;0;0;();();(-2000.0, -2000.0);
04:28:29:839;04:28:29:826;1448034267.89;(0.6415324687957764, 0.6747689776950412);65.8067703247;1.0;;;;;;;;;;;;;;4;0;0;;0;0;();();(-2000.0, -2000.0);
04:28:29:872;04:28:29:865;1448034267.92;(0.6417613983154297, 0.6752984152899848);66.6011047363;1.0;;;;;;;;;;;;;;4;0;0;;0;0;();();(-2000.0, -2000.0);
04:28:29:888;04:28:29:865;1448034267.92;(0.6417613983154297, 0.6752984152899848);66.6011047363;1.0;;;;;;;;;;;;;;4;0;0;;0;0;();();(-2000.0, -2000.0);
04:28:29:905;04:28:29:865;1448034267.92;(0.6417613983154297, 0.6752984152899848);66.6011047363;1.0;;;;;;;;;;;;;;4;0;0;;0;0;();();(-2000.0, -2000.0);
04:28:29:923;04:28:29:909;1448034267.96;(0.6363515853881836, 0.6809216817220052);68.0952911377;0.707101160362;;;;;;;;;;;;;;4;0;0;;0;0;();();(-2000.0, -2000.0);
04:28:29:938;04:28:29:909;1448034267.96;(0.6363515853881836, 0.6809216817220052);68.0952911377;0.707101160362;;;;;;;;;;;;;;4;0;0;;0;0;();();(-2000.0, -2000.0);
04:28:29:971;04:28:29:950;1448034267.99;(0.6329269409179688, 0.6828567504882812);67.6010818481;0.993274726771;;;;;;;;;;;;;;4;0;0;;0;0;();();(-2000.0, -2000.0);
04:28:29:988;04:28:29:950;1448034267.99;(0.6329269409179688, 0.6828567504882812);67.6010818481;0.993274726771;;;;;;;;;;;;;;4;0;0;;0;0;();();(-2000.0, -2000.0);
04:28:30:004;04:28:29:990;1448034268.06;(0.6326333045959472, 0.6831384446885851);67.677520752;1.0;;;;;;;;;;;;;;4;0;0;;0;0;();();(-2000.0, -2000.0);
04:28:30:021;04:28:29:990;1448034268.06;(0.6326333045959472, 0.6831384446885851);67.677520752;1.0;;;;;;;;;;;;;;4;0;0;;0;0;();();(-2000.0, -2000.0);
04:28:30:054;04:28:30:033;1448034268.09;(0.6326338768005371, 0.6833295186360677);68.2817153931;1.0;;;;;;;;;;;;;;4;0;0;;0;0;();();(-2000.0, -2000.0);
04:28:30:071;04:28:30:033;1448034268.09;(0.6326338768005371, 0.6833295186360677);68.2817153931;1.0;;;;;;;;;;;;;;4;0;0;;0;0;();();(-2000.0, -2000.0);
04:28:30:088;04:28:30:074;1448034268.12;(0.6323755264282227, 0.6830180274115669);68.3285064697;1.0;;;;;;;;;;;;;;4;0;0;;0;0;();();(-2000.0, -2000.0);
04:28:30:103;04:28:30:074;1448034268.12;(0.6323755264282227, 0.6830180274115669);68.3285064697;1.0;;;;;;;;;;;;;;4;0;0;;0;0;();();(-2000.0, -2000.0);
04:28:30:121;04:28:30:114;1448034268.16;(0.6327786445617676, 0.6827104780409071);68.4698638916;1.0;;;;;;;;;;;;;;4;0;0;;0;0;();();(-2000.0, -2000.0);
04:28:30:154;04:28:30:114;1448034268.16;(0.6327786445617676, 0.6827104780409071);68.4698638916;1.0;;;;;;;;;;;;;;4;0;0;;0;0;();();(-2000.0, -2000.0);
04:28:30:170;04:28:30:167;1448034268.22;(0.6334868431091308, 0.6826322131686741);69.0098571777;1.0;;;;;;;;;;;;;;4;0;0;;0;0;();();(-2000.0, -2000.0);
04:28:30:188;04:28:30:167;1448034268.22;(0.6334868431091308, 0.6826322131686741);69.0098571777;1.0;;;;;;;;;;;;;;4;0;0;;0;0;();();(-2000.0, -2000.0);
04:28:30:204;04:28:30:197;1448034268.26;(0.6340776443481445, 0.681735462612576);69.7495880127;1.0;;;;;;;;;;;;;;4;0;0;;0;0;();();(-2000.0, -2000.0);
04:28:30:220;04:28:30:197;1448034268.26;(0.6340776443481445, 0.681735462612576);69.7495880127;1.0;;;;;;;;;;;;;;4;0;0;;0;0;();();(-2000.0, -2000.0);
04:28:30:253;04:28:30:197;1448034268.26;(0.6340776443481445, 0.681735462612576);69.7495880127;1.0;;;;;;;;;;;;;;4;0;0;;0;0;();();(-2000.0, -2000.0);
04:28:30:270;04:28:30:197;1448034268.26;(0.6340776443481445, 0.681735462612576);69.7495880127;1.0;;;;;;;;;;;;;;4;0;0;;0;0;();();(-2000.0, -2000.0);
04:28:30:287;04:28:30:282;1448034268.33;(0.643954086303711, 0.6718927171495226);69.0479888916;0.982445677157;;;;;;;;;;;;;;4;0;0;;0;0;();();(-2000.0, -2000.0);
04:28:30:303;04:28:30:282;1448034268.33;(0.643954086303711, 0.6718927171495226);69.0479888916;0.982445677157;;;;;;;;;;;;;;4;0;0;;0;0;();();(-2000.0, -2000.0);
04:28:30:319;04:28:30:282;1448034268.33;(0.643954086303711, 0.6718927171495226);69.0479888916;0.982445677157;;;;;;;;;;;;;;4;0;0;;0;0;();();(-2000.0, -2000.0);
04:28:30:352;04:28:30:322;1448034268.39;(0.6429123878479004, 0.6727424409654406);69.0227050781;1.0;;;;;;;;;;;;;;4;0;0;;0;0;();();(-2000.0, -2000.0);
04:28:30:370;04:28:30:366;1448034268.42;(0.6423622131347656, 0.6735707177056207);69.5068740845;1.0;;;;;;;;;;;;;;4;0;0;;0;0;();();(-2000.0, -2000.0);
04:28:30:386;04:28:30:366;1448034268.42;(0.6423622131347656, 0.6735707177056207);69.5068740845;1.0;;;;;;;;;;;;;;4;0;0;;0;0;();();(-2000.0, -2000.0);
04:28:30:403;04:28:30:366;1448034268.42;(0.6423622131347656, 0.6735707177056207);69.5068740845;1.0;;;;;;;;;;;;;;4;0;0;;0;0;();();(-2000.0, -2000.0);
04:28:30:419;04:28:30:406;1448034268.46;(0.6419536113739014, 0.6737104203965929);69.2033157349;1.0;;;;;;;;;;;;;;4;0;0;;0;0;();();(-2000.0, -2000.0);
04:28:30:452;04:28:30:406;1448034268.46;(0.6419536113739014, 0.6737104203965929);69.2033157349;1.0;;;;;;;;;;;;;;4;0;0;;0;0;();();(-2000.0, -2000.0);
04:28:30:469;04:28:30:406;1448034268.46;(0.6419536113739014, 0.6737104203965929);69.2033157349;1.0;;;;;;;;;;;;;;4;0;0;;0;0;();();(-2000.0, -2000.0);
04:28:30:485;04:28:30:406;1448034268.46;(0.6419536113739014, 0.6737104203965929);69.2033157349;1.0;;;;;;;;;;;;;;4;0;0;;0;0;();();(-2000.0, -2000.0);
04:28:30:502;04:28:30:490;1448034268.56;(0.6356837272644043, 0.6797186109754774);69.9410858154;1.0;;;;;;;;;;;;;;4;0;0;;0;0;();();(-2000.0, -2000.0);
04:28:30:534;04:28:30:529;1448034268.59;(0.6358440399169922, 0.6795227262708876);70.0564117432;1.0;;;;;;;;;;;;;;4;0;0;;0;0;();();(-2000.0, -2000.0);
04:28:30:551;04:28:30:529;1448034268.59;(0.6358440399169922, 0.6795227262708876);70.0564117432;1.0;;;;;;;;;;;;;;4;0;0;;0;0;();();(-2000.0, -2000.0);
04:28:30:569;04:28:30:529;1448034268.59;(0.6358440399169922, 0.6795227262708876);70.0564117432;1.0;;;;;;;;;;;;;;4;0;0;;0;0;();();(-2000.0, -2000.0);
04:28:30:585;04:28:30:529;1448034268.59;(0.6358440399169922, 0.6795227262708876);70.0564117432;1.0;;;;;;;;;;;;;;4;0;0;;0;0;();();(-2000.0, -2000.0);
04:28:30:601;04:28:30:588;1448034268.62;(0.6361188411712646, 0.6796834945678711);69.9371185303;1.0;;;;;;;;;;;;;;4;0;0;;0;0;();();(-2000.0, -2000.0);
04:28:30:634;04:28:30:625;1448034268.69;(0.6361252307891846, 0.680515374077691);69.8363723755;1.0;;;;;;;;;;;;;;4;0;0;;0;0;();();(-2000.0, -2000.0);
04:28:30:650;04:28:30:625;1448034268.69;(0.6361252307891846, 0.680515374077691);69.8363723755;1.0;;;;;;;;;;;;;;4;0;0;;0;0;();();(-2000.0, -2000.0);
04:28:30:668;04:28:30:654;1448034268.72;(0.63560471534729, 0.6808916727701824);69.7013778687;1.0;;;;;;;;;;;;;;4;0;0;;0;0;();();(-2000.0, -2000.0);
04:28:30:684;04:28:30:654;1448034268.72;(0.63560471534729, 0.6808916727701824);69.7013778687;1.0;;;;;;;;;;;;;;4;0;0;;0;0;();();(-2000.0, -2000.0);
04:28:30:700;04:28:30:697;1448034268.76;(0.6352061271667481, 0.6810955047607422);70.2138900757;1.0;;;;;;;;;;;;;;4;0;0;;0;0;();();(-2000.0, -2000.0);
04:28:30:733;04:28:30:697;1448034268.76;(0.6352061271667481, 0.6810955047607422);70.2138900757;1.0;;;;;;;;;;;;;;4;0;0;;0;0;();();(-2000.0, -2000.0);
04:28:30:750;04:28:30:737;1448034268.79;(0.6347485065460206, 0.6810605155097114);70.0194778442;1.0;;;;;;;;;;;;;;4;0;0;;0;0;();();(-2000.0, -2000.0);
04:28:30:766;04:28:30:737;1448034268.79;(0.6347485065460206, 0.6810605155097114);70.0194778442;1.0;;;;;;;;;;;;;;4;0;0;;0;0;();();(-2000.0, -2000.0);
04:28:30:783;04:28:30:780;1448034268.82;(0.6343939781188965, 0.6813990698920356);70.1678009033;1.0;;;;;;;;;;;;;;4;0;0;;0;0;();();(-2000.0, -2000.0);
04:28:30:800;04:28:30:780;1448034268.82;(0.6343939781188965, 0.6813990698920356);70.1678009033;1.0;;;;;;;;;;;;;;4;0;0;;0;0;();();(-2000.0, -2000.0);
04:28:30:833;04:28:30:824;1448034268.89;(0.6347924709320069, 0.6815782758924696);70.9743881226;1.0;;;;;;;;;;;;;;4;0;0;;0;0;();();(-2000.0, -2000.0);
04:28:30:850;04:28:30:824;1448034268.89;(0.6347924709320069, 0.6815782758924696);70.9743881226;1.0;;;;;;;;;;;;;;4;0;0;;0;0;();();(-2000.0, -2000.0);
04:28:30:866;04:28:30:861;1448034268.92;(0.635187816619873, 0.6814305623372396);71.0498809814;1.0;;;;;;;;;;;;;;4;0;0;;0;0;();();(-2000.0, -2000.0);
04:28:30:891;04:28:30:861;1448034268.92;(0.635187816619873, 0.6814305623372396);71.0498809814;1.0;;;;;;;;;;;;;;6;0;0;;0;0;();();(-2000.0, -2000.0);
04:28:30:899;04:28:30:861;1448034268.92;(0.635187816619873, 0.6814305623372396);71.0498809814;1.0;;;;;;;;;;;;;;6;0;0;;0;0;();();(-2000.0, -2000.0);
04:28:30:932;04:28:30:905;1448034268.96;(0.6355042457580566, 0.6811609692043729);71.3393630981;1.0;;;;;;;;;;;;;;6;0;0;;0;0;();();(-2000.0, -2000.0);
04:28:30:949;04:28:30:946;1448034269.02;(0.6359755992889404, 0.6812373267279731);71.0175628662;1.0;;;;;;;;;;;;;;6;0;0;;0;0;();();(-2000.0, -2000.0);
04:28:30:965;04:28:30:946;1448034269.02;(0.6359755992889404, 0.6812373267279731);71.0175628662;1.0;;;;;;;;;;;;;;6;0;0;;0;0;();();(-2000.0, -2000.0);
04:28:30:982;04:28:30:946;1448034269.02;(0.6359755992889404, 0.6812373267279731);71.0175628662;1.0;;;;;;;;;;;;;;6;0;0;;0;0;();();(-2000.0, -2000.0);
04:28:30:999;04:28:30:987;1448034269.06;(0.6357208251953125, 0.6810974968804253);70.9230194092;1.0;;;;;;;;;;;;;;6;0;0;;0;0;();();(-2000.0, -2000.0);
04:28:31:032;04:28:30:987;1448034269.06;(0.6357208251953125, 0.6810974968804253);70.9230194092;1.0;;;;;;;;;;;;;;6;0;0;;0;0;();();(-2000.0, -2000.0);
04:28:31:048;04:28:31:036;1448034269.09;(0.6345640659332276, 0.6814832051595052);70.5185699463;1.0;;;;;;;;;;;;;;6;0;0;;0;0;();();(-2000.0, -2000.0);
04:28:31:065;04:28:31:036;1448034269.09;(0.6345640659332276, 0.6814832051595052);70.5185699463;1.0;;;;;;;;;;;;;;6;0;0;;0;0;();();(-2000.0, -2000.0);
04:28:31:081;04:28:31:069;1448034269.12;(0.6178854942321778, 0.6890523698594835);70.3340835571;0.997138919644;;;;;;;;;;;;;;6;0;0;;0;0;();();(-2000.0, -2000.0);
04:28:31:115;04:28:31:112;1448034269.19;(0.6180523872375489, 0.6896021101209853);70.7762527466;1.0;;;;;;;;;;;;;;6;0;0;;0;0;();();(-2000.0, -2000.0);
04:28:31:131;04:28:31:112;1448034269.19;(0.6180523872375489, 0.6896021101209853);70.7762527466;1.0;;;;;;;;;;;;;;6;0;0;;0;0;();();(-2000.0, -2000.0);
04:28:31:147;04:28:31:112;1448034269.19;(0.6180523872375489, 0.6896021101209853);70.7762527466;1.0;;;;;;;;;;;;;;6;0;0;;0;0;();();(-2000.0, -2000.0);
04:28:31:164;04:28:31:154;1448034269.22;(0.6181283473968506, 0.6902143690321181);71.1739196777;1.0;;;;;;;;;;;;;;6;0;0;;0;0;();();(-2000.0, -2000.0);
04:28:31:180;04:28:31:154;1448034269.22;(0.6181283473968506, 0.6902143690321181);71.1739196777;1.0;;;;;;;;;;;;;;6;0;0;;0;0;();();(-2000.0, -2000.0);
04:28:31:215;04:28:31:194;1448034269.26;(0.6188095569610595, 0.6904710345798069);71.1171417236;1.0;;;;;;;;;;;;;;6;0;0;;0;0;();();(-2000.0, -2000.0);
04:28:31:231;04:28:31:194;1448034269.26;(0.6188095569610595, 0.6904710345798069);71.1171417236;1.0;;;;;;;;;;;;;;6;0;0;;0;0;();();(-2000.0, -2000.0);
04:28:31:247;04:28:31:234;1448034269.29;(0.6194092273712158, 0.6905354181925456);70.8156661987;1.0;;;;;;;;;;;;;;6;0;0;;0;0;();();(-2000.0, -2000.0);
04:28:31:263;04:28:31:234;1448034269.29;(0.6194092273712158, 0.6905354181925456);70.8156661987;1.0;;;;;;;;;;;;;;6;0;0;;0;0;();();(-2000.0, -2000.0);
04:28:31:279;04:28:31:277;1448034269.32;(0.6201088428497314, 0.6895901997884115);71.0428161621;1.0;;;;;;;;;;;;;;6;0;0;;0;0;();();(-2000.0, -2000.0);
04:28:31:313;04:28:31:277;1448034269.32;(0.6201088428497314, 0.6895901997884115);71.0428161621;1.0;;;;;;;;;;;;;;6;0;0;;0;0;();();(-2000.0, -2000.0);
04:28:31:329;04:28:31:317;1448034269.39;(0.6396316051483154, 0.6541045082939996);70.1363372803;0.940622114796;;;;;;;;;;;;;;6;0;0;;0;0;();();(-2000.0, -2000.0);
04:28:31:346;04:28:31:317;1448034269.39;(0.6396316051483154, 0.6541045082939996);70.1363372803;0.940622114796;;;;;;;;;;;;;;6;0;0;;0;0;();();(-2000.0, -2000.0);
04:28:31:362;04:28:31:362;1448034269.42;(0.6391448497772216, 0.6548617045084635);69.2386779785;1.0;;;;;;;;;;;;;;6;0;0;;0;0;();();(-2000.0, -2000.0);
04:28:31:379;04:28:31:362;1448034269.42;(0.6391448497772216, 0.6548617045084635);69.2386779785;1.0;;;;;;;;;;;;;;6;0;0;;0;0;();();(-2000.0, -2000.0);
04:28:31:413;04:28:31:402;1448034269.46;(0.639007568359375, 0.6558123058742947);69.0016555786;1.0;;;;;;;;;;;;;;6;0;0;;0;0;();();(-2000.0, -2000.0);
04:28:31:429;04:28:31:402;1448034269.46;(0.639007568359375, 0.6558123058742947);69.0016555786;1.0;;;;;;;;;;;;;;6;0;0;;0;0;();();(-2000.0, -2000.0);
04:28:31:446;04:28:31:442;1448034269.49;(0.6387595653533935, 0.6560535218980577);68.6783828735;1.0;;;;;;;;;;;;;;6;0;0;;0;0;();();(-2000.0, -2000.0);
04:28:31:463;04:28:31:442;1448034269.49;(0.6387595653533935, 0.6560535218980577);68.6783828735;1.0;;;;;;;;;;;;;;6;0;0;;0;0;();();(-2000.0, -2000.0);
04:28:31:479;04:28:31:442;1448034269.49;(0.6387595653533935, 0.6560535218980577);68.6783828735;1.0;;;;;;;;;;;;;;6;0;0;;0;0;();();(-2000.0, -2000.0);
04:28:31:512;04:28:31:493;1448034269.52;(0.6387749671936035, 0.6569612714979384);68.7990646362;1.0;;;;;;;;;;;;;;6;0;0;;0;0;();();(-2000.0, -2000.0);
04:28:31:528;04:28:31:525;1448034269.59;(0.6396904468536377, 0.6570111380683051);68.254486084;1.0;;;;;;;;;;;;;;6;0;0;;0;0;();();(-2000.0, -2000.0);
04:28:31:545;04:28:31:525;1448034269.59;(0.6396904468536377, 0.6570111380683051);68.254486084;1.0;;;;;;;;;;;;;;6;0;0;;0;0;();();(-2000.0, -2000.0);
04:28:31:561;04:28:31:525;1448034269.59;(0.6396904468536377, 0.6570111380683051);68.254486084;1.0;;;;;;;;;;;;;;6;0;0;;0;0;();();(-2000.0, -2000.0);
04:28:31:578;04:28:31:566;1448034269.62;(0.640039587020874, 0.6575735304090712);68.0520324707;1.0;;;;;;;;;;;;;;6;0;0;;0;0;();();(-2000.0, -2000.0);
04:28:31:611;04:28:31:609;1448034269.66;(0.6402639865875244, 0.6573925018310547);67.5026168823;1.0;;;;;;;;;;;;;;6;0;0;;0;0;();();(-2000.0, -2000.0);
04:28:31:628;04:28:31:609;1448034269.66;(0.6402639865875244, 0.6573925018310547);67.5026168823;1.0;;;;;;;;;;;;;;6;0;0;;0;0;();();(-2000.0, -2000.0);
04:28:31:644;04:28:31:609;1448034269.66;(0.6402639865875244, 0.6573925018310547);67.5026168823;1.0;;;;;;;;;;;;;;6;0;0;;0;0;();();(-2000.0, -2000.0);
04:28:31:661;04:28:31:649;1448034269.69;(0.3487545013427734, 0.8174113379584418);32.9246902466;0.909958256348;;;;;;;;;;;;;;6;0;0;;0;0;();();(-2000.0, -2000.0);
04:28:31:694;04:28:31:649;1448034269.69;(0.3487545013427734, 0.8174113379584418);32.9246902466;0.909958256348;;;;;;;;;;;;;;6;0;0;;0;0;();();(-2000.0, -2000.0);
04:28:31:711;04:28:31:709;1448034269.72;(0.633117389678955, 0.6726155598958333);66.5761795044;1.0;;;;;;;;;;;;;;6;0;0;;0;0;();();(-2000.0, -2000.0);
04:28:31:728;04:28:31:709;1448034269.72;(0.633117389678955, 0.6726155598958333);66.5761795044;1.0;;;;;;;;;;;;;;6;0;0;;0;0;();();(-2000.0, -2000.0);
04:28:31:744;04:28:31:734;1448034269.79;(0.6325307369232178, 0.6734977510240343);66.6518936157;1.0;;;;;;;;;;;;;;6;0;0;;0;0;();();(-2000.0, -2000.0);
04:28:31:761;04:28:31:734;1448034269.79;(0.6325307369232178, 0.6734977510240343);66.6518936157;1.0;;;;;;;;;;;;;;6;0;0;;0;0;();();(-2000.0, -2000.0);
04:28:31:793;04:28:31:774;1448034269.82;(0.6321591854095459, 0.6738270017835829);66.7514190674;1.0;;;;;;;;;;;;;;6;0;0;;0;0;();();(-2000.0, -2000.0);
04:28:31:810;04:28:31:774;1448034269.82;(0.6321591854095459, 0.6738270017835829);66.7514190674;1.0;;;;;;;;;;;;;;6;0;0;;0;0;();();(-2000.0, -2000.0);
04:28:31:826;04:28:31:818;1448034269.89;(0.6327489852905274, 0.6738415824042426);66.7600631714;1.0;;;;;;;;;;;;;;6;0;0;;0;0;();();(-2000.0, -2000.0);
04:28:31:843;04:28:31:818;1448034269.89;(0.6327489852905274, 0.6738415824042426);66.7600631714;1.0;;;;;;;;;;;;;;6;0;0;;0;0;();();(-2000.0, -2000.0);
04:28:31:861;04:28:31:859;1448034269.92;(0.3507329702377319, 0.8241074138217502);35.4212265015;0.714885636;;;;;;;;;;;;;;6;0;0;;0;0;();();(-2000.0, -2000.0);
04:28:31:893;04:28:31:859;1448034269.92;(0.3507329702377319, 0.8241074138217502);35.4212265015;0.714885636;;;;;;;;;;;;;;6;0;0;;0;0;();();(-2000.0, -2000.0);
04:28:31:909;04:28:31:859;1448034269.92;(0.3507329702377319, 0.8241074138217502);35.4212265015;0.714885636;;;;;;;;;;;;;;6;0;0;;0;0;();();(-2000.0, -2000.0);
04:28:31:926;04:28:31:859;1448034269.92;(0.3507329702377319, 0.8241074138217502);35.4212265015;0.714885636;;;;;;;;;;;;;;6;0;0;;0;0;();();(-2000.0, -2000.0);
04:28:31:943;04:28:31:942;1448034270.0;(0.6463880062103271, 0.6738976796468099);67.0421447754;1.0;;;;;;;;;;;;;;6;0;0;;0;0;();();(-2000.0, -2000.0);
04:28:31:959;04:28:31:942;1448034270.0;(0.6463880062103271, 0.6738976796468099);67.0421447754;1.0;;;;;;;;;;;;;;6;0;0;;0;0;();();(-2000.0, -2000.0);
04:28:31:992;04:28:31:982;1448034270.06;(0.6459321498870849, 0.6737681918674046);67.0919342041;1.0;;;;;;;;;;;;;;6;0;0;;0;0;();();(-2000.0, -2000.0);
04:28:32:008;04:28:31:982;1448034270.06;(0.6459321498870849, 0.6737681918674046);67.0919342041;1.0;;;;;;;;;;;;;;6;0;0;;0;0;();();(-2000.0, -2000.0);
04:28:32:025;04:28:32:021;1448034270.09;(0.6455608367919922, 0.6745205137464736);67.3712158203;1.0;;;;;;;;;;;;;;6;0;0;;0;0;();();(-2000.0, -2000.0);
04:28:32:043;04:28:32:021;1448034270.09;(0.6455608367919922, 0.6745205137464736);67.3712158203;1.0;;;;;;;;;;;;;;6;0;0;;0;0;();();(-2000.0, -2000.0);
04:28:32:058;04:28:32:021;1448034270.09;(0.6455608367919922, 0.6745205137464736);67.3712158203;1.0;;;;;;;;;;;;;;6;0;0;;0;0;();();(-2000.0, -2000.0);
04:28:32:093;04:28:32:065;1448034270.12;(0.6452379703521729, 0.6743481742011177);68.2878723145;1.0;;;;;;;;;;;;;;6;0;0;;0;0;();();(-2000.0, -2000.0);
04:28:32:109;04:28:32:106;1448034270.16;(0.6452723503112793, 0.6741750293307834);68.3264389038;1.0;;;;;;;;;;;;;;6;0;0;;0;0;();();(-2000.0, -2000.0);
04:28:32:124;04:28:32:106;1448034270.16;(0.6452723503112793, 0.6741750293307834);68.3264389038;1.0;;;;;;;;;;;;;;6;0;0;;0;0;();();(-2000.0, -2000.0);
04:28:32:141;04:28:32:106;1448034270.16;(0.6452723503112793, 0.6741750293307834);68.3264389038;1.0;;;;;;;;;;;;;;6;0;0;;0;0;();();(-2000.0, -2000.0);
04:28:32:175;04:28:32:149;1448034270.19;(0.6449933528900147, 0.6740071614583334);68.9824447632;1.0;;;;;;;;;;;;;;6;0;0;;0;0;();();(-2000.0, -2000.0);
04:28:32:191;04:28:32:149;1448034270.19;(0.6449933528900147, 0.6740071614583334);68.9824447632;1.0;;;;;;;;;;;;;;6;0;0;;0;0;();();(-2000.0, -2000.0);
04:28:32:208;04:28:32:149;1448034270.19;(0.6449933528900147, 0.6740071614583334);68.9824447632;1.0;;;;;;;;;;;;;;6;0;0;;0;0;();();(-2000.0, -2000.0);
04:28:32:224;04:28:32:149;1448034270.19;(0.6449933528900147, 0.6740071614583334);68.9824447632;1.0;;;;;;;;;;;;;;6;0;0;;0;0;();();(-2000.0, -2000.0);
04:28:32:241;04:28:32:149;1448034270.19;(0.6449933528900147, 0.6740071614583334);68.9824447632;1.0;;;;;;;;;;;;;;6;0;0;;0;0;();();(-2000.0, -2000.0);
04:28:32:274;04:28:32:273;1448034270.33;(0.6329026222229004, 0.6820633994208443);70.1905441284;1.0;;;;;;;;;;;;;;6;0;0;;0;0;();();(-2000.0, -2000.0);
04:28:32:290;04:28:32:273;1448034270.33;(0.6329026222229004, 0.6820633994208443);70.1905441284;1.0;;;;;;;;;;;;;;6;0;0;;0;0;();();(-2000.0, -2000.0);
04:28:32:307;04:28:32:273;1448034270.33;(0.6329026222229004, 0.6820633994208443);70.1905441284;1.0;;;;;;;;;;;;;;6;0;0;;0;0;();();(-2000.0, -2000.0);
04:28:32:323;04:28:32:314;1448034270.39;(0.6324445247650147, 0.6825493918524848);70.8419265747;1.0;;;;;;;;;;;;;;6;0;0;;0;0;();();(-2000.0, -2000.0);
04:28:32:341;04:28:32:314;1448034270.39;(0.6324445247650147, 0.6825493918524848);70.8419265747;1.0;;;;;;;;;;;;;;6;0;0;;0;0;();();(-2000.0, -2000.0);
04:28:32:374;04:28:32:354;1448034270.42;(0.632417631149292, 0.6824481752183702);70.6893768311;1.0;;;;;;;;;;;;;;6;0;0;;0;0;();();(-2000.0, -2000.0);
04:28:32:390;04:28:32:354;1448034270.42;(0.632417631149292, 0.6824481752183702);70.6893768311;1.0;;;;;;;;;;;;;;6;0;0;;0;0;();();(-2000.0, -2000.0);
04:28:32:406;04:28:32:397;1448034270.46;(0.6320616722106933, 0.6824884838528104);70.5418624878;1.0;;;;;;;;;;;;;;6;0;0;;0;0;();();(-2000.0, -2000.0);
04:28:32:423;04:28:32:397;1448034270.46;(0.6320616722106933, 0.6824884838528104);70.5418624878;1.0;;;;;;;;;;;;;;6;0;0;;0;0;();();(-2000.0, -2000.0);
04:28:32:441;04:28:32:437;1448034270.49;(0.6309415817260742, 0.6829596413506402);70.5615539551;1.0;;;;;;;;;;;;;;6;0;0;;0;0;();();(-2000.0, -2000.0);
04:28:32:473;04:28:32:437;1448034270.49;(0.6309415817260742, 0.6829596413506402);70.5615539551;1.0;;;;;;;;;;;;;;6;0;0;;0;0;();();(-2000.0, -2000.0);
04:28:32:489;04:28:32:481;1448034270.52;(0.6192995071411133, 0.6899036195543078);71.2043762207;1.0;;;;;;;;;;;;;;6;0;0;;0;0;();();(-2000.0, -2000.0);
04:28:32:506;04:28:32:481;1448034270.52;(0.6192995071411133, 0.6899036195543078);71.2043762207;1.0;;;;;;;;;;;;;;6;0;0;;0;0;();();(-2000.0, -2000.0);
04:28:32:527;04:28:32:522;1448034270.59;(0.6198431491851807, 0.6899831771850586);71.0138015747;1.0;;;;;;;;;;;;;;6;0;0;;0;0;();();(-2000.0, -2000.0);
04:28:32:539;04:28:32:522;1448034270.59;(0.6198431491851807, 0.6899831771850586);71.0138015747;1.0;;;;;;;;;;;;;;6;0;0;;0;0;();();(-2000.0, -2000.0);
04:28:32:573;04:28:32:562;1448034270.62;(0.6199425220489502, 0.6906442006429037);71.1086883545;1.0;;;;;;;;;;;;;;6;0;0;;0;0;();();(-2000.0, -2000.0);
04:28:32:589;04:28:32:562;1448034270.62;(0.6199425220489502, 0.6906442006429037);71.1086883545;1.0;;;;;;;;;;;;;;6;0;0;;0;0;();();(-2000.0, -2000.0);
04:28:32:606;04:28:32:606;1448034270.66;(0.620187520980835, 0.6902983135647244);71.0341415405;1.0;;;;;;;;;;;;;;6;0;0;;0;0;();();(-2000.0, -2000.0);
04:28:32:622;04:28:32:606;1448034270.66;(0.620187520980835, 0.6902983135647244);71.0341415405;1.0;;;;;;;;;;;;;;6;0;0;;0;0;();();(-2000.0, -2000.0);
04:28:32:639;04:28:32:606;1448034270.66;(0.620187520980835, 0.6902983135647244);71.0341415405;1.0;;;;;;;;;;;;;;6;0;0;;0;0;();();(-2000.0, -2000.0);
04:28:32:672;04:28:32:645;1448034270.69;(0.6201735973358155, 0.6905253516303169);70.7226104736;1.0;;;;;;;;;;;;;;6;0;0;;0;0;();();(-2000.0, -2000.0);
04:28:32:689;04:28:32:686;1448034270.76;(0.6196904659271241, 0.6901957194010417);70.7469100952;1.0;;;;;;;;;;;;;;6;0;0;;0;0;();();(-2000.0, -2000.0);
04:28:32:705;04:28:32:686;1448034270.76;(0.6196904659271241, 0.6901957194010417);70.7469100952;1.0;;;;;;;;;;;;;;6;0;0;;0;0;();();(-2000.0, -2000.0);
04:28:32:722;04:28:32:686;1448034270.76;(0.6196904659271241, 0.6901957194010417);70.7469100952;1.0;;;;;;;;;;;;;;6;0;0;;0;0;();();(-2000.0, -2000.0);
04:28:32:756;04:28:32:737;1448034270.79;(0.6195134162902832, 0.6888561248779297);70.9013290405;1.0;;;;;;;;;;;;;;6;0;0;;0;0;();();(-2000.0, -2000.0);
04:28:32:771;04:28:32:769;1448034270.82;(0.6192357540130615, 0.6888565063476563);71.4064102173;1.0;;;;;;;;;;;;;;6;0;0;;0;0;();();(-2000.0, -2000.0);
04:28:32:788;04:28:32:769;1448034270.82;(0.6192357540130615, 0.6888565063476563);71.4064102173;1.0;;;;;;;;;;;;;;6;0;0;;0;0;();();(-2000.0, -2000.0);
04:28:32:805;04:28:32:769;1448034270.82;(0.6192357540130615, 0.6888565063476563);71.4064102173;1.0;;;;;;;;;;;;;;6;0;0;;0;0;();();(-2000.0, -2000.0);
04:28:32:821;04:28:32:814;1448034270.89;(0.6198458671569824, 0.6886869218614367);71.3773956299;1.0;;;;;;;;;;;;;;6;0;0;;0;0;();();(-2000.0, -2000.0);
04:28:32:854;04:28:32:814;1448034270.89;(0.6198458671569824, 0.6886869218614367);71.3773956299;1.0;;;;;;;;;;;;;;6;0;0;;0;0;();();(-2000.0, -2000.0);
04:28:32:871;04:28:32:855;1448034270.92;(0.6197900772094727, 0.6883468627929688);71.5280685425;1.0;;;;;;;;;;;;;;6;0;0;;0;0;();();(-2000.0, -2000.0);
04:28:32:887;04:28:32:855;1448034270.92;(0.6197900772094727, 0.6883468627929688);71.5280685425;1.0;;;;;;;;;;;;;;6;0;0;;0;0;();();(-2000.0, -2000.0);
04:28:32:904;04:28:32:893;1448034270.96;(0.6199918270111084, 0.6886809878879123);71.6326370239;1.0;;;;;;;;;;;;;;6;0;0;;0;0;();();(-2000.0, -2000.0);
04:28:32:921;04:28:32:893;1448034270.96;(0.6199918270111084, 0.6886809878879123);71.6326370239;1.0;;;;;;;;;;;;;;6;0;0;;0;0;();();(-2000.0, -2000.0);
04:28:32:954;04:28:32:938;1448034270.99;(0.6201406002044678, 0.6884562598334418);71.332244873;1.0;;;;;;;;;;;;;;6;0;0;;0;0;();();(-2000.0, -2000.0);
04:28:32:970;04:28:32:938;1448034270.99;(0.6201406002044678, 0.6884562598334418);71.332244873;1.0;;;;;;;;;;;;;;6;0;0;;0;0;();();(-2000.0, -2000.0);
04:28:32:987;04:28:32:977;1448034271.02;(0.6197806835174561, 0.6887211905585395);71.7923660278;1.0;;;;;;;;;;;;;;6;0;0;;0;0;();();(-2000.0, -2000.0);
04:28:33:003;04:28:32:977;1448034271.02;(0.6197806835174561, 0.6887211905585395);71.7923660278;1.0;;;;;;;;;;;;;;6;0;0;;0;0;();();(-2000.0, -2000.0);
04:28:33:020;04:28:32:977;1448034271.02;(0.6197806835174561, 0.6887211905585395);71.7923660278;1.0;;;;;;;;;;;;;;6;0;0;;0;0;();();(-2000.0, -2000.0);
04:28:33:054;04:28:33:021;1448034271.06;(0.6192996025085449, 0.6883742438422309);71.7236328125;1.0;;;;;;;;;;;;;;6;0;0;;0;0;();();(-2000.0, -2000.0);
04:28:33:069;04:28:33:061;1448034271.09;(0, 0);0;0;;;;;;;;;;;;;;6;0;0;;0;0;();();(-2000.0, -2000.0);
04:28:33:086;04:28:33:061;1448034271.09;(0, 0);0;0;;;;;;;;;;;;;;6;0;0;;0;0;();();(-2000.0, -2000.0);
04:28:33:103;04:28:33:101;1448034271.12;(0.6372119426727295, 0.665460205078125);70.9611434937;1.0;;;;;;;;;;;;;;6;0;0;;0;0;();();(-2000.0, -2000.0);
04:28:33:119;04:28:33:101;1448034271.12;(0.6372119426727295, 0.665460205078125);70.9611434937;1.0;;;;;;;;;;;;;;6;0;0;;0;0;();();(-2000.0, -2000.0);
04:28:33:153;04:28:33:147;1448034271.19;(0.6376253128051758, 0.6661926481458875);70.7684707642;1.0;;;;;;;;;;;;;;6;0;0;;0;0;();();(-2000.0, -2000.0);
04:28:33:169;04:28:33:147;1448034271.19;(0.6376253128051758, 0.6661926481458875);70.7684707642;1.0;;;;;;;;;;;;;;6;0;0;;0;0;();();(-2000.0, -2000.0);
04:28:33:186;04:28:33:147;1448034271.19;(0.6376253128051758, 0.6661926481458875);70.7684707642;1.0;;;;;;;;;;;;;;6;0;0;;0;0;();();(-2000.0, -2000.0);
04:28:33:202;04:28:33:191;1448034271.26;(0.6381666660308838, 0.6666062672932942);70.0835418701;1.0;;;;;;;;;;;;;;6;0;0;;0;0;();();(-2000.0, -2000.0);
04:28:33:219;04:28:33:191;1448034271.26;(0.6381666660308838, 0.6666062672932942);70.0835418701;1.0;;;;;;;;;;;;;;6;0;0;;0;0;();();(-2000.0, -2000.0);
04:28:33:252;04:28:33:226;1448034271.29;(0.637864351272583, 0.6673516379462348);70.4741897583;1.0;;;;;;;;;;;;;;6;0;0;;0;0;();();(-2000.0, -2000.0);
04:28:33:268;04:28:33:226;1448034271.29;(0.637864351272583, 0.6673516379462348);70.4741897583;1.0;;;;;;;;;;;;;;6;0;0;;0;0;();();(-2000.0, -2000.0);
04:28:33:285;04:28:33:269;1448034271.32;(0.6374842166900635, 0.6678313573201498);70.7535247803;1.0;;;;;;;;;;;;;;6;0;0;;0;0;();();(-2000.0, -2000.0);
04:28:33:301;04:28:33:269;1448034271.32;(0.6374842166900635, 0.6678313573201498);70.7535247803;1.0;;;;;;;;;;;;;;6;0;0;;0;0;();();(-2000.0, -2000.0);
04:28:33:335;04:28:33:309;1448034271.36;(0.637151575088501, 0.668657620747884);70.3975524902;1.0;;;;;;;;;;;;;;6;0;0;;0;0;();();(-2000.0, -2000.0);
04:28:33:351;04:28:33:351;1448034271.42;(0.6365424633026123, 0.6681258731418186);70.1500854492;1.0;;;;;;;;;;;;;;6;0;0;;0;0;();();(-2000.0, -2000.0);
04:28:33:368;04:28:33:351;1448034271.42;(0.6365424633026123, 0.6681258731418186);70.1500854492;1.0;;;;;;;;;;;;;;6;0;0;;0;0;();();(-2000.0, -2000.0);
