%Timestamp,timestamp_write;timestamp_gotpupil;eyetrackertime;norm_pos;diameter;confidence;timestamp_gotbitdata;CRC;SEQ;AnalogOutp1;AnalogOutp2;AnalogOutp3;AnalogOutp4;AnalogOutp5;AnalogOutp6;DigitalOutp1;DigitalOutp2;igitalOutp3;DigitalOutp4;nplanes;lastaction;lastactiondetails;lastactionairplanenumber;positivescore;negativescore;collidedairplanenumbers;targetpositions;collision_point
11:57:43:608;1448061221.07;(0.4014249801635742, 0.6848490397135416);50.3438682556;1.0;;;;;;;;;;;;;;0;0;0;;0;0;();();(0.0, 0.0);
11:57:43:616;1448061221.07;(0.4014249801635742, 0.6848490397135416);50.3438682556;1.0;;;;;;;;;;;;;;0;0;0;;0;0;();();(-2000.0, -2000.0);
11:57:43:619;1448061221.07;(0.4014249801635742, 0.6848490397135416);50.3438682556;1.0;;;;;;;;;;;;;;0;0;0;;0;0;();();(-2000.0, -2000.0);
11:57:43:621;1448061221.07;(0.4014249801635742, 0.6848490397135416);50.3438682556;1.0;;;;;;;;;;;;;;0;0;0;;0;0;();();(-2000.0, -2000.0);
11:57:43:624;1448061221.07;(0.4014249801635742, 0.6848490397135416);50.3438682556;1.0;;;;;;;;;;;;;;0;0;0;;0;0;();();(-2000.0, -2000.0);
11:57:43:626;1448061221.07;(0.4014249801635742, 0.6848490397135416);50.3438682556;1.0;;;;;;;;;;;;;;0;0;0;;0;0;();();(-2000.0, -2000.0);
11:57:43:628;1448061221.07;(0.4014249801635742, 0.6848490397135416);50.3438682556;1.0;;;;;;;;;;;;;;0;0;0;;0;0;();();(-2000.0, -2000.0);
11:57:43:630;1448061221.07;(0.4014249801635742, 0.6848490397135416);50.3438682556;1.0;;;;;;;;;;;;;;0;0;0;;0;0;();();(-2000.0, -2000.0);
11:57:43:633;1448061221.07;(0.4014249801635742, 0.6848490397135416);50.3438682556;1.0;;;;;;;;;;;;;;0;0;0;;0;0;();();(-2000.0, -2000.0);
11:57:43:635;1448061221.07;(0.4014249801635742, 0.6848490397135416);50.3438682556;1.0;;;;;;;;;;;;;;0;0;0;;0;0;();();(-2000.0, -2000.0);
11:57:43:637;1448061221.07;(0.4014249801635742, 0.6848490397135416);50.3438682556;1.0;;;;;;;;;;;;;;0;0;0;;0;0;();();(-2000.0, -2000.0);
11:57:43:639;1448061221.07;(0.4014249801635742, 0.6848490397135416);50.3438682556;1.0;;;;;;;;;;;;;;0;0;0;;0;0;();();(-2000.0, -2000.0);
11:57:43:641;1448061221.07;(0.4014249801635742, 0.6848490397135416);50.3438682556;1.0;;;;;;;;;;;;;;0;0;0;;0;0;();();(-2000.0, -2000.0);
11:57:43:642;1448061221.07;(0.4014249801635742, 0.6848490397135416);50.3438682556;1.0;;;;;;;;;;;;;;0;0;0;;0;0;();();(-2000.0, -2000.0);
11:57:43:643;1448061221.07;(0.4014249801635742, 0.6848490397135416);50.3438682556;1.0;;;;;;;;;;;;;;0;0;0;;0;0;();();(-2000.0, -2000.0);
11:57:43:644;1448061221.07;(0.4014249801635742, 0.6848490397135416);50.3438682556;1.0;;;;;;;;;;;;;;0;0;0;;0;0;();();(-2000.0, -2000.0);
11:57:43:646;1448061221.07;(0.4014249801635742, 0.6848490397135416);50.3438682556;1.0;;;;;;;;;;;;;;0;0;0;;0;0;();();(-2000.0, -2000.0);
11:57:43:647;1448061221.07;(0.4014249801635742, 0.6848490397135416);50.3438682556;1.0;;;;;;;;;;;;;;0;0;0;;0;0;();();(-2000.0, -2000.0);
11:57:43:656;1448061221.07;(0.4014249801635742, 0.6848490397135416);50.3438682556;1.0;;;;;;;;;;;;;;0;0;0;;0;0;();();(-2000.0, -2000.0);
11:57:43:672;11:57:43:667;1448061221.11;(0.3999716997146606, 0.6854784223768446);50.6523628235;1.0;;;;;;;;;;;;;;0;0;0;;0;0;();();(-2000.0, -2000.0);
11:57:43:707;11:57:43:667;1448061221.11;(0.3999716997146606, 0.6854784223768446);50.6523628235;1.0;;;;;;;;;;;;;;0;0;0;;0;0;();();(-2000.0, -2000.0);
11:57:43:723;11:57:43:667;1448061221.11;(0.3999716997146606, 0.6854784223768446);50.6523628235;1.0;;;;;;;;;;;;;;0;0;0;;0;0;();();(-2000.0, -2000.0);
11:57:43:739;11:57:43:734;1448061221.21;(0.3969770669937134, 0.6861275990804037);50.7467880249;1.0;;;;;;;;;;;;;;0;0;0;;0;0;();();(-2000.0, -2000.0);
11:57:43:756;11:57:43:734;1448061221.21;(0.3969770669937134, 0.6861275990804037);50.7467880249;1.0;;;;;;;;;;;;;;0;0;0;;0;0;();();(-2000.0, -2000.0);
11:57:48:666;11:57:48:650;1448061225.98;(0.2822034597396851, 0.5197928534613716);34.4623451233;0.891491056488;;;;;;;;;;;;;;0;0;0;;0;0;();();(-2000.0, -2000.0);
11:57:48:668;11:57:48:650;1448061225.98;(0.2822034597396851, 0.5197928534613716);34.4623451233;0.891491056488;;;;;;;;;;;;;;0;0;0;;0;0;();();(-2000.0, -2000.0);
11:57:48:671;11:57:48:650;1448061225.98;(0.2822034597396851, 0.5197928534613716);34.4623451233;0.891491056488;;;;;;;;;;;;;;0;0;0;;0;0;();();(-2000.0, -2000.0);
11:57:48:673;11:57:48:650;1448061225.98;(0.2822034597396851, 0.5197928534613716);34.4623451233;0.891491056488;;;;;;;;;;;;;;0;0;0;;0;0;();();(-2000.0, -2000.0);
11:57:48:676;11:57:48:650;1448061225.98;(0.2822034597396851, 0.5197928534613716);34.4623451233;0.891491056488;;;;;;;;;;;;;;0;0;0;;0;0;();();(-2000.0, -2000.0);
11:57:48:678;11:57:48:650;1448061225.98;(0.2822034597396851, 0.5197928534613716);34.4623451233;0.891491056488;;;;;;;;;;;;;;0;0;0;;0;0;();();(-2000.0, -2000.0);
11:57:48:681;11:57:48:650;1448061225.98;(0.2822034597396851, 0.5197928534613716);34.4623451233;0.891491056488;;;;;;;;;;;;;;0;0;0;;0;0;();();(-2000.0, -2000.0);
11:57:48:682;11:57:48:650;1448061225.98;(0.2822034597396851, 0.5197928534613716);34.4623451233;0.891491056488;;;;;;;;;;;;;;0;0;0;;0;0;();();(-2000.0, -2000.0);
11:57:48:683;11:57:48:650;1448061225.98;(0.2822034597396851, 0.5197928534613716);34.4623451233;0.891491056488;;;;;;;;;;;;;;0;0;0;;0;0;();();(-2000.0, -2000.0);
11:57:48:684;11:57:48:650;1448061225.98;(0.2822034597396851, 0.5197928534613716);34.4623451233;0.891491056488;;;;;;;;;;;;;;0;0;0;;0;0;();();(-2000.0, -2000.0);
11:57:48:686;11:57:48:650;1448061225.98;(0.2822034597396851, 0.5197928534613716);34.4623451233;0.891491056488;;;;;;;;;;;;;;0;0;0;;0;0;();();(-2000.0, -2000.0);
11:57:48:687;11:57:48:650;1448061225.98;(0.2822034597396851, 0.5197928534613716);34.4623451233;0.891491056488;;;;;;;;;;;;;;0;0;0;;0;0;();();(-2000.0, -2000.0);
11:57:48:688;11:57:48:650;1448061225.98;(0.2822034597396851, 0.5197928534613716);34.4623451233;0.891491056488;;;;;;;;;;;;;;0;0;0;;0;0;();();(-2000.0, -2000.0);
11:57:48:689;11:57:48:650;1448061225.98;(0.2822034597396851, 0.5197928534613716);34.4623451233;0.891491056488;;;;;;;;;;;;;;0;0;0;;0;0;();();(-2000.0, -2000.0);
11:57:48:691;11:57:48:650;1448061225.98;(0.2822034597396851, 0.5197928534613716);34.4623451233;0.891491056488;;;;;;;;;;;;;;0;0;0;;0;0;();();(-2000.0, -2000.0);
11:57:48:692;11:57:48:650;1448061225.98;(0.2822034597396851, 0.5197928534613716);34.4623451233;0.891491056488;;;;;;;;;;;;;;0;0;0;;0;0;();();(-2000.0, -2000.0);
11:57:48:694;11:57:48:650;1448061225.98;(0.2822034597396851, 0.5197928534613716);34.4623451233;0.891491056488;;;;;;;;;;;;;;0;0;0;;0;0;();();(-2000.0, -2000.0);
11:57:48:695;11:57:48:650;1448061225.98;(0.2822034597396851, 0.5197928534613716);34.4623451233;0.891491056488;;;;;;;;;;;;;;0;0;0;;0;0;();();(-2000.0, -2000.0);
11:57:48:710;11:57:48:650;1448061225.98;(0.2822034597396851, 0.5197928534613716);34.4623451233;0.891491056488;;;;;;;;;;;;;;0;0;0;;0;0;();();(-2000.0, -2000.0);
11:57:48:744;11:57:48:650;1448061225.98;(0.2822034597396851, 0.5197928534613716);34.4623451233;0.891491056488;;;;;;;;;;;;;;0;0;0;;0;0;();();(-2000.0, -2000.0);
11:57:48:763;11:57:48:650;1448061225.98;(0.2822034597396851, 0.5197928534613716);34.4623451233;0.891491056488;;;;;;;;;;;;;;0;0;0;;0;0;();();(-2000.0, -2000.0);
11:57:48:777;11:57:48:776;1448061226.11;(0.2942723512649536, 0.5401393466525608);28.9814453125;1.0;;;;;;;;;;;;;;0;0;0;;0;0;();();(-2000.0, -2000.0);
11:57:48:794;11:57:48:777;1448061226.23;(0.24127745628356934, 0.4838085598415799);24.3447189331;0.81432296767;;;;;;;;;;;;;;0;0;0;;0;0;();();(-2000.0, -2000.0);
11:57:48:811;11:57:48:777;1448061226.23;(0.24127745628356934, 0.4838085598415799);24.3447189331;0.81432296767;;;;;;;;;;;;;;0;0;0;;0;0;();();(-2000.0, -2000.0);
11:57:48:827;11:57:48:777;1448061226.23;(0.24127745628356934, 0.4838085598415799);24.3447189331;0.81432296767;;;;;;;;;;;;;;0;0;0;;0;0;();();(-2000.0, -2000.0);
11:57:48:860;11:57:48:845;1448061226.31;(0.29268755912780764, 0.5157636006673176);20.2090702057;0.672459564152;;;;;;;;;;;;;;0;0;0;;0;0;();();(-2000.0, -2000.0);
11:57:48:877;11:57:48:845;1448061226.31;(0.29268755912780764, 0.5157636006673176);20.2090702057;0.672459564152;;;;;;;;;;;;;;0;0;0;;0;0;();();(-2000.0, -2000.0);
11:57:48:893;11:57:48:845;1448061226.31;(0.29268755912780764, 0.5157636006673176);20.2090702057;0.672459564152;;;;;;;;;;;;;;0;0;0;;0;0;();();(-2000.0, -2000.0);
11:57:48:911;11:57:48:908;1448061226.34;(0.22194732427597047, 0.5366304609510634);26.2364845276;0.715751465024;;;;;;;;;;;;;;0;0;0;;0;0;();();(-2000.0, -2000.0);
11:57:48:927;11:57:48:908;1448061226.34;(0.22194732427597047, 0.5366304609510634);26.2364845276;0.715751465024;;;;;;;;;;;;;;0;0;0;;0;0;();();(-2000.0, -2000.0);
11:57:48:960;11:57:48:908;1448061226.34;(0.22194732427597047, 0.5366304609510634);26.2364845276;0.715751465024;;;;;;;;;;;;;;0;0;0;;0;0;();();(-2000.0, -2000.0);
11:57:48:976;11:57:48:908;1448061226.34;(0.22194732427597047, 0.5366304609510634);26.2364845276;0.715751465024;;;;;;;;;;;;;;0;0;0;;0;0;();();(-2000.0, -2000.0);
11:57:48:992;11:57:48:978;1448061226.44;(0.44516811370849607, 0.7025056627061632);61.8367652893;1.0;;;;;;;;;;;;;;0;0;0;;0;0;();();(-2000.0, -2000.0);
11:57:49:011;11:57:48:978;1448061226.44;(0.44516811370849607, 0.7025056627061632);61.8367652893;1.0;;;;;;;;;;;;;;0;0;0;;0;0;();();(-2000.0, -2000.0);
11:57:49:028;11:57:48:978;1448061226.44;(0.44516811370849607, 0.7025056627061632);61.8367652893;1.0;;;;;;;;;;;;;;0;0;0;;0;0;();();(-2000.0, -2000.0);
11:57:49:060;11:57:49:041;1448061226.47;(0.4423248291015625, 0.7046426349216037);62.5265045166;1.0;;;;;;;;;;;;;;0;0;0;;0;0;();();(-2000.0, -2000.0);
11:57:49:078;11:57:49:041;1448061226.47;(0.4423248291015625, 0.7046426349216037);62.5265045166;1.0;;;;;;;;;;;;;;0;0;0;;0;0;();();(-2000.0, -2000.0);
11:57:49:094;11:57:49:041;1448061226.47;(0.4423248291015625, 0.7046426349216037);62.5265045166;1.0;;;;;;;;;;;;;;0;0;0;;0;0;();();(-2000.0, -2000.0);
11:57:49:111;11:57:49:109;1448061226.57;(0.16599135398864745, 0.6920305887858074);20.5385494232;0.920765269635;;;;;;;;;;;;;;0;0;0;;0;0;();();(-2000.0, -2000.0);
11:57:49:127;11:57:49:109;1448061226.57;(0.16599135398864745, 0.6920305887858074);20.5385494232;0.920765269635;;;;;;;;;;;;;;0;0;0;;0;0;();();(-2000.0, -2000.0);
11:57:49:160;11:57:49:109;1448061226.57;(0.16599135398864745, 0.6920305887858074);20.5385494232;0.920765269635;;;;;;;;;;;;;;0;0;0;;0;0;();();(-2000.0, -2000.0);
11:57:49:177;11:57:49:177;1448061226.61;(0.16587201356887818, 0.6924692789713542);21.3812446594;0.812215303088;;;;;;;;;;;;;;0;0;0;;0;0;();();(-2000.0, -2000.0);
11:57:49:195;11:57:49:178;1448061226.64;(0.16566349267959596, 0.6917085859510634);21.9619789124;0.992374910334;;;;;;;;;;;;;;0;0;0;;0;0;();();(-2000.0, -2000.0);
11:57:49:211;11:57:49:178;1448061226.64;(0.16566349267959596, 0.6917085859510634);21.9619789124;0.992374910334;;;;;;;;;;;;;;0;0;0;;0;0;();();(-2000.0, -2000.0);
11:57:49:227;11:57:49:178;1448061226.64;(0.16566349267959596, 0.6917085859510634);21.9619789124;0.992374910334;;;;;;;;;;;;;;0;0;0;;0;0;();();(-2000.0, -2000.0);
11:57:49:261;11:57:49:241;1448061226.71;(0.4276127815246582, 0.6992280536227756);62.69581604;0.863394101858;;;;;;;;;;;;;;0;0;0;;0;0;();();(-2000.0, -2000.0);
11:57:49:277;11:57:49:241;1448061226.71;(0.4276127815246582, 0.6992280536227756);62.69581604;0.863394101858;;;;;;;;;;;;;;0;0;0;;0;0;();();(-2000.0, -2000.0);
11:57:49:294;11:57:49:241;1448061226.71;(0.4276127815246582, 0.6992280536227756);62.69581604;0.863394101858;;;;;;;;;;;;;;0;0;0;;0;0;();();(-2000.0, -2000.0);
11:57:49:310;11:57:49:308;1448061226.77;(0.4246994972229004, 0.6971346537272136);61.2441940308;0.827227061396;;;;;;;;;;;;;;0;0;0;;0;0;();();(-2000.0, -2000.0);
11:57:49:327;11:57:49:308;1448061226.77;(0.4246994972229004, 0.6971346537272136);61.2441940308;0.827227061396;;;;;;;;;;;;;;0;0;0;;0;0;();();(-2000.0, -2000.0);
11:57:49:893;11:57:49:838;1448061227.31;(0.44820661544799806, 0.6957235972086588);60.1686019897;1.0;11:57:49:890;0;9;-1.5;1;0;0;0;0;1;1;1;1;2;0;0;;0;0;();();(-2000.0, -2000.0);
11:57:49:899;11:57:49:838;1448061227.31;(0.44820661544799806, 0.6957235972086588);60.1686019897;1.0;11:57:49:899;0;9;-1.5;1;0;0;0;0;1;1;1;1;2;0;0;;0;0;();();(-2000.0, -2000.0);
11:57:49:904;11:57:49:838;1448061227.31;(0.44820661544799806, 0.6957235972086588);60.1686019897;1.0;11:57:49:904;0;5;-1.5;1;0;0;0;0;1;1;1;1;2;0;0;;0;0;();();(-2000.0, -2000.0);
11:57:49:907;11:57:49:838;1448061227.31;(0.44820661544799806, 0.6957235972086588);60.1686019897;1.0;11:57:49:907;0;15;-1.5;1;0;0;0;0;1;1;1;1;2;0;0;;0;0;();();(-2000.0, -2000.0);
11:57:49:909;11:57:49:907;1448061227.34;(0.44425191879272463, 0.6892328686184354);58.1046180725;1.0;11:57:49:909;0;15;-1.5;1;0;0;0;0;1;1;1;1;2;0;0;;0;0;();();(-2000.0, -2000.0);
11:57:49:911;11:57:49:907;1448061227.34;(0.44425191879272463, 0.6892328686184354);58.1046180725;1.0;11:57:49:911;0;15;-1.5;1;0;0;0;0;1;1;1;1;2;0;0;;0;0;();();(-2000.0, -2000.0);
11:57:49:912;11:57:49:907;1448061227.34;(0.44425191879272463, 0.6892328686184354);58.1046180725;1.0;11:57:49:912;0;15;-1.5;1;0;0;0;0;1;1;1;1;2;0;0;;0;0;();();(-2000.0, -2000.0);
11:57:49:914;11:57:49:907;1448061227.34;(0.44425191879272463, 0.6892328686184354);58.1046180725;1.0;11:57:49:914;0;15;-1.5;1;0;0;0;0;1;1;1;1;2;0;0;;0;0;();();(-2000.0, -2000.0);
11:57:49:915;11:57:49:907;1448061227.34;(0.44425191879272463, 0.6892328686184354);58.1046180725;1.0;11:57:49:915;0;10;-1.5;1;0;0;0;0;1;1;1;1;2;0;0;;0;0;();();(-2000.0, -2000.0);
11:57:49:916;11:57:49:907;1448061227.34;(0.44425191879272463, 0.6892328686184354);58.1046180725;1.0;11:57:49:916;0;10;-1.5;1;0;0;0;0;1;1;1;1;2;0;0;;0;0;();();(-2000.0, -2000.0);
11:57:49:917;11:57:49:907;1448061227.34;(0.44425191879272463, 0.6892328686184354);58.1046180725;1.0;11:57:49:917;0;10;-1.5;1;0;0;0;0;1;1;1;1;2;0;0;;0;0;();();(-2000.0, -2000.0);
11:57:49:918;11:57:49:907;1448061227.34;(0.44425191879272463, 0.6892328686184354);58.1046180725;1.0;11:57:49:918;0;10;-1.5;1;0;0;0;0;1;1;1;1;2;0;0;;0;0;();();(-2000.0, -2000.0);
11:57:49:920;11:57:49:907;1448061227.34;(0.44425191879272463, 0.6892328686184354);58.1046180725;1.0;11:57:49:920;0;10;-1.5;1;0;0;0;0;1;1;1;1;2;0;0;;0;0;();();(-2000.0, -2000.0);
11:57:49:921;11:57:49:907;1448061227.34;(0.44425191879272463, 0.6892328686184354);58.1046180725;1.0;11:57:49:921;0;10;-1.5;1;0;0;0;0;1;1;1;1;2;0;0;;0;0;();();(-2000.0, -2000.0);
11:57:49:922;11:57:49:907;1448061227.34;(0.44425191879272463, 0.6892328686184354);58.1046180725;1.0;11:57:49:922;0;10;-1.5;1;0;0;0;0;1;1;1;1;2;0;0;;0;0;();();(-2000.0, -2000.0);
11:57:49:923;11:57:49:907;1448061227.34;(0.44425191879272463, 0.6892328686184354);58.1046180725;1.0;11:57:49:923;0;10;-1.5;1;0;0;0;0;1;1;1;1;2;0;0;;0;0;();();(-2000.0, -2000.0);
11:57:49:924;11:57:49:907;1448061227.34;(0.44425191879272463, 0.6892328686184354);58.1046180725;1.0;11:57:49:924;0;10;-1.5;1;0;0;0;0;1;1;1;1;2;0;0;;0;0;();();(-2000.0, -2000.0);
11:57:49:936;11:57:49:907;1448061227.34;(0.44425191879272463, 0.6892328686184354);58.1046180725;1.0;11:57:49:936;0;4;-1.5;1;0;0;0;0;1;1;1;1;2;0;0;;0;0;();();(-2000.0, -2000.0);
11:57:49:937;11:57:49:907;1448061227.34;(0.44425191879272463, 0.6892328686184354);58.1046180725;1.0;11:57:49:937;0;4;-1.5;1;0;0;0;0;1;1;1;1;2;0;0;;0;0;();();(-2000.0, -2000.0);
11:57:49:939;11:57:49:907;1448061227.34;(0.44425191879272463, 0.6892328686184354);58.1046180725;1.0;11:57:49:939;0;4;-1.5;1;0;0;0;0;1;1;1;1;2;0;0;;0;0;();();(-2000.0, -2000.0);
11:57:49:961;11:57:49:907;1448061227.34;(0.44425191879272463, 0.6892328686184354);58.1046180725;1.0;11:57:49:961;0;10;-1.5;1;0;0;0;0;1;1;1;1;2;0;0;;0;0;();();(-2000.0, -2000.0);
11:57:49:978;11:57:49:973;1448061227.37;(0.43991880416870116, 0.6568707995944553);41.3471069336;0.73776882267;11:57:49:978;0;15;1.78064516129032;1;0;0;0;0;1;1;1;1;2;0;0;;0;0;();();(-2000.0, -2000.0);
11:57:49:995;11:57:49:973;1448061227.37;(0.43991880416870116, 0.6568707995944553);41.3471069336;0.73776882267;11:57:49:995;0;10;1.77741935483871;1;0;0;0;0;1;1;1;1;2;0;0;;0;0;();();(-2000.0, -2000.0);
11:57:50:011;11:57:49:973;1448061227.37;(0.43991880416870116, 0.6568707995944553);41.3471069336;0.73776882267;11:57:50:011;0;15;1.78064516129032;1;0;0;0;0;1;1;1;1;2;0;0;;0;0;();();(-2000.0, -2000.0);
11:57:50:028;11:57:49:973;1448061227.37;(0.43991880416870116, 0.6568707995944553);41.3471069336;0.73776882267;11:57:50:028;0;4;1.79032258064516;1;0;0;0;0;1;1;1;1;2;0;0;;0;0;();();(-2000.0, -2000.0);
11:57:50:061;11:57:50:037;1448061227.46;(0.40617570877075193, 0.6928034040662978);58.8882713318;0.94774136187;11:57:50:061;0;5;-1.5;1;0;0;0;0;1;1;1;1;2;0;0;;0;0;();();(-2000.0, -2000.0);
11:57:50:079;11:57:50:037;1448061227.46;(0.40617570877075193, 0.6928034040662978);58.8882713318;0.94774136187;11:57:50:079;0;9;-1.5;1;0;0;0;0;1;1;1;1;2;0;0;;0;0;();();(-2000.0, -2000.0);
11:57:50:096;11:57:50:037;1448061227.46;(0.40617570877075193, 0.6928034040662978);58.8882713318;0.94774136187;11:57:50:096;0;4;-1.5;1;0;0;0;0;1;1;1;1;2;0;0;;0;0;();();(-2000.0, -2000.0);
11:57:50:112;11:57:50:105;1448061227.54;(0.412182092666626, 0.6972227308485244);60.8283004761;1.0;11:57:50:112;0;10;-1.5;1;0;0;0;0;1;1;1;1;2;0;0;;0;0;();();(-2000.0, -2000.0);
11:57:50:129;11:57:50:105;1448061227.54;(0.412182092666626, 0.6972227308485244);60.8283004761;1.0;11:57:50:129;0;5;-1.5;1;0;0;0;0;1;1;1;1;2;0;0;;0;0;();();(-2000.0, -2000.0);
11:57:50:162;11:57:50:105;1448061227.54;(0.412182092666626, 0.6972227308485244);60.8283004761;1.0;11:57:50:162;0;5;-1.5;1;0;0;0;0;1;1;1;1;2;0;0;;0;0;();();(-2000.0, -2000.0);
11:57:50:178;11:57:50:171;1448061227.64;(0.41632881164550783, 0.6992696974012587);60.5586357117;0.873696860964;11:57:50:178;0;5;-1.5;1;0;0;0;0;1;1;1;1;2;0;0;;0;0;();();(-2000.0, -2000.0);
11:57:50:195;11:57:50:171;1448061227.64;(0.41632881164550783, 0.6992696974012587);60.5586357117;0.873696860964;11:57:50:195;0;15;-1.5;1;0;0;0;0;1;1;1;1;2;0;0;;0;0;();();(-2000.0, -2000.0);
11:57:50:212;11:57:50:171;1448061227.64;(0.41632881164550783, 0.6992696974012587);60.5586357117;0.873696860964;11:57:50:212;0;15;-1.5;1;0;0;0;0;1;1;1;1;2;0;0;;0;0;();();(-2000.0, -2000.0);
11:57:50:228;11:57:50:171;1448061227.64;(0.41632881164550783, 0.6992696974012587);60.5586357117;0.873696860964;11:57:50:228;0;4;-1.5;1;0;0;0;0;1;1;1;1;2;0;0;;0;0;();();(-2000.0, -2000.0);
11:57:50:262;11:57:50:238;1448061227.67;(0.41851937770843506, 0.6961999893188476);60.4085502625;1.0;11:57:50:262;0;10;-1.5;1;0;0;0;0;1;1;1;1;2;0;0;;0;0;();();(-2000.0, -2000.0);
11:57:50:278;11:57:50:238;1448061227.67;(0.41851937770843506, 0.6961999893188476);60.4085502625;1.0;11:57:50:278;0;4;1.77741935483871;1;0;0;0;0;1;1;1;1;2;0;0;;0;0;();();(-2000.0, -2000.0);
11:57:50:296;11:57:50:238;1448061227.67;(0.41851937770843506, 0.6961999893188476);60.4085502625;1.0;11:57:50:296;0;15;1.78064516129032;1;0;0;0;0;1;1;1;1;2;0;0;;0;0;();();(-2000.0, -2000.0);
11:57:50:312;11:57:50:305;1448061227.74;(0, 0);0;0;11:57:50:312;0;5;1.78064516129032;1;0;0;0;0;1;1;1;1;2;0;0;;0;0;();();(-2000.0, -2000.0);
11:57:50:328;11:57:50:305;1448061227.74;(0, 0);0;0;11:57:50:328;0;15;-1.5;1;0;0;0;0;1;1;1;1;2;0;0;;0;0;();();(-2000.0, -2000.0);
11:57:50:361;11:57:50:305;1448061227.74;(0, 0);0;0;11:57:50:361;0;4;-1.5;1;0;0;0;0;1;1;1;1;2;0;0;;0;0;();();(-2000.0, -2000.0);
11:57:50:378;11:57:50:369;1448061227.81;(0.355797266960144, 0.6634153789944119);61.3478965759;1.0;11:57:50:378;0;4;-1.5;1;0;0;0;0;1;1;1;1;2;0;0;;0;0;();();(-2000.0, -2000.0);
11:57:50:396;11:57:50:369;1448061227.81;(0.355797266960144, 0.6634153789944119);61.3478965759;1.0;11:57:50:396;0;15;-1.5;1;0;0;0;0;1;1;1;1;2;0;0;;0;0;();();(-2000.0, -2000.0);
11:57:50:412;11:57:50:369;1448061227.81;(0.355797266960144, 0.6634153789944119);61.3478965759;1.0;11:57:50:412;0;10;-1.5;1;0;0;0;0;1;1;1;1;2;0;0;;0;0;();();(-2000.0, -2000.0);
11:57:50:428;11:57:50:369;1448061227.81;(0.355797266960144, 0.6634153789944119);61.3478965759;1.0;11:57:50:428;0;10;-1.5;1;0;0;0;0;1;1;1;1;2;0;0;;0;0;();();(-2000.0, -2000.0);
11:57:50:461;11:57:50:437;1448061227.87;(0.36172709465026853, 0.6653987672593858);61.1476097107;1.0;11:57:50:461;0;15;-1.5;1;0;0;0;0;1;1;1;1;2;0;0;;0;0;();();(-2000.0, -2000.0);
11:57:50:479;11:57:50:437;1448061227.87;(0.36172709465026853, 0.6653987672593858);61.1476097107;1.0;11:57:50:479;0;4;-1.5;1;0;0;0;0;1;1;1;1;2;0;0;;0;0;();();(-2000.0, -2000.0);
11:57:50:495;11:57:50:437;1448061227.87;(0.36172709465026853, 0.6653987672593858);61.1476097107;1.0;11:57:50:495;0;9;1.77741935483871;1;0;0;0;0;1;1;1;1;2;0;0;;0;0;();();(-2000.0, -2000.0);
11:57:50:512;11:57:50:501;1448061227.95;(0.3653153896331787, 0.6646529303656684);61.8832359314;0.803913876804;11:57:50:512;0;14;-1.5;1;0;0;0;0;1;1;1;1;2;0;0;;0;0;();();(-2000.0, -2000.0);
11:57:50:528;11:57:50:501;1448061227.95;(0.3653153896331787, 0.6646529303656684);61.8832359314;0.803913876804;11:57:50:528;0;0;-1.5;1;0;0;0;0;1;1;1;1;2;0;0;;0;0;();();(-2000.0, -2000.0);
11:57:50:562;11:57:50:501;1448061227.95;(0.3653153896331787, 0.6646529303656684);61.8832359314;0.803913876804;11:57:50:562;0;10;-1.5;1;0;0;0;0;1;1;1;1;2;0;0;;0;0;();();(-2000.0, -2000.0);
11:57:50:579;11:57:50:569;1448061228.04;(0.37046027183532715, 0.6663208431667752);61.7000160217;0.839365961279;11:57:50:579;0;4;-1.5;1;0;0;0;0;1;1;1;1;2;0;0;;0;0;();();(-2000.0, -2000.0);
11:57:50:595;11:57:50:569;1448061228.04;(0.37046027183532715, 0.6663208431667752);61.7000160217;0.839365961279;11:57:50:595;0;10;-1.5;1;0;0;0;0;1;1;1;1;2;0;0;;0;0;();();(-2000.0, -2000.0);
11:57:50:612;11:57:50:569;1448061228.04;(0.37046027183532715, 0.6663208431667752);61.7000160217;0.839365961279;11:57:50:612;0;0;-1.5;1;0;0;0;0;1;1;1;1;2;0;0;;0;0;();();(-2000.0, -2000.0);
11:57:50:628;11:57:50:569;1448061228.04;(0.37046027183532715, 0.6663208431667752);61.7000160217;0.839365961279;11:57:50:628;0;10;-1.5;1;0;0;0;0;1;1;1;1;2;0;0;;0;0;();();(-2000.0, -2000.0);
11:57:50:662;11:57:50:637;1448061228.11;(0.3771113395690918, 0.6574801762898763);59.7365074158;0.737696919441;11:57:50:662;0;4;-1.5;1;0;0;0;0;1;1;1;1;2;0;0;;0;0;();();(-2000.0, -2000.0);
11:57:50:679;11:57:50:637;1448061228.11;(0.3771113395690918, 0.6574801762898763);59.7365074158;0.737696919441;11:57:50:679;0;14;-1.5;1;0;0;0;0;1;1;1;1;2;0;0;;0;0;();();(-2000.0, -2000.0);
11:57:50:696;11:57:50:637;1448061228.11;(0.3771113395690918, 0.6574801762898763);59.7365074158;0.737696919441;11:57:50:696;0;10;-1.5;1;0;0;0;0;1;1;1;1;2;0;0;;0;0;();();(-2000.0, -2000.0);
11:57:50:712;11:57:50:701;1448061228.14;(0.5063686847686768, 0.6334223217434354);36.5014724731;0.633042350982;11:57:50:712;0;15;-1.5;1;0;0;0;0;1;1;1;1;2;0;0;;0;0;();();(-2000.0, -2000.0);
11:57:50:729;11:57:50:701;1448061228.14;(0.5063686847686768, 0.6334223217434354);36.5014724731;0.633042350982;11:57:50:729;0;4;-1.5;1;0;0;0;0;1;1;1;1;2;0;0;;0;0;();();(-2000.0, -2000.0);
11:57:50:762;11:57:50:701;1448061228.14;(0.5063686847686768, 0.6334223217434354);36.5014724731;0.633042350982;11:57:50:762;0;4;-1.5;1;0;0;0;0;1;1;1;1;2;0;0;;0;0;();();(-2000.0, -2000.0);
11:57:50:779;11:57:50:769;1448061228.21;(0.3893932342529297, 0.6697895261976454);58.3330993652;0.735877602399;11:57:50:779;0;10;-1.5;1;0;0;0;0;1;1;1;1;2;0;0;;0;0;();();(-2000.0, -2000.0);
11:57:50:796;11:57:50:769;1448061228.21;(0.3893932342529297, 0.6697895261976454);58.3330993652;0.735877602399;11:57:50:796;0;5;-1.5;1;0;0;0;0;1;1;1;1;2;0;0;;0;0;();();(-2000.0, -2000.0);
11:57:50:812;11:57:50:769;1448061228.21;(0.3893932342529297, 0.6697895261976454);58.3330993652;0.735877602399;11:57:50:812;0;5;-1.5;1;0;0;0;0;1;1;1;1;2;0;0;;0;0;();();(-2000.0, -2000.0);
11:57:50:829;11:57:50:769;1448061228.21;(0.3893932342529297, 0.6697895261976454);58.3330993652;0.735877602399;11:57:50:829;0;4;-1.5;1;0;0;0;0;1;1;1;1;2;0;0;;0;0;();();(-2000.0, -2000.0);
11:57:50:860;11:57:50:840;1448061228.31;(0.3921887636184692, 0.6802694108751085);62.4377174377;0.805827436333;11:57:50:860;0;4;-1.5;1;0;0;0;0;1;1;1;1;2;0;0;;0;0;();();(-2000.0, -2000.0);
11:57:50:879;11:57:50:840;1448061228.31;(0.3921887636184692, 0.6802694108751085);62.4377174377;0.805827436333;11:57:50:879;0;15;-1.5;1;0;0;0;0;1;1;1;1;2;0;0;;0;0;();();(-2000.0, -2000.0);
11:57:50:896;11:57:50:840;1448061228.31;(0.3921887636184692, 0.6802694108751085);62.4377174377;0.805827436333;11:57:50:896;0;4;-1.5;1;0;0;0;0;1;1;1;1;2;0;0;;0;0;();();(-2000.0, -2000.0);
11:57:50:913;11:57:50:907;1448061228.37;(0.39410688877105715, 0.6831680297851562);63.0694351196;1.0;11:57:50:913;0;9;-1.5;1;0;0;0;0;1;1;1;1;2;0;0;;0;0;();();(-2000.0, -2000.0);
11:57:50:929;11:57:50:907;1448061228.37;(0.39410688877105715, 0.6831680297851562);63.0694351196;1.0;11:57:50:929;0;5;-1.5;1;0;0;0;0;1;1;1;1;2;0;0;;0;0;();();(-2000.0, -2000.0);
11:57:50:963;11:57:50:907;1448061228.37;(0.39410688877105715, 0.6831680297851562);63.0694351196;1.0;11:57:50:963;0;15;-1.5;1;0;0;0;0;1;1;1;1;2;0;0;;0;0;();();(-2000.0, -2000.0);
11:57:50:979;11:57:50:969;1448061228.44;(0.3957904100418091, 0.6829160266452365);63.8557662964;1.0;11:57:50:979;0;9;-1.5;1;0;0;0;0;1;1;1;1;2;0;0;;0;0;();();(-2000.0, -2000.0);
11:57:50:996;11:57:50:969;1448061228.44;(0.3957904100418091, 0.6829160266452365);63.8557662964;1.0;11:57:50:996;0;0;-1.5;1;0;0;0;0;1;1;1;1;2;0;0;;0;0;();();(-2000.0, -2000.0);
11:57:51:012;11:57:50:969;1448061228.44;(0.3957904100418091, 0.6829160266452365);63.8557662964;1.0;11:57:51:012;0;9;-1.5;1;0;0;0;0;1;1;1;1;2;0;0;;0;0;();();(-2000.0, -2000.0);
11:57:51:029;11:57:50:969;1448061228.44;(0.3957904100418091, 0.6829160266452365);63.8557662964;1.0;11:57:51:029;0;15;1.15806451612903;1;0;0;0;0;1;1;1;1;2;0;0;;0;0;();();(-2000.0, -2000.0);
11:57:51:062;11:57:51:033;1448061228.51;(0.3976678133010864, 0.6825741238064236);64.0055541992;1.0;11:57:51:062;0;15;1.78064516129032;1;0;0;0;0;1;1;1;1;2;0;0;;0;0;();();(-2000.0, -2000.0);
11:57:51:079;11:57:51:033;1448061228.51;(0.3976678133010864, 0.6825741238064236);64.0055541992;1.0;11:57:51:079;0;5;1.78064516129032;1;0;0;0;0;1;1;1;1;2;0;0;;0;0;();();(-2000.0, -2000.0);
11:57:51:096;11:57:51:033;1448061228.51;(0.3976678133010864, 0.6825741238064236);64.0055541992;1.0;11:57:51:096;0;0;1.77741935483871;1;0;0;0;0;1;1;1;1;2;0;0;;0;0;();();(-2000.0, -2000.0);
11:57:51:113;11:57:51:109;1448061228.57;(0.3990072965621948, 0.6819607840643989);64.421295166;1.0;11:57:51:113;0;5;1.77741935483871;1;0;0;0;0;1;1;1;1;2;0;0;;0;0;();();(-2000.0, -2000.0);
11:57:51:129;11:57:51:109;1448061228.57;(0.3990072965621948, 0.6819607840643989);64.421295166;1.0;11:57:51:129;0;15;1.78064516129032;1;0;0;0;0;1;1;1;1;2;0;0;;0;0;();();(-2000.0, -2000.0);
11:57:51:163;11:57:51:109;1448061228.57;(0.3990072965621948, 0.6819607840643989);64.421295166;1.0;11:57:51:163;0;15;1.78064516129032;1;0;0;0;0;1;1;1;1;2;0;0;;0;0;();();(-2000.0, -2000.0);
11:57:51:179;11:57:51:165;1448061228.61;(0.3995657444000244, 0.6822870042588975);64.6355285645;1.0;11:57:51:179;0;4;1.78064516129032;1;0;0;0;0;1;1;1;1;2;0;0;;0;0;();();(-2000.0, -2000.0);
11:57:51:197;11:57:51:165;1448061228.61;(0.3995657444000244, 0.6822870042588975);64.6355285645;1.0;11:57:51:197;0;9;-0.7;1;0;0;0;0;1;1;1;1;2;0;0;;0;0;();();(-2000.0, -2000.0);
11:57:51:212;11:57:51:165;1448061228.61;(0.3995657444000244, 0.6822870042588975);64.6355285645;1.0;11:57:51:212;0;4;-1.5;1;0;0;0;0;1;1;1;1;2;0;0;;0;0;();();(-2000.0, -2000.0);
11:57:51:229;11:57:51:165;1448061228.61;(0.3995657444000244, 0.6822870042588975);64.6355285645;1.0;11:57:51:229;0;10;1.77741935483871;1;0;0;0;0;1;1;1;1;2;0;0;;0;0;();();(-2000.0, -2000.0);
11:57:51:246;11:57:51:234;1448061228.68;(0.42390482425689696, 0.5985729217529296);65.8315200806;0.603899973556;11:57:51:246;0;5;1.78064516129032;1;0;0;0;0;1;1;1;1;2;0;0;;0;0;();();(-2000.0, -2000.0);
11:57:51:279;11:57:51:234;1448061228.68;(0.42390482425689696, 0.5985729217529296);65.8315200806;0.603899973556;11:57:51:279;0;5;1.77741935483871;1;0;0;0;0;1;1;1;1;2;0;0;;0;0;();();(-2000.0, -2000.0);
11:57:51:295;11:57:51:234;1448061228.68;(0.42390482425689696, 0.5985729217529296);65.8315200806;0.603899973556;11:57:51:295;0;9;1.79032258064516;1;0;0;0;0;1;1;1;1;2;0;0;;0;0;();();(-2000.0, -2000.0);
11:57:51:313;11:57:51:301;1448061228.71;(0.43904962539672854, 0.5433149549696181);64.4111328125;0.819271791745;11:57:51:313;0;15;1.78064516129032;1;0;0;0;0;1;1;1;1;2;0;0;;0;0;();();(-2000.0, -2000.0);
11:57:51:330;11:57:51:301;1448061228.71;(0.43904962539672854, 0.5433149549696181);64.4111328125;0.819271791745;11:57:51:330;0;10;1.78064516129032;1;0;0;0;0;1;1;1;1;2;0;0;;0;0;();();(-2000.0, -2000.0);
11:57:51:363;11:57:51:301;1448061228.71;(0.43904962539672854, 0.5433149549696181);64.4111328125;0.819271791745;11:57:51:363;0;3;-1.5;1;0;0;0;0;1;1;1;1;2;0;0;;0;0;();();(-2000.0, -2000.0);
11:57:51:380;11:57:51:365;1448061228.74;(0.4474062442779541, 0.509706073337131);62.1713447571;1.0;11:57:51:380;0;15;-1.5;1;0;0;0;0;1;1;1;1;2;0;0;;0;0;();();(-2000.0, -2000.0);
11:57:51:396;11:57:51:365;1448061228.74;(0.4474062442779541, 0.509706073337131);62.1713447571;1.0;11:57:51:396;0;10;-1.5;1;0;0;0;0;1;1;1;1;2;0;0;;0;0;();();(-2000.0, -2000.0);
11:57:51:413;11:57:51:365;1448061228.74;(0.4474062442779541, 0.509706073337131);62.1713447571;1.0;11:57:51:413;0;0;-1.5;1;0;0;0;0;1;1;1;1;2;0;0;;0;0;();();(-2000.0, -2000.0);
11:57:51:429;11:57:51:365;1448061228.74;(0.4474062442779541, 0.509706073337131);62.1713447571;1.0;11:57:51:429;0;10;-1.5;1;0;0;0;0;1;1;1;1;2;0;0;;0;0;();();(-2000.0, -2000.0);
11:57:51:462;11:57:51:433;1448061228.88;(0.34259278774261476, 0.6105619642469617);19.386428833;0.866140109101;11:57:51:462;0;5;-1.5;1;0;0;0;0;1;1;1;1;2;0;0;;0;0;();();(-2000.0, -2000.0);
11:57:51:480;11:57:51:433;1448061228.88;(0.34259278774261476, 0.6105619642469617);19.386428833;0.866140109101;11:57:51:480;0;4;-1.5;1;0;0;0;0;1;1;1;1;2;0;0;;0;0;();();(-2000.0, -2000.0);
11:57:51:496;11:57:51:433;1448061228.88;(0.34259278774261476, 0.6105619642469617);19.386428833;0.866140109101;11:57:51:496;0;9;0.925806451612903;1;0;0;0;0;1;1;1;1;2;0;0;;0;0;();();(-2000.0, -2000.0);
11:57:51:512;11:57:51:496;1448061228.94;(0.3421055316925049, 0.6136853535970053);19.8802928925;0.783318205942;11:57:51:512;0;15;1.77741935483871;1;0;0;0;0;1;1;1;1;2;0;0;;0;0;();();(-2000.0, -2000.0);
11:57:51:528;11:57:51:496;1448061228.94;(0.3421055316925049, 0.6136853535970053);19.8802928925;0.783318205942;11:57:51:528;0;4;-0.480645161290323;1;0;0;0;0;1;1;1;1;2;0;0;;0;0;();();(-2000.0, -2000.0);
11:57:51:546;11:57:51:496;1448061228.94;(0.3421055316925049, 0.6136853535970053);19.8802928925;0.783318205942;11:57:51:546;0;15;-1.5;1;0;0;0;0;1;1;1;1;2;0;0;;0;0;();();(-2000.0, -2000.0);
11:57:51:580;11:57:51:565;1448061229.01;(0.3408761501312256, 0.6156014760335287);19.7973308563;0.868595361307;11:57:51:580;0;10;1.78064516129032;1;0;0;0;0;1;1;1;1;2;0;0;;0;0;();();(-2000.0, -2000.0);
11:57:51:596;11:57:51:565;1448061229.01;(0.3408761501312256, 0.6156014760335287);19.7973308563;0.868595361307;11:57:51:596;0;4;1.78064516129032;1;0;0;0;0;1;1;1;1;2;0;0;;0;0;();();(-2000.0, -2000.0);
11:57:51:612;11:57:51:565;1448061229.01;(0.3408761501312256, 0.6156014760335287);19.7973308563;0.868595361307;11:57:51:612;0;10;-1.5;1;0;0;0;0;1;1;1;1;2;0;0;;0;0;();();(-2000.0, -2000.0);
11:57:51:630;11:57:51:565;1448061229.01;(0.3408761501312256, 0.6156014760335287);19.7973308563;0.868595361307;11:57:51:630;0;4;-1.5;1;0;0;0;0;1;1;1;1;2;0;0;;0;0;();();(-2000.0, -2000.0);
11:57:51:647;11:57:51:634;1448061229.07;(0.33991351127624514, 0.6215822219848632);19.7991981506;0.874426105155;11:57:51:647;0;9;-1.5;1;0;0;0;0;1;1;1;1;2;0;0;;0;0;();();(-2000.0, -2000.0);
11:57:51:680;11:57:51:634;1448061229.07;(0.33991351127624514, 0.6215822219848632);19.7991981506;0.874426105155;11:57:51:680;0;10;-1.5;1;0;0;0;0;1;1;1;1;2;0;0;;0;0;();();(-2000.0, -2000.0);
11:57:51:697;11:57:51:634;1448061229.07;(0.33991351127624514, 0.6215822219848632);19.7991981506;0.874426105155;11:57:51:697;0;15;-0.096774193548387;1;0;0;0;0;1;1;1;1;2;0;0;;0;0;();();(-2000.0, -2000.0);
11:57:51:713;11:57:51:634;1448061229.07;(0.33991351127624514, 0.6215822219848632);19.7991981506;0.874426105155;11:57:51:713;0;10;1.78064516129032;1;0;0;0;0;1;1;1;1;2;0;0;;0;0;();();(-2000.0, -2000.0);
11:57:51:730;11:57:51:634;1448061229.07;(0.33991351127624514, 0.6215822219848632);19.7991981506;0.874426105155;11:57:51:730;0;0;-1.5;1;0;0;0;0;1;1;1;1;2;0;0;;0;0;();();(-2000.0, -2000.0);
11:57:51:747;11:57:51:634;1448061229.07;(0.33991351127624514, 0.6215822219848632);19.7991981506;0.874426105155;11:57:51:747;0;10;-1.5;1;0;0;0;0;1;1;1;1;2;0;0;;0;0;();();(-2000.0, -2000.0);
11:57:51:780;11:57:51:765;1448061229.22;(0.3516006231307983, 0.5716326395670572);20.5675048828;0.808878295906;11:57:51:780;0;4;-0.880645161290323;1;0;0;0;0;1;1;1;1;2;0;0;;0;0;();();(-2000.0, -2000.0);
11:57:51:796;11:57:51:765;1448061229.22;(0.3516006231307983, 0.5716326395670572);20.5675048828;0.808878295906;11:57:51:796;0;0;1.78064516129032;1;0;0;0;0;1;1;1;1;2;0;0;;0;0;();();(-2000.0, -2000.0);
11:57:51:813;11:57:51:765;1448061229.22;(0.3516006231307983, 0.5716326395670572);20.5675048828;0.808878295906;11:57:51:813;0;10;1.78064516129032;1;0;0;0;0;1;1;1;1;2;0;0;;0;0;();();(-2000.0, -2000.0);
11:57:51:830;11:57:51:765;1448061229.22;(0.3516006231307983, 0.5716326395670572);20.5675048828;0.808878295906;11:57:51:830;0;15;1.78064516129032;1;0;0;0;0;1;1;1;1;2;0;0;;0;0;();();(-2000.0, -2000.0);
11:57:51:846;11:57:51:765;1448061229.22;(0.3516006231307983, 0.5716326395670572);20.5675048828;0.808878295906;11:57:51:846;0;9;1.78064516129032;1;0;0;0;0;1;1;1;1;2;0;0;;0;0;();();(-2000.0, -2000.0);
11:57:51:881;11:57:51:765;1448061229.22;(0.3516006231307983, 0.5716326395670572);20.5675048828;0.808878295906;11:57:51:881;0;9;1.77741935483871;1;0;0;0;0;1;1;1;1;2;0;0;;0;0;();();(-2000.0, -2000.0);
11:57:51:897;11:57:51:897;1448061229.25;(0.2558628559112549, 0.5155836741129558);39.0722618103;0.836438544213;11:57:51:897;0;0;-1.5;1;0;0;0;0;1;1;1;1;2;0;0;;0;0;();();(-2000.0, -2000.0);
11:57:51:913;11:57:51:897;1448061229.25;(0.2558628559112549, 0.5155836741129558);39.0722618103;0.836438544213;11:57:51:913;0;5;-1.35161290322581;1;0;0;0;0;1;1;1;1;2;0;0;;0;0;();();(-2000.0, -2000.0);
11:57:51:929;11:57:51:897;1448061229.25;(0.2558628559112549, 0.5155836741129558);39.0722618103;0.836438544213;11:57:51:929;0;9;-1.5;1;0;0;0;0;1;1;1;1;2;0;0;;0;0;();();(-2000.0, -2000.0);
11:57:51:963;11:57:51:897;1448061229.25;(0.2558628559112549, 0.5155836741129558);39.0722618103;0.836438544213;11:57:51:963;0;10;-1.5;1;0;0;0;0;1;1;1;1;2;0;0;;0;0;();();(-2000.0, -2000.0);
11:57:51:980;11:57:51:966;1448061229.44;(0.3484334945678711, 0.5835409800211588);20.3544273376;0.942195137289;11:57:51:980;0;10;-1.5;1;0;0;0;0;1;1;1;1;2;0;0;;0;0;();();(-2000.0, -2000.0);
11:57:51:996;11:57:51:966;1448061229.44;(0.3484334945678711, 0.5835409800211588);20.3544273376;0.942195137289;11:57:51:996;0;9;1.78064516129032;1;0;0;0;0;1;1;1;1;2;0;0;;0;0;();();(-2000.0, -2000.0);
11:57:52:013;11:57:51:966;1448061229.44;(0.3484334945678711, 0.5835409800211588);20.3544273376;0.942195137289;11:57:52:013;0;4;1.76129032258065;1;0;0;0;0;1;1;1;1;2;0;0;;0;0;();();(-2000.0, -2000.0);
11:57:52:030;11:57:51:966;1448061229.44;(0.3484334945678711, 0.5835409800211588);20.3544273376;0.942195137289;11:57:52:030;0;10;1.78064516129032;1;0;0;0;0;1;1;1;1;2;0;0;;0;0;();();(-2000.0, -2000.0);
11:57:52:046;11:57:52:035;1448061229.51;(0.3488856077194214, 0.6000220828586155);19.5948238373;0.967608379766;11:57:52:046;0;5;1.77741935483871;1;0;0;0;0;1;1;1;1;2;0;0;;0;0;();();(-2000.0, -2000.0);
11:57:52:080;11:57:52:035;1448061229.51;(0.3488856077194214, 0.6000220828586155);19.5948238373;0.967608379766;11:57:52:080;0;15;1.78064516129032;1;0;0;0;0;1;1;1;1;2;0;0;;0;0;();();(-2000.0, -2000.0);
11:57:52:098;11:57:52:096;1448061229.54;(0.22108608484268188, 0.4006781260172526);38.2706069946;0.64660139657;11:57:52:098;0;15;1.78064516129032;1;0;0;0;0;1;1;1;1;2;0;0;;0;0;();();(-2000.0, -2000.0);
11:57:52:113;11:57:52:096;1448061229.54;(0.22108608484268188, 0.4006781260172526);38.2706069946;0.64660139657;11:57:52:113;0;4;1.77741935483871;1;0;0;0;0;1;1;1;1;2;0;0;;0;0;();();(-2000.0, -2000.0);
11:57:52:130;11:57:52:096;1448061229.54;(0.22108608484268188, 0.4006781260172526);38.2706069946;0.64660139657;11:57:52:130;0;10;-1.5;1;0;0;0;0;1;1;1;1;2;0;0;;0;0;();();(-2000.0, -2000.0);
11:57:52:147;11:57:52:096;1448061229.54;(0.22108608484268188, 0.4006781260172526);38.2706069946;0.64660139657;11:57:52:147;0;15;-1.5;1;0;0;0;0;1;1;1;1;2;0;0;;0;0;();();(-2000.0, -2000.0);
11:57:52:180;11:57:52:161;1448061229.61;(0.20600091218948363, 0.49826410081651473);22.8996810913;0.836553355283;11:57:52:180;0;15;-1.5;1;0;0;0;0;1;1;1;1;2;0;0;;0;0;();();(-2000.0, -2000.0);
11:57:52:198;11:57:52:161;1448061229.61;(0.20600091218948363, 0.49826410081651473);22.8996810913;0.836553355283;11:57:52:198;0;5;-1.5;1;0;0;0;0;1;1;1;1;2;0;0;;0;0;();();(-2000.0, -2000.0);
11:57:52:213;11:57:52:161;1448061229.61;(0.20600091218948363, 0.49826410081651473);22.8996810913;0.836553355283;11:57:52:213;0;0;-1.5;1;0;0;0;0;1;1;1;1;2;0;0;;0;0;();();(-2000.0, -2000.0);
11:57:52:231;11:57:52:230;1448061229.67;(0.377071213722229, 0.6723253885904947);65.9669036865;1.0;11:57:52:231;0;10;-1.5;1;0;0;0;0;1;1;1;1;2;0;0;;0;0;();();(-2000.0, -2000.0);
11:57:52:247;11:57:52:232;1448061229.71;(0.3781459331512451, 0.6720927556355794);66.9606933594;0.929432234063;11:57:52:247;0;15;-1.5;1;0;0;0;0;1;1;1;1;2;0;0;;0;0;();();(-2000.0, -2000.0);
11:57:52:280;11:57:52:232;1448061229.71;(0.3781459331512451, 0.6720927556355794);66.9606933594;0.929432234063;11:57:52:280;0;0;-1.5;1;0;0;0;0;1;1;1;1;2;0;0;;0;0;();();(-2000.0, -2000.0);
11:57:52:297;11:57:52:297;1448061229.77;(0.3813720703125, 0.6699076758490669);66.5608901978;0.81790146438;11:57:52:297;0;5;-1.03870967741935;1;0;0;0;0;1;1;1;1;2;0;0;;0;0;();();(-2000.0, -2000.0);
11:57:52:313;11:57:52:297;1448061229.77;(0.3813720703125, 0.6699076758490669);66.5608901978;0.81790146438;11:57:52:313;0;15;1.78064516129032;1;0;0;0;0;1;1;1;1;2;0;0;;0;0;();();(-2000.0, -2000.0);
11:57:52:330;11:57:52:297;1448061229.77;(0.3813720703125, 0.6699076758490669);66.5608901978;0.81790146438;11:57:52:330;0;10;1.78064516129032;1;0;0;0;0;1;1;1;1;2;0;0;;0;0;();();(-2000.0, -2000.0);
11:57:52:347;11:57:52:297;1448061229.77;(0.3813720703125, 0.6699076758490669);66.5608901978;0.81790146438;11:57:52:347;0;10;1.78064516129032;1;0;0;0;0;1;1;1;1;2;0;0;;0;0;();();(-2000.0, -2000.0);
11:57:52:380;11:57:52:361;1448061229.81;(0.3826343536376953, 0.6686286290486654);66.8956298828;0.914160392227;11:57:52:380;0;10;1.78064516129032;1;0;0;0;0;1;1;1;1;2;0;0;;0;0;();();(-2000.0, -2000.0);
11:57:52:396;11:57:52:361;1448061229.81;(0.3826343536376953, 0.6686286290486654);66.8956298828;0.914160392227;11:57:52:396;0;4;1.78064516129032;1;0;0;0;0;1;1;1;1;2;0;0;;0;0;();();(-2000.0, -2000.0);
11:57:52:413;11:57:52:361;1448061229.81;(0.3826343536376953, 0.6686286290486654);66.8956298828;0.914160392227;11:57:52:413;0;9;0.74516129032258;1;0;0;0;0;1;1;1;1;2;0;0;;0;0;();();(-2000.0, -2000.0);
11:57:52:431;11:57:52:430;1448061229.91;(0.3843747615814209, 0.6682746039496528);67.0235671997;1.0;11:57:52:431;0;15;1.77741935483871;1;0;0;0;0;1;1;1;1;2;0;0;;0;0;();();(-2000.0, -2000.0);
11:57:52:446;11:57:52:430;1448061229.91;(0.3843747615814209, 0.6682746039496528);67.0235671997;1.0;11:57:52:446;0;9;1.76129032258065;1;0;0;0;0;1;1;1;1;2;0;0;;0;0;();();(-2000.0, -2000.0);
11:57:52:480;11:57:52:430;1448061229.91;(0.3843747615814209, 0.6682746039496528);67.0235671997;1.0;11:57:52:480;0;9;1.78064516129032;1;0;0;0;0;1;1;1;1;2;0;0;;0;0;();();(-2000.0, -2000.0);
11:57:52:497;11:57:52:493;1448061229.94;(0.38426225185394286, 0.6694104512532553);66.6346893311;1.0;11:57:52:497;0;6;1.78064516129032;1;0;0;0;0;1;1;1;1;2;0;0;;0;0;();();(-2000.0, -2000.0);
11:57:52:513;11:57:52:493;1448061229.94;(0.38426225185394286, 0.6694104512532553);66.6346893311;1.0;11:57:52:513;0;9;1.78064516129032;1;0;0;0;0;1;1;1;1;2;0;0;;0;0;();();(-2000.0, -2000.0);
11:57:52:531;11:57:52:493;1448061229.94;(0.38426225185394286, 0.6694104512532553);66.6346893311;1.0;11:57:52:531;0;0;1.77741935483871;1;0;0;0;0;1;1;1;1;2;0;0;;0;0;();();(-2000.0, -2000.0);
11:57:52:547;11:57:52:493;1448061229.94;(0.38426225185394286, 0.6694104512532553);66.6346893311;1.0;11:57:52:547;0;5;1.43870967741935;1;0;0;0;0;1;1;1;1;2;0;0;;0;0;();();(-2000.0, -2000.0);
11:57:52:580;11:57:52:561;1448061230.04;(0.3852735996246338, 0.6719067043728298);66.4663543701;1.0;11:57:52:580;0;4;1.0741935483871;1;0;0;0;0;1;1;1;1;2;0;0;;0;0;();();(-2000.0, -2000.0);
11:57:52:598;11:57:52:561;1448061230.04;(0.3852735996246338, 0.6719067043728298);66.4663543701;1.0;11:57:52:598;0;9;1.0741935483871;1;0;0;0;0;1;1;1;1;2;0;0;;0;0;();();(-2000.0, -2000.0);
11:57:52:614;11:57:52:561;1448061230.04;(0.3852735996246338, 0.6719067043728298);66.4663543701;1.0;11:57:52:614;0;9;1.0741935483871;1;0;0;0;0;1;1;1;1;2;0;0;;0;0;();();(-2000.0, -2000.0);
11:57:52:631;11:57:52:625;1448061230.07;(0.3888653039932251, 0.6563526577419705);65.9055633545;1.0;11:57:52:631;0;9;1.53225806451613;1;0;0;0;0;1;1;1;1;2;0;0;;0;0;();();(-2000.0, -2000.0);
11:57:52:648;11:57:52:625;1448061230.07;(0.3888653039932251, 0.6563526577419705);65.9055633545;1.0;11:57:52:648;0;4;-1.5;1;0;0;0;0;1;1;1;1;2;0;0;;0;0;();();(-2000.0, -2000.0);
11:57:52:681;11:57:52:625;1448061230.07;(0.3888653039932251, 0.6563526577419705);65.9055633545;1.0;11:57:52:681;0;10;0.561290322580645;1;0;0;0;0;1;1;1;1;2;0;0;;0;0;();();(-2000.0, -2000.0);
11:57:52:697;11:57:52:694;1448061230.17;(0.38860492706298827, 0.6549218071831597);65.2410430908;1.0;11:57:52:697;0;0;-0.42258064516129;1;0;0;0;0;1;1;1;1;2;0;0;;0;0;();();(-2000.0, -2000.0);
11:57:52:714;11:57:52:694;1448061230.17;(0.38860492706298827, 0.6549218071831597);65.2410430908;1.0;11:57:52:714;0;0;-0.42258064516129;1;0;0;0;0;1;1;1;1;2;0;0;;0;0;();();(-2000.0, -2000.0);
11:57:52:731;11:57:52:694;1448061230.17;(0.38860492706298827, 0.6549218071831597);65.2410430908;1.0;11:57:52:731;0;10;1.78064516129032;1;0;0;0;0;1;1;1;1;2;0;0;;0;0;();();(-2000.0, -2000.0);
11:57:52:747;11:57:52:694;1448061230.17;(0.38860492706298827, 0.6549218071831597);65.2410430908;1.0;11:57:52:747;0;5;-0.0548387096774194;1;0;0;0;0;1;1;1;1;2;0;0;;0;0;();();(-2000.0, -2000.0);
11:57:52:781;11:57:52:761;1448061230.21;(0.38972151279449463, 0.6552271948920356);65.1965408325;0.983029091509;11:57:52:781;0;5;1.79032258064516;1;0;0;0;0;1;1;1;1;2;0;0;;0;0;();();(-2000.0, -2000.0);
11:57:52:797;11:57:52:761;1448061230.21;(0.38972151279449463, 0.6552271948920356);65.1965408325;0.983029091509;11:57:52:797;0;0;1.77741935483871;1;0;0;0;0;1;1;1;1;2;0;0;;0;0;();();(-2000.0, -2000.0);
11:57:52:815;11:57:52:761;1448061230.21;(0.38972151279449463, 0.6552271948920356);65.1965408325;0.983029091509;11:57:52:815;0;4;1.78064516129032;1;0;0;0;0;1;1;1;1;2;0;0;;0;0;();();(-2000.0, -2000.0);
11:57:52:830;11:57:52:825;1448061230.27;(0.5588236331939698, 0.7469242307874892);19.8785705566;0.834113733201;11:57:52:830;0;15;1.77741935483871;1;0;0;0;0;1;1;1;1;2;0;0;;0;0;();();(-2000.0, -2000.0);
11:57:52:847;11:57:52:825;1448061230.27;(0.5588236331939698, 0.7469242307874892);19.8785705566;0.834113733201;11:57:52:847;0;5;1.78064516129032;1;0;0;0;0;1;1;1;1;2;0;0;;0;0;();();(-2000.0, -2000.0);
11:57:52:881;11:57:52:825;1448061230.27;(0.5588236331939698, 0.7469242307874892);19.8785705566;0.834113733201;11:57:52:881;0;15;-1.5;1;0;0;0;0;1;1;1;1;2;0;0;;0;0;();();(-2000.0, -2000.0);
11:57:52:897;11:57:52:893;1448061230.37;(0.3484576940536499, 0.5918454064263238);21.2960453033;0.860787749542;11:57:52:897;0;9;-1.5;1;0;0;0;0;1;1;1;1;2;0;0;;0;0;();();(-2000.0, -2000.0);
11:57:52:914;11:57:52:893;1448061230.37;(0.3484576940536499, 0.5918454064263238);21.2960453033;0.860787749542;11:57:52:914;0;4;-1.5;1;0;0;0;0;1;1;1;1;2;0;0;;0;0;();();(-2000.0, -2000.0);
11:57:52:931;11:57:52:893;1448061230.37;(0.3484576940536499, 0.5918454064263238);21.2960453033;0.860787749542;11:57:52:931;0;10;-1.5;1;0;0;0;0;1;1;1;1;2;0;0;;0;0;();();(-2000.0, -2000.0);
11:57:52:947;11:57:52:893;1448061230.37;(0.3484576940536499, 0.5918454064263238);21.2960453033;0.860787749542;11:57:52:947;0;15;1.78064516129032;1;0;0;0;0;1;1;1;1;2;0;0;;0;0;();();(-2000.0, -2000.0);
11:57:52:980;11:57:52:958;1448061230.41;(0.35196211338043215, 0.5632995181613498);18.4651012421;0.849203209039;11:57:52:980;0;15;1.78064516129032;1;0;0;0;0;1;1;1;1;2;0;0;;0;0;();();(-2000.0, -2000.0);
11:57:52:998;11:57:52:958;1448061230.41;(0.35196211338043215, 0.5632995181613498);18.4651012421;0.849203209039;11:57:52:998;0;4;1.77741935483871;1;0;0;0;0;1;1;1;1;2;0;0;;0;0;();();(-2000.0, -2000.0);
11:57:53:015;11:57:52:958;1448061230.41;(0.35196211338043215, 0.5632995181613498);18.4651012421;0.849203209039;11:57:53:015;0;15;1.77741935483871;1;0;0;0;0;1;1;1;1;2;0;0;;0;0;();();(-2000.0, -2000.0);
11:57:53:031;11:57:53:025;1448061230.47;(0.3512893199920654, 0.5643857320149739);18.7680854797;0.913871838122;11:57:53:031;0;5;1.78064516129032;1;0;0;0;0;1;1;1;1;2;0;0;;0;0;();();(-2000.0, -2000.0);
11:57:53:047;11:57:53:025;1448061230.47;(0.3512893199920654, 0.5643857320149739);18.7680854797;0.913871838122;11:57:53:047;0;15;-0.870967741935484;1;0;0;0;0;1;1;1;1;2;0;0;;0;0;();();(-2000.0, -2000.0);
11:57:53:081;11:57:53:025;1448061230.47;(0.3512893199920654, 0.5643857320149739);18.7680854797;0.913871838122;11:57:53:081;0;9;-1.5;1;0;0;0;0;1;1;1;1;2;0;0;;0;0;();();(-2000.0, -2000.0);
11:57:53:099;11:57:53:093;1448061230.51;(0.34907143115997313, 0.5690873040093316);21.471572876;0.738337690838;11:57:53:099;0;5;-1.5;1;0;0;0;0;1;1;1;1;2;0;0;;0;0;();();(-2000.0, -2000.0);
11:57:53:114;11:57:53:093;1448061230.51;(0.34907143115997313, 0.5690873040093316);21.471572876;0.738337690838;11:57:53:114;0;15;-1.5;1;0;0;0;0;1;1;1;1;2;0;0;;0;0;();();(-2000.0, -2000.0);
11:57:53:131;11:57:53:093;1448061230.51;(0.34907143115997313, 0.5690873040093316);21.471572876;0.738337690838;11:57:53:131;0;4;-1.5;1;0;0;0;0;1;1;1;1;2;0;0;;0;0;();();(-2000.0, -2000.0);
11:57:53:148;11:57:53:093;1448061230.51;(0.34907143115997313, 0.5690873040093316);21.471572876;0.738337690838;11:57:53:148;0;15;-1.5;1;0;0;0;0;1;1;1;1;2;0;0;;0;0;();();(-2000.0, -2000.0);
11:57:53:180;11:57:53:157;1448061230.54;(0.254943323135376, 0.5114052242702908);40.8830337524;0.738872870203;11:57:53:180;0;10;-1.5;1;0;0;0;0;1;1;1;1;2;0;0;;0;0;();();(-2000.0, -2000.0);
11:57:53:196;11:57:53:157;1448061230.54;(0.254943323135376, 0.5114052242702908);40.8830337524;0.738872870203;11:57:53:196;0;5;-1.5;1;0;0;0;0;1;1;1;1;2;0;0;;0;0;();();(-2000.0, -2000.0);
11:57:53:215;11:57:53:157;1448061230.54;(0.254943323135376, 0.5114052242702908);40.8830337524;0.738872870203;11:57:53:215;0;15;-1.5;1;0;0;0;0;1;1;1;1;2;0;0;;0;0;();();(-2000.0, -2000.0);
11:57:53:230;11:57:53:226;1448061230.67;(0.34892585277557375, 0.5738706800672744);20.8143367767;1.0;11:57:53:230;0;4;-1.5;1;0;0;0;0;1;1;1;1;2;0;0;;0;0;();();(-2000.0, -2000.0);
11:57:53:248;11:57:53:226;1448061230.67;(0.34892585277557375, 0.5738706800672744);20.8143367767;1.0;11:57:53:248;0;9;-1.5;1;0;0;0;0;1;1;1;1;2;0;0;;0;0;();();(-2000.0, -2000.0);
11:57:53:281;11:57:53:226;1448061230.67;(0.34892585277557375, 0.5738706800672744);20.8143367767;1.0;11:57:53:281;0;10;-1.5;1;0;0;0;0;1;1;1;1;2;0;0;;0;0;();();(-2000.0, -2000.0);
11:57:53:297;11:57:53:289;1448061230.74;(0.3488688230514526, 0.5744667053222656);20.3762664795;0.987436876614;11:57:53:297;0;4;-1.5;1;0;0;0;0;1;1;1;1;2;0;0;;0;0;();();(-2000.0, -2000.0);
11:57:53:314;11:57:53:289;1448061230.74;(0.3488688230514526, 0.5744667053222656);20.3762664795;0.987436876614;11:57:53:314;0;10;-1.5;1;0;0;0;0;1;1;1;1;2;0;0;;0;0;();();(-2000.0, -2000.0);
11:57:53:331;11:57:53:289;1448061230.74;(0.3488688230514526, 0.5744667053222656);20.3762664795;0.987436876614;11:57:53:331;0;0;-1.5;1;0;0;0;0;1;1;1;1;2;0;0;;0;0;();();(-2000.0, -2000.0);
11:57:53:348;11:57:53:289;1448061230.74;(0.3488688230514526, 0.5744667053222656);20.3762664795;0.987436876614;11:57:53:348;0;10;-1.5;1;0;0;0;0;1;1;1;1;2;0;0;;0;0;();();(-2000.0, -2000.0);
11:57:53:381;11:57:53:357;1448061230.77;(0.34799509048461913, 0.5767834133572048);19.3461551666;0.80491773384;11:57:53:381;0;15;-1.5;1;0;0;0;0;1;1;1;1;2;0;0;;0;0;();();(-2000.0, -2000.0);
11:57:53:398;11:57:53:357;1448061230.77;(0.34799509048461913, 0.5767834133572048);19.3461551666;0.80491773384;11:57:53:398;0;15;-1.5;1;0;0;0;0;1;1;1;1;2;0;0;;0;0;();();(-2000.0, -2000.0);
11:57:53:415;11:57:53:357;1448061230.77;(0.34799509048461913, 0.5767834133572048);19.3461551666;0.80491773384;11:57:53:415;0;5;-1.5;1;0;0;0;0;1;1;1;1;2;0;0;;0;0;();();(-2000.0, -2000.0);
11:57:53:431;11:57:53:357;1448061230.77;(0.34799509048461913, 0.5767834133572048);19.3461551666;0.80491773384;11:57:53:431;0;10;-1.5;1;0;0;0;0;1;1;1;1;2;0;0;;0;0;();();(-2000.0, -2000.0);
11:57:53:447;11:57:53:357;1448061230.77;(0.34799509048461913, 0.5767834133572048);19.3461551666;0.80491773384;11:57:53:447;0;4;-1.5;1;0;0;0;0;1;1;1;1;2;0;0;;0;0;();();(-2000.0, -2000.0);
11:57:53:481;11:57:53:357;1448061230.77;(0.34799509048461913, 0.5767834133572048);19.3461551666;0.80491773384;11:57:53:481;0;5;-1.5;1;0;0;0;0;1;1;1;1;2;0;0;;0;0;();();(-2000.0, -2000.0);
11:57:53:498;11:57:53:491;1448061230.94;(0.3477835416793823, 0.5884468502468533);19.7480049133;0.842895618267;11:57:53:498;0;15;-1.5;1;0;0;0;0;1;1;1;1;2;0;0;;0;0;();();(-2000.0, -2000.0);
11:57:53:514;11:57:53:491;1448061230.94;(0.3477835416793823, 0.5884468502468533);19.7480049133;0.842895618267;11:57:53:514;0;4;-1.5;1;0;0;0;0;1;1;1;1;2;0;0;;0;0;();();(-2000.0, -2000.0);
11:57:53:530;11:57:53:491;1448061230.94;(0.3477835416793823, 0.5884468502468533);19.7480049133;0.842895618267;11:57:53:530;0;9;-1.5;1;0;0;0;0;1;1;1;1;2;0;0;;0;0;();();(-2000.0, -2000.0);
11:57:53:548;11:57:53:491;1448061230.94;(0.3477835416793823, 0.5884468502468533);19.7480049133;0.842895618267;11:57:53:548;0;4;-1.5;1;0;0;0;0;1;1;1;1;2;0;0;;0;0;();();(-2000.0, -2000.0);
11:57:53:581;11:57:53:557;1448061231.01;(0.1943865656852722, 0.4756537543402778);37.1456451416;0.770898206099;11:57:53:581;0;5;-1.5;1;0;0;0;0;1;1;1;1;2;0;0;;0;0;();();(-2000.0, -2000.0);
11:57:53:598;11:57:53:557;1448061231.01;(0.1943865656852722, 0.4756537543402778);37.1456451416;0.770898206099;11:57:53:598;0;9;-0.725806451612903;1;0;0;0;0;1;1;1;1;2;0;0;;0;0;();();(-2000.0, -2000.0);
11:57:53:615;11:57:53:557;1448061231.01;(0.1943865656852722, 0.4756537543402778);37.1456451416;0.770898206099;11:57:53:615;0;4;-1.5;1;0;0;0;0;1;1;1;1;2;0;0;;0;0;();();(-2000.0, -2000.0);
11:57:53:632;11:57:53:621;1448061231.08;(0.3463334083557129, 0.6103193071153429);21.2988681793;0.850264354458;11:57:53:632;0;9;-1.5;1;0;0;0;0;1;1;1;1;2;0;0;;0;0;();();(-2000.0, -2000.0);
11:57:53:648;11:57:53:621;1448061231.08;(0.3463334083557129, 0.6103193071153429);21.2988681793;0.850264354458;11:57:53:648;0;5;-1.5;1;0;0;0;0;1;1;1;1;2;0;0;;0;0;();();(-2000.0, -2000.0);
11:57:53:682;11:57:53:621;1448061231.08;(0.3463334083557129, 0.6103193071153429);21.2988681793;0.850264354458;11:57:53:682;0;15;-1.5;1;0;0;0;0;1;1;1;1;2;0;0;;0;0;();();(-2000.0, -2000.0);
11:57:53:698;11:57:53:689;1448061231.14;(0.16035449504852295, 0.5057650248209635);27.4079875946;0.675219948833;11:57:53:698;0;9;1.77741935483871;1;0;0;0;0;1;1;1;1;2;0;0;;0;0;();();(-2000.0, -2000.0);
11:57:53:718;11:57:53:689;1448061231.14;(0.16035449504852295, 0.5057650248209635);27.4079875946;0.675219948833;11:57:53:718;0;15;1.78064516129032;1;0;0;0;0;1;1;1;1;4;0;0;;0;0;();();(-2000.0, -2000.0);
11:57:53:732;11:57:53:689;1448061231.14;(0.16035449504852295, 0.5057650248209635);27.4079875946;0.675219948833;11:57:53:732;0;15;1.78064516129032;1;0;0;0;0;1;1;1;1;4;0;0;;0;0;();();(-2000.0, -2000.0);
11:57:53:748;11:57:53:689;1448061231.14;(0.16035449504852295, 0.5057650248209635);27.4079875946;0.675219948833;11:57:53:748;0;15;-0.261290322580645;1;0;0;0;0;1;1;1;1;4;0;0;;0;0;();();(-2000.0, -2000.0);
11:57:53:783;11:57:53:757;1448061231.21;(0.34845044612884524, 0.5991733974880642);19.1125202179;0.858978118413;11:57:53:783;0;15;1.78064516129032;1;0;0;0;0;1;1;1;1;4;0;0;;0;0;();();(-2000.0, -2000.0);
11:57:53:799;11:57:53:757;1448061231.21;(0.34845044612884524, 0.5991733974880642);19.1125202179;0.858978118413;11:57:53:799;0;4;1.78064516129032;1;0;0;0;0;1;1;1;1;4;0;0;;0;0;();();(-2000.0, -2000.0);
11:57:53:815;11:57:53:757;1448061231.21;(0.34845044612884524, 0.5991733974880642);19.1125202179;0.858978118413;11:57:53:815;0;0;1.78064516129032;1;0;0;0;0;1;1;1;1;4;0;0;;0;0;();();(-2000.0, -2000.0);
11:57:53:832;11:57:53:822;1448061231.27;(0.3476853370666504, 0.59741088019477);19.1475543976;1.0;11:57:53:832;0;4;-1.5;1;0;0;0;0;1;1;1;1;4;0;0;;0;0;();();(-2000.0, -2000.0);
11:57:53:848;11:57:53:822;1448061231.27;(0.3476853370666504, 0.59741088019477);19.1475543976;1.0;11:57:53:848;0;9;-1.5;1;0;0;0;0;1;1;1;1;4;0;0;;0;0;();();(-2000.0, -2000.0);
11:57:53:882;11:57:53:822;1448061231.27;(0.3476853370666504, 0.59741088019477);19.1475543976;1.0;11:57:53:882;0;0;-1.5;1;0;0;0;0;1;1;1;1;4;0;0;;0;0;();();(-2000.0, -2000.0);
11:57:53:898;11:57:53:889;1448061231.37;(0.34669926166534426, 0.5973531934950087);20.4582366943;0.959258561413;11:57:53:898;0;5;-1.5;1;0;0;0;0;1;1;1;1;4;0;0;;0;0;();();(-2000.0, -2000.0);
11:57:53:915;11:57:53:889;1448061231.37;(0.34669926166534426, 0.5973531934950087);20.4582366943;0.959258561413;11:57:53:915;0;10;-1.5;1;0;0;0;0;1;1;1;1;4;0;0;;0;0;();();(-2000.0, -2000.0);
11:57:53:932;11:57:53:889;1448061231.37;(0.34669926166534426, 0.5973531934950087);20.4582366943;0.959258561413;11:57:53:932;0;4;-1.5;1;0;0;0;0;1;1;1;1;4;0;0;;0;0;();();(-2000.0, -2000.0);
11:57:53:948;11:57:53:889;1448061231.37;(0.34669926166534426, 0.5973531934950087);20.4582366943;0.959258561413;11:57:53:948;0;10;-1.5;1;0;0;0;0;1;1;1;1;4;0;0;;0;0;();();(-2000.0, -2000.0);
11:57:53:981;11:57:53:952;1448061231.41;(0.3461646795272827, 0.5991269853379991);21.0705776215;0.882739872406;11:57:53:981;0;0;-1.5;1;0;0;0;0;1;1;1;1;4;0;0;;0;0;();();(-2000.0, -2000.0);
11:57:53:998;11:57:53:952;1448061231.41;(0.3461646795272827, 0.5991269853379991);21.0705776215;0.882739872406;11:57:53:998;0;0;-1.5;1;0;0;0;0;1;1;1;1;4;0;0;;0;0;();();(-2000.0, -2000.0);
11:57:54:015;11:57:53:952;1448061231.41;(0.3461646795272827, 0.5991269853379991);21.0705776215;0.882739872406;11:57:54:015;0;10;-1.5;1;0;0;0;0;1;1;1;1;4;0;0;;0;0;();();(-2000.0, -2000.0);
11:57:54:031;11:57:54:021;1448061231.51;(0.3458325147628784, 0.6023092057969834);20.2680339813;1.0;11:57:54:031;0;9;-1.5;1;0;0;0;0;1;1;1;1;4;0;0;;0;0;();();(-2000.0, -2000.0);
11:57:54:049;11:57:54:021;1448061231.51;(0.3458325147628784, 0.6023092057969834);20.2680339813;1.0;11:57:54:049;0;10;1.78064516129032;1;0;0;0;0;1;1;1;1;4;0;0;;0;0;();();(-2000.0, -2000.0);
11:57:54:081;11:57:54:021;1448061231.51;(0.3458325147628784, 0.6023092057969834);20.2680339813;1.0;11:57:54:081;0;15;1.78064516129032;1;0;0;0;0;1;1;1;1;4;0;0;;0;0;();();(-2000.0, -2000.0);
11:57:54:098;11:57:54:089;1448061231.54;(0.3458626985549927, 0.6010923597547744);19.890089035;1.0;11:57:54:098;0;15;1.78064516129032;1;0;0;0;0;1;1;1;1;4;0;0;;0;0;();();(-2000.0, -2000.0);
11:57:54:115;11:57:54:089;1448061231.54;(0.3458626985549927, 0.6010923597547744);19.890089035;1.0;11:57:54:115;0;10;1.78064516129032;1;0;0;0;0;1;1;1;1;4;0;0;;0;0;();();(-2000.0, -2000.0);
11:57:54:131;11:57:54:089;1448061231.54;(0.3458626985549927, 0.6010923597547744);19.890089035;1.0;11:57:54:131;0;0;1.77741935483871;1;0;0;0;0;1;1;1;1;4;0;0;;0;0;();();(-2000.0, -2000.0);
11:57:54:148;11:57:54:089;1448061231.54;(0.3458626985549927, 0.6010923597547744);19.890089035;1.0;11:57:54:148;0;10;1.78064516129032;1;0;0;0;0;1;1;1;1;4;0;0;;0;0;();();(-2000.0, -2000.0);
11:57:54:182;11:57:54:153;1448061231.61;(0.3461585760116577, 0.5984706030951605);19.7791576385;0.852244030552;11:57:54:182;0;4;1.78064516129032;1;0;0;0;0;1;1;1;1;4;0;0;;0;0;();();(-2000.0, -2000.0);
11:57:54:198;11:57:54:153;1448061231.61;(0.3461585760116577, 0.5984706030951605);19.7791576385;0.852244030552;11:57:54:198;0;15;1.78064516129032;1;0;0;0;0;1;1;1;1;4;0;0;;0;0;();();(-2000.0, -2000.0);
11:57:54:215;11:57:54:153;1448061231.61;(0.3461585760116577, 0.5984706030951605);19.7791576385;0.852244030552;11:57:54:215;0;10;1.78064516129032;1;0;0;0;0;1;1;1;1;4;0;0;;0;0;();();(-2000.0, -2000.0);
11:57:54:231;11:57:54:153;1448061231.61;(0.3461585760116577, 0.5984706030951605);19.7791576385;0.852244030552;11:57:54:231;0;15;1.79032258064516;1;0;0;0;0;1;1;1;1;4;0;0;;0;0;();();(-2000.0, -2000.0);
11:57:54:248;11:57:54:153;1448061231.61;(0.3461585760116577, 0.5984706030951605);19.7791576385;0.852244030552;11:57:54:248;0;4;1.78064516129032;1;0;0;0;0;1;1;1;1;4;0;0;;0;0;();();(-2000.0, -2000.0);
11:57:54:281;11:57:54:153;1448061231.61;(0.3461585760116577, 0.5984706030951605);19.7791576385;0.852244030552;11:57:54:281;0;9;1.79032258064516;1;0;0;0;0;1;1;1;1;4;0;0;;0;0;();();(-2000.0, -2000.0);
11:57:54:298;11:57:54:153;1448061231.61;(0.3461585760116577, 0.5984706030951605);19.7791576385;0.852244030552;11:57:54:298;0;10;1.79032258064516;1;0;0;0;0;1;1;1;1;4;0;0;;0;0;();();(-2000.0, -2000.0);
11:57:54:316;11:57:54:153;1448061231.61;(0.3461585760116577, 0.5984706030951605);19.7791576385;0.852244030552;11:57:54:316;0;5;1.78064516129032;1;0;0;0;0;1;1;1;1;4;0;0;;0;0;();();(-2000.0, -2000.0);
11:57:54:331;11:57:54:153;1448061231.61;(0.3461585760116577, 0.5984706030951605);19.7791576385;0.852244030552;11:57:54:331;0;9;1.77741935483871;1;0;0;0;0;1;1;1;1;4;0;0;;0;0;();();(-2000.0, -2000.0);
11:57:54:348;11:57:54:153;1448061231.61;(0.3461585760116577, 0.5984706030951605);19.7791576385;0.852244030552;11:57:54:348;0;4;1.78064516129032;1;0;0;0;0;1;1;1;1;4;0;0;;0;0;();();(-2000.0, -2000.0);
11:57:54:382;11:57:54:353;1448061231.82;(0, 0);0;0;11:57:54:382;0;5;1.78064516129032;1;0;0;0;0;1;1;1;1;4;0;0;;0;0;();();(-2000.0, -2000.0);
11:57:54:399;11:57:54:353;1448061231.82;(0, 0);0;0;11:57:54:399;0;5;1.78064516129032;1;0;0;0;0;1;1;1;1;4;0;0;;0;0;();();(-2000.0, -2000.0);
11:57:54:416;11:57:54:353;1448061231.82;(0, 0);0;0;11:57:54:416;0;4;1.77741935483871;1;0;0;0;0;1;1;1;1;4;0;0;;0;0;();();(-2000.0, -2000.0);
11:57:54:432;11:57:54:422;1448061231.91;(0.39225406646728517, 0.6678379694620769);68.7336120605;0.926497925271;11:57:54:432;0;10;1.78064516129032;1;0;0;0;0;1;1;1;1;4;0;0;;0;0;();();(-2000.0, -2000.0);
11:57:54:448;11:57:54:422;1448061231.91;(0.39225406646728517, 0.6678379694620769);68.7336120605;0.926497925271;11:57:54:448;0;5;1.78064516129032;1;0;0;0;0;1;1;1;1;4;0;0;;0;0;();();(-2000.0, -2000.0);
11:57:54:482;11:57:54:422;1448061231.91;(0.39225406646728517, 0.6678379694620769);68.7336120605;0.926497925271;11:57:54:482;0;5;1.78064516129032;1;0;0;0;0;1;1;1;1;4;0;0;;0;0;();();(-2000.0, -2000.0);
11:57:54:499;11:57:54:494;1448061231.94;(0.39364047050476075, 0.6673242780897353);68.9368438721;0.929043731234;11:57:54:499;0;9;1.78064516129032;1;0;0;0;0;1;1;1;1;4;0;0;;0;0;();();(-2000.0, -2000.0);
11:57:54:515;11:57:54:494;1448061231.94;(0.39364047050476075, 0.6673242780897353);68.9368438721;0.929043731234;11:57:54:515;0;4;1.77741935483871;1;0;0;0;0;1;1;1;1;4;0;0;;0;0;();();(-2000.0, -2000.0);
11:57:54:531;11:57:54:494;1448061231.94;(0.39364047050476075, 0.6673242780897353);68.9368438721;0.929043731234;11:57:54:531;0;0;1.77741935483871;1;0;0;0;0;1;1;1;1;4;0;0;;0;0;();();(-2000.0, -2000.0);
11:57:54:549;11:57:54:494;1448061231.94;(0.39364047050476075, 0.6673242780897353);68.9368438721;0.929043731234;11:57:54:549;0;15;1.78064516129032;1;0;0;0;0;1;1;1;1;4;0;0;;0;0;();();(-2000.0, -2000.0);
11:57:54:582;11:57:54:553;1448061232.01;(0.3962592124938965, 0.6656258265177408);69.102394104;1.0;11:57:54:582;0;15;1.77741935483871;1;0;0;0;0;1;1;1;1;4;0;0;;0;0;();();(-2000.0, -2000.0);
11:57:54:598;11:57:54:553;1448061232.01;(0.3962592124938965, 0.6656258265177408);69.102394104;1.0;11:57:54:598;0;4;1.77741935483871;1;0;0;0;0;1;1;1;1;4;0;0;;0;0;();();(-2000.0, -2000.0);
11:57:54:615;11:57:54:553;1448061232.01;(0.3962592124938965, 0.6656258265177408);69.102394104;1.0;11:57:54:615;0;0;1.78064516129032;1;0;0;0;0;1;1;1;1;4;0;0;;0;0;();();(-2000.0, -2000.0);
11:57:54:632;11:57:54:617;1448061232.07;(0.39852123260498046, 0.6637109544542101);68.9673614502;1.0;11:57:54:632;0;10;1.78064516129032;1;0;0;0;0;1;1;1;1;4;0;0;;0;0;();();(-2000.0, -2000.0);
11:57:54:649;11:57:54:617;1448061232.07;(0.39852123260498046, 0.6637109544542101);68.9673614502;1.0;11:57:54:649;0;5;1.77741935483871;1;0;0;0;0;1;1;1;1;4;0;0;;0;0;();();(-2000.0, -2000.0);
11:57:54:682;11:57:54:617;1448061232.07;(0.39852123260498046, 0.6637109544542101);68.9673614502;1.0;11:57:54:682;0;10;1.77741935483871;1;0;0;0;0;1;1;1;1;4;0;0;;0;0;();();(-2000.0, -2000.0);
11:57:54:698;11:57:54:685;1448061232.14;(0.4002960681915283, 0.6612644195556641);68.9481048584;1.0;11:57:54:698;0;5;1.78064516129032;1;0;0;0;0;1;1;1;1;4;0;0;;0;0;();();(-2000.0, -2000.0);
11:57:54:716;11:57:54:685;1448061232.14;(0.4002960681915283, 0.6612644195556641);68.9481048584;1.0;11:57:54:716;0;10;1.77741935483871;1;0;0;0;0;1;1;1;1;4;0;0;;0;0;();();(-2000.0, -2000.0);
11:57:54:733;11:57:54:685;1448061232.14;(0.4002960681915283, 0.6612644195556641);68.9481048584;1.0;11:57:54:733;0;4;1.78064516129032;1;0;0;0;0;1;1;1;1;4;0;0;;0;0;();();(-2000.0, -2000.0);
11:57:54:749;11:57:54:685;1448061232.14;(0.4002960681915283, 0.6612644195556641);68.9481048584;1.0;11:57:54:749;0;10;1.78064516129032;1;0;0;0;0;1;1;1;1;4;0;0;;0;0;();();(-2000.0, -2000.0);
11:57:54:782;11:57:54:752;1448061232.17;(0.4002847194671631, 0.6597216924031575);68.1797866821;1.0;11:57:54:782;0;10;1.78064516129032;1;0;0;0;0;1;1;1;1;4;0;0;;0;0;();();(-2000.0, -2000.0);
11:57:54:798;11:57:54:752;1448061232.17;(0.4002847194671631, 0.6597216924031575);68.1797866821;1.0;11:57:54:798;0;15;1.78064516129032;1;0;0;0;0;1;1;1;1;4;0;0;;0;0;();();(-2000.0, -2000.0);
11:57:54:816;11:57:54:752;1448061232.17;(0.4002847194671631, 0.6597216924031575);68.1797866821;1.0;11:57:54:816;0;9;1.78064516129032;1;0;0;0;0;1;1;1;1;4;0;0;;0;0;();();(-2000.0, -2000.0);
11:57:54:833;11:57:54:818;1448061232.27;(0.3924013376235962, 0.6558479944864909);66.1055603027;1.0;11:57:54:833;0;4;1.78064516129032;1;0;0;0;0;1;1;1;1;4;0;0;;0;0;();();(-2000.0, -2000.0);
11:57:54:849;11:57:54:818;1448061232.27;(0.3924013376235962, 0.6558479944864909);66.1055603027;1.0;11:57:54:849;0;9;1.78064516129032;1;0;0;0;0;1;1;1;1;4;0;0;;0;0;();();(-2000.0, -2000.0);
11:57:54:867;11:57:54:818;1448061232.27;(0.3924013376235962, 0.6558479944864909);66.1055603027;1.0;11:57:54:867;0;5;1.78064516129032;1;0;0;0;0;1;1;1;1;4;0;0;;0;0;();();(-2000.0, -2000.0);
11:57:54:899;11:57:54:885;1448061232.34;(0.393209433555603, 0.6556773715549045);64.8365402222;1.0;11:57:54:899;0;15;1.78064516129032;1;0;0;0;0;1;1;1;1;4;0;0;;0;0;();();(-2000.0, -2000.0);
11:57:54:915;11:57:54:885;1448061232.34;(0.393209433555603, 0.6556773715549045);64.8365402222;1.0;11:57:54:915;0;10;1.78064516129032;1;0;0;0;0;1;1;1;1;4;0;0;;0;0;();();(-2000.0, -2000.0);
11:57:54:933;11:57:54:885;1448061232.34;(0.393209433555603, 0.6556773715549045);64.8365402222;1.0;11:57:54:933;0;0;1.78064516129032;1;0;0;0;0;1;1;1;1;4;0;0;;0;0;();();(-2000.0, -2000.0);
11:57:54:949;11:57:54:949;1448061232.37;(0.3931863784790039, 0.6550071080525717);64.5312423706;1.0;11:57:54:949;0;10;1.77741935483871;1;0;0;0;0;1;1;1;1;4;0;0;;0;0;();();(-2000.0, -2000.0);
11:57:54:983;11:57:54:949;1448061232.41;(0.3934279680252075, 0.6546529134114583);64.1983337402;1.0;11:57:54:983;0;4;1.78064516129032;1;0;0;0;0;1;1;1;1;4;0;0;;0;0;();();(-2000.0, -2000.0);
11:57:55:000;11:57:54:949;1448061232.41;(0.3934279680252075, 0.6546529134114583);64.1983337402;1.0;11:57:55:000;0;15;1.79032258064516;1;0;0;0;0;1;1;1;1;4;0;0;;0;0;();();(-2000.0, -2000.0);
11:57:55:015;11:57:54:949;1448061232.41;(0.3934279680252075, 0.6546529134114583);64.1983337402;1.0;11:57:55:015;0;10;1.78064516129032;1;0;0;0;0;1;1;1;1;4;0;0;;0;0;();();(-2000.0, -2000.0);
11:57:55:033;11:57:55:016;1448061232.47;(0.39380550384521484, 0.6540380054050021);63.8424301147;1.0;11:57:55:033;0;15;1.78064516129032;1;0;0;0;0;1;1;1;1;4;0;0;;0;0;();();(-2000.0, -2000.0);
11:57:55:049;11:57:55:016;1448061232.47;(0.39380550384521484, 0.6540380054050021);63.8424301147;1.0;11:57:55:049;0;10;1.48709677419355;1;0;0;0;0;1;1;1;1;4;0;0;;0;0;();();(-2000.0, -2000.0);
11:57:55:066;11:57:55:016;1448061232.47;(0.39380550384521484, 0.6540380054050021);63.8424301147;1.0;11:57:55:066;0;9;-1.5;1;0;0;0;0;1;1;1;1;4;0;0;;0;0;();();(-2000.0, -2000.0);
11:57:55:100;11:57:55:087;1448061232.54;(0.3940032958984375, 0.653353648715549);63.3631858826;1.0;11:57:55:100;0;10;-1.5;1;0;0;0;0;1;1;1;1;4;0;0;;0;0;();();(-2000.0, -2000.0);
11:57:55:115;11:57:55:087;1448061232.54;(0.3940032958984375, 0.653353648715549);63.3631858826;1.0;11:57:55:115;0;10;-1.5;1;0;0;0;0;1;1;1;1;4;0;0;;0;0;();();(-2000.0, -2000.0);
11:57:55:132;11:57:55:087;1448061232.54;(0.3940032958984375, 0.653353648715549);63.3631858826;1.0;11:57:55:132;0;9;-1.5;1;0;0;0;0;1;1;1;1;4;0;0;;0;0;();();(-2000.0, -2000.0);
11:57:55:149;11:57:55:148;1448061232.57;(0.39503161907196044, 0.6469053268432617);61.2796669006;0.770983605472;11:57:55:149;0;4;-1.5;1;0;0;0;0;1;1;1;1;4;0;0;;0;0;();();(-2000.0, -2000.0);
11:57:55:166;11:57:55:148;1448061232.57;(0.39503161907196044, 0.6469053268432617);61.2796669006;0.770983605472;11:57:55:166;0;10;1.77741935483871;1;0;0;0;0;1;1;1;1;4;0;0;;0;0;();();(-2000.0, -2000.0);
11:57:55:200;11:57:55:148;1448061232.57;(0.39503161907196044, 0.6469053268432617);61.2796669006;0.770983605472;11:57:55:200;0;10;1.78064516129032;1;0;0;0;0;1;1;1;1;4;0;0;;0;0;();();(-2000.0, -2000.0);
11:57:55:216;11:57:55:148;1448061232.57;(0.39503161907196044, 0.6469053268432617);61.2796669006;0.770983605472;11:57:55:216;0;15;1.77741935483871;1;0;0;0;0;1;1;1;1;4;0;0;;0;0;();();(-2000.0, -2000.0);
11:57:55:233;11:57:55:217;1448061232.64;(0.2023116707801819, 0.47868461608886714);26.4920978546;0.672483120943;11:57:55:233;0;15;1.77741935483871;1;0;0;0;0;1;1;1;1;4;0;0;;0;0;();();(-2000.0, -2000.0);
11:57:55:249;11:57:55:217;1448061232.64;(0.2023116707801819, 0.47868461608886714);26.4920978546;0.672483120943;11:57:55:249;0;5;1.78064516129032;1;0;0;0;0;1;1;1;1;4;0;0;;0;0;();();(-2000.0, -2000.0);
11:57:55:282;11:57:55:282;1448061232.74;(0.39288570880889895, 0.6662320454915365);62.187713623;1.0;11:57:55:282;0;9;1.78064516129032;1;0;0;0;0;1;1;1;1;4;0;0;;0;0;();();(-2000.0, -2000.0);
11:57:55:300;11:57:55:282;1448061232.74;(0.39288570880889895, 0.6662320454915365);62.187713623;1.0;11:57:55:300;0;9;1.78064516129032;1;0;0;0;0;1;1;1;1;4;0;0;;0;0;();();(-2000.0, -2000.0);
11:57:55:316;11:57:55:282;1448061232.74;(0.39288570880889895, 0.6662320454915365);62.187713623;1.0;11:57:55:316;0;9;-0.2;1;0;0;0;0;1;1;1;1;4;0;0;;0;0;();();(-2000.0, -2000.0);
11:57:55:332;11:57:55:282;1448061232.74;(0.39288570880889895, 0.6662320454915365);62.187713623;1.0;11:57:55:332;0;10;-1.5;1;0;0;0;0;1;1;1;1;4;0;0;;0;0;();();(-2000.0, -2000.0);
11:57:55:350;11:57:55:349;1448061232.81;(0.3951272487640381, 0.6663683361477322);62.3258361816;1.0;11:57:55:350;0;15;-1.5;1;0;0;0;0;1;1;1;1;4;0;0;;0;0;();();(-2000.0, -2000.0);
11:57:55:367;11:57:55:349;1448061232.81;(0.3951272487640381, 0.6663683361477322);62.3258361816;1.0;11:57:55:367;0;4;-1.5;1;0;0;0;0;1;1;1;1;4;0;0;;0;0;();();(-2000.0, -2000.0);
11:57:55:400;11:57:55:349;1448061232.81;(0.3951272487640381, 0.6663683361477322);62.3258361816;1.0;11:57:55:400;0;5;-1.5;1;0;0;0;0;1;1;1;1;4;0;0;;0;0;();();(-2000.0, -2000.0);
11:57:55:416;11:57:55:413;1448061232.87;(0.39690897464752195, 0.6671622806125217);62.5008659363;1.0;11:57:55:416;0;15;1.76129032258065;1;0;0;0;0;1;1;1;1;4;0;0;;0;0;();();(-2000.0, -2000.0);
11:57:55:432;11:57:55:413;1448061232.87;(0.39690897464752195, 0.6671622806125217);62.5008659363;1.0;11:57:55:432;0;15;1.76129032258065;1;0;0;0;0;1;1;1;1;4;0;0;;0;0;();();(-2000.0, -2000.0);
11:57:55:450;11:57:55:413;1448061232.87;(0.39690897464752195, 0.6671622806125217);62.5008659363;1.0;11:57:55:450;0;15;1.78064516129032;1;0;0;0;0;1;1;1;1;4;0;0;;0;0;();();(-2000.0, -2000.0);
11:57:55:483;11:57:55:483;1448061232.94;(0.3979301452636719, 0.6683454513549805);62.9533882141;1.0;11:57:55:483;0;0;1.78064516129032;1;0;0;0;0;1;1;1;1;4;0;0;;0;0;();();(-2000.0, -2000.0);
11:57:55:500;11:57:55:483;1448061232.94;(0.3979301452636719, 0.6683454513549805);62.9533882141;1.0;11:57:55:500;0;5;-1.5;1;0;0;0;0;1;1;1;1;4;0;0;;0;0;();();(-2000.0, -2000.0);
11:57:55:517;11:57:55:483;1448061232.94;(0.3979301452636719, 0.6683454513549805);62.9533882141;1.0;11:57:55:517;0;10;1.58387096774194;1;0;0;0;0;1;1;1;1;4;0;0;;0;0;();();(-2000.0, -2000.0);
11:57:55:533;11:57:55:483;1448061232.94;(0.3979301452636719, 0.6683454513549805);62.9533882141;1.0;11:57:55:533;0;15;1.78064516129032;1;0;0;0;0;1;1;1;1;4;0;0;;0;0;();();(-2000.0, -2000.0);
11:57:55:549;11:57:55:549;1448061233.01;(0.39901716709136964, 0.6685520595974392);63.3042755127;1.0;11:57:55:549;0;15;1.78064516129032;1;0;0;0;0;1;1;1;1;4;0;0;;0;0;();();(-2000.0, -2000.0);
11:57:55:566;11:57:55:549;1448061233.01;(0.39901716709136964, 0.6685520595974392);63.3042755127;1.0;11:57:55:566;0;5;1.77741935483871;1;0;0;0;0;1;1;1;1;4;0;0;;0;0;();();(-2000.0, -2000.0);
11:57:55:599;11:57:55:549;1448061233.01;(0.39901716709136964, 0.6685520595974392);63.3042755127;1.0;11:57:55:599;0;15;-1.5;1;0;0;0;0;1;1;1;1;4;0;0;;0;0;();();(-2000.0, -2000.0);
11:57:55:616;11:57:55:613;1448061233.07;(0.3996020078659058, 0.6689231448703342);63.8147735596;1.0;11:57:55:616;0;15;-1.5;1;0;0;0;0;1;1;1;1;4;0;0;;0;0;();();(-2000.0, -2000.0);
11:57:55:633;11:57:55:613;1448061233.07;(0.3996020078659058, 0.6689231448703342);63.8147735596;1.0;11:57:55:633;0;4;-1.5;1;0;0;0;0;1;1;1;1;4;0;0;;0;0;();();(-2000.0, -2000.0);
11:57:55:650;11:57:55:613;1448061233.07;(0.3996020078659058, 0.6689231448703342);63.8147735596;1.0;11:57:55:650;0;0;-1.5;1;0;0;0;0;1;1;1;1;4;0;0;;0;0;();();(-2000.0, -2000.0);
11:57:55:684;11:57:55:681;1448061233.14;(0.39996745586395266, 0.6694624794854058);64.2158279419;1.0;11:57:55:684;0;10;1.79032258064516;1;0;0;0;0;1;1;1;1;4;0;0;;0;0;();();(-2000.0, -2000.0);
11:57:55:700;11:57:55:681;1448061233.14;(0.39996745586395266, 0.6694624794854058);64.2158279419;1.0;11:57:55:700;0;15;1.78064516129032;1;0;0;0;0;1;1;1;1;4;0;0;;0;0;();();(-2000.0, -2000.0);
11:57:55:716;11:57:55:681;1448061233.14;(0.39996745586395266, 0.6694624794854058);64.2158279419;1.0;11:57:55:716;0;10;1.78064516129032;1;0;0;0;0;1;1;1;1;4;0;0;;0;0;();();(-2000.0, -2000.0);
11:57:55:733;11:57:55:681;1448061233.14;(0.39996745586395266, 0.6694624794854058);64.2158279419;1.0;11:57:55:733;0;15;-1.5;1;0;0;0;0;1;1;1;1;4;0;0;;0;0;();();(-2000.0, -2000.0);
11:57:55:751;11:57:55:745;1448061233.21;(0.3993363380432129, 0.6686541663275825);64.1303863525;1.0;11:57:55:751;0;5;1.78064516129032;1;0;0;0;0;1;1;1;1;4;0;0;;0;0;();();(-2000.0, -2000.0);
11:57:55:767;11:57:55:745;1448061233.21;(0.3993363380432129, 0.6686541663275825);64.1303863525;1.0;11:57:55:767;0;15;-0.258064516129032;1;0;0;0;0;1;1;1;1;4;0;0;;0;0;();();(-2000.0, -2000.0);
11:57:55:799;11:57:55:745;1448061233.21;(0.3993363380432129, 0.6686541663275825);64.1303863525;1.0;11:57:55:799;0;14;-1.5;1;0;0;0;0;1;1;1;1;4;0;0;;0;0;();();(-2000.0, -2000.0);
11:57:55:817;11:57:55:817;1448061233.27;(0.3983699083328247, 0.6675118976169162);63.3799209595;1.0;11:57:55:817;0;5;1.78064516129032;1;0;0;0;0;1;1;1;1;4;0;0;;0;0;();();(-2000.0, -2000.0);
11:57:55:833;11:57:55:817;1448061233.27;(0.3983699083328247, 0.6675118976169162);63.3799209595;1.0;11:57:55:833;0;15;1.78064516129032;1;0;0;0;0;1;1;1;1;4;0;0;;0;0;();();(-2000.0, -2000.0);
11:57:55:850;11:57:55:817;1448061233.27;(0.3983699083328247, 0.6675118976169162);63.3799209595;1.0;11:57:55:850;0;4;1.78064516129032;1;0;0;0;0;1;1;1;1;4;0;0;;0;0;();();(-2000.0, -2000.0);
11:57:55:868;11:57:55:817;1448061233.27;(0.3983699083328247, 0.6675118976169162);63.3799209595;1.0;11:57:55:868;0;10;1.78064516129032;1;0;0;0;0;1;1;1;1;4;0;0;;0;0;();();(-2000.0, -2000.0);
11:57:55:901;11:57:55:881;1448061233.34;(0.3972165584564209, 0.6678766886393229);62.1095161438;1.0;11:57:55:901;0;10;1.78064516129032;1;0;0;0;0;1;1;1;1;4;0;0;;0;0;();();(-2000.0, -2000.0);
11:57:55:917;11:57:55:881;1448061233.34;(0.3972165584564209, 0.6678766886393229);62.1095161438;1.0;11:57:55:917;0;5;1.77741935483871;1;0;0;0;0;1;1;1;1;4;0;0;;0;0;();();(-2000.0, -2000.0);
11:57:55:933;11:57:55:881;1448061233.34;(0.3972165584564209, 0.6678766886393229);62.1095161438;1.0;11:57:55:933;0;15;1.77741935483871;1;0;0;0;0;1;1;1;1;4;0;0;;0;0;();();(-2000.0, -2000.0);
11:57:55:949;11:57:55:945;1448061233.41;(0.39652845859527586, 0.6676868438720703);61.1310386658;1.0;11:57:55:949;0;15;1.77741935483871;1;0;0;0;0;1;1;1;1;4;0;0;;0;0;();();(-2000.0, -2000.0);
11:57:55:967;11:57:55:945;1448061233.41;(0.39652845859527586, 0.6676868438720703);61.1310386658;1.0;11:57:55:967;0;9;1.78064516129032;1;0;0;0;0;1;1;1;1;4;0;0;;0;0;();();(-2000.0, -2000.0);
11:57:56:000;11:57:55:945;1448061233.41;(0.39652845859527586, 0.6676868438720703);61.1310386658;1.0;11:57:56:000;0;10;1.78064516129032;1;0;0;0;0;1;1;1;1;4;0;0;;0;0;();();(-2000.0, -2000.0);
11:57:56:017;11:57:56:013;1448061233.47;(0.39694054126739503, 0.6675956726074219);61.0020256042;1.0;11:57:56:017;0;15;1.75161290322581;1;0;0;0;0;1;1;1;1;4;0;0;;0;0;();();(-2000.0, -2000.0);
11:57:56:033;11:57:56:013;1448061233.47;(0.39694054126739503, 0.6675956726074219);61.0020256042;1.0;11:57:56:033;0;15;1.75161290322581;1;0;0;0;0;1;1;1;1;4;0;0;;0;0;();();(-2000.0, -2000.0);
11:57:56:050;11:57:56:013;1448061233.47;(0.39694054126739503, 0.6675956726074219);61.0020256042;1.0;11:57:56:050;0;4;1.23225806451613;1;0;0;0;0;1;1;1;1;4;0;0;;0;0;();();(-2000.0, -2000.0);
11:57:56:068;11:57:56:013;1448061233.47;(0.39694054126739503, 0.6675956726074219);61.0020256042;1.0;11:57:56:068;0;10;1.77741935483871;1;0;0;0;0;1;1;1;1;4;0;0;;0;0;();();(-2000.0, -2000.0);
11:57:56:100;11:57:56:077;1448061233.54;(0.3967923402786255, 0.6679851531982421);60.7445335388;1.0;11:57:56:100;0;15;1.79032258064516;1;0;0;0;0;1;1;1;1;4;0;0;;0;0;();();(-2000.0, -2000.0);
11:57:56:116;11:57:56:077;1448061233.54;(0.3967923402786255, 0.6679851531982421);60.7445335388;1.0;11:57:56:116;0;0;0.758064516129032;1;0;0;0;0;1;1;1;1;4;0;0;;0;0;();();(-2000.0, -2000.0);
11:57:56:133;11:57:56:077;1448061233.54;(0.3967923402786255, 0.6679851531982421);60.7445335388;1.0;11:57:56:133;0;9;1.64193548387097;1;0;0;0;0;1;1;1;1;4;0;0;;0;0;();();(-2000.0, -2000.0);
11:57:56:151;11:57:56:145;1448061233.61;(0.39680113792419436, 0.6678664313422309);61.1862030029;1.0;11:57:56:151;0;15;1.78064516129032;1;0;0;0;0;1;1;1;1;4;0;0;;0;0;();();(-2000.0, -2000.0);
11:57:56:167;11:57:56:145;1448061233.61;(0.39680113792419436, 0.6678664313422309);61.1862030029;1.0;11:57:56:167;0;4;1.77741935483871;1;0;0;0;0;1;1;1;1;4;0;0;;0;0;();();(-2000.0, -2000.0);
11:57:56:201;11:57:56:145;1448061233.61;(0.39680113792419436, 0.6678664313422309);61.1862030029;1.0;11:57:56:201;0;4;-0.341935483870968;1;0;0;0;0;1;1;1;1;4;0;0;;0;0;();();(-2000.0, -2000.0);
11:57:56:217;11:57:56:215;1448061233.67;(0.39685003757476806, 0.6612660725911459);61.2173194885;1.0;11:57:56:217;0;3;-1.5;1;0;0;0;0;1;1;1;1;4;0;0;;0;0;();();(-2000.0, -2000.0);
11:57:56:234;11:57:56:215;1448061233.67;(0.39685003757476806, 0.6612660725911459);61.2173194885;1.0;11:57:56:234;0;5;-0.72258064516129;1;0;0;0;0;1;1;1;1;4;0;0;;0;0;();();(-2000.0, -2000.0);
11:57:56:254;11:57:56:215;1448061233.67;(0.39685003757476806, 0.6612660725911459);61.2173194885;1.0;11:57:56:254;0;15;-0.7;1;0;0;0;0;1;1;1;1;6;0;0;;0;0;();();(-2000.0, -2000.0);
11:57:56:267;11:57:56:215;1448061233.67;(0.39685003757476806, 0.6612660725911459);61.2173194885;1.0;11:57:56:267;0;4;0.951612903225806;1;0;0;0;0;1;1;1;1;6;0;0;;0;0;();();(-2000.0, -2000.0);
11:57:56:301;11:57:56:277;1448061233.74;(0.21293375492095948, 0.4828640831841363);25.050031662;0.8059023839;11:57:56:301;0;15;1.78064516129032;1;0;0;0;0;1;1;1;1;6;0;0;;0;0;();();(-2000.0, -2000.0);
11:57:56:317;11:57:56:277;1448061233.74;(0.21293375492095948, 0.4828640831841363);25.050031662;0.8059023839;11:57:56:317;0;10;0.0354838709677419;1;0;0;0;0;1;1;1;1;6;0;0;;0;0;();();(-2000.0, -2000.0);
11:57:56:334;11:57:56:277;1448061233.74;(0.21293375492095948, 0.4828640831841363);25.050031662;0.8059023839;11:57:56:334;0;15;0.874193548387097;1;0;0;0;0;1;1;1;1;6;0;0;;0;0;();();(-2000.0, -2000.0);
11:57:56:351;11:57:56:345;1448061233.77;(0.19914306402206422, 0.5590240054660374);43.9885025024;0.649528829188;11:57:56:351;0;9;0.412903225806452;1;0;0;0;0;1;1;1;1;6;0;0;;0;0;();();(-2000.0, -2000.0);
11:57:56:367;11:57:56:345;1448061233.77;(0.19914306402206422, 0.5590240054660374);43.9885025024;0.649528829188;11:57:56:367;0;4;0.516129032258065;1;0;0;0;0;1;1;1;1;6;0;0;;0;0;();();(-2000.0, -2000.0);
11:57:56:400;11:57:56:345;1448061233.77;(0.19914306402206422, 0.5590240054660374);43.9885025024;0.649528829188;11:57:56:400;0;15;0.609677419354838;1;0;0;0;0;1;1;1;1;6;0;0;;0;0;();();(-2000.0, -2000.0);
11:57:56:418;11:57:56:345;1448061233.77;(0.19914306402206422, 0.5590240054660374);43.9885025024;0.649528829188;11:57:56:418;0;9;0.919354838709677;1;0;0;0;0;1;1;1;1;6;0;0;;0;0;();();(-2000.0, -2000.0);
11:57:56:433;11:57:56:423;1448061233.83;(0.40159151554107664, 0.6583452648586697);56.4495162964;0.681234525093;11:57:56:433;0;4;1;1;0;0;0;0;1;1;1;1;6;0;0;;0;0;();();(-2000.0, -2000.0);
11:57:56:450;11:57:56:423;1448061233.83;(0.40159151554107664, 0.6583452648586697);56.4495162964;0.681234525093;11:57:56:450;0;9;0.758064516129032;1;0;0;0;0;1;1;1;1;6;0;0;;0;0;();();(-2000.0, -2000.0);
11:57:56:468;11:57:56:423;1448061233.83;(0.40159151554107664, 0.6583452648586697);56.4495162964;0.681234525093;11:57:56:468;0;5;0.587096774193548;1;0;0;0;0;1;1;1;1;6;0;0;;0;0;();();(-2000.0, -2000.0);
11:57:56:501;11:57:56:477;1448061233.92;(0.39918901920318606, 0.6706238216824002);63.6271476746;1.0;11:57:56:501;0;15;-0.0548387096774194;1;0;0;0;0;1;1;1;1;6;0;0;;0;0;();();(-2000.0, -2000.0);
11:57:56:517;11:57:56:477;1448061233.92;(0.39918901920318606, 0.6706238216824002);63.6271476746;1.0;11:57:56:517;0;5;-0.0806451612903225;1;0;0;0;0;1;1;1;1;6;0;0;;0;0;();();(-2000.0, -2000.0);
11:57:56:534;11:57:56:477;1448061233.92;(0.39918901920318606, 0.6706238216824002);63.6271476746;1.0;11:57:56:534;0;5;-0.0806451612903225;1;0;0;0;0;1;1;1;1;6;0;0;;0;0;();();(-2000.0, -2000.0);
11:57:56:552;11:57:56:545;1448061234.01;(0.3989081382751465, 0.669502067565918);63.9666595459;1.0;11:57:56:552;0;5;-0.0806451612903225;1;0;0;0;0;1;1;1;1;6;0;0;;0;0;();();(-2000.0, -2000.0);
11:57:56:567;11:57:56:545;1448061234.01;(0.3989081382751465, 0.669502067565918);63.9666595459;1.0;11:57:56:567;0;10;1;1;0;0;0;0;1;1;1;1;6;0;0;;0;0;();();(-2000.0, -2000.0);
11:57:56:601;11:57:56:545;1448061234.01;(0.3989081382751465, 0.669502067565918);63.9666595459;1.0;11:57:56:601;0;15;-1.5;1;0;0;0;0;1;1;1;1;6;0;0;;0;0;();();(-2000.0, -2000.0);
11:57:56:617;11:57:56:609;1448061234.07;(0.39808714389801025, 0.6699206246270073);63.9224472046;1.0;11:57:56:617;0;10;-1.43870967741935;1;0;0;0;0;1;1;1;1;6;0;0;;0;0;();();(-2000.0, -2000.0);
11:57:56:633;11:57:56:609;1448061234.07;(0.39808714389801025, 0.6699206246270073);63.9224472046;1.0;11:57:56:633;0;15;-1.5;1;0;0;0;0;1;1;1;1;6;0;0;;0;0;();();(-2000.0, -2000.0);
11:57:56:651;11:57:56:609;1448061234.07;(0.39808714389801025, 0.6699206246270073);63.9224472046;1.0;11:57:56:651;0;4;-1.04838709677419;1;0;0;0;0;1;1;1;1;6;0;0;;0;0;();();(-2000.0, -2000.0);
11:57:56:667;11:57:56:609;1448061234.07;(0.39808714389801025, 0.6699206246270073);63.9224472046;1.0;11:57:56:667;0;15;-1.31935483870968;1;0;0;0;0;1;1;1;1;6;0;0;;0;0;();();(-2000.0, -2000.0);
11:57:56:701;11:57:56:677;1448061234.14;(0.3970115900039673, 0.6696321699354384);64.3639144897;1.0;11:57:56:701;0;10;1.78064516129032;1;0;0;0;0;1;1;1;1;6;0;0;;0;0;();();(-2000.0, -2000.0);
11:57:56:718;11:57:56:677;1448061234.14;(0.3970115900039673, 0.6696321699354384);64.3639144897;1.0;11:57:56:718;0;15;1.78064516129032;1;0;0;0;0;1;1;1;1;6;0;0;;0;0;();();(-2000.0, -2000.0);
11:57:56:734;11:57:56:677;1448061234.14;(0.3970115900039673, 0.6696321699354384);64.3639144897;1.0;11:57:56:734;0;9;1.77741935483871;1;0;0;0;0;1;1;1;1;6;0;0;;0;0;();();(-2000.0, -2000.0);
11:57:56:751;11:57:56:741;1448061234.21;(0.39670214653015134, 0.6691909154256185);64.508026123;1.0;11:57:56:751;0;5;1.77741935483871;1;0;0;0;0;1;1;1;1;6;0;0;;0;0;();();(-2000.0, -2000.0);
11:57:56:768;11:57:56:741;1448061234.21;(0.39670214653015134, 0.6691909154256185);64.508026123;1.0;11:57:56:768;0;9;1.77741935483871;1;0;0;0;0;1;1;1;1;6;0;0;;0;0;();();(-2000.0, -2000.0);
11:57:56:800;11:57:56:741;1448061234.21;(0.39670214653015134, 0.6691909154256185);64.508026123;1.0;11:57:56:800;0;9;1.77741935483871;1;0;0;0;0;1;1;1;1;6;0;0;;0;0;();();(-2000.0, -2000.0);
11:57:56:818;11:57:56:809;1448061234.27;(0.3972749948501587, 0.6699266857571072);65.1387710571;1.0;11:57:56:818;0;15;1.78064516129032;1;0;0;0;0;1;1;1;1;6;0;0;;0;0;();();(-2000.0, -2000.0);
11:57:56:834;11:57:56:809;1448061234.27;(0.3972749948501587, 0.6699266857571072);65.1387710571;1.0;11:57:56:834;0;10;1.78064516129032;1;0;0;0;0;1;1;1;1;6;0;0;;0;0;();();(-2000.0, -2000.0);
11:57:56:851;11:57:56:809;1448061234.27;(0.3972749948501587, 0.6699266857571072);65.1387710571;1.0;11:57:56:851;0;0;1.78064516129032;1;0;0;0;0;1;1;1;1;6;0;0;;0;0;();();(-2000.0, -2000.0);
11:57:56:868;11:57:56:809;1448061234.27;(0.3972749948501587, 0.6699266857571072);65.1387710571;1.0;11:57:56:868;0;1;1.77741935483871;1;0;0;0;0;1;1;1;1;6;0;0;;0;0;();();(-2000.0, -2000.0);
11:57:56:902;11:57:56:879;1448061234.34;(0.3986587762832642, 0.6698093838161893);65.1443786621;1.0;11:57:56:902;0;4;1.79032258064516;1;0;0;0;0;1;1;1;1;6;0;0;;0;0;();();(-2000.0, -2000.0);
11:57:56:917;11:57:56:879;1448061234.34;(0.3986587762832642, 0.6698093838161893);65.1443786621;1.0;11:57:56:917;0;4;1.79032258064516;1;0;0;0;0;1;1;1;1;6;0;0;;0;0;();();(-2000.0, -2000.0);
11:57:56:935;11:57:56:879;1448061234.34;(0.3986587762832642, 0.6698093838161893);65.1443786621;1.0;11:57:56:935;0;9;1.78064516129032;1;0;0;0;0;1;1;1;1;6;0;0;;0;0;();();(-2000.0, -2000.0);
11:57:56:951;11:57:56:942;1448061234.41;(0.39996814727783203, 0.6701353285047743);65.0043029785;1.0;11:57:56:951;0;15;1.78064516129032;1;0;0;0;0;1;1;1;1;6;0;0;;0;0;();();(-2000.0, -2000.0);
11:57:56:968;11:57:56:942;1448061234.41;(0.39996814727783203, 0.6701353285047743);65.0043029785;1.0;11:57:56:968;0;4;-1.03870967741935;1;0;0;0;0;1;1;1;1;6;0;0;;0;0;();();(-2000.0, -2000.0);
11:57:57:001;11:57:56:942;1448061234.41;(0.39996814727783203, 0.6701353285047743);65.0043029785;1.0;11:57:57:001;0;5;-1.5;1;0;0;0;0;1;1;1;1;6;0;0;;0;0;();();(-2000.0, -2000.0);
11:57:57:018;11:57:57:009;1448061234.47;(0.4011281967163086, 0.6707389407687717);65.2211685181;1.0;11:57:57:018;0;10;-1.5;1;0;0;0;0;1;1;1;1;6;0;0;;0;0;();();(-2000.0, -2000.0);
11:57:57:035;11:57:57:009;1448061234.47;(0.4011281967163086, 0.6707389407687717);65.2211685181;1.0;11:57:57:035;0;5;-1.5;1;0;0;0;0;1;1;1;1;6;0;0;;0;0;();();(-2000.0, -2000.0);
11:57:57:051;11:57:57:009;1448061234.47;(0.4011281967163086, 0.6707389407687717);65.2211685181;1.0;11:57:57:051;0;9;-1.5;1;0;0;0;0;1;1;1;1;6;0;0;;0;0;();();(-2000.0, -2000.0);
11:57:57:068;11:57:57:009;1448061234.47;(0.4011281967163086, 0.6707389407687717);65.2211685181;1.0;11:57:57:068;0;0;-1.5;1;0;0;0;0;1;1;1;1;6;0;0;;0;0;();();(-2000.0, -2000.0);
11:57:57:101;11:57:57:074;1448061234.54;(0.4026195049285889, 0.6716912163628472);65.278755188;1.0;11:57:57:101;0;5;-1.5;1;0;0;0;0;1;1;1;1;6;0;0;;0;0;();();(-2000.0, -2000.0);
11:57:57:118;11:57:57:074;1448061234.54;(0.4026195049285889, 0.6716912163628472);65.278755188;1.0;11:57:57:118;0;15;-1.5;1;0;0;0;0;1;1;1;1;6;0;0;;0;0;();();(-2000.0, -2000.0);
11:57:57:135;11:57:57:074;1448061234.54;(0.4026195049285889, 0.6716912163628472);65.278755188;1.0;11:57:57:135;0;4;-1.5;1;0;0;0;0;1;1;1;1;6;0;0;;0;0;();();(-2000.0, -2000.0);
11:57:57:151;11:57:57:141;1448061234.61;(0.392449688911438, 0.6750251981947157);65.0458831787;1.0;11:57:57:151;0;10;-1.5;1;0;0;0;0;1;1;1;1;6;0;0;;0;0;();();(-2000.0, -2000.0);
11:57:57:168;11:57:57:141;1448061234.61;(0.392449688911438, 0.6750251981947157);65.0458831787;1.0;11:57:57:168;0;5;-1.5;1;0;0;0;0;1;1;1;1;6;0;0;;0;0;();();(-2000.0, -2000.0);
11:57:57:202;11:57:57:141;1448061234.61;(0.392449688911438, 0.6750251981947157);65.0458831787;1.0;11:57:57:202;0;4;-1.5;1;0;0;0;0;1;1;1;1;6;0;0;;0;0;();();(-2000.0, -2000.0);
11:57:57:218;11:57:57:209;1448061234.64;(0.6015501976013183, 0.45950181749131946);35.5750541687;0.655690201711;11:57:57:218;0;4;-1.5;1;0;0;0;0;1;1;1;1;6;0;0;;0;0;();();(-2000.0, -2000.0);
11:57:57:235;11:57:57:209;1448061234.64;(0.6015501976013183, 0.45950181749131946);35.5750541687;0.655690201711;11:57:57:235;0;15;-1.5;1;0;0;0;0;1;1;1;1;6;0;0;;0;0;();();(-2000.0, -2000.0);
11:57:57:251;11:57:57:209;1448061234.64;(0.6015501976013183, 0.45950181749131946);35.5750541687;0.655690201711;11:57:57:251;0;5;-1.5;1;0;0;0;0;1;1;1;1;6;0;0;;0;0;();();(-2000.0, -2000.0);
11:57:57:267;11:57:57:209;1448061234.64;(0.6015501976013183, 0.45950181749131946);35.5750541687;0.655690201711;11:57:57:267;0;5;-1.5;1;0;0;0;0;1;1;1;1;6;0;0;;0;0;();();(-2000.0, -2000.0);
11:57:57:302;11:57:57:274;1448061234.71;(0.19553961753845214, 0.49762717352973085);28.0886211395;0.76169098814;11:57:57:302;0;4;-1.5;1;0;0;0;0;1;1;1;1;6;0;0;;0;0;();();(-2000.0, -2000.0);
11:57:57:317;11:57:57:274;1448061234.71;(0.19553961753845214, 0.49762717352973085);28.0886211395;0.76169098814;11:57:57:317;0;4;-1.5;1;0;0;0;0;1;1;1;1;6;0;0;;0;0;();();(-2000.0, -2000.0);
11:57:57:334;11:57:57:274;1448061234.71;(0.19553961753845214, 0.49762717352973085);28.0886211395;0.76169098814;11:57:57:334;0;4;-1.5;1;0;0;0;0;1;1;1;1;6;0;0;;0;0;();();(-2000.0, -2000.0);
11:57:57:352;11:57:57:341;1448061234.74;(0.4005378007888794, 0.6609294255574545);60.7891082764;0.716707008822;11:57:57:352;0;4;-1.5;1;0;0;0;0;1;1;1;1;6;0;0;;0;0;();();(-2000.0, -2000.0);
11:57:57:368;11:57:57:341;1448061234.74;(0.4005378007888794, 0.6609294255574545);60.7891082764;0.716707008822;11:57:57:368;0;15;-1.5;1;0;0;0;0;1;1;1;1;6;0;0;;0;0;();();(-2000.0, -2000.0);
11:57:57:401;11:57:57:341;1448061234.74;(0.4005378007888794, 0.6609294255574545);60.7891082764;0.716707008822;11:57:57:401;0;9;-1.5;1;0;0;0;0;1;1;1;1;6;0;0;;0;0;();();(-2000.0, -2000.0);
11:57:57:418;11:57:57:405;1448061234.87;(0.40304388999938967, 0.6662130991617838);65.1377944946;1.0;11:57:57:418;0;5;-1.5;1;0;0;0;0;1;1;1;1;6;0;0;;0;0;();();(-2000.0, -2000.0);
11:57:57:435;11:57:57:405;1448061234.87;(0.40304388999938967, 0.6662130991617838);65.1377944946;1.0;11:57:57:435;0;10;-1.5;1;0;0;0;0;1;1;1;1;6;0;0;;0;0;();();(-2000.0, -2000.0);
11:57:57:451;11:57:57:405;1448061234.87;(0.40304388999938967, 0.6662130991617838);65.1377944946;1.0;11:57:57:451;0;4;-1.5;1;0;0;0;0;1;1;1;1;6;0;0;;0;0;();();(-2000.0, -2000.0);
11:57:57:467;11:57:57:405;1448061234.87;(0.40304388999938967, 0.6662130991617838);65.1377944946;1.0;11:57:57:467;0;9;-1.5;1;0;0;0;0;1;1;1;1;6;0;0;;0;0;();();(-2000.0, -2000.0);
11:57:57:501;11:57:57:474;1448061234.94;(0.4038252592086792, 0.667066552903917);65.0434265137;1.0;11:57:57:501;0;0;-1.5;1;0;0;0;0;1;1;1;1;6;0;0;;0;0;();();(-2000.0, -2000.0);
11:57:57:518;11:57:57:474;1448061234.94;(0.4038252592086792, 0.667066552903917);65.0434265137;1.0;11:57:57:518;0;10;-1.5;1;0;0;0;0;1;1;1;1;6;0;0;;0;0;();();(-2000.0, -2000.0);
11:57:57:535;11:57:57:474;1448061234.94;(0.4038252592086792, 0.667066552903917);65.0434265137;1.0;11:57:57:535;0;9;-1.5;1;0;0;0;0;1;1;1;1;6;0;0;;0;0;();();(-2000.0, -2000.0);
11:57:57:552;11:57:57:541;1448061235.01;(0.40463435649871826, 0.6680545806884766);65.4519042969;1.0;11:57:57:552;0;15;-0.335483870967742;1;0;0;0;0;1;1;1;1;6;0;0;;0;0;();();(-2000.0, -2000.0);
11:57:57:568;11:57:57:541;1448061235.01;(0.40463435649871826, 0.6680545806884766);65.4519042969;1.0;11:57:57:568;0;15;-0.335483870967742;1;0;0;0;0;1;1;1;1;6;0;0;;0;0;();();(-2000.0, -2000.0);
11:57:57:602;11:57:57:541;1448061235.01;(0.40463435649871826, 0.6680545806884766);65.4519042969;1.0;11:57:57:602;0;10;-1.5;1;0;0;0;0;1;1;1;1;6;0;0;;0;0;();();(-2000.0, -2000.0);
11:57:57:618;11:57:57:606;1448061235.07;(0.4054518699645996, 0.6693663067287869);65.7581176758;1.0;11:57:57:618;0;4;-1.5;1;0;0;0;0;1;1;1;1;6;0;0;;0;0;();();(-2000.0, -2000.0);
11:57:57:635;11:57:57:606;1448061235.07;(0.4054518699645996, 0.6693663067287869);65.7581176758;1.0;11:57:57:635;0;10;1.78064516129032;1;0;0;0;0;1;1;1;1;6;0;0;;0;0;();();(-2000.0, -2000.0);
11:57:57:653;11:57:57:606;1448061235.07;(0.4054518699645996, 0.6693663067287869);65.7581176758;1.0;11:57:57:652;0;0;1.77741935483871;1;0;0;0;0;1;1;1;1;6;0;0;;0;0;();();(-2000.0, -2000.0);
11:57:57:668;11:57:57:606;1448061235.07;(0.4054518699645996, 0.6693663067287869);65.7581176758;1.0;11:57:57:668;0;10;1.77741935483871;1;0;0;0;0;1;1;1;1;6;0;0;;0;0;();();(-2000.0, -2000.0);
11:57:57:701;11:57:57:673;1448061235.14;(0.4055953502655029, 0.6702303780449761);65.7632598877;1.0;11:57:57:701;0;15;1.78064516129032;1;0;0;0;0;1;1;1;1;6;0;0;;0;0;();();(-2000.0, -2000.0);
11:57:57:718;11:57:57:673;1448061235.14;(0.4055953502655029, 0.6702303780449761);65.7632598877;1.0;11:57:57:718;0;9;1.78064516129032;1;0;0;0;0;1;1;1;1;6;0;0;;0;0;();();(-2000.0, -2000.0);
11:57:57:735;11:57:57:673;1448061235.14;(0.4055953502655029, 0.6702303780449761);65.7632598877;1.0;11:57:57:735;0;9;1.77741935483871;1;0;0;0;0;1;1;1;1;6;0;0;;0;0;();();(-2000.0, -2000.0);
11:57:57:752;11:57:57:736;1448061235.21;(0.40654869079589845, 0.6728907267252604);65.8234024048;1.0;11:57:57:752;0;15;1.78064516129032;1;0;0;0;0;1;1;1;1;6;0;0;;0;0;();();(-2000.0, -2000.0);
11:57:57:768;11:57:57:736;1448061235.21;(0.40654869079589845, 0.6728907267252604);65.8234024048;1.0;11:57:57:768;0;4;-1.5;1;0;0;0;0;1;1;1;1;6;0;0;;0;0;();();(-2000.0, -2000.0);
11:57:57:802;11:57:57:736;1448061235.21;(0.40654869079589845, 0.6728907267252604);65.8234024048;1.0;11:57:57:802;0;5;-1.5;1;0;0;0;0;1;1;1;1;6;0;0;;0;0;();();(-2000.0, -2000.0);
11:57:57:818;11:57:57:805;1448061235.27;(0.4080604314804077, 0.6736905839708116);66.0960083008;1.0;11:57:57:818;0;0;-1.5;1;0;0;0;0;1;1;1;1;6;0;0;;0;0;();();(-2000.0, -2000.0);
11:57:57:835;11:57:57:805;1448061235.27;(0.4080604314804077, 0.6736905839708116);66.0960083008;1.0;11:57:57:835;0;0;-1.5;1;0;0;0;0;1;1;1;1;6;0;0;;0;0;();();(-2000.0, -2000.0);
11:57:57:852;11:57:57:805;1448061235.27;(0.4080604314804077, 0.6736905839708116);66.0960083008;1.0;11:57:57:852;0;10;-1.5;1;0;0;0;0;1;1;1;1;6;0;0;;0;0;();();(-2000.0, -2000.0);
11:57:57:869;11:57:57:805;1448061235.27;(0.4080604314804077, 0.6736905839708116);66.0960083008;1.0;11:57:57:869;0;5;-1.5;1;0;0;0;0;1;1;1;1;6;0;0;;0;0;();();(-2000.0, -2000.0);
11:57:57:902;11:57:57:873;1448061235.31;(0.4087244987487793, 0.6674058490329319);65.7667160034;1.0;11:57:57:902;0;5;-1.5;1;0;0;0;0;1;1;1;1;6;0;0;;0;0;();();(-2000.0, -2000.0);
11:57:57:918;11:57:57:873;1448061235.31;(0.4087244987487793, 0.6674058490329319);65.7667160034;1.0;11:57:57:918;0;3;-1.5;1;0;0;0;0;1;1;1;1;6;0;0;;0;0;();();(-2000.0, -2000.0);
11:57:57:935;11:57:57:873;1448061235.31;(0.4087244987487793, 0.6674058490329319);65.7667160034;1.0;11:57:57:935;0;4;-1.5;1;0;0;0;0;1;1;1;1;6;0;0;;0;0;();();(-2000.0, -2000.0);
11:57:57:952;11:57:57:938;1448061235.4;(0.2099280834197998, 0.5041803571912977);33.2821769714;0.722633714609;11:57:57:952;0;9;-1.5;1;0;0;0;0;1;1;1;1;6;0;0;;0;0;();();(-2000.0, -2000.0);
11:57:57:969;11:57:57:938;1448061235.4;(0.2099280834197998, 0.5041803571912977);33.2821769714;0.722633714609;11:57:57:969;0;15;-1.42258064516129;1;0;0;0;0;1;1;1;1;6;0;0;;0;0;();();(-2000.0, -2000.0);
11:57:58:001;11:57:57:938;1448061235.4;(0.2099280834197998, 0.5041803571912977);33.2821769714;0.722633714609;11:57:58:001;0;15;1.78064516129032;1;0;0;0;0;1;1;1;1;6;0;0;;0;0;();();(-2000.0, -2000.0);
11:57:58:019;11:57:58:004;1448061235.47;(0.25521135330200195, 0.6562650468614366);18.249288559;0.716138572391;11:57:58:019;0;4;1.78064516129032;1;0;0;0;0;1;1;1;1;6;0;0;;0;0;();();(-2000.0, -2000.0);
11:57:58:035;11:57:58:004;1448061235.47;(0.25521135330200195, 0.6562650468614366);18.249288559;0.716138572391;11:57:58:035;0;15;1.78064516129032;1;0;0;0;0;1;1;1;1;6;0;0;;0;0;();();(-2000.0, -2000.0);
11:57:58:052;11:57:58:004;1448061235.47;(0.25521135330200195, 0.6562650468614366);18.249288559;0.716138572391;11:57:58:052;0;4;-1.5;1;0;0;0;0;1;1;1;1;6;0;0;;0;0;();();(-2000.0, -2000.0);
11:57:58:069;11:57:58:069;1448061235.51;(0.4115764617919922, 0.6788933012220595);64.6343841553;1.0;11:57:58:069;0;15;1.78064516129032;1;0;0;0;0;1;1;1;1;6;0;0;;0;0;();();(-2000.0, -2000.0);
11:57:58:102;11:57:58:069;1448061235.51;(0.4115764617919922, 0.6788933012220595);64.6343841553;1.0;11:57:58:102;0;15;0.274193548387097;1;0;0;0;0;1;1;1;1;6;0;0;;0;0;();();(-2000.0, -2000.0);
11:57:58:118;11:57:58:069;1448061235.51;(0.4115764617919922, 0.6788933012220595);64.6343841553;1.0;11:57:58:118;0;5;-1.5;1;0;0;0;0;1;1;1;1;6;0;0;;0;0;();();(-2000.0, -2000.0);
11:57:58:136;11:57:58:069;1448061235.51;(0.4115764617919922, 0.6788933012220595);64.6343841553;1.0;11:57:58:136;0;10;-1.5;1;0;0;0;0;1;1;1;1;6;0;0;;0;0;();();(-2000.0, -2000.0);
11:57:58:152;11:57:58:138;1448061235.61;(0.41171989440917967, 0.6803060107760959);64.9565124512;1.0;11:57:58:152;0;5;-1.5;1;0;0;0;0;1;1;1;1;6;0;0;;0;0;();();(-2000.0, -2000.0);
11:57:58:169;11:57:58:138;1448061235.61;(0.41171989440917967, 0.6803060107760959);64.9565124512;1.0;11:57:58:169;0;15;-1.5;1;0;0;0;0;1;1;1;1;6;0;0;;0;0;();();(-2000.0, -2000.0);
11:57:58:202;11:57:58:201;1448061235.67;(0.41146671772003174, 0.6815417183770074);65.1792221069;1.0;11:57:58:202;0;15;1.78064516129032;1;0;0;0;0;1;1;1;1;6;0;0;;0;0;();();(-2000.0, -2000.0);
11:57:58:219;11:57:58:201;1448061235.67;(0.41146671772003174, 0.6815417183770074);65.1792221069;1.0;11:57:58:219;0;4;1.77741935483871;1;0;0;0;0;1;1;1;1;6;0;0;;0;0;();();(-2000.0, -2000.0);
11:57:58:236;11:57:58:201;1448061235.67;(0.41146671772003174, 0.6815417183770074);65.1792221069;1.0;11:57:58:236;0;10;-1.5;1;0;0;0;0;1;1;1;1;6;0;0;;0;0;();();(-2000.0, -2000.0);
11:57:58:252;11:57:58:201;1448061235.67;(0.41146671772003174, 0.6815417183770074);65.1792221069;1.0;11:57:58:252;0;4;-1.5;1;0;0;0;0;1;1;1;1;6;0;0;;0;0;();();(-2000.0, -2000.0);
11:57:58:269;11:57:58:201;1448061235.67;(0.41146671772003174, 0.6815417183770074);65.1792221069;1.0;11:57:58:269;0;15;-1.5;1;0;0;0;0;1;1;1;1;6;0;0;;0;0;();();(-2000.0, -2000.0);
11:57:58:302;11:57:58:274;1448061235.74;(0.4112842321395874, 0.6833491643269857);65.273223877;1.0;11:57:58:302;0;10;1.78064516129032;1;0;0;0;0;1;1;1;1;6;0;0;;0;0;();();(-2000.0, -2000.0);
11:57:58:318;11:57:58:274;1448061235.74;(0.4112842321395874, 0.6833491643269857);65.273223877;1.0;11:57:58:318;0;15;-1.31935483870968;1;0;0;0;0;1;1;1;1;6;0;0;;0;0;();();(-2000.0, -2000.0);
11:57:58:335;11:57:58:274;1448061235.74;(0.4112842321395874, 0.6833491643269857);65.273223877;1.0;11:57:58:335;0;9;-1.00967741935484;1;0;0;0;0;1;1;1;1;6;0;0;;0;0;();();(-2000.0, -2000.0);
11:57:58:352;11:57:58:340;1448061235.81;(0.40923266410827636, 0.6796470218234592);65.301651001;1.0;11:57:58:352;0;4;1.78064516129032;1;0;0;0;0;1;1;1;1;6;0;0;;0;0;();();(-2000.0, -2000.0);
11:57:58:369;11:57:58:340;1448061235.81;(0.40923266410827636, 0.6796470218234592);65.301651001;1.0;11:57:58:369;0;10;1.78064516129032;1;0;0;0;0;1;1;1;1;6;0;0;;0;0;();();(-2000.0, -2000.0);
11:57:58:403;11:57:58:401;1448061235.84;(0, 0);0;0;11:57:58:403;0;9;1.78064516129032;1;0;0;0;0;1;1;1;1;6;0;0;;0;0;();();(-2000.0, -2000.0);
11:57:58:419;11:57:58:401;1448061235.84;(0, 0);0;0;11:57:58:419;0;4;-0.961290322580645;1;0;0;0;0;1;1;1;1;6;0;0;;0;0;();();(-2000.0, -2000.0);
11:57:58:436;11:57:58:401;1448061235.84;(0, 0);0;0;11:57:58:436;0;9;-1.21612903225806;1;0;0;0;0;1;1;1;1;6;0;0;;0;0;();();(-2000.0, -2000.0);
11:57:58:452;11:57:58:401;1448061235.84;(0, 0);0;0;11:57:58:452;0;5;-1.5;1;0;0;0;0;1;1;1;1;6;0;0;;0;0;();();(-2000.0, -2000.0);
11:57:58:468;11:57:58:401;1448061235.84;(0, 0);0;0;11:57:58:468;0;10;-1.5;1;0;0;0;0;1;1;1;1;6;0;0;;0;0;();();(-2000.0, -2000.0);
11:57:58:502;11:57:58:468;1448061235.91;(0.4104251146316528, 0.6832157558865017);62.4197311401;0.730629026646;11:57:58:502;0;4;-1.5;1;0;0;0;0;1;1;1;1;6;0;0;;0;0;();();(-2000.0, -2000.0);
11:57:58:519;11:57:58:468;1448061235.91;(0.4104251146316528, 0.6832157558865017);62.4197311401;0.730629026646;11:57:58:519;0;0;1.78064516129032;1;0;0;0;0;1;1;1;1;6;0;0;;0;0;();();(-2000.0, -2000.0);
11:57:58:536;11:57:58:533;1448061236.01;(0.4048276662826538, 0.6893609364827473);65.5926895142;0.863186985161;11:57:58:536;0;5;1.61935483870968;1;0;0;0;0;1;1;1;1;6;0;0;;0;0;();();(-2000.0, -2000.0);
11:57:58:553;11:57:58:533;1448061236.01;(0.4048276662826538, 0.6893609364827473);65.5926895142;0.863186985161;11:57:58:553;0;5;0.516129032258065;1;0;0;0;0;1;1;1;1;6;0;0;;0;0;();();(-2000.0, -2000.0);
11:57:58:569;11:57:58:533;1448061236.01;(0.4048276662826538, 0.6893609364827473);65.5926895142;0.863186985161;11:57:58:569;0;4;1.77741935483871;1;0;0;0;0;1;1;1;1;6;0;0;;0;0;();();(-2000.0, -2000.0);
11:57:58:602;11:57:58:601;1448061236.07;(0.4005976915359497, 0.687618891398112);66.8090286255;0.861339317489;11:57:58:602;0;4;1.78064516129032;1;0;0;0;0;1;1;1;1;6;0;0;;0;0;();();(-2000.0, -2000.0);
11:57:58:620;11:57:58:601;1448061236.07;(0.4005976915359497, 0.687618891398112);66.8090286255;0.861339317489;11:57:58:620;0;10;1.77741935483871;1;0;0;0;0;1;1;1;1;6;0;0;;0;0;();();(-2000.0, -2000.0);
11:57:58:635;11:57:58:601;1448061236.07;(0.4005976915359497, 0.687618891398112);66.8090286255;0.861339317489;11:57:58:635;0;11;1.78064516129032;1;0;0;0;0;1;1;1;1;6;0;0;;0;0;();();(-2000.0, -2000.0);
11:57:58:653;11:57:58:601;1448061236.07;(0.4005976915359497, 0.687618891398112);66.8090286255;0.861339317489;11:57:58:653;0;9;0.0516129032258064;1;0;0;0;0;1;1;1;1;6;0;0;;0;0;();();(-2000.0, -2000.0);
11:57:58:669;11:57:58:601;1448061236.07;(0.4005976915359497, 0.687618891398112);66.8090286255;0.861339317489;11:57:58:669;0;9;0.0516129032258064;1;0;0;0;0;1;1;1;1;6;0;0;;0;0;();();(-2000.0, -2000.0);
11:57:58:686;11:57:58:669;1448061236.11;(0.39766204357147217, 0.6878985934787326);66.3328704834;1.0;11:57:58:686;0;10;-1.5;1;0;0;0;0;1;1;1;1;6;0;0;;0;0;();();(-2000.0, -2000.0);
11:57:58:719;11:57:58:669;1448061236.11;(0.39766204357147217, 0.6878985934787326);66.3328704834;1.0;11:57:58:719;0;9;-1.5;1;0;0;0;0;1;1;1;1;6;0;0;;0;0;();();(-2000.0, -2000.0);
11:57:58:735;11:57:58:733;1448061236.21;(0, 0);0;0;11:57:58:735;0;15;-1.5;1;0;0;0;0;1;1;1;1;6;0;0;;0;0;();();(-2000.0, -2000.0);
11:57:58:753;11:57:58:733;1448061236.21;(0, 0);0;0;11:57:58:753;0;9;-1.5;1;0;0;0;0;1;1;1;1;6;0;0;;0;0;();();(-2000.0, -2000.0);
11:57:58:769;11:57:58:733;1448061236.21;(0, 0);0;0;11:57:58:769;0;0;-1.23870967741935;1;0;0;0;0;1;1;1;1;6;0;0;;0;0;();();(-2000.0, -2000.0);
11:57:58:787;11:57:58:733;1448061236.21;(0, 0);0;0;11:57:58:787;0;0;-1.23870967741935;1;0;0;0;0;1;1;1;1;6;0;0;;0;0;();();(-2000.0, -2000.0);
11:57:58:820;11:57:58:801;1448061236.24;(0.21581847667694093, 0.5461857689751519);33.9398727417;0.90104661394;11:57:58:820;0;4;1.3258064516129;1;0;0;0;0;1;1;1;1;6;0;0;;0;0;();();(-2000.0, -2000.0);
11:57:58:835;11:57:58:801;1448061236.24;(0.21581847667694093, 0.5461857689751519);33.9398727417;0.90104661394;11:57:58:835;0;0;-1.5;1;0;0;0;0;1;1;1;1;6;0;0;;0;0;();();(-2000.0, -2000.0);
11:57:58:853;11:57:58:801;1448061236.24;(0.21581847667694093, 0.5461857689751519);33.9398727417;0.90104661394;11:57:58:853;0;10;-1.5;1;0;0;0;0;1;1;1;1;6;0;0;;0;0;();();(-2000.0, -2000.0);
11:57:58:869;11:57:58:865;1448061236.28;(0.43595471382141116, 0.6603890313042535);57.1865653992;0.751966670125;11:57:58:869;0;15;0.687096774193548;1;0;0;0;0;1;1;1;1;6;0;0;;0;0;();();(-2000.0, -2000.0);
11:57:58:887;11:57:58:865;1448061236.28;(0.43595471382141116, 0.6603890313042535);57.1865653992;0.751966670125;11:57:58:887;0;9;1.78064516129032;1;0;0;0;0;1;1;1;1;6;0;0;;0;0;();();(-2000.0, -2000.0);
11:57:58:919;11:57:58:865;1448061236.28;(0.43595471382141116, 0.6603890313042535);57.1865653992;0.751966670125;11:57:58:919;0;10;1.77741935483871;1;0;0;0;0;1;1;1;1;6;0;0;;0;0;();();(-2000.0, -2000.0);
11:57:58:936;11:57:58:865;1448061236.28;(0.43595471382141116, 0.6603890313042535);57.1865653992;0.751966670125;11:57:58:936;0;10;-1.5;1;0;0;0;0;1;1;1;1;6;0;0;;0;0;();();(-2000.0, -2000.0);
11:57:58:953;11:57:58:865;1448061236.28;(0.43595471382141116, 0.6603890313042535);57.1865653992;0.751966670125;11:57:58:953;0;5;-1.5;1;0;0;0;0;1;1;1;1;6;0;0;;0;0;();();(-2000.0, -2000.0);
11:57:58:970;11:57:58:865;1448061236.28;(0.43595471382141116, 0.6603890313042535);57.1865653992;0.751966670125;11:57:58:970;0;15;-1.5;1;0;0;0;0;1;1;1;1;6;0;0;;0;0;();();(-2000.0, -2000.0);
11:57:58:986;11:57:58:865;1448061236.28;(0.43595471382141116, 0.6603890313042535);57.1865653992;0.751966670125;11:57:58:986;0;4;-1.5;1;0;0;0;0;1;1;1;1;6;0;0;;0;0;();();(-2000.0, -2000.0);
11:57:59:019;11:57:59:001;1448061236.34;(0.4271867275238037, 0.6327985763549805);65.6823730469;0.923381411004;11:57:59:019;0;5;1.77741935483871;1;0;0;0;0;1;1;1;1;6;0;0;;0;0;();();(-2000.0, -2000.0);
11:57:59:036;11:57:59:001;1448061236.34;(0.4271867275238037, 0.6327985763549805);65.6823730469;0.923381411004;11:57:59:036;0;9;1.76129032258065;1;0;0;0;0;1;1;1;1;6;0;0;;0;0;();();(-2000.0, -2000.0);
11:57:59:053;11:57:59:001;1448061236.34;(0.4271867275238037, 0.6327985763549805);65.6823730469;0.923381411004;11:57:59:053;0;9;1.76129032258065;1;0;0;0;0;1;1;1;1;6;0;0;;0;0;();();(-2000.0, -2000.0);
11:57:59:069;11:57:59:001;1448061236.34;(0.4271867275238037, 0.6327985763549805);65.6823730469;0.923381411004;11:57:59:069;0;9;1.78064516129032;1;0;0;0;0;1;1;1;1;6;0;0;;0;0;();();(-2000.0, -2000.0);
11:57:59:087;11:57:59:001;1448061236.34;(0.4271867275238037, 0.6327985763549805);65.6823730469;0.923381411004;11:57:59:087;0;9;1.78064516129032;1;0;0;0;0;1;1;1;1;6;0;0;;0;0;();();(-2000.0, -2000.0);
11:57:59:119;11:57:59:001;1448061236.34;(0.4271867275238037, 0.6327985763549805);65.6823730469;0.923381411004;11:57:59:119;0;5;1.78064516129032;1;0;0;0;0;1;1;1;1;6;0;0;;0;0;();();(-2000.0, -2000.0);
11:57:59:136;11:57:59:133;1448061236.47;(0.41965909004211427, 0.5606919606526692);65.5763626099;0.727651006484;11:57:59:136;0;5;1.78064516129032;1;0;0;0;0;1;1;1;1;6;0;0;;0;0;();();(-2000.0, -2000.0);
11:57:59:152;11:57:59:133;1448061236.47;(0.41965909004211427, 0.5606919606526692);65.5763626099;0.727651006484;11:57:59:152;0;5;1.78064516129032;1;0;0;0;0;1;1;1;1;6;0;0;;0;0;();();(-2000.0, -2000.0);
11:57:59:169;11:57:59:133;1448061236.47;(0.41965909004211427, 0.5606919606526692);65.5763626099;0.727651006484;11:57:59:169;0;10;1.76129032258065;1;0;0;0;0;1;1;1;1;6;0;0;;0;0;();();(-2000.0, -2000.0);
11:57:59:186;11:57:59:133;1448061236.47;(0.41965909004211427, 0.5606919606526692);65.5763626099;0.727651006484;11:57:59:186;0;15;1.76129032258065;1;0;0;0;0;1;1;1;1;6;0;0;;0;0;();();(-2000.0, -2000.0);
11:57:59:219;11:57:59:133;1448061236.47;(0.41965909004211427, 0.5606919606526692);65.5763626099;0.727651006484;11:57:59:219;0;15;1.78064516129032;1;0;0;0;0;1;1;1;1;6;0;0;;0;0;();();(-2000.0, -2000.0);
11:57:59:236;11:57:59:133;1448061236.47;(0.41965909004211427, 0.5606919606526692);65.5763626099;0.727651006484;11:57:59:236;0;10;1.78064516129032;1;0;0;0;0;1;1;1;1;6;0;0;;0;0;();();(-2000.0, -2000.0);
11:57:59:252;11:57:59:133;1448061236.47;(0.41965909004211427, 0.5606919606526692);65.5763626099;0.727651006484;11:57:59:252;0;0;1.78064516129032;1;0;0;0;0;1;1;1;1;6;0;0;;0;0;();();(-2000.0, -2000.0);
11:57:59:271;11:57:59:265;1448061236.59;(0.41854610443115237, 0.57157228257921);66.9321746826;0.916224283193;11:57:59:271;0;10;1.78064516129032;1;0;0;0;0;1;1;1;1;6;0;0;;0;0;();();(-2000.0, -2000.0);
11:57:59:303;11:57:59:265;1448061236.59;(0.41854610443115237, 0.57157228257921);66.9321746826;0.916224283193;11:57:59:303;0;5;1.77741935483871;1;0;0;0;0;1;1;1;1;6;0;0;;0;0;();();(-2000.0, -2000.0);
11:57:59:319;11:57:59:265;1448061236.59;(0.41854610443115237, 0.57157228257921);66.9321746826;0.916224283193;11:57:59:319;0;0;1.78064516129032;1;0;0;0;0;1;1;1;1;6;0;0;;0;0;();();(-2000.0, -2000.0);
11:57:59:336;11:57:59:265;1448061236.59;(0.41854610443115237, 0.57157228257921);66.9321746826;0.916224283193;11:57:59:336;0;5;-1.5;1;0;0;0;0;1;1;1;1;6;0;0;;0;0;();();(-2000.0, -2000.0);
11:57:59:353;11:57:59:265;1448061236.59;(0.41854610443115237, 0.57157228257921);66.9321746826;0.916224283193;11:57:59:353;0;15;0.874193548387097;1;0;0;0;0;1;1;1;1;6;0;0;;0;0;();();(-2000.0, -2000.0);
11:57:59:370;11:57:59:265;1448061236.59;(0.41854610443115237, 0.57157228257921);66.9321746826;0.916224283193;11:57:59:370;0;4;-1.5;1;0;0;0;0;1;1;1;1;6;0;0;;0;0;();();(-2000.0, -2000.0);
11:57:59:402;11:57:59:265;1448061236.59;(0.41854610443115237, 0.57157228257921);66.9321746826;0.916224283193;11:57:59:402;0;5;-0.212903225806452;1;0;0;0;0;1;1;1;1;6;0;0;;0;0;();();(-2000.0, -2000.0);
11:57:59:419;11:57:59:265;1448061236.59;(0.41854610443115237, 0.57157228257921);66.9321746826;0.916224283193;11:57:59:419;0;15;-0.325806451612903;1;0;0;0;0;1;1;1;1;6;0;0;;0;0;();();(-2000.0, -2000.0);
11:57:59:436;11:57:59:265;1448061236.59;(0.41854610443115237, 0.57157228257921);66.9321746826;0.916224283193;11:57:59:436;0;4;1.78064516129032;1;0;0;0;0;1;1;1;1;6;0;0;;0;0;();();(-2000.0, -2000.0);
11:57:59:453;11:57:59:265;1448061236.59;(0.41854610443115237, 0.57157228257921);66.9321746826;0.916224283193;11:57:59:453;0;9;1.77741935483871;1;0;0;0;0;1;1;1;1;6;0;0;;0;0;();();(-2000.0, -2000.0);
11:57:59:470;11:57:59:466;1448061236.94;(0, 0);0;0;11:57:59:470;0;4;1.78064516129032;1;0;0;0;0;1;1;1;1;6;0;0;;0;0;();();(-2000.0, -2000.0);
11:57:59:487;11:57:59:466;1448061236.94;(0, 0);0;0;11:57:59:487;0;9;-1.49677419354839;1;0;0;0;0;1;1;1;1;6;0;0;;0;0;();();(-2000.0, -2000.0);
11:57:59:521;11:57:59:466;1448061236.94;(0, 0);0;0;11:57:59:521;0;10;-1.5;1;0;0;0;0;1;1;1;1;6;0;0;;0;0;();();(-2000.0, -2000.0);
11:57:59:537;11:57:59:529;1448061236.97;(0.19181095361709594, 0.4107511732313368);35.5293884277;0.672430065374;11:57:59:537;0;15;1.23225806451613;1;0;0;0;0;1;1;1;1;6;0;0;;0;0;();();(-2000.0, -2000.0);
11:57:59:553;11:57:59:529;1448061236.97;(0.19181095361709594, 0.4107511732313368);35.5293884277;0.672430065374;11:57:59:553;0;9;-1.15161290322581;1;0;0;0;0;1;1;1;1;6;0;0;;0;0;();();(-2000.0, -2000.0);
11:57:59:569;11:57:59:529;1448061236.97;(0.19181095361709594, 0.4107511732313368);35.5293884277;0.672430065374;11:57:59:569;0;15;-0.961290322580645;1;0;0;0;0;1;1;1;1;6;0;0;;0;0;();();(-2000.0, -2000.0);
11:57:59:587;11:57:59:529;1448061236.97;(0.19181095361709594, 0.4107511732313368);35.5293884277;0.672430065374;11:57:59:587;0;10;-1.5;1;0;0;0;0;1;1;1;1;6;0;0;;0;0;();();(-2000.0, -2000.0);
11:57:59:619;11:57:59:597;1448061237.01;(0.1850225329399109, 0.44573669433593754);26.6031360626;0.911888157941;11:57:59:619;0;14;-1.5;1;0;0;0;0;1;1;1;1;6;0;0;;0;0;();();(-2000.0, -2000.0);
11:57:59:636;11:57:59:597;1448061237.01;(0.1850225329399109, 0.44573669433593754);26.6031360626;0.911888157941;11:57:59:636;0;4;-1.5;1;0;0;0;0;1;1;1;1;6;0;0;;0;0;();();(-2000.0, -2000.0);
11:57:59:653;11:57:59:597;1448061237.01;(0.1850225329399109, 0.44573669433593754);26.6031360626;0.911888157941;11:57:59:653;0;9;-1.5;1;0;0;0;0;1;1;1;1;6;0;0;;0;0;();();(-2000.0, -2000.0);
11:57:59:670;11:57:59:597;1448061237.01;(0.1850225329399109, 0.44573669433593754);26.6031360626;0.911888157941;11:57:59:670;0;15;-1.5;1;0;0;0;0;1;1;1;1;6;0;0;;0;0;();();(-2000.0, -2000.0);
11:57:59:687;11:57:59:597;1448061237.01;(0.1850225329399109, 0.44573669433593754);26.6031360626;0.911888157941;11:57:59:687;0;4;-1.03870967741935;1;0;0;0;0;1;1;1;1;6;0;0;;0;0;();();(-2000.0, -2000.0);
11:57:59:721;11:57:59:597;1448061237.01;(0.1850225329399109, 0.44573669433593754);26.6031360626;0.911888157941;11:57:59:721;0;4;1.78064516129032;1;0;0;0;0;1;1;1;1;6;0;0;;0;0;();();(-2000.0, -2000.0);
11:57:59:737;11:57:59:729;1448061237.18;(0.37939791679382323, 0.5706935458713107);71.4529495239;0.906194795978;11:57:59:737;0;0;1.77741935483871;1;0;0;0;0;1;1;1;1;6;0;0;;0;0;();();(-2000.0, -2000.0);
11:57:59:753;11:57:59:729;1448061237.18;(0.37939791679382323, 0.5706935458713107);71.4529495239;0.906194795978;11:57:59:753;0;4;1.78064516129032;1;0;0;0;0;1;1;1;1;6;0;0;;0;0;();();(-2000.0, -2000.0);
11:57:59:771;11:57:59:729;1448061237.18;(0.37939791679382323, 0.5706935458713107);71.4529495239;0.906194795978;11:57:59:771;0;15;-0.651612903225806;1;0;0;0;0;1;1;1;1;6;0;0;;0;0;();();(-2000.0, -2000.0);
11:57:59:786;11:57:59:729;1448061237.18;(0.37939791679382323, 0.5706935458713107);71.4529495239;0.906194795978;11:57:59:786;0;10;1.77741935483871;1;0;0;0;0;1;1;1;1;6;0;0;;0;0;();();(-2000.0, -2000.0);
11:57:59:820;11:57:59:798;1448061237.24;(0.3853713035583496, 0.5888329399956598);71.4141998291;1.0;11:57:59:820;0;5;-1.5;1;0;0;0;0;1;1;1;1;6;0;0;;0;0;();();(-2000.0, -2000.0);
11:57:59:836;11:57:59:798;1448061237.24;(0.3853713035583496, 0.5888329399956598);71.4141998291;1.0;11:57:59:836;0;10;-1.5;1;0;0;0;0;1;1;1;1;6;0;0;;0;0;();();(-2000.0, -2000.0);
11:57:59:853;11:57:59:798;1448061237.24;(0.3853713035583496, 0.5888329399956598);71.4141998291;1.0;11:57:59:853;0;14;-1.5;1;0;0;0;0;1;1;1;1;6;0;0;;0;0;();();(-2000.0, -2000.0);
11:57:59:870;11:57:59:861;1448061237.31;(0.3903364181518555, 0.6049605475531684);71.3867340088;1.0;11:57:59:870;0;9;-1.5;1;0;0;0;0;1;1;1;1;6;0;0;;0;0;();();(-2000.0, -2000.0);
11:57:59:887;11:57:59:861;1448061237.31;(0.3903364181518555, 0.6049605475531684);71.3867340088;1.0;11:57:59:887;0;4;-1.5;1;0;0;0;0;1;1;1;1;6;0;0;;0;0;();();(-2000.0, -2000.0);
11:57:59:921;11:57:59:861;1448061237.31;(0.3903364181518555, 0.6049605475531684);71.3867340088;1.0;11:57:59:921;0;15;-1.5;1;0;0;0;0;1;1;1;1;6;0;0;;0;0;();();(-2000.0, -2000.0);
11:57:59:937;11:57:59:928;1448061237.34;(0.39302380084991456, 0.6035330030653212);70.9585037231;0.849260299337;11:57:59:937;0;10;-1.5;1;0;0;0;0;1;1;1;1;6;0;0;;0;0;();();(-2000.0, -2000.0);
11:57:59:954;11:57:59:928;1448061237.34;(0.39302380084991456, 0.6035330030653212);70.9585037231;0.849260299337;11:57:59:954;0;4;-1.5;1;0;0;0;0;1;1;1;1;6;0;0;;0;0;();();(-2000.0, -2000.0);
11:57:59:970;11:57:59:928;1448061237.34;(0.39302380084991456, 0.6035330030653212);70.9585037231;0.849260299337;11:57:59:970;0;10;-1.5;1;0;0;0;0;1;1;1;1;6;0;0;;0;0;();();(-2000.0, -2000.0);
11:57:59:988;11:57:59:928;1448061237.34;(0.39302380084991456, 0.6035330030653212);70.9585037231;0.849260299337;11:57:59:988;0;15;1.77741935483871;1;0;0;0;0;1;1;1;1;6;0;0;;0;0;();();(-2000.0, -2000.0);
11:58:00:020;11:57:59:998;1448061237.43;(0.35677947998046877, 0.6390211741129557);63.4757003784;0.696182579606;11:58:00:020;0;4;1.78064516129032;1;0;0;0;0;1;1;1;1;6;0;0;;0;0;();();(-2000.0, -2000.0);
11:58:00:037;11:57:59:998;1448061237.43;(0.35677947998046877, 0.6390211741129557);63.4757003784;0.696182579606;11:58:00:036;0;9;1.77741935483871;1;0;0;0;0;1;1;1;1;6;0;0;;0;0;();();(-2000.0, -2000.0);
11:58:00:054;11:57:59:998;1448061237.43;(0.35677947998046877, 0.6390211741129557);63.4757003784;0.696182579606;11:58:00:054;0;10;1.78064516129032;1;0;0;0;0;1;1;1;1;6;0;0;;0;0;();();(-2000.0, -2000.0);
11:58:00:071;11:57:59:998;1448061237.43;(0.35677947998046877, 0.6390211741129557);63.4757003784;0.696182579606;11:58:00:071;0;10;1.78064516129032;1;0;0;0;0;1;1;1;1;6;0;0;;0;0;();();(-2000.0, -2000.0);
11:58:00:087;11:57:59:998;1448061237.43;(0.35677947998046877, 0.6390211741129557);63.4757003784;0.696182579606;11:58:00:087;0;15;-1.49677419354839;1;0;0;0;0;1;1;1;1;6;0;0;;0;0;();();(-2000.0, -2000.0);
11:58:00:120;11:57:59:998;1448061237.43;(0.35677947998046877, 0.6390211741129557);63.4757003784;0.696182579606;11:58:00:120;0;4;-1.5;1;0;0;0;0;1;1;1;1;6;0;0;;0;0;();();(-2000.0, -2000.0);
11:58:00:140;11:58:00:129;1448061237.61;(0.3903536796569824, 0.6108622233072917);73.6516494751;1.0;11:58:00:140;0;4;-1.5;1;0;0;0;0;1;1;1;1;8;0;0;;0;0;();();(-2000.0, -2000.0);
11:58:00:154;11:58:00:129;1448061237.61;(0.3903536796569824, 0.6108622233072917);73.6516494751;1.0;11:58:00:154;0;4;-1.5;1;0;0;0;0;1;1;1;1;8;0;0;;0;0;();();(-2000.0, -2000.0);
11:58:00:170;11:58:00:129;1448061237.61;(0.3903536796569824, 0.6108622233072917);73.6516494751;1.0;11:58:00:170;0;10;-1.5;1;0;0;0;0;1;1;1;1;8;0;0;;0;0;();();(-2000.0, -2000.0);
11:58:00:187;11:58:00:129;1448061237.61;(0.3903536796569824, 0.6108622233072917);73.6516494751;1.0;11:58:00:187;0;15;1.77741935483871;1;0;0;0;0;1;1;1;1;8;0;0;;0;0;();();(-2000.0, -2000.0);
11:58:00:220;11:58:00:192;1448061237.64;(0.39139704704284667, 0.610019048055013);73.7526626587;1.0;11:58:00:220;0;0;1.78064516129032;1;0;0;0;0;1;1;1;1;8;0;0;;0;0;();();(-2000.0, -2000.0);
11:58:00:238;11:58:00:192;1448061237.64;(0.39139704704284667, 0.610019048055013);73.7526626587;1.0;11:58:00:238;0;4;1.78064516129032;1;0;0;0;0;1;1;1;1;8;0;0;;0;0;();();(-2000.0, -2000.0);
11:58:00:255;11:58:00:192;1448061237.64;(0.39139704704284667, 0.610019048055013);73.7526626587;1.0;11:58:00:255;0;9;1.78064516129032;1;0;0;0;0;1;1;1;1;8;0;0;;0;0;();();(-2000.0, -2000.0);
11:58:00:271;11:58:00:261;1448061237.67;(0.39337241649627686, 0.6050190819634331);73.9180679321;1.0;11:58:00:271;0;4;1.78064516129032;1;0;0;0;0;1;1;1;1;8;0;0;;0;0;();();(-2000.0, -2000.0);
11:58:00:287;11:58:00:261;1448061237.67;(0.39337241649627686, 0.6050190819634331);73.9180679321;1.0;11:58:00:287;0;10;1.78064516129032;1;0;0;0;0;1;1;1;1;8;0;0;;0;0;();();(-2000.0, -2000.0);
11:58:00:320;11:58:00:261;1448061237.67;(0.39337241649627686, 0.6050190819634331);73.9180679321;1.0;11:58:00:320;0;15;1.78064516129032;1;0;0;0;0;1;1;1;1;8;0;0;;0;0;();();(-2000.0, -2000.0);
11:58:00:337;11:58:00:330;1448061237.79;(0.3069143533706665, 0.6009446038140192);21.8202476501;0.777627574238;11:58:00:337;0;4;1.77741935483871;1;0;0;0;0;1;1;1;1;8;0;0;;0;0;();();(-2000.0, -2000.0);
11:58:00:354;11:58:00:330;1448061237.79;(0.3069143533706665, 0.6009446038140192);21.8202476501;0.777627574238;11:58:00:354;0;9;1.77741935483871;1;0;0;0;0;1;1;1;1;8;0;0;;0;0;();();(-2000.0, -2000.0);
11:58:00:371;11:58:00:330;1448061237.79;(0.3069143533706665, 0.6009446038140192);21.8202476501;0.777627574238;11:58:00:371;0;0;1.79032258064516;1;0;0;0;0;1;1;1;1;8;0;0;;0;0;();();(-2000.0, -2000.0);
11:58:00:388;11:58:00:330;1448061237.79;(0.3069143533706665, 0.6009446038140192);21.8202476501;0.777627574238;11:58:00:388;0;0;1.79032258064516;1;0;0;0;0;1;1;1;1;8;0;0;;0;0;();();(-2000.0, -2000.0);
11:58:00:421;11:58:00:393;1448061237.84;(0.3975240230560303, 0.6981309466891819);72.7289581299;0.859010650156;11:58:00:421;0;0;1.79032258064516;1;0;0;0;0;1;1;1;1;8;0;0;;0;0;();();(-2000.0, -2000.0);
11:58:00:438;11:58:00:393;1448061237.84;(0.3975240230560303, 0.6981309466891819);72.7289581299;0.859010650156;11:58:00:438;0;9;1.76129032258065;1;0;0;0;0;1;1;1;1;8;0;0;;0;0;();();(-2000.0, -2000.0);
11:58:00:454;11:58:00:393;1448061237.84;(0.3975240230560303, 0.6981309466891819);72.7289581299;0.859010650156;11:58:00:454;0;4;1.78064516129032;1;0;0;0;0;1;1;1;1;8;0;0;;0;0;();();(-2000.0, -2000.0);
11:58:00:470;11:58:00:461;1448061237.91;(0.4016040086746216, 0.6927797741360134);74.083946228;1.0;11:58:00:470;0;0;1.77741935483871;1;0;0;0;0;1;1;1;1;8;0;0;;0;0;();();(-2000.0, -2000.0);
11:58:00:487;11:58:00:461;1448061237.91;(0.4016040086746216, 0.6927797741360134);74.083946228;1.0;11:58:00:487;0;4;1.78064516129032;1;0;0;0;0;1;1;1;1;8;0;0;;0;0;();();(-2000.0, -2000.0);
11:58:00:521;11:58:00:461;1448061237.91;(0.4016040086746216, 0.6927797741360134);74.083946228;1.0;11:58:00:521;0;5;1.78064516129032;1;0;0;0;0;1;1;1;1;8;0;0;;0;0;();();(-2000.0, -2000.0);
11:58:00:538;11:58:00:526;1448061237.97;(0.40307230949401857, 0.6913618935479058);74.6424560547;0.935981061908;11:58:00:538;0;10;-1.5;1;0;0;0;0;1;1;1;1;8;0;0;;0;0;();();(-2000.0, -2000.0);
11:58:00:554;11:58:00:526;1448061237.97;(0.40307230949401857, 0.6913618935479058);74.6424560547;0.935981061908;11:58:00:554;0;5;-1.5;1;0;0;0;0;1;1;1;1;8;0;0;;0;0;();();(-2000.0, -2000.0);
11:58:00:571;11:58:00:526;1448061237.97;(0.40307230949401857, 0.6913618935479058);74.6424560547;0.935981061908;11:58:00:571;0;9;-1.5;1;0;0;0;0;1;1;1;1;8;0;0;;0;0;();();(-2000.0, -2000.0);
11:58:00:587;11:58:00:526;1448061237.97;(0.40307230949401857, 0.6913618935479058);74.6424560547;0.935981061908;11:58:00:587;0;9;-1.5;1;0;0;0;0;1;1;1;1;8;0;0;;0;0;();();(-2000.0, -2000.0);
11:58:00:621;11:58:00:593;1448061238.01;(0.4049540996551514, 0.6872572369045682);74.9233322144;1.0;11:58:00:621;0;5;1.79032258064516;1;0;0;0;0;1;1;1;1;8;0;0;;0;0;();();(-2000.0, -2000.0);
11:58:00:638;11:58:00:593;1448061238.01;(0.4049540996551514, 0.6872572369045682);74.9233322144;1.0;11:58:00:638;0;10;1.78064516129032;1;0;0;0;0;1;1;1;1;8;0;0;;0;0;();();(-2000.0, -2000.0);
11:58:00:654;11:58:00:593;1448061238.01;(0.4049540996551514, 0.6872572369045682);74.9233322144;1.0;11:58:00:654;0;15;1.78064516129032;1;0;0;0;0;1;1;1;1;8;0;0;;0;0;();();(-2000.0, -2000.0);
11:58:00:671;11:58:00:661;1448061238.14;(0.15930618047714235, 0.6464747111002604);20.19713974;0.899374500655;11:58:00:671;0;9;1.78064516129032;1;0;0;0;0;1;1;1;1;8;0;0;;0;0;();();(-2000.0, -2000.0);
11:58:00:687;11:58:00:661;1448061238.14;(0.15930618047714235, 0.6464747111002604);20.19713974;0.899374500655;11:58:00:687;0;5;1.77741935483871;1;0;0;0;0;1;1;1;1;8;0;0;;0;0;();();(-2000.0, -2000.0);
11:58:00:720;11:58:00:661;1448061238.14;(0.15930618047714235, 0.6464747111002604);20.19713974;0.899374500655;11:58:00:720;0;5;1.78064516129032;1;0;0;0;0;1;1;1;1;8;0;0;;0;0;();();(-2000.0, -2000.0);
11:58:00:738;11:58:00:725;1448061238.21;(0, 0);0;0;11:58:00:738;0;9;-1.5;1;0;0;0;0;1;1;1;1;8;0;0;;0;0;();();(-2000.0, -2000.0);
11:58:00:754;11:58:00:725;1448061238.21;(0, 0);0;0;11:58:00:754;0;15;-1.5;1;0;0;0;0;1;1;1;1;8;0;0;;0;0;();();(-2000.0, -2000.0);
11:58:00:770;11:58:00:725;1448061238.21;(0, 0);0;0;11:58:00:770;0;10;-1.5;1;0;0;0;0;1;1;1;1;8;0;0;;0;0;();();(-2000.0, -2000.0);
11:58:00:787;11:58:00:725;1448061238.21;(0, 0);0;0;11:58:00:787;0;15;-1.5;1;0;0;0;0;1;1;1;1;8;0;0;;0;0;();();(-2000.0, -2000.0);
11:58:00:821;11:58:00:792;1448061238.24;(0.22854883670806886, 0.49480239020453554);26.9979515076;0.626479578093;11:58:00:821;0;14;-1.5;1;0;0;0;0;1;1;1;1;8;0;0;;0;0;();();(-2000.0, -2000.0);
11:58:00:837;11:58:00:792;1448061238.24;(0.22854883670806886, 0.49480239020453554);26.9979515076;0.626479578093;11:58:00:837;0;9;-1.5;1;0;0;0;0;1;1;1;1;8;0;0;;0;0;();();(-2000.0, -2000.0);
11:58:00:854;11:58:00:792;1448061238.24;(0.22854883670806886, 0.49480239020453554);26.9979515076;0.626479578093;11:58:00:854;0;15;-1.5;1;0;0;0;0;1;1;1;1;8;0;0;;0;0;();();(-2000.0, -2000.0);
11:58:00:871;11:58:00:857;1448061238.31;(0.41428890228271487, 0.6702653461032444);68.6006164551;0.666160072269;11:58:00:871;0;4;1.78064516129032;1;0;0;0;0;1;1;1;1;8;0;0;;0;0;();();(-2000.0, -2000.0);
11:58:00:888;11:58:00:857;1448061238.31;(0.41428890228271487, 0.6702653461032444);68.6006164551;0.666160072269;11:58:00:888;0;4;1.78064516129032;1;0;0;0;0;1;1;1;1;8;0;0;;0;0;();();(-2000.0, -2000.0);
11:58:00:920;11:58:00:857;1448061238.31;(0.41428890228271487, 0.6702653461032444);68.6006164551;0.666160072269;11:58:00:920;0;10;1.78064516129032;1;0;0;0;0;1;1;1;1;8;0;0;;0;0;();();(-2000.0, -2000.0);
11:58:00:938;11:58:00:925;1448061238.41;(0.41448659896850587, 0.6704547034369575);70.1295700073;1.0;11:58:00:938;0;4;-0.0451612903225806;1;0;0;0;0;1;1;1;1;8;0;0;;0;0;();();(-2000.0, -2000.0);
11:58:00:955;11:58:00:925;1448061238.41;(0.41448659896850587, 0.6704547034369575);70.1295700073;1.0;11:58:00:955;0;15;-1.5;1;0;0;0;0;1;1;1;1;8;0;0;;0;0;();();(-2000.0, -2000.0);
11:58:00:971;11:58:00:925;1448061238.41;(0.41448659896850587, 0.6704547034369575);70.1295700073;1.0;11:58:00:971;0;4;-1.5;1;0;0;0;0;1;1;1;1;8;0;0;;0;0;();();(-2000.0, -2000.0);
11:58:00:987;11:58:00:925;1448061238.41;(0.41448659896850587, 0.6704547034369575);70.1295700073;1.0;11:58:00:987;0;15;-1.5;1;0;0;0;0;1;1;1;1;8;0;0;;0;0;();();(-2000.0, -2000.0);
11:58:01:021;11:58:00:993;1448061238.44;(0.4153317451477051, 0.6697524812486437);69.4953308105;1.0;11:58:01:021;0;10;-1.5;1;0;0;0;0;1;1;1;1;8;0;0;;0;0;();();(-2000.0, -2000.0);
11:58:01:039;11:58:00:993;1448061238.44;(0.4153317451477051, 0.6697524812486437);69.4953308105;1.0;11:58:01:039;0;10;-1.5;1;0;0;0;0;1;1;1;1;8;0;0;;0;0;();();(-2000.0, -2000.0);
11:58:01:055;11:58:00:993;1448061238.44;(0.4153317451477051, 0.6697524812486437);69.4953308105;1.0;11:58:01:055;0;10;-1.5;1;0;0;0;0;1;1;1;1;8;0;0;;0;0;();();(-2000.0, -2000.0);
11:58:01:071;11:58:01:057;1448061238.54;(0.41509394645690917, 0.6717698415120443);67.8237457275;1.0;11:58:01:071;0;4;-1.5;1;0;0;0;0;1;1;1;1;8;0;0;;0;0;();();(-2000.0, -2000.0);
11:58:01:087;11:58:01:057;1448061238.54;(0.41509394645690917, 0.6717698415120443);67.8237457275;1.0;11:58:01:087;0;4;-1.5;1;0;0;0;0;1;1;1;1;8;0;0;;0;0;();();(-2000.0, -2000.0);
11:58:01:121;11:58:01:057;1448061238.54;(0.41509394645690917, 0.6717698415120443);67.8237457275;1.0;11:58:01:121;0;10;1.78064516129032;1;0;0;0;0;1;1;1;1;8;0;0;;0;0;();();(-2000.0, -2000.0);
11:58:01:138;11:58:01:125;1448061238.57;(0.4150732755661011, 0.6741121504041884);67.3043441772;0.901039394136;11:58:01:138;0;15;1.79032258064516;1;0;0;0;0;1;1;1;1;8;0;0;;0;0;();();(-2000.0, -2000.0);
