%Timestamp,timestamp_write;timestamp_gotpupil;eyetrackertime;norm_pos;diameter;confidence;timestamp_gotbitdata;CRC;SEQ;AnalogOutp1;AnalogOutp2;AnalogOutp3;AnalogOutp4;AnalogOutp5;AnalogOutp6;DigitalOutp1;DigitalOutp2;igitalOutp3;DigitalOutp4;nplanes;lastaction;lastactiondetails;lastactionairplanenumber;positivescore;negativescore;collidedairplanenumbers;targetpositions;collision_point
07:52:20:828;1448046498.72;(0.6057106971740722, 0.42283566792805993);23.9496440887;1.0;;;;;;;;;;;;;;2;0;0;;0;0;();();(0.0, 0.0);
07:52:20:832;1448046498.72;(0.6057106971740722, 0.42283566792805993);23.9496440887;1.0;;;;;;;;;;;;;;2;0;0;;0;0;();();(-2000.0, -2000.0);
07:52:20:833;1448046498.72;(0.6057106971740722, 0.42283566792805993);23.9496440887;1.0;;;;;;;;;;;;;;2;0;0;;0;0;();();(-2000.0, -2000.0);
07:52:20:833;1448046498.72;(0.6057106971740722, 0.42283566792805993);23.9496440887;1.0;;;;;;;;;;;;;;2;0;0;;0;0;();();(-2000.0, -2000.0);
07:52:20:833;1448046498.72;(0.6057106971740722, 0.42283566792805993);23.9496440887;1.0;;;;;;;;;;;;;;2;0;0;;0;0;();();(-2000.0, -2000.0);
07:52:20:833;1448046498.72;(0.6057106971740722, 0.42283566792805993);23.9496440887;1.0;;;;;;;;;;;;;;2;0;0;;0;0;();();(-2000.0, -2000.0);
07:52:20:833;1448046498.72;(0.6057106971740722, 0.42283566792805993);23.9496440887;1.0;;;;;;;;;;;;;;2;0;0;;0;0;();();(-2000.0, -2000.0);
07:52:20:833;1448046498.72;(0.6057106971740722, 0.42283566792805993);23.9496440887;1.0;;;;;;;;;;;;;;2;0;0;;0;0;();();(-2000.0, -2000.0);
07:52:20:834;1448046498.72;(0.6057106971740722, 0.42283566792805993);23.9496440887;1.0;;;;;;;;;;;;;;2;0;0;;0;0;();();(-2000.0, -2000.0);
07:52:20:834;1448046498.72;(0.6057106971740722, 0.42283566792805993);23.9496440887;1.0;;;;;;;;;;;;;;2;0;0;;0;0;();();(-2000.0, -2000.0);
07:52:20:834;1448046498.72;(0.6057106971740722, 0.42283566792805993);23.9496440887;1.0;;;;;;;;;;;;;;2;0;0;;0;0;();();(-2000.0, -2000.0);
07:52:20:834;1448046498.72;(0.6057106971740722, 0.42283566792805993);23.9496440887;1.0;;;;;;;;;;;;;;2;0;0;;0;0;();();(-2000.0, -2000.0);
07:52:20:834;1448046498.72;(0.6057106971740722, 0.42283566792805993);23.9496440887;1.0;;;;;;;;;;;;;;2;0;0;;0;0;();();(-2000.0, -2000.0);
07:52:20:834;1448046498.72;(0.6057106971740722, 0.42283566792805993);23.9496440887;1.0;;;;;;;;;;;;;;2;0;0;;0;0;();();(-2000.0, -2000.0);
07:52:20:834;1448046498.72;(0.6057106971740722, 0.42283566792805993);23.9496440887;1.0;;;;;;;;;;;;;;2;0;0;;0;0;();();(-2000.0, -2000.0);
07:52:20:834;1448046498.72;(0.6057106971740722, 0.42283566792805993);23.9496440887;1.0;;;;;;;;;;;;;;2;0;0;;0;0;();();(-2000.0, -2000.0);
07:52:20:845;1448046498.72;(0.6057106971740722, 0.42283566792805993);23.9496440887;1.0;;;;;;;;;;;;;;2;0;0;;0;0;();();(-2000.0, -2000.0);
07:52:20:846;1448046498.72;(0.6057106971740722, 0.42283566792805993);23.9496440887;1.0;;;;;;;;;;;;;;2;0;0;;0;0;();();(-2000.0, -2000.0);
07:52:20:868;1448046498.72;(0.6057106971740722, 0.42283566792805993);23.9496440887;1.0;;;;;;;;;;;;;;2;0;0;;0;0;();();(-2000.0, -2000.0);
07:52:20:885;1448046498.72;(0.6057106971740722, 0.42283566792805993);23.9496440887;1.0;;;;;;;;;;;;;;2;0;0;;0;0;();();(-2000.0, -2000.0);
07:52:20:918;07:52:20:902;1448046498.85;(0.6055643558502197, 0.42332318623860676);24.3518028259;0.954429533381;;;;;;;;;;;;;;2;0;0;;0;0;();();(-2000.0, -2000.0);
07:52:20:935;07:52:20:902;1448046498.85;(0.6055643558502197, 0.42332318623860676);24.3518028259;0.954429533381;;;;;;;;;;;;;;2;0;0;;0;0;();();(-2000.0, -2000.0);
07:52:20:951;07:52:20:902;1448046498.85;(0.6055643558502197, 0.42332318623860676);24.3518028259;0.954429533381;;;;;;;;;;;;;;2;0;0;;0;0;();();(-2000.0, -2000.0);
07:52:20:968;07:52:20:902;1448046498.85;(0.6055643558502197, 0.42332318623860676);24.3518028259;0.954429533381;;;;;;;;;;;;;;2;0;0;;0;0;();();(-2000.0, -2000.0);
07:52:20:985;07:52:20:902;1448046498.85;(0.6055643558502197, 0.42332318623860676);24.3518028259;0.954429533381;;;;;;;;;;;;;;2;0;0;;0;0;();();(-2000.0, -2000.0);
07:52:21:018;07:52:20:902;1448046498.85;(0.6055643558502197, 0.42332318623860676);24.3518028259;0.954429533381;;;;;;;;;;;;;;2;0;0;;0;0;();();(-2000.0, -2000.0);
07:52:21:035;07:52:20:902;1448046498.85;(0.6055643558502197, 0.42332318623860676);24.3518028259;0.954429533381;;;;;;;;;;;;;;2;0;0;;0;0;();();(-2000.0, -2000.0);
07:52:21:051;07:52:20:902;1448046498.85;(0.6055643558502197, 0.42332318623860676);24.3518028259;0.954429533381;;;;;;;;;;;;;;2;0;0;;0;0;();();(-2000.0, -2000.0);
07:52:21:068;07:52:20:902;1448046498.85;(0.6055643558502197, 0.42332318623860676);24.3518028259;0.954429533381;;;;;;;;;;;;;;2;0;0;;0;0;();();(-2000.0, -2000.0);
07:52:21:085;07:52:20:902;1448046498.85;(0.6055643558502197, 0.42332318623860676);24.3518028259;0.954429533381;;;;;;;;;;;;;;2;0;0;;0;0;();();(-2000.0, -2000.0);
07:52:21:118;07:52:21:098;1448046498.98;(0.6055070400238037, 0.4233531528049045);24.3290176392;0.952356050924;;;;;;;;;;;;;;2;0;0;;0;0;();();(-2000.0, -2000.0);
07:52:21:135;07:52:21:098;1448046498.98;(0.6055070400238037, 0.4233531528049045);24.3290176392;0.952356050924;;;;;;;;;;;;;;2;0;0;;0;0;();();(-2000.0, -2000.0);
07:52:21:151;07:52:21:098;1448046498.98;(0.6055070400238037, 0.4233531528049045);24.3290176392;0.952356050924;;;;;;;;;;;;;;2;0;0;;0;0;();();(-2000.0, -2000.0);
07:52:21:168;07:52:21:098;1448046498.98;(0.6055070400238037, 0.4233531528049045);24.3290176392;0.952356050924;;;;;;;;;;;;;;2;0;0;;0;0;();();(-2000.0, -2000.0);
07:52:21:185;07:52:21:168;1448046499.12;(0.6061841011047363, 0.42197401258680556);23.1243038177;0.928907852732;;;;;;;;;;;;;;2;0;0;;0;0;();();(-2000.0, -2000.0);
07:52:21:218;07:52:21:168;1448046499.12;(0.6061841011047363, 0.42197401258680556);23.1243038177;0.928907852732;;;;;;;;;;;;;;2;0;0;;0;0;();();(-2000.0, -2000.0);
07:52:21:235;07:52:21:168;1448046499.12;(0.6061841011047363, 0.42197401258680556);23.1243038177;0.928907852732;;;;;;;;;;;;;;2;0;0;;0;0;();();(-2000.0, -2000.0);
07:52:21:251;07:52:21:168;1448046499.12;(0.6061841011047363, 0.42197401258680556);23.1243038177;0.928907852732;;;;;;;;;;;;;;2;0;0;;0;0;();();(-2000.0, -2000.0);
07:52:21:267;07:52:21:168;1448046499.12;(0.6061841011047363, 0.42197401258680556);23.1243038177;0.928907852732;;;;;;;;;;;;;;2;0;0;;0;0;();();(-2000.0, -2000.0);
07:52:21:285;07:52:21:168;1448046499.12;(0.6061841011047363, 0.42197401258680556);23.1243038177;0.928907852732;;;;;;;;;;;;;;2;0;0;;0;0;();();(-2000.0, -2000.0);
07:52:21:318;07:52:21:168;1448046499.12;(0.6061841011047363, 0.42197401258680556);23.1243038177;0.928907852732;;;;;;;;;;;;;;2;0;0;;0;0;();();(-2000.0, -2000.0);
07:52:21:335;07:52:21:168;1448046499.12;(0.6061841011047363, 0.42197401258680556);23.1243038177;0.928907852732;;;;;;;;;;;;;;2;0;0;;0;0;();();(-2000.0, -2000.0);
07:52:21:351;07:52:21:168;1448046499.12;(0.6061841011047363, 0.42197401258680556);23.1243038177;0.928907852732;;;;;;;;;;;;;;2;0;0;;0;0;();();(-2000.0, -2000.0);
07:52:21:368;07:52:21:168;1448046499.12;(0.6061841011047363, 0.42197401258680556);23.1243038177;0.928907852732;;;;;;;;;;;;;;2;0;0;;0;0;();();(-2000.0, -2000.0);
07:52:21:385;07:52:21:168;1448046499.12;(0.6061841011047363, 0.42197401258680556);23.1243038177;0.928907852732;;;;;;;;;;;;;;2;0;0;;0;0;();();(-2000.0, -2000.0);
07:52:21:418;07:52:21:168;1448046499.12;(0.6061841011047363, 0.42197401258680556);23.1243038177;0.928907852732;;;;;;;;;;;;;;2;0;0;;0;0;();();(-2000.0, -2000.0);
07:52:21:435;07:52:21:168;1448046499.12;(0.6061841011047363, 0.42197401258680556);23.1243038177;0.928907852732;;;;;;;;;;;;;;2;0;0;;0;0;();();(-2000.0, -2000.0);
07:52:21:452;07:52:21:438;1448046499.38;(0.6054810523986817, 0.42249064975314665);22.3326892853;1.0;;;;;;;;;;;;;;2;0;0;;0;0;();();(-2000.0, -2000.0);
07:52:21:468;07:52:21:438;1448046499.38;(0.6054810523986817, 0.42249064975314665);22.3326892853;1.0;;;;;;;;;;;;;;2;0;0;;0;0;();();(-2000.0, -2000.0);
07:52:21:485;07:52:21:438;1448046499.38;(0.6054810523986817, 0.42249064975314665);22.3326892853;1.0;;;;;;;;;;;;;;2;0;0;;0;0;();();(-2000.0, -2000.0);
07:52:21:518;07:52:21:438;1448046499.38;(0.6054810523986817, 0.42249064975314665);22.3326892853;1.0;;;;;;;;;;;;;;2;0;0;;0;0;();();(-2000.0, -2000.0);
07:52:21:535;07:52:21:438;1448046499.38;(0.6054810523986817, 0.42249064975314665);22.3326892853;1.0;;;;;;;;;;;;;;2;0;0;;0;0;();();(-2000.0, -2000.0);
07:52:21:552;07:52:21:438;1448046499.38;(0.6054810523986817, 0.42249064975314665);22.3326892853;1.0;;;;;;;;;;;;;;2;0;0;;0;0;();();(-2000.0, -2000.0);
07:52:21:568;07:52:21:565;1448046499.52;(0.6058446884155273, 0.4223526424831814);22.9006252289;1.0;;;;;;;;;;;;;;2;0;0;;0;0;();();(-2000.0, -2000.0);
07:52:21:585;07:52:21:565;1448046499.52;(0.6058446884155273, 0.4223526424831814);22.9006252289;1.0;;;;;;;;;;;;;;2;0;0;;0;0;();();(-2000.0, -2000.0);
07:52:21:618;07:52:21:565;1448046499.52;(0.6058446884155273, 0.4223526424831814);22.9006252289;1.0;;;;;;;;;;;;;;2;0;0;;0;0;();();(-2000.0, -2000.0);
07:52:21:635;07:52:21:565;1448046499.52;(0.6058446884155273, 0.4223526424831814);22.9006252289;1.0;;;;;;;;;;;;;;2;0;0;;0;0;();();(-2000.0, -2000.0);
07:52:21:652;07:52:21:565;1448046499.52;(0.6058446884155273, 0.4223526424831814);22.9006252289;1.0;;;;;;;;;;;;;;2;0;0;;0;0;();();(-2000.0, -2000.0);
07:52:21:668;07:52:21:565;1448046499.52;(0.6058446884155273, 0.4223526424831814);22.9006252289;1.0;;;;;;;;;;;;;;2;0;0;;0;0;();();(-2000.0, -2000.0);
07:52:21:685;07:52:21:565;1448046499.52;(0.6058446884155273, 0.4223526424831814);22.9006252289;1.0;;;;;;;;;;;;;;2;0;0;;0;0;();();(-2000.0, -2000.0);
07:52:21:718;07:52:21:565;1448046499.52;(0.6058446884155273, 0.4223526424831814);22.9006252289;1.0;;;;;;;;;;;;;;2;0;0;;0;0;();();(-2000.0, -2000.0);
07:52:21:735;07:52:21:565;1448046499.52;(0.6058446884155273, 0.4223526424831814);22.9006252289;1.0;;;;;;;;;;;;;;2;0;0;;0;0;();();(-2000.0, -2000.0);
07:52:21:752;07:52:21:565;1448046499.52;(0.6058446884155273, 0.4223526424831814);22.9006252289;1.0;;;;;;;;;;;;;;2;0;0;;0;0;();();(-2000.0, -2000.0);
07:52:21:769;07:52:21:565;1448046499.52;(0.6058446884155273, 0.4223526424831814);22.9006252289;1.0;;;;;;;;;;;;;;2;0;0;;0;0;();();(-2000.0, -2000.0);
07:52:21:785;07:52:21:778;1448046499.65;(0.6056253910064697, 0.422858386569553);23.4241142273;1.0;;;;;;;;;;;;;;2;0;0;;0;0;();();(-2000.0, -2000.0);
07:52:21:819;07:52:21:778;1448046499.65;(0.6056253910064697, 0.422858386569553);23.4241142273;1.0;;;;;;;;;;;;;;2;0;0;;0;0;();();(-2000.0, -2000.0);
07:52:21:835;07:52:21:832;1448046499.78;(0.5605882167816162, 0.5227948930528429);32.7066421509;0.69402888382;;;;;;;;;;;;;;2;0;0;;0;0;();();(-2000.0, -2000.0);
07:52:21:852;07:52:21:832;1448046499.78;(0.5605882167816162, 0.5227948930528429);32.7066421509;0.69402888382;;;;;;;;;;;;;;2;0;0;;0;0;();();(-2000.0, -2000.0);
07:52:21:869;07:52:21:832;1448046499.78;(0.5605882167816162, 0.5227948930528429);32.7066421509;0.69402888382;;;;;;;;;;;;;;2;0;0;;0;0;();();(-2000.0, -2000.0);
07:52:21:885;07:52:21:832;1448046499.78;(0.5605882167816162, 0.5227948930528429);32.7066421509;0.69402888382;;;;;;;;;;;;;;2;0;0;;0;0;();();(-2000.0, -2000.0);
07:52:21:919;07:52:21:832;1448046499.78;(0.5605882167816162, 0.5227948930528429);32.7066421509;0.69402888382;;;;;;;;;;;;;;2;0;0;;0;0;();();(-2000.0, -2000.0);
07:52:21:935;07:52:21:832;1448046499.78;(0.5605882167816162, 0.5227948930528429);32.7066421509;0.69402888382;;;;;;;;;;;;;;2;0;0;;0;0;();();(-2000.0, -2000.0);
07:52:21:953;07:52:21:832;1448046499.78;(0.5605882167816162, 0.5227948930528429);32.7066421509;0.69402888382;;;;;;;;;;;;;;2;0;0;;0;0;();();(-2000.0, -2000.0);
07:52:21:970;07:52:21:965;1448046499.92;(0.5595905780792236, 0.5241475423177083);31.5728626251;0.810570560599;;;;;;;;;;;;;;2;0;0;;0;0;();();(-2000.0, -2000.0);
07:52:21:986;07:52:21:965;1448046499.92;(0.5595905780792236, 0.5241475423177083);31.5728626251;0.810570560599;;;;;;;;;;;;;;2;0;0;;0;0;();();(-2000.0, -2000.0);
07:52:22:020;07:52:21:965;1448046499.92;(0.5595905780792236, 0.5241475423177083);31.5728626251;0.810570560599;;;;;;;;;;;;;;2;0;0;;0;0;();();(-2000.0, -2000.0);
07:52:22:036;07:52:21:965;1448046499.92;(0.5595905780792236, 0.5241475423177083);31.5728626251;0.810570560599;;;;;;;;;;;;;;2;0;0;;0;0;();();(-2000.0, -2000.0);
07:52:22:054;07:52:21:965;1448046499.92;(0.5595905780792236, 0.5241475423177083);31.5728626251;0.810570560599;;;;;;;;;;;;;;2;0;0;;0;0;();();(-2000.0, -2000.0);
07:52:22:070;07:52:21:965;1448046499.92;(0.5595905780792236, 0.5241475423177083);31.5728626251;0.810570560599;;;;;;;;;;;;;;2;0;0;;0;0;();();(-2000.0, -2000.0);
07:52:22:086;07:52:21:965;1448046499.92;(0.5595905780792236, 0.5241475423177083);31.5728626251;0.810570560599;;;;;;;;;;;;;;2;0;0;;0;0;();();(-2000.0, -2000.0);
07:52:22:120;07:52:22:097;1448046500.05;(0.4068428993225098, 0.4716646830240886);30.4836273193;0.859325234824;;;;;;;;;;;;;;2;0;0;;0;0;();();(-2000.0, -2000.0);
07:52:22:136;07:52:22:097;1448046500.05;(0.4068428993225098, 0.4716646830240886);30.4836273193;0.859325234824;;;;;;;;;;;;;;2;0;0;;0;0;();();(-2000.0, -2000.0);
07:52:22:153;07:52:22:097;1448046500.05;(0.4068428993225098, 0.4716646830240886);30.4836273193;0.859325234824;;;;;;;;;;;;;;2;0;0;;0;0;();();(-2000.0, -2000.0);
07:52:22:170;07:52:22:097;1448046500.05;(0.4068428993225098, 0.4716646830240886);30.4836273193;0.859325234824;;;;;;;;;;;;;;2;0;0;;0;0;();();(-2000.0, -2000.0);
07:52:22:186;07:52:22:097;1448046500.05;(0.4068428993225098, 0.4716646830240886);30.4836273193;0.859325234824;;;;;;;;;;;;;;2;0;0;;0;0;();();(-2000.0, -2000.0);
07:52:22:220;07:52:22:097;1448046500.05;(0.4068428993225098, 0.4716646830240886);30.4836273193;0.859325234824;;;;;;;;;;;;;;2;0;0;;0;0;();();(-2000.0, -2000.0);
07:52:22:237;07:52:22:229;1448046500.18;(0.6061249256134034, 0.4223940531412761);23.4838371277;1.0;;;;;;;;;;;;;;2;0;0;;0;0;();();(-2000.0, -2000.0);
07:52:22:253;07:52:22:229;1448046500.18;(0.6061249256134034, 0.4223940531412761);23.4838371277;1.0;;;;;;;;;;;;;;2;0;0;;0;0;();();(-2000.0, -2000.0);
07:52:22:269;07:52:22:229;1448046500.18;(0.6061249256134034, 0.4223940531412761);23.4838371277;1.0;;;;;;;;;;;;;;2;0;0;;0;0;();();(-2000.0, -2000.0);
07:52:22:287;07:52:22:229;1448046500.18;(0.6061249256134034, 0.4223940531412761);23.4838371277;1.0;;;;;;;;;;;;;;2;0;0;;0;0;();();(-2000.0, -2000.0);
07:52:22:320;07:52:22:229;1448046500.18;(0.6061249256134034, 0.4223940531412761);23.4838371277;1.0;;;;;;;;;;;;;;2;0;0;;0;0;();();(-2000.0, -2000.0);
07:52:22:337;07:52:22:229;1448046500.18;(0.6061249256134034, 0.4223940531412761);23.4838371277;1.0;;;;;;;;;;;;;;2;0;0;;0;0;();();(-2000.0, -2000.0);
07:52:22:353;07:52:22:229;1448046500.18;(0.6061249256134034, 0.4223940531412761);23.4838371277;1.0;;;;;;;;;;;;;;2;0;0;;0;0;();();(-2000.0, -2000.0);
07:52:22:370;07:52:22:361;1448046500.32;(0.6066394329071045, 0.4214811113145617);22.1876468658;1.0;;;;;;;;;;;;;;2;0;0;;0;0;();();(-2000.0, -2000.0);
07:52:22:387;07:52:22:361;1448046500.32;(0.6066394329071045, 0.4214811113145617);22.1876468658;1.0;;;;;;;;;;;;;;2;0;0;;0;0;();();(-2000.0, -2000.0);
07:52:22:420;07:52:22:361;1448046500.32;(0.6066394329071045, 0.4214811113145617);22.1876468658;1.0;;;;;;;;;;;;;;2;0;0;;0;0;();();(-2000.0, -2000.0);
07:52:22:437;07:52:22:361;1448046500.32;(0.6066394329071045, 0.4214811113145617);22.1876468658;1.0;;;;;;;;;;;;;;2;0;0;;0;0;();();(-2000.0, -2000.0);
07:52:22:453;07:52:22:361;1448046500.32;(0.6066394329071045, 0.4214811113145617);22.1876468658;1.0;;;;;;;;;;;;;;2;0;0;;0;0;();();(-2000.0, -2000.0);
07:52:22:470;07:52:22:361;1448046500.32;(0.6066394329071045, 0.4214811113145617);22.1876468658;1.0;;;;;;;;;;;;;;2;0;0;;0;0;();();(-2000.0, -2000.0);
07:52:22:487;07:52:22:361;1448046500.32;(0.6066394329071045, 0.4214811113145617);22.1876468658;1.0;;;;;;;;;;;;;;2;0;0;;0;0;();();(-2000.0, -2000.0);
07:52:22:520;07:52:22:493;1448046500.45;(0.6065339565277099, 0.42161890665690105);22.2687320709;1.0;;;;;;;;;;;;;;2;0;0;;0;0;();();(-2000.0, -2000.0);
07:52:22:537;07:52:22:493;1448046500.45;(0.6065339565277099, 0.42161890665690105);22.2687320709;1.0;;;;;;;;;;;;;;2;0;0;;0;0;();();(-2000.0, -2000.0);
07:52:22:554;07:52:22:493;1448046500.45;(0.6065339565277099, 0.42161890665690105);22.2687320709;1.0;;;;;;;;;;;;;;4;0;0;;0;0;();();(-2000.0, -2000.0);
07:52:22:570;07:52:22:493;1448046500.45;(0.6065339565277099, 0.42161890665690105);22.2687320709;1.0;;;;;;;;;;;;;;4;0;0;;0;0;();();(-2000.0, -2000.0);
07:52:22:587;07:52:22:493;1448046500.45;(0.6065339565277099, 0.42161890665690105);22.2687320709;1.0;;;;;;;;;;;;;;4;0;0;;0;0;();();(-2000.0, -2000.0);
07:52:22:620;07:52:22:493;1448046500.45;(0.6065339565277099, 0.42161890665690105);22.2687320709;1.0;;;;;;;;;;;;;;4;0;0;;0;0;();();(-2000.0, -2000.0);
07:52:22:637;07:52:22:629;1448046500.58;(0.6061774730682373, 0.4216783735487196);23.6200485229;1.0;;;;;;;;;;;;;;4;0;0;;0;0;();();(-2000.0, -2000.0);
07:52:22:653;07:52:22:629;1448046500.58;(0.6061774730682373, 0.4216783735487196);23.6200485229;1.0;;;;;;;;;;;;;;4;0;0;;0;0;();();(-2000.0, -2000.0);
07:52:22:670;07:52:22:629;1448046500.58;(0.6061774730682373, 0.4216783735487196);23.6200485229;1.0;;;;;;;;;;;;;;4;0;0;;0;0;();();(-2000.0, -2000.0);
07:52:22:687;07:52:22:629;1448046500.58;(0.6061774730682373, 0.4216783735487196);23.6200485229;1.0;;;;;;;;;;;;;;4;0;0;;0;0;();();(-2000.0, -2000.0);
07:52:22:704;07:52:22:629;1448046500.58;(0.6061774730682373, 0.4216783735487196);23.6200485229;1.0;;;;;;;;;;;;;;4;0;0;;0;0;();();(-2000.0, -2000.0);
07:52:22:737;07:52:22:629;1448046500.58;(0.6061774730682373, 0.4216783735487196);23.6200485229;1.0;;;;;;;;;;;;;;4;0;0;;0;0;();();(-2000.0, -2000.0);
07:52:22:754;07:52:22:629;1448046500.58;(0.6061774730682373, 0.4216783735487196);23.6200485229;1.0;;;;;;;;;;;;;;4;0;0;;0;0;();();(-2000.0, -2000.0);
07:52:22:770;07:52:22:763;1448046500.72;(0.6066285610198975, 0.42246246337890625);23.1316890717;1.0;;;;;;;;;;;;;;4;0;0;;0;0;();();(-2000.0, -2000.0);
07:52:22:787;07:52:22:763;1448046500.72;(0.6066285610198975, 0.42246246337890625);23.1316890717;1.0;;;;;;;;;;;;;;4;0;0;;0;0;();();(-2000.0, -2000.0);
07:52:22:804;07:52:22:763;1448046500.72;(0.6066285610198975, 0.42246246337890625);23.1316890717;1.0;;;;;;;;;;;;;;4;0;0;;0;0;();();(-2000.0, -2000.0);
07:52:22:837;07:52:22:763;1448046500.72;(0.6066285610198975, 0.42246246337890625);23.1316890717;1.0;;;;;;;;;;;;;;4;0;0;;0;0;();();(-2000.0, -2000.0);
07:52:22:854;07:52:22:763;1448046500.72;(0.6066285610198975, 0.42246246337890625);23.1316890717;1.0;;;;;;;;;;;;;;4;0;0;;0;0;();();(-2000.0, -2000.0);
07:52:22:870;07:52:22:763;1448046500.72;(0.6066285610198975, 0.42246246337890625);23.1316890717;1.0;;;;;;;;;;;;;;4;0;0;;0;0;();();(-2000.0, -2000.0);
07:52:22:887;07:52:22:763;1448046500.72;(0.6066285610198975, 0.42246246337890625);23.1316890717;1.0;;;;;;;;;;;;;;4;0;0;;0;0;();();(-2000.0, -2000.0);
07:52:22:904;07:52:22:894;1448046500.85;(0.6066211700439453, 0.4215591430664063);23.0113563538;1.0;;;;;;;;;;;;;;4;0;0;;0;0;();();(-2000.0, -2000.0);
07:52:22:936;07:52:22:894;1448046500.85;(0.6066211700439453, 0.4215591430664063);23.0113563538;1.0;;;;;;;;;;;;;;4;0;0;;0;0;();();(-2000.0, -2000.0);
07:52:22:954;07:52:22:894;1448046500.85;(0.6066211700439453, 0.4215591430664063);23.0113563538;1.0;;;;;;;;;;;;;;4;0;0;;0;0;();();(-2000.0, -2000.0);
07:52:22:970;07:52:22:894;1448046500.85;(0.6066211700439453, 0.4215591430664063);23.0113563538;1.0;;;;;;;;;;;;;;4;0;0;;0;0;();();(-2000.0, -2000.0);
07:52:22:987;07:52:22:894;1448046500.85;(0.6066211700439453, 0.4215591430664063);23.0113563538;1.0;;;;;;;;;;;;;;4;0;0;;0;0;();();(-2000.0, -2000.0);
07:52:23:004;07:52:22:894;1448046500.85;(0.6066211700439453, 0.4215591430664063);23.0113563538;1.0;;;;;;;;;;;;;;4;0;0;;0;0;();();(-2000.0, -2000.0);
07:52:23:037;07:52:23:025;1448046500.98;(0.6060985088348388, 0.42215707567003036);23.5583591461;1.0;;;;;;;;;;;;;;4;0;0;;0;0;();();(-2000.0, -2000.0);
07:52:23:054;07:52:23:025;1448046500.98;(0.6060985088348388, 0.42215707567003036);23.5583591461;1.0;;;;;;;;;;;;;;4;0;0;;0;0;();();(-2000.0, -2000.0);
07:52:23:070;07:52:23:025;1448046500.98;(0.6060985088348388, 0.42215707567003036);23.5583591461;1.0;;;;;;;;;;;;;;4;0;0;;0;0;();();(-2000.0, -2000.0);
07:52:23:087;07:52:23:025;1448046500.98;(0.6060985088348388, 0.42215707567003036);23.5583591461;1.0;;;;;;;;;;;;;;4;0;0;;0;0;();();(-2000.0, -2000.0);
07:52:23:104;07:52:23:025;1448046500.98;(0.6060985088348388, 0.42215707567003036);23.5583591461;1.0;;;;;;;;;;;;;;4;0;0;;0;0;();();(-2000.0, -2000.0);
07:52:23:137;07:52:23:025;1448046500.98;(0.6060985088348388, 0.42215707567003036);23.5583591461;1.0;;;;;;;;;;;;;;4;0;0;;0;0;();();(-2000.0, -2000.0);
07:52:23:154;07:52:23:025;1448046500.98;(0.6060985088348388, 0.42215707567003036);23.5583591461;1.0;;;;;;;;;;;;;;4;0;0;;0;0;();();(-2000.0, -2000.0);
07:52:23:171;07:52:23:157;1448046501.12;(0.6058413982391357, 0.4226749420166016);22.2175941467;0.905329714624;;;;;;;;;;;;;;4;0;0;;0;0;();();(-2000.0, -2000.0);
07:52:23:187;07:52:23:157;1448046501.12;(0.6058413982391357, 0.4226749420166016);22.2175941467;0.905329714624;;;;;;;;;;;;;;4;0;0;;0;0;();();(-2000.0, -2000.0);
07:52:23:204;07:52:23:157;1448046501.12;(0.6058413982391357, 0.4226749420166016);22.2175941467;0.905329714624;;;;;;;;;;;;;;4;0;0;;0;0;();();(-2000.0, -2000.0);
07:52:23:237;07:52:23:157;1448046501.12;(0.6058413982391357, 0.4226749420166016);22.2175941467;0.905329714624;;;;;;;;;;;;;;4;0;0;;0;0;();();(-2000.0, -2000.0);
07:52:23:254;07:52:23:157;1448046501.12;(0.6058413982391357, 0.4226749420166016);22.2175941467;0.905329714624;;;;;;;;;;;;;;4;0;0;;0;0;();();(-2000.0, -2000.0);
07:52:23:270;07:52:23:157;1448046501.12;(0.6058413982391357, 0.4226749420166016);22.2175941467;0.905329714624;;;;;;;;;;;;;;4;0;0;;0;0;();();(-2000.0, -2000.0);
07:52:23:287;07:52:23:157;1448046501.12;(0.6058413982391357, 0.4226749420166016);22.2175941467;0.905329714624;;;;;;;;;;;;;;4;0;0;;0;0;();();(-2000.0, -2000.0);
07:52:23:304;07:52:23:294;1448046501.25;(0.6057734966278077, 0.42235569424099395);23.0643081665;1.0;;;;;;;;;;;;;;4;0;0;;0;0;();();(-2000.0, -2000.0);
07:52:23:337;07:52:23:294;1448046501.25;(0.6057734966278077, 0.42235569424099395);23.0643081665;1.0;;;;;;;;;;;;;;4;0;0;;0;0;();();(-2000.0, -2000.0);
07:52:23:354;07:52:23:294;1448046501.25;(0.6057734966278077, 0.42235569424099395);23.0643081665;1.0;;;;;;;;;;;;;;4;0;0;;0;0;();();(-2000.0, -2000.0);
07:52:23:371;07:52:23:294;1448046501.25;(0.6057734966278077, 0.42235569424099395);23.0643081665;1.0;;;;;;;;;;;;;;4;0;0;;0;0;();();(-2000.0, -2000.0);
07:52:23:387;07:52:23:294;1448046501.25;(0.6057734966278077, 0.42235569424099395);23.0643081665;1.0;;;;;;;;;;;;;;4;0;0;;0;0;();();(-2000.0, -2000.0);
07:52:23:404;07:52:23:294;1448046501.25;(0.6057734966278077, 0.42235569424099395);23.0643081665;1.0;;;;;;;;;;;;;;4;0;0;;0;0;();();(-2000.0, -2000.0);
07:52:23:437;07:52:23:425;1448046501.38;(0.6058454036712646, 0.4220057169596354);21.9347553253;1.0;;;;;;;;;;;;;;4;0;0;;0;0;();();(-2000.0, -2000.0);
07:52:23:454;07:52:23:425;1448046501.38;(0.6058454036712646, 0.4220057169596354);21.9347553253;1.0;;;;;;;;;;;;;;4;0;0;;0;0;();();(-2000.0, -2000.0);
07:52:23:471;07:52:23:425;1448046501.38;(0.6058454036712646, 0.4220057169596354);21.9347553253;1.0;;;;;;;;;;;;;;4;0;0;;0;0;();();(-2000.0, -2000.0);
07:52:23:487;07:52:23:425;1448046501.38;(0.6058454036712646, 0.4220057169596354);21.9347553253;1.0;;;;;;;;;;;;;;4;0;0;;0;0;();();(-2000.0, -2000.0);
07:52:23:504;07:52:23:425;1448046501.38;(0.6058454036712646, 0.4220057169596354);21.9347553253;1.0;;;;;;;;;;;;;;4;0;0;;0;0;();();(-2000.0, -2000.0);
07:52:23:537;07:52:23:425;1448046501.38;(0.6058454036712646, 0.4220057169596354);21.9347553253;1.0;;;;;;;;;;;;;;4;0;0;;0;0;();();(-2000.0, -2000.0);
07:52:23:554;07:52:23:425;1448046501.38;(0.6058454036712646, 0.4220057169596354);21.9347553253;1.0;;;;;;;;;;;;;;4;0;0;;0;0;();();(-2000.0, -2000.0);
07:52:23:571;07:52:23:557;1448046501.52;(0.6062114715576172, 0.4216783735487196);22.9111442566;1.0;;;;;;;;;;;;;;4;0;0;;0;0;();();(-2000.0, -2000.0);
07:52:23:587;07:52:23:557;1448046501.52;(0.6062114715576172, 0.4216783735487196);22.9111442566;1.0;;;;;;;;;;;;;;4;0;0;;0;0;();();(-2000.0, -2000.0);
07:52:23:603;07:52:23:557;1448046501.52;(0.6062114715576172, 0.4216783735487196);22.9111442566;1.0;;;;;;;;;;;;;;4;0;0;;0;0;();();(-2000.0, -2000.0);
07:52:23:638;07:52:23:557;1448046501.52;(0.6062114715576172, 0.4216783735487196);22.9111442566;1.0;;;;;;;;;;;;;;4;0;0;;0;0;();();(-2000.0, -2000.0);
07:52:23:654;07:52:23:557;1448046501.52;(0.6062114715576172, 0.4216783735487196);22.9111442566;1.0;;;;;;;;;;;;;;4;0;0;;0;0;();();(-2000.0, -2000.0);
07:52:23:671;07:52:23:557;1448046501.52;(0.6062114715576172, 0.4216783735487196);22.9111442566;1.0;;;;;;;;;;;;;;4;0;0;;0;0;();();(-2000.0, -2000.0);
07:52:23:688;07:52:23:557;1448046501.52;(0.6062114715576172, 0.4216783735487196);22.9111442566;1.0;;;;;;;;;;;;;;4;0;0;;0;0;();();(-2000.0, -2000.0);
07:52:23:704;07:52:23:690;1448046501.65;(0.6066617012023926, 0.4217353820800781);23.2096691132;1.0;;;;;;;;;;;;;;4;0;0;;0;0;();();(-2000.0, -2000.0);
07:52:23:738;07:52:23:690;1448046501.65;(0.6066617012023926, 0.4217353820800781);23.2096691132;1.0;;;;;;;;;;;;;;4;0;0;;0;0;();();(-2000.0, -2000.0);
07:52:23:754;07:52:23:690;1448046501.65;(0.6066617012023926, 0.4217353820800781);23.2096691132;1.0;;;;;;;;;;;;;;4;0;0;;0;0;();();(-2000.0, -2000.0);
07:52:23:771;07:52:23:690;1448046501.65;(0.6066617012023926, 0.4217353820800781);23.2096691132;1.0;;;;;;;;;;;;;;4;0;0;;0;0;();();(-2000.0, -2000.0);
07:52:23:788;07:52:23:690;1448046501.65;(0.6066617012023926, 0.4217353820800781);23.2096691132;1.0;;;;;;;;;;;;;;4;0;0;;0;0;();();(-2000.0, -2000.0);
07:52:23:804;07:52:23:690;1448046501.65;(0.6066617012023926, 0.4217353820800781);23.2096691132;1.0;;;;;;;;;;;;;;4;0;0;;0;0;();();(-2000.0, -2000.0);
07:52:23:838;07:52:23:822;1448046501.78;(0.6067153930664062, 0.4204315609402127);23.0466327667;1.0;;;;;;;;;;;;;;4;0;0;;0;0;();();(-2000.0, -2000.0);
07:52:23:854;07:52:23:822;1448046501.78;(0.6067153930664062, 0.4204315609402127);23.0466327667;1.0;;;;;;;;;;;;;;4;0;0;;0;0;();();(-2000.0, -2000.0);
07:52:23:871;07:52:23:822;1448046501.78;(0.6067153930664062, 0.4204315609402127);23.0466327667;1.0;;;;;;;;;;;;;;4;0;0;;0;0;();();(-2000.0, -2000.0);
07:52:23:888;07:52:23:822;1448046501.78;(0.6067153930664062, 0.4204315609402127);23.0466327667;1.0;;;;;;;;;;;;;;4;0;0;;0;0;();();(-2000.0, -2000.0);
07:52:23:904;07:52:23:822;1448046501.78;(0.6067153930664062, 0.4204315609402127);23.0466327667;1.0;;;;;;;;;;;;;;4;0;0;;0;0;();();(-2000.0, -2000.0);
07:52:23:937;07:52:23:822;1448046501.78;(0.6067153930664062, 0.4204315609402127);23.0466327667;1.0;;;;;;;;;;;;;;4;0;0;;0;0;();();(-2000.0, -2000.0);
07:52:23:954;07:52:23:822;1448046501.78;(0.6067153930664062, 0.4204315609402127);23.0466327667;1.0;;;;;;;;;;;;;;4;0;0;;0;0;();();(-2000.0, -2000.0);
07:52:23:971;07:52:23:957;1448046501.92;(0.6065256595611572, 0.42106090121799045);22.936624527;1.0;;;;;;;;;;;;;;4;0;0;;0;0;();();(-2000.0, -2000.0);
07:52:23:988;07:52:23:957;1448046501.92;(0.6065256595611572, 0.42106090121799045);22.936624527;1.0;;;;;;;;;;;;;;4;0;0;;0;0;();();(-2000.0, -2000.0);
07:52:24:004;07:52:23:957;1448046501.92;(0.6065256595611572, 0.42106090121799045);22.936624527;1.0;;;;;;;;;;;;;;4;0;0;;0;0;();();(-2000.0, -2000.0);
07:52:24:038;07:52:23:957;1448046501.92;(0.6065256595611572, 0.42106090121799045);22.936624527;1.0;;;;;;;;;;;;;;4;0;0;;0;0;();();(-2000.0, -2000.0);
07:52:24:054;07:52:23:957;1448046501.92;(0.6065256595611572, 0.42106090121799045);22.936624527;1.0;;;;;;;;;;;;;;4;0;0;;0;0;();();(-2000.0, -2000.0);
07:52:24:071;07:52:23:957;1448046501.92;(0.6065256595611572, 0.42106090121799045);22.936624527;1.0;;;;;;;;;;;;;;4;0;0;;0;0;();();(-2000.0, -2000.0);
07:52:24:088;07:52:23:957;1448046501.92;(0.6065256595611572, 0.42106090121799045);22.936624527;1.0;;;;;;;;;;;;;;4;0;0;;0;0;();();(-2000.0, -2000.0);
07:52:24:105;07:52:24:089;1448046502.05;(0.6062707424163818, 0.42145741780598955);23.2262458801;1.0;;;;;;;;;;;;;;4;0;0;;0;0;();();(-2000.0, -2000.0);
07:52:24:138;07:52:24:089;1448046502.05;(0.6062707424163818, 0.42145741780598955);23.2262458801;1.0;;;;;;;;;;;;;;4;0;0;;0;0;();();(-2000.0, -2000.0);
07:52:24:154;07:52:24:089;1448046502.05;(0.6062707424163818, 0.42145741780598955);23.2262458801;1.0;;;;;;;;;;;;;;4;0;0;;0;0;();();(-2000.0, -2000.0);
07:52:24:171;07:52:24:089;1448046502.05;(0.6062707424163818, 0.42145741780598955);23.2262458801;1.0;;;;;;;;;;;;;;4;0;0;;0;0;();();(-2000.0, -2000.0);
07:52:24:188;07:52:24:089;1448046502.05;(0.6062707424163818, 0.42145741780598955);23.2262458801;1.0;;;;;;;;;;;;;;4;0;0;;0;0;();();(-2000.0, -2000.0);
07:52:24:205;07:52:24:089;1448046502.05;(0.6062707424163818, 0.42145741780598955);23.2262458801;1.0;;;;;;;;;;;;;;4;0;0;;0;0;();();(-2000.0, -2000.0);
07:52:24:238;07:52:24:221;1448046502.18;(0.6059278011322021, 0.42186987135145404);22.4695453644;1.0;;;;;;;;;;;;;;4;0;0;;0;0;();();(-2000.0, -2000.0);
07:52:24:255;07:52:24:221;1448046502.18;(0.6059278011322021, 0.42186987135145404);22.4695453644;1.0;;;;;;;;;;;;;;4;0;0;;0;0;();();(-2000.0, -2000.0);
07:52:24:270;07:52:24:221;1448046502.18;(0.6059278011322021, 0.42186987135145404);22.4695453644;1.0;;;;;;;;;;;;;;4;0;0;;0;0;();();(-2000.0, -2000.0);
07:52:24:288;07:52:24:221;1448046502.18;(0.6059278011322021, 0.42186987135145404);22.4695453644;1.0;;;;;;;;;;;;;;4;0;0;;0;0;();();(-2000.0, -2000.0);
07:52:24:305;07:52:24:221;1448046502.18;(0.6059278011322021, 0.42186987135145404);22.4695453644;1.0;;;;;;;;;;;;;;4;0;0;;0;0;();();(-2000.0, -2000.0);
07:52:24:338;07:52:24:221;1448046502.18;(0.6059278011322021, 0.42186987135145404);22.4695453644;1.0;;;;;;;;;;;;;;4;0;0;;0;0;();();(-2000.0, -2000.0);
07:52:24:355;07:52:24:221;1448046502.18;(0.6059278011322021, 0.42186987135145404);22.4695453644;1.0;;;;;;;;;;;;;;4;0;0;;0;0;();();(-2000.0, -2000.0);
07:52:24:371;07:52:24:360;1448046502.32;(0.606524658203125, 0.4212122175428602);23.6231212616;1.0;;;;;;;;;;;;;;4;0;0;;0;0;();();(-2000.0, -2000.0);
07:52:24:388;07:52:24:360;1448046502.32;(0.606524658203125, 0.4212122175428602);23.6231212616;1.0;;;;;;;;;;;;;;4;0;0;;0;0;();();(-2000.0, -2000.0);
07:52:24:405;07:52:24:360;1448046502.32;(0.606524658203125, 0.4212122175428602);23.6231212616;1.0;;;;;;;;;;;;;;4;0;0;;0;0;();();(-2000.0, -2000.0);
07:52:24:438;07:52:24:360;1448046502.32;(0.606524658203125, 0.4212122175428602);23.6231212616;1.0;;;;;;;;;;;;;;4;0;0;;0;0;();();(-2000.0, -2000.0);
07:52:24:455;07:52:24:360;1448046502.32;(0.606524658203125, 0.4212122175428602);23.6231212616;1.0;;;;;;;;;;;;;;4;0;0;;0;0;();();(-2000.0, -2000.0);
07:52:24:471;07:52:24:360;1448046502.32;(0.606524658203125, 0.4212122175428602);23.6231212616;1.0;;;;;;;;;;;;;;4;0;0;;0;0;();();(-2000.0, -2000.0);
07:52:24:488;07:52:24:485;1448046502.45;(0.6060369491577149, 0.42267778184678817);22.936170578;0.820826630377;;;;;;;;;;;;;;4;0;0;;0;0;();();(-2000.0, -2000.0);
07:52:24:505;07:52:24:485;1448046502.45;(0.6060369491577149, 0.42267778184678817);22.936170578;0.820826630377;;;;;;;;;;;;;;4;0;0;;0;0;();();(-2000.0, -2000.0);
07:52:24:538;07:52:24:485;1448046502.45;(0.6060369491577149, 0.42267778184678817);22.936170578;0.820826630377;;;;;;;;;;;;;;4;0;0;;0;0;();();(-2000.0, -2000.0);
07:52:24:555;07:52:24:485;1448046502.45;(0.6060369491577149, 0.42267778184678817);22.936170578;0.820826630377;;;;;;;;;;;;;;4;0;0;;0;0;();();(-2000.0, -2000.0);
07:52:24:571;07:52:24:485;1448046502.45;(0.6060369491577149, 0.42267778184678817);22.936170578;0.820826630377;;;;;;;;;;;;;;4;0;0;;0;0;();();(-2000.0, -2000.0);
07:52:24:588;07:52:24:485;1448046502.45;(0.6060369491577149, 0.42267778184678817);22.936170578;0.820826630377;;;;;;;;;;;;;;4;0;0;;0;0;();();(-2000.0, -2000.0);
07:52:24:604;07:52:24:485;1448046502.45;(0.6060369491577149, 0.42267778184678817);22.936170578;0.820826630377;;;;;;;;;;;;;;4;0;0;;0;0;();();(-2000.0, -2000.0);
07:52:24:638;07:52:24:621;1448046502.58;(0.6061036109924316, 0.42254778544108074);22.6096420288;1.0;;;;;;;;;;;;;;4;0;0;;0;0;();();(-2000.0, -2000.0);
07:52:24:655;07:52:24:621;1448046502.58;(0.6061036109924316, 0.42254778544108074);22.6096420288;1.0;;;;;;;;;;;;;;4;0;0;;0;0;();();(-2000.0, -2000.0);
07:52:24:672;07:52:24:621;1448046502.58;(0.6061036109924316, 0.42254778544108074);22.6096420288;1.0;;;;;;;;;;;;;;4;0;0;;0;0;();();(-2000.0, -2000.0);
07:52:24:688;07:52:24:621;1448046502.58;(0.6061036109924316, 0.42254778544108074);22.6096420288;1.0;;;;;;;;;;;;;;4;0;0;;0;0;();();(-2000.0, -2000.0);
07:52:24:705;07:52:24:621;1448046502.58;(0.6061036109924316, 0.42254778544108074);22.6096420288;1.0;;;;;;;;;;;;;;4;0;0;;0;0;();();(-2000.0, -2000.0);
07:52:24:738;07:52:24:621;1448046502.58;(0.6061036109924316, 0.42254778544108074);22.6096420288;1.0;;;;;;;;;;;;;;4;0;0;;0;0;();();(-2000.0, -2000.0);
07:52:24:755;07:52:24:753;1448046502.72;(0.6059514999389648, 0.421665276421441);23.9925861359;1.0;;;;;;;;;;;;;;4;0;0;;0;0;();();(-2000.0, -2000.0);
07:52:24:772;07:52:24:753;1448046502.72;(0.6059514999389648, 0.421665276421441);23.9925861359;1.0;;;;;;;;;;;;;;4;0;0;;0;0;();();(-2000.0, -2000.0);
07:52:24:788;07:52:24:753;1448046502.72;(0.6059514999389648, 0.421665276421441);23.9925861359;1.0;;;;;;;;;;;;;;4;0;0;;0;0;();();(-2000.0, -2000.0);
07:52:24:805;07:52:24:753;1448046502.72;(0.6059514999389648, 0.421665276421441);23.9925861359;1.0;;;;;;;;;;;;;;4;0;0;;0;0;();();(-2000.0, -2000.0);
07:52:24:838;07:52:24:753;1448046502.72;(0.6059514999389648, 0.421665276421441);23.9925861359;1.0;;;;;;;;;;;;;;4;0;0;;0;0;();();(-2000.0, -2000.0);
07:52:24:855;07:52:24:753;1448046502.72;(0.6059514999389648, 0.421665276421441);23.9925861359;1.0;;;;;;;;;;;;;;4;0;0;;0;0;();();(-2000.0, -2000.0);
07:52:24:872;07:52:24:753;1448046502.72;(0.6059514999389648, 0.421665276421441);23.9925861359;1.0;;;;;;;;;;;;;;4;0;0;;0;0;();();(-2000.0, -2000.0);
07:52:24:888;07:52:24:885;1448046502.85;(0.6061424255371094, 0.42235569424099395);22.6234550476;1.0;;;;;;;;;;;;;;4;0;0;;0;0;();();(-2000.0, -2000.0);
07:52:24:905;07:52:24:885;1448046502.85;(0.6061424255371094, 0.42235569424099395);22.6234550476;1.0;;;;;;;;;;;;;;4;0;0;;0;0;();();(-2000.0, -2000.0);
07:52:24:938;07:52:24:885;1448046502.85;(0.6061424255371094, 0.42235569424099395);22.6234550476;1.0;;;;;;;;;;;;;;4;0;0;;0;0;();();(-2000.0, -2000.0);
07:52:24:955;07:52:24:885;1448046502.85;(0.6061424255371094, 0.42235569424099395);22.6234550476;1.0;;;;;;;;;;;;;;4;0;0;;0;0;();();(-2000.0, -2000.0);
07:52:24:972;07:52:24:885;1448046502.85;(0.6061424255371094, 0.42235569424099395);22.6234550476;1.0;;;;;;;;;;;;;;4;0;0;;0;0;();();(-2000.0, -2000.0);
07:52:24:988;07:52:24:885;1448046502.85;(0.6061424255371094, 0.42235569424099395);22.6234550476;1.0;;;;;;;;;;;;;;4;0;0;;0;0;();();(-2000.0, -2000.0);
07:52:25:005;07:52:24:885;1448046502.85;(0.6061424255371094, 0.42235569424099395);22.6234550476;1.0;;;;;;;;;;;;;;4;0;0;;0;0;();();(-2000.0, -2000.0);
07:52:25:039;07:52:25:017;1448046502.98;(0.6055406093597412, 0.4237893846299913);23.9832706451;1.0;;;;;;;;;;;;;;4;0;0;;0;0;();();(-2000.0, -2000.0);
07:52:25:055;07:52:25:017;1448046502.98;(0.6055406093597412, 0.4237893846299913);23.9832706451;1.0;;;;;;;;;;;;;;4;0;0;;0;0;();();(-2000.0, -2000.0);
07:52:25:072;07:52:25:017;1448046502.98;(0.6055406093597412, 0.4237893846299913);23.9832706451;1.0;;;;;;;;;;;;;;4;0;0;;0;0;();();(-2000.0, -2000.0);
07:52:25:089;07:52:25:017;1448046502.98;(0.6055406093597412, 0.4237893846299913);23.9832706451;1.0;;;;;;;;;;;;;;4;0;0;;0;0;();();(-2000.0, -2000.0);
07:52:25:105;07:52:25:017;1448046502.98;(0.6055406093597412, 0.4237893846299913);23.9832706451;1.0;;;;;;;;;;;;;;4;0;0;;0;0;();();(-2000.0, -2000.0);
07:52:25:139;07:52:25:017;1448046502.98;(0.6055406093597412, 0.4237893846299913);23.9832706451;1.0;;;;;;;;;;;;;;4;0;0;;0;0;();();(-2000.0, -2000.0);
07:52:25:155;07:52:25:017;1448046502.98;(0.6055406093597412, 0.4237893846299913);23.9832706451;1.0;;;;;;;;;;;;;;4;0;0;;0;0;();();(-2000.0, -2000.0);
07:52:25:172;07:52:25:017;1448046502.98;(0.6055406093597412, 0.4237893846299913);23.9832706451;1.0;;;;;;;;;;;;;;4;0;0;;0;0;();();(-2000.0, -2000.0);
07:52:25:189;07:52:25:017;1448046502.98;(0.6055406093597412, 0.4237893846299913);23.9832706451;1.0;;;;;;;;;;;;;;4;0;0;;0;0;();();(-2000.0, -2000.0);
07:52:25:205;07:52:25:017;1448046502.98;(0.6055406093597412, 0.4237893846299913);23.9832706451;1.0;;;;;;;;;;;;;;4;0;0;;0;0;();();(-2000.0, -2000.0);
07:52:25:239;07:52:25:017;1448046502.98;(0.6055406093597412, 0.4237893846299913);23.9832706451;1.0;;;;;;;;;;;;;;4;0;0;;0;0;();();(-2000.0, -2000.0);
07:52:25:255;07:52:25:017;1448046502.98;(0.6055406093597412, 0.4237893846299913);23.9832706451;1.0;;;;;;;;;;;;;;4;0;0;;0;0;();();(-2000.0, -2000.0);
07:52:25:271;07:52:25:017;1448046502.98;(0.6055406093597412, 0.4237893846299913);23.9832706451;1.0;;;;;;;;;;;;;;4;0;0;;0;0;();();(-2000.0, -2000.0);
07:52:25:289;07:52:25:285;1448046503.12;(0.22729341983795165, 0.8491510497199164);41.1338615417;0.629197955256;;;;;;;;;;;;;;4;0;0;;0;0;();();(-2000.0, -2000.0);
07:52:25:305;07:52:25:285;1448046503.12;(0.22729341983795165, 0.8491510497199164);41.1338615417;0.629197955256;;;;;;;;;;;;;;4;0;0;;0;0;();();(-2000.0, -2000.0);
07:52:25:339;07:52:25:285;1448046503.12;(0.22729341983795165, 0.8491510497199164);41.1338615417;0.629197955256;;;;;;;;;;;;;;4;0;0;;0;0;();();(-2000.0, -2000.0);
07:52:25:355;07:52:25:349;1448046503.28;(0.43363337516784667, 0.5689486609564887);30.3103351593;0.837382665626;;;;;;;;;;;;;;4;0;0;;0;0;();();(-2000.0, -2000.0);
07:52:25:372;07:52:25:349;1448046503.28;(0.43363337516784667, 0.5689486609564887);30.3103351593;0.837382665626;;;;;;;;;;;;;;4;0;0;;0;0;();();(-2000.0, -2000.0);
07:52:25:389;07:52:25:349;1448046503.28;(0.43363337516784667, 0.5689486609564887);30.3103351593;0.837382665626;;;;;;;;;;;;;;4;0;0;;0;0;();();(-2000.0, -2000.0);
07:52:25:405;07:52:25:349;1448046503.28;(0.43363337516784667, 0.5689486609564887);30.3103351593;0.837382665626;;;;;;;;;;;;;;4;0;0;;0;0;();();(-2000.0, -2000.0);
07:52:25:439;07:52:25:417;1448046503.38;(0.24673006534576417, 0.8396228260464138);41.3782844543;0.612437935109;;;;;;;;;;;;;;4;0;0;;0;0;();();(-2000.0, -2000.0);
07:52:25:455;07:52:25:417;1448046503.38;(0.24673006534576417, 0.8396228260464138);41.3782844543;0.612437935109;;;;;;;;;;;;;;4;0;0;;0;0;();();(-2000.0, -2000.0);
07:52:25:472;07:52:25:417;1448046503.38;(0.24673006534576417, 0.8396228260464138);41.3782844543;0.612437935109;;;;;;;;;;;;;;4;0;0;;0;0;();();(-2000.0, -2000.0);
07:52:25:489;07:52:25:417;1448046503.38;(0.24673006534576417, 0.8396228260464138);41.3782844543;0.612437935109;;;;;;;;;;;;;;4;0;0;;0;0;();();(-2000.0, -2000.0);
07:52:25:505;07:52:25:417;1448046503.38;(0.24673006534576417, 0.8396228260464138);41.3782844543;0.612437935109;;;;;;;;;;;;;;4;0;0;;0;0;();();(-2000.0, -2000.0);
07:52:25:539;07:52:25:417;1448046503.38;(0.24673006534576417, 0.8396228260464138);41.3782844543;0.612437935109;;;;;;;;;;;;;;4;0;0;;0;0;();();(-2000.0, -2000.0);
07:52:25:556;07:52:25:549;1448046503.52;(0, 0);0;0;;;;;;;;;;;;;;4;0;0;;0;0;();();(-2000.0, -2000.0);
07:52:25:572;07:52:25:549;1448046503.52;(0, 0);0;0;;;;;;;;;;;;;;4;0;0;;0;0;();();(-2000.0, -2000.0);
07:52:25:589;07:52:25:549;1448046503.52;(0, 0);0;0;;;;;;;;;;;;;;4;0;0;;0;0;();();(-2000.0, -2000.0);
07:52:25:605;07:52:25:549;1448046503.52;(0, 0);0;0;;;;;;;;;;;;;;4;0;0;;0;0;();();(-2000.0, -2000.0);
07:52:25:639;07:52:25:613;1448046503.59;(0, 0);0;0;;;;;;;;;;;;;;4;0;0;;0;0;();();(-2000.0, -2000.0);
07:52:25:656;07:52:25:613;1448046503.59;(0, 0);0;0;;;;;;;;;;;;;;4;0;0;;0;0;();();(-2000.0, -2000.0);
07:52:25:672;07:52:25:613;1448046503.59;(0, 0);0;0;;;;;;;;;;;;;;4;0;0;;0;0;();();(-2000.0, -2000.0);
07:52:25:689;07:52:25:681;1448046503.65;(0, 0);0;0;;;;;;;;;;;;;;4;0;0;;0;0;();();(-2000.0, -2000.0);
07:52:25:706;07:52:25:681;1448046503.65;(0, 0);0;0;;;;;;;;;;;;;;4;0;0;;0;0;();();(-2000.0, -2000.0);
07:52:25:739;07:52:25:681;1448046503.65;(0, 0);0;0;;;;;;;;;;;;;;4;0;0;;0;0;();();(-2000.0, -2000.0);
07:52:25:756;07:52:25:753;1448046503.72;(0, 0);0;0;;;;;;;;;;;;;;4;0;0;;0;0;();();(-2000.0, -2000.0);
07:52:25:772;07:52:25:753;1448046503.72;(0, 0);0;0;;;;;;;;;;;;;;4;0;0;;0;0;();();(-2000.0, -2000.0);
07:52:25:789;07:52:25:753;1448046503.72;(0, 0);0;0;;;;;;;;;;;;;;4;0;0;;0;0;();();(-2000.0, -2000.0);
07:52:25:806;07:52:25:753;1448046503.72;(0, 0);0;0;;;;;;;;;;;;;;4;0;0;;0;0;();();(-2000.0, -2000.0);
07:52:25:839;07:52:25:753;1448046503.72;(0, 0);0;0;;;;;;;;;;;;;;4;0;0;;0;0;();();(-2000.0, -2000.0);
07:52:25:856;07:52:25:753;1448046503.72;(0, 0);0;0;;;;;;;;;;;;;;4;0;0;;0;0;();();(-2000.0, -2000.0);
07:52:25:872;07:52:25:753;1448046503.72;(0, 0);0;0;;;;;;;;;;;;;;4;0;0;;0;0;();();(-2000.0, -2000.0);
07:52:25:889;07:52:25:883;1448046503.85;(0, 0);0;0;;;;;;;;;;;;;;4;0;0;;0;0;();();(-2000.0, -2000.0);
07:52:25:906;07:52:25:883;1448046503.85;(0, 0);0;0;;;;;;;;;;;;;;4;0;0;;0;0;();();(-2000.0, -2000.0);
07:52:25:938;07:52:25:883;1448046503.85;(0, 0);0;0;;;;;;;;;;;;;;4;0;0;;0;0;();();(-2000.0, -2000.0);
07:52:25:956;07:52:25:883;1448046503.85;(0, 0);0;0;;;;;;;;;;;;;;4;0;0;;0;0;();();(-2000.0, -2000.0);
07:52:25:973;07:52:25:883;1448046503.85;(0, 0);0;0;;;;;;;;;;;;;;4;0;0;;0;0;();();(-2000.0, -2000.0);
07:52:25:989;07:52:25:883;1448046503.85;(0, 0);0;0;;;;;;;;;;;;;;4;0;0;;0;0;();();(-2000.0, -2000.0);
07:52:26:006;07:52:25:883;1448046503.85;(0, 0);0;0;;;;;;;;;;;;;;4;0;0;;0;0;();();(-2000.0, -2000.0);
07:52:26:039;07:52:26:015;1448046503.98;(0, 0);0;0;;;;;;;;;;;;;;4;0;0;;0;0;();();(-2000.0, -2000.0);
07:52:26:056;07:52:26:015;1448046503.98;(0, 0);0;0;;;;;;;;;;;;;;4;0;0;;0;0;();();(-2000.0, -2000.0);
07:52:26:073;07:52:26:015;1448046503.98;(0, 0);0;0;;;;;;;;;;;;;;4;0;0;;0;0;();();(-2000.0, -2000.0);
07:52:26:089;07:52:26:015;1448046503.98;(0, 0);0;0;;;;;;;;;;;;;;4;0;0;;0;0;();();(-2000.0, -2000.0);
07:52:26:106;07:52:26:015;1448046503.98;(0, 0);0;0;;;;;;;;;;;;;;4;0;0;;0;0;();();(-2000.0, -2000.0);
07:52:26:139;07:52:26:015;1448046503.98;(0, 0);0;0;;;;;;;;;;;;;;4;0;0;;0;0;();();(-2000.0, -2000.0);
07:52:26:156;07:52:26:145;1448046504.12;(0, 0);0;0;;;;;;;;;;;;;;4;0;0;;0;0;();();(-2000.0, -2000.0);
07:52:26:173;07:52:26:145;1448046504.12;(0, 0);0;0;;;;;;;;;;;;;;4;0;0;;0;0;();();(-2000.0, -2000.0);
07:52:26:189;07:52:26:145;1448046504.12;(0, 0);0;0;;;;;;;;;;;;;;4;0;0;;0;0;();();(-2000.0, -2000.0);
07:52:26:206;07:52:26:145;1448046504.12;(0, 0);0;0;;;;;;;;;;;;;;4;0;0;;0;0;();();(-2000.0, -2000.0);
07:52:26:239;07:52:26:145;1448046504.12;(0, 0);0;0;;;;;;;;;;;;;;4;0;0;;0;0;();();(-2000.0, -2000.0);
07:52:26:256;07:52:26:145;1448046504.12;(0, 0);0;0;;;;;;;;;;;;;;4;0;0;;0;0;();();(-2000.0, -2000.0);
07:52:26:272;07:52:26:145;1448046504.12;(0, 0);0;0;;;;;;;;;;;;;;4;0;0;;0;0;();();(-2000.0, -2000.0);
07:52:26:290;07:52:26:279;1448046504.25;(0, 0);0;0;;;;;;;;;;;;;;4;0;0;;0;0;();();(-2000.0, -2000.0);
07:52:26:306;07:52:26:279;1448046504.25;(0, 0);0;0;;;;;;;;;;;;;;4;0;0;;0;0;();();(-2000.0, -2000.0);
07:52:26:339;07:52:26:279;1448046504.25;(0, 0);0;0;;;;;;;;;;;;;;4;0;0;;0;0;();();(-2000.0, -2000.0);
07:52:26:356;07:52:26:279;1448046504.25;(0, 0);0;0;;;;;;;;;;;;;;4;0;0;;0;0;();();(-2000.0, -2000.0);
07:52:26:373;07:52:26:279;1448046504.25;(0, 0);0;0;;;;;;;;;;;;;;4;0;0;;0;0;();();(-2000.0, -2000.0);
07:52:26:390;07:52:26:279;1448046504.25;(0, 0);0;0;;;;;;;;;;;;;;4;0;0;;0;0;();();(-2000.0, -2000.0);
07:52:26:406;07:52:26:279;1448046504.25;(0, 0);0;0;;;;;;;;;;;;;;4;0;0;;0;0;();();(-2000.0, -2000.0);
07:52:26:440;07:52:26:416;1448046504.38;(0, 0);0;0;;;;;;;;;;;;;;4;0;0;;0;0;();();(-2000.0, -2000.0);
07:52:26:456;07:52:26:416;1448046504.38;(0, 0);0;0;;;;;;;;;;;;;;4;0;0;;0;0;();();(-2000.0, -2000.0);
07:52:26:473;07:52:26:416;1448046504.38;(0, 0);0;0;;;;;;;;;;;;;;4;0;0;;0;0;();();(-2000.0, -2000.0);
07:52:26:490;07:52:26:416;1448046504.38;(0, 0);0;0;;;;;;;;;;;;;;4;0;0;;0;0;();();(-2000.0, -2000.0);
07:52:26:506;07:52:26:416;1448046504.38;(0, 0);0;0;;;;;;;;;;;;;;4;0;0;;0;0;();();(-2000.0, -2000.0);
07:52:26:540;07:52:26:416;1448046504.38;(0, 0);0;0;;;;;;;;;;;;;;4;0;0;;0;0;();();(-2000.0, -2000.0);
07:52:26:556;07:52:26:548;1448046504.52;(0, 0);0;0;;;;;;;;;;;;;;4;0;0;;0;0;();();(-2000.0, -2000.0);
07:52:26:573;07:52:26:548;1448046504.52;(0, 0);0;0;;;;;;;;;;;;;;4;0;0;;0;0;();();(-2000.0, -2000.0);
07:52:26:590;07:52:26:548;1448046504.52;(0, 0);0;0;;;;;;;;;;;;;;4;0;0;;0;0;();();(-2000.0, -2000.0);
07:52:26:606;07:52:26:548;1448046504.52;(0, 0);0;0;;;;;;;;;;;;;;4;0;0;;0;0;();();(-2000.0, -2000.0);
07:52:26:640;07:52:26:548;1448046504.52;(0, 0);0;0;;;;;;;;;;;;;;4;0;0;;0;0;();();(-2000.0, -2000.0);
07:52:26:656;07:52:26:548;1448046504.52;(0, 0);0;0;;;;;;;;;;;;;;4;0;0;;0;0;();();(-2000.0, -2000.0);
07:52:26:673;07:52:26:548;1448046504.52;(0, 0);0;0;;;;;;;;;;;;;;4;0;0;;0;0;();();(-2000.0, -2000.0);
07:52:26:690;07:52:26:677;1448046504.65;(0, 0);0;0;;;;;;;;;;;;;;4;0;0;;0;0;();();(-2000.0, -2000.0);
07:52:26:706;07:52:26:677;1448046504.65;(0, 0);0;0;;;;;;;;;;;;;;4;0;0;;0;0;();();(-2000.0, -2000.0);
07:52:26:740;07:52:26:677;1448046504.65;(0, 0);0;0;;;;;;;;;;;;;;4;0;0;;0;0;();();(-2000.0, -2000.0);
07:52:26:756;07:52:26:677;1448046504.65;(0, 0);0;0;;;;;;;;;;;;;;4;0;0;;0;0;();();(-2000.0, -2000.0);
07:52:26:773;07:52:26:677;1448046504.65;(0, 0);0;0;;;;;;;;;;;;;;4;0;0;;0;0;();();(-2000.0, -2000.0);
07:52:26:790;07:52:26:677;1448046504.65;(0, 0);0;0;;;;;;;;;;;;;;4;0;0;;0;0;();();(-2000.0, -2000.0);
07:52:26:806;07:52:26:677;1448046504.65;(0, 0);0;0;;;;;;;;;;;;;;4;0;0;;0;0;();();(-2000.0, -2000.0);
07:52:26:840;07:52:26:811;1448046504.78;(0, 0);0;0;;;;;;;;;;;;;;4;0;0;;0;0;();();(-2000.0, -2000.0);
07:52:26:856;07:52:26:811;1448046504.78;(0, 0);0;0;;;;;;;;;;;;;;4;0;0;;0;0;();();(-2000.0, -2000.0);
07:52:26:873;07:52:26:811;1448046504.78;(0, 0);0;0;;;;;;;;;;;;;;4;0;0;;0;0;();();(-2000.0, -2000.0);
07:52:26:890;07:52:26:811;1448046504.78;(0, 0);0;0;;;;;;;;;;;;;;4;0;0;;0;0;();();(-2000.0, -2000.0);
07:52:26:907;07:52:26:811;1448046504.78;(0, 0);0;0;;;;;;;;;;;;;;4;0;0;;0;0;();();(-2000.0, -2000.0);
07:52:26:940;07:52:26:811;1448046504.78;(0, 0);0;0;;;;;;;;;;;;;;4;0;0;;0;0;();();(-2000.0, -2000.0);
07:52:26:957;07:52:26:941;1448046504.92;(0, 0);0;0;;;;;;;;;;;;;;4;0;0;;0;0;();();(-2000.0, -2000.0);
07:52:26:973;07:52:26:941;1448046504.92;(0, 0);0;0;;;;;;;;;;;;;;4;0;0;;0;0;();();(-2000.0, -2000.0);
07:52:26:990;07:52:26:941;1448046504.92;(0, 0);0;0;;;;;;;;;;;;;;4;0;0;;0;0;();();(-2000.0, -2000.0);
07:52:27:007;07:52:26:941;1448046504.92;(0, 0);0;0;;;;;;;;;;;;;;4;0;0;;0;0;();();(-2000.0, -2000.0);
07:52:27:040;07:52:26:941;1448046504.92;(0, 0);0;0;;;;;;;;;;;;;;4;0;0;;0;0;();();(-2000.0, -2000.0);
07:52:27:057;07:52:26:941;1448046504.92;(0, 0);0;0;;;;;;;;;;;;;;4;0;0;;0;0;();();(-2000.0, -2000.0);
07:52:27:073;07:52:26:941;1448046504.92;(0, 0);0;0;;;;;;;;;;;;;;4;0;0;;0;0;();();(-2000.0, -2000.0);
07:52:27:090;07:52:27:077;1448046505.05;(0, 0);0;0;;;;;;;;;;;;;;4;0;0;;0;0;();();(-2000.0, -2000.0);
07:52:27:107;07:52:27:077;1448046505.05;(0, 0);0;0;;;;;;;;;;;;;;4;0;0;;0;0;();();(-2000.0, -2000.0);
07:52:27:140;07:52:27:077;1448046505.05;(0, 0);0;0;;;;;;;;;;;;;;4;0;0;;0;0;();();(-2000.0, -2000.0);
07:52:27:157;07:52:27:077;1448046505.05;(0, 0);0;0;;;;;;;;;;;;;;4;0;0;;0;0;();();(-2000.0, -2000.0);
07:52:27:173;07:52:27:077;1448046505.05;(0, 0);0;0;;;;;;;;;;;;;;4;0;0;;0;0;();();(-2000.0, -2000.0);
07:52:27:190;07:52:27:077;1448046505.05;(0, 0);0;0;;;;;;;;;;;;;;4;0;0;;0;0;();();(-2000.0, -2000.0);
07:52:27:207;07:52:27:077;1448046505.05;(0, 0);0;0;;;;;;;;;;;;;;4;0;0;;0;0;();();(-2000.0, -2000.0);
07:52:27:240;07:52:27:211;1448046505.18;(0, 0);0;0;;;;;;;;;;;;;;4;0;0;;0;0;();();(-2000.0, -2000.0);
07:52:27:257;07:52:27:211;1448046505.18;(0, 0);0;0;;;;;;;;;;;;;;4;0;0;;0;0;();();(-2000.0, -2000.0);
07:52:27:273;07:52:27:211;1448046505.18;(0, 0);0;0;;;;;;;;;;;;;;4;0;0;;0;0;();();(-2000.0, -2000.0);
07:52:27:290;07:52:27:211;1448046505.18;(0, 0);0;0;;;;;;;;;;;;;;4;0;0;;0;0;();();(-2000.0, -2000.0);
07:52:27:307;07:52:27:211;1448046505.18;(0, 0);0;0;;;;;;;;;;;;;;4;0;0;;0;0;();();(-2000.0, -2000.0);
07:52:27:340;07:52:27:211;1448046505.18;(0, 0);0;0;;;;;;;;;;;;;;4;0;0;;0;0;();();(-2000.0, -2000.0);
07:52:27:357;07:52:27:342;1448046505.32;(0, 0);0;0;;;;;;;;;;;;;;4;0;0;;0;0;();();(-2000.0, -2000.0);
07:52:27:374;07:52:27:342;1448046505.32;(0, 0);0;0;;;;;;;;;;;;;;4;0;0;;0;0;();();(-2000.0, -2000.0);
07:52:27:390;07:52:27:342;1448046505.32;(0, 0);0;0;;;;;;;;;;;;;;4;0;0;;0;0;();();(-2000.0, -2000.0);
07:52:27:407;07:52:27:342;1448046505.32;(0, 0);0;0;;;;;;;;;;;;;;4;0;0;;0;0;();();(-2000.0, -2000.0);
07:52:27:424;07:52:27:342;1448046505.32;(0, 0);0;0;;;;;;;;;;;;;;4;0;0;;0;0;();();(-2000.0, -2000.0);
07:52:27:457;07:52:27:342;1448046505.32;(0, 0);0;0;;;;;;;;;;;;;;4;0;0;;0;0;();();(-2000.0, -2000.0);
07:52:27:474;07:52:27:342;1448046505.32;(0, 0);0;0;;;;;;;;;;;;;;4;0;0;;0;0;();();(-2000.0, -2000.0);
07:52:27:490;07:52:27:474;1448046505.45;(0, 0);0;0;;;;;;;;;;;;;;4;0;0;;0;0;();();(-2000.0, -2000.0);
07:52:27:507;07:52:27:474;1448046505.45;(0, 0);0;0;;;;;;;;;;;;;;4;0;0;;0;0;();();(-2000.0, -2000.0);
07:52:27:524;07:52:27:474;1448046505.45;(0, 0);0;0;;;;;;;;;;;;;;4;0;0;;0;0;();();(-2000.0, -2000.0);
07:52:27:557;07:52:27:474;1448046505.45;(0, 0);0;0;;;;;;;;;;;;;;4;0;0;;0;0;();();(-2000.0, -2000.0);
07:52:27:574;07:52:27:474;1448046505.45;(0, 0);0;0;;;;;;;;;;;;;;4;0;0;;0;0;();();(-2000.0, -2000.0);
07:52:27:590;07:52:27:474;1448046505.45;(0, 0);0;0;;;;;;;;;;;;;;4;0;0;;0;0;();();(-2000.0, -2000.0);
07:52:27:607;07:52:27:605;1448046505.58;(0, 0);0;0;;;;;;;;;;;;;;4;0;0;;0;0;();();(-2000.0, -2000.0);
07:52:27:624;07:52:27:605;1448046505.58;(0, 0);0;0;;;;;;;;;;;;;;4;0;0;;0;0;();();(-2000.0, -2000.0);
07:52:27:657;07:52:27:605;1448046505.58;(0, 0);0;0;;;;;;;;;;;;;;4;0;0;;0;0;();();(-2000.0, -2000.0);
07:52:27:674;07:52:27:605;1448046505.58;(0, 0);0;0;;;;;;;;;;;;;;4;0;0;;0;0;();();(-2000.0, -2000.0);
07:52:27:690;07:52:27:605;1448046505.58;(0, 0);0;0;;;;;;;;;;;;;;4;0;0;;0;0;();();(-2000.0, -2000.0);
07:52:27:707;07:52:27:605;1448046505.58;(0, 0);0;0;;;;;;;;;;;;;;4;0;0;;0;0;();();(-2000.0, -2000.0);
07:52:27:724;07:52:27:605;1448046505.58;(0, 0);0;0;;;;;;;;;;;;;;4;0;0;;0;0;();();(-2000.0, -2000.0);
07:52:27:757;07:52:27:741;1448046505.72;(0, 0);0;0;;;;;;;;;;;;;;4;0;0;;0;0;();();(-2000.0, -2000.0);
07:52:27:774;07:52:27:741;1448046505.72;(0, 0);0;0;;;;;;;;;;;;;;4;0;0;;0;0;();();(-2000.0, -2000.0);
07:52:27:791;07:52:27:741;1448046505.72;(0, 0);0;0;;;;;;;;;;;;;;4;0;0;;0;0;();();(-2000.0, -2000.0);
07:52:27:807;07:52:27:741;1448046505.72;(0, 0);0;0;;;;;;;;;;;;;;4;0;0;;0;0;();();(-2000.0, -2000.0);
07:52:27:824;07:52:27:741;1448046505.72;(0, 0);0;0;;;;;;;;;;;;;;4;0;0;;0;0;();();(-2000.0, -2000.0);
07:52:27:857;07:52:27:741;1448046505.72;(0, 0);0;0;;;;;;;;;;;;;;4;0;0;;0;0;();();(-2000.0, -2000.0);
07:52:27:874;07:52:27:741;1448046505.72;(0, 0);0;0;;;;;;;;;;;;;;4;0;0;;0;0;();();(-2000.0, -2000.0);
07:52:27:891;07:52:27:875;1448046505.85;(0, 0);0;0;;;;;;;;;;;;;;4;0;0;;0;0;();();(-2000.0, -2000.0);
07:52:27:907;07:52:27:875;1448046505.85;(0, 0);0;0;;;;;;;;;;;;;;4;0;0;;0;0;();();(-2000.0, -2000.0);
07:52:27:924;07:52:27:875;1448046505.85;(0, 0);0;0;;;;;;;;;;;;;;4;0;0;;0;0;();();(-2000.0, -2000.0);
07:52:27:957;07:52:27:875;1448046505.85;(0, 0);0;0;;;;;;;;;;;;;;4;0;0;;0;0;();();(-2000.0, -2000.0);
07:52:27:974;07:52:27:875;1448046505.85;(0, 0);0;0;;;;;;;;;;;;;;4;0;0;;0;0;();();(-2000.0, -2000.0);
07:52:27:991;07:52:27:875;1448046505.85;(0, 0);0;0;;;;;;;;;;;;;;4;0;0;;0;0;();();(-2000.0, -2000.0);
07:52:28:007;07:52:28:006;1448046505.98;(0.961851692199707, 0.2984642876519097);18.9146404266;0.890318023227;;;;;;;;;;;;;;4;0;0;;0;0;();();(-2000.0, -2000.0);
07:52:28:024;07:52:28:006;1448046505.98;(0.961851692199707, 0.2984642876519097);18.9146404266;0.890318023227;;;;;;;;;;;;;;4;0;0;;0;0;();();(-2000.0, -2000.0);
07:52:28:057;07:52:28:006;1448046505.98;(0.961851692199707, 0.2984642876519097);18.9146404266;0.890318023227;;;;;;;;;;;;;;4;0;0;;0;0;();();(-2000.0, -2000.0);
07:52:28:074;07:52:28:006;1448046505.98;(0.961851692199707, 0.2984642876519097);18.9146404266;0.890318023227;;;;;;;;;;;;;;4;0;0;;0;0;();();(-2000.0, -2000.0);
07:52:28:091;07:52:28:006;1448046505.98;(0.961851692199707, 0.2984642876519097);18.9146404266;0.890318023227;;;;;;;;;;;;;;4;0;0;;0;0;();();(-2000.0, -2000.0);
07:52:28:107;07:52:28:006;1448046505.98;(0.961851692199707, 0.2984642876519097);18.9146404266;0.890318023227;;;;;;;;;;;;;;4;0;0;;0;0;();();(-2000.0, -2000.0);
07:52:28:124;07:52:28:006;1448046505.98;(0.961851692199707, 0.2984642876519097);18.9146404266;0.890318023227;;;;;;;;;;;;;;4;0;0;;0;0;();();(-2000.0, -2000.0);
07:52:28:157;07:52:28:138;1448046506.12;(0, 0);0;0;;;;;;;;;;;;;;4;0;0;;0;0;();();(-2000.0, -2000.0);
07:52:28:174;07:52:28:138;1448046506.12;(0, 0);0;0;;;;;;;;;;;;;;4;0;0;;0;0;();();(-2000.0, -2000.0);
07:52:28:191;07:52:28:138;1448046506.12;(0, 0);0;0;;;;;;;;;;;;;;4;0;0;;0;0;();();(-2000.0, -2000.0);
07:52:28:208;07:52:28:138;1448046506.12;(0, 0);0;0;;;;;;;;;;;;;;4;0;0;;0;0;();();(-2000.0, -2000.0);
07:52:28:224;07:52:28:138;1448046506.12;(0, 0);0;0;;;;;;;;;;;;;;4;0;0;;0;0;();();(-2000.0, -2000.0);
07:52:28:258;07:52:28:138;1448046506.12;(0, 0);0;0;;;;;;;;;;;;;;4;0;0;;0;0;();();(-2000.0, -2000.0);
07:52:28:274;07:52:28:272;1448046506.25;(0, 0);0;0;;;;;;;;;;;;;;4;0;0;;0;0;();();(-2000.0, -2000.0);
07:52:28:291;07:52:28:272;1448046506.25;(0, 0);0;0;;;;;;;;;;;;;;4;0;0;;0;0;();();(-2000.0, -2000.0);
07:52:28:308;07:52:28:272;1448046506.25;(0, 0);0;0;;;;;;;;;;;;;;4;0;0;;0;0;();();(-2000.0, -2000.0);
07:52:28:324;07:52:28:272;1448046506.25;(0, 0);0;0;;;;;;;;;;;;;;4;0;0;;0;0;();();(-2000.0, -2000.0);
07:52:28:358;07:52:28:272;1448046506.25;(0, 0);0;0;;;;;;;;;;;;;;4;0;0;;0;0;();();(-2000.0, -2000.0);
07:52:28:374;07:52:28:272;1448046506.25;(0, 0);0;0;;;;;;;;;;;;;;4;0;0;;0;0;();();(-2000.0, -2000.0);
07:52:28:391;07:52:28:272;1448046506.25;(0, 0);0;0;;;;;;;;;;;;;;4;0;0;;0;0;();();(-2000.0, -2000.0);
07:52:28:408;07:52:28:405;1448046506.38;(0, 0);0;0;;;;;;;;;;;;;;4;0;0;;0;0;();();(-2000.0, -2000.0);
07:52:28:424;07:52:28:405;1448046506.38;(0, 0);0;0;;;;;;;;;;;;;;4;0;0;;0;0;();();(-2000.0, -2000.0);
07:52:28:459;07:52:28:405;1448046506.38;(0, 0);0;0;;;;;;;;;;;;;;6;0;0;;0;0;();();(-2000.0, -2000.0);
07:52:28:474;07:52:28:405;1448046506.38;(0, 0);0;0;;;;;;;;;;;;;;6;0;0;;0;0;();();(-2000.0, -2000.0);
07:52:28:491;07:52:28:405;1448046506.38;(0, 0);0;0;;;;;;;;;;;;;;6;0;0;;0;0;();();(-2000.0, -2000.0);
07:52:28:508;07:52:28:405;1448046506.38;(0, 0);0;0;;;;;;;;;;;;;;6;0;0;;0;0;();();(-2000.0, -2000.0);
07:52:28:524;07:52:28:405;1448046506.38;(0, 0);0;0;;;;;;;;;;;;;;6;0;0;;0;0;();();(-2000.0, -2000.0);
07:52:28:558;07:52:28:538;1448046506.52;(0, 0);0;0;;;;;;;;;;;;;;6;0;0;;0;0;();();(-2000.0, -2000.0);
07:52:28:574;07:52:28:538;1448046506.52;(0, 0);0;0;;;;;;;;;;;;;;6;0;0;;0;0;();();(-2000.0, -2000.0);
07:52:28:591;07:52:28:538;1448046506.52;(0, 0);0;0;;;;;;;;;;;;;;6;0;0;;0;0;();();(-2000.0, -2000.0);
07:52:28:607;07:52:28:602;1448046506.59;(0, 0);0;0;;;;;;;;;;;;;;6;0;0;;0;0;();();(-2000.0, -2000.0);
07:52:28:625;07:52:28:602;1448046506.59;(0, 0);0;0;;;;;;;;;;;;;;6;0;0;;0;0;();();(-2000.0, -2000.0);
07:52:28:658;07:52:28:602;1448046506.59;(0, 0);0;0;;;;;;;;;;;;;;6;0;0;;0;0;();();(-2000.0, -2000.0);
07:52:28:675;07:52:28:672;1448046506.65;(0, 0);0;0;;;;;;;;;;;;;;6;0;0;;0;0;();();(-2000.0, -2000.0);
07:52:28:691;07:52:28:672;1448046506.65;(0, 0);0;0;;;;;;;;;;;;;;6;0;0;;0;0;();();(-2000.0, -2000.0);
07:52:28:708;07:52:28:672;1448046506.65;(0, 0);0;0;;;;;;;;;;;;;;6;0;0;;0;0;();();(-2000.0, -2000.0);
07:52:28:725;07:52:28:672;1448046506.65;(0, 0);0;0;;;;;;;;;;;;;;6;0;0;;0;0;();();(-2000.0, -2000.0);
07:52:28:758;07:52:28:738;1448046506.71;(0, 0);0;0;;;;;;;;;;;;;;6;0;0;;0;0;();();(-2000.0, -2000.0);
07:52:28:775;07:52:28:738;1448046506.71;(0, 0);0;0;;;;;;;;;;;;;;6;0;0;;0;0;();();(-2000.0, -2000.0);
07:52:28:791;07:52:28:738;1448046506.71;(0, 0);0;0;;;;;;;;;;;;;;6;0;0;;0;0;();();(-2000.0, -2000.0);
07:52:28:808;07:52:28:805;1448046506.74;(0.32366256713867186, 0.4960714552137587);27.3733215332;0.799071311751;;;;;;;;;;;;;;6;0;0;;0;0;();();(-2000.0, -2000.0);
07:52:28:825;07:52:28:805;1448046506.74;(0.32366256713867186, 0.4960714552137587);27.3733215332;0.799071311751;;;;;;;;;;;;;;6;0;0;;0;0;();();(-2000.0, -2000.0);
07:52:28:858;07:52:28:805;1448046506.74;(0.32366256713867186, 0.4960714552137587);27.3733215332;0.799071311751;;;;;;;;;;;;;;6;0;0;;0;0;();();(-2000.0, -2000.0);
07:52:28:875;07:52:28:872;1448046506.87;(0, 0);0;0;;;;;;;;;;;;;;6;0;0;;0;0;();();(-2000.0, -2000.0);
07:52:28:891;07:52:28:872;1448046506.87;(0, 0);0;0;;;;;;;;;;;;;;6;0;0;;0;0;();();(-2000.0, -2000.0);
07:52:28:908;07:52:28:872;1448046506.87;(0, 0);0;0;;;;;;;;;;;;;;6;0;0;;0;0;();();(-2000.0, -2000.0);
07:52:28:925;07:52:28:872;1448046506.87;(0, 0);0;0;;;;;;;;;;;;;;6;0;0;;0;0;();();(-2000.0, -2000.0);
07:52:28:958;07:52:28:938;1448046506.91;(0, 0);0;0;;;;;;;;;;;;;;6;0;0;;0;0;();();(-2000.0, -2000.0);
07:52:28:975;07:52:28:938;1448046506.91;(0, 0);0;0;;;;;;;;;;;;;;6;0;0;;0;0;();();(-2000.0, -2000.0);
07:52:28:991;07:52:28:938;1448046506.91;(0, 0);0;0;;;;;;;;;;;;;;6;0;0;;0;0;();();(-2000.0, -2000.0);
07:52:29:009;07:52:29:002;1448046506.97;(0, 0);0;0;;;;;;;;;;;;;;6;0;0;;0;0;();();(-2000.0, -2000.0);
07:52:29:026;07:52:29:002;1448046506.97;(0, 0);0;0;;;;;;;;;;;;;;6;0;0;;0;0;();();(-2000.0, -2000.0);
07:52:29:059;07:52:29:002;1448046506.97;(0, 0);0;0;;;;;;;;;;;;;;6;0;0;;0;0;();();(-2000.0, -2000.0);
07:52:29:076;07:52:29:071;1448046507.04;(0, 0);0;0;;;;;;;;;;;;;;6;0;0;;0;0;();();(-2000.0, -2000.0);
07:52:29:092;07:52:29:071;1448046507.04;(0, 0);0;0;;;;;;;;;;;;;;6;0;0;;0;0;();();(-2000.0, -2000.0);
07:52:29:109;07:52:29:071;1448046507.04;(0, 0);0;0;;;;;;;;;;;;;;6;0;0;;0;0;();();(-2000.0, -2000.0);
07:52:29:126;07:52:29:071;1448046507.04;(0, 0);0;0;;;;;;;;;;;;;;6;0;0;;0;0;();();(-2000.0, -2000.0);
07:52:29:159;07:52:29:135;1448046507.11;(0, 0);0;0;;;;;;;;;;;;;;6;0;0;;0;0;();();(-2000.0, -2000.0);
07:52:29:176;07:52:29:135;1448046507.11;(0, 0);0;0;;;;;;;;;;;;;;6;0;0;;0;0;();();(-2000.0, -2000.0);
07:52:29:193;07:52:29:135;1448046507.11;(0, 0);0;0;;;;;;;;;;;;;;6;0;0;;0;0;();();(-2000.0, -2000.0);
07:52:29:209;07:52:29:203;1448046507.17;(0.8673585891723633, 0.679345597161187);51.6212043762;0.847205433924;;;;;;;;;;;;;;6;0;0;;0;0;();();(-2000.0, -2000.0);
07:52:29:226;07:52:29:203;1448046507.17;(0.8673585891723633, 0.679345597161187);51.6212043762;0.847205433924;;;;;;;;;;;;;;6;0;0;;0;0;();();(-2000.0, -2000.0);
07:52:29:259;07:52:29:203;1448046507.17;(0.8673585891723633, 0.679345597161187);51.6212043762;0.847205433924;;;;;;;;;;;;;;6;0;0;;0;0;();();(-2000.0, -2000.0);
07:52:29:276;07:52:29:265;1448046507.21;(0.3613623380661011, 0.9274304019080268);57.4525680542;0.695344518919;;;;;;;;;;;;;;6;0;0;;0;0;();();(-2000.0, -2000.0);
07:52:29:293;07:52:29:265;1448046507.21;(0.3613623380661011, 0.9274304019080268);57.4525680542;0.695344518919;;;;;;;;;;;;;;6;0;0;;0;0;();();(-2000.0, -2000.0);
07:52:29:309;07:52:29:265;1448046507.21;(0.3613623380661011, 0.9274304019080268);57.4525680542;0.695344518919;;;;;;;;;;;;;;6;0;0;;0;0;();();(-2000.0, -2000.0);
07:52:29:326;07:52:29:265;1448046507.21;(0.3613623380661011, 0.9274304019080268);57.4525680542;0.695344518919;;;;;;;;;;;;;;6;0;0;;0;0;();();(-2000.0, -2000.0);
07:52:29:359;07:52:29:337;1448046507.31;(0.8560543060302734, 0.5778896331787109);44.037689209;0.603248347776;;;;;;;;;;;;;;6;0;0;;0;0;();();(-2000.0, -2000.0);
07:52:29:376;07:52:29:337;1448046507.31;(0.8560543060302734, 0.5778896331787109);44.037689209;0.603248347776;;;;;;;;;;;;;;6;0;0;;0;0;();();(-2000.0, -2000.0);
07:52:29:393;07:52:29:337;1448046507.31;(0.8560543060302734, 0.5778896331787109);44.037689209;0.603248347776;;;;;;;;;;;;;;6;0;0;;0;0;();();(-2000.0, -2000.0);
07:52:29:409;07:52:29:398;1448046507.37;(0, 0);0;0;;;;;;;;;;;;;;6;0;0;;0;0;();();(-2000.0, -2000.0);
07:52:29:426;07:52:29:398;1448046507.37;(0, 0);0;0;;;;;;;;;;;;;;6;0;0;;0;0;();();(-2000.0, -2000.0);
07:52:29:459;07:52:29:398;1448046507.37;(0, 0);0;0;;;;;;;;;;;;;;6;0;0;;0;0;();();(-2000.0, -2000.0);
07:52:29:476;07:52:29:398;1448046507.37;(0, 0);0;0;;;;;;;;;;;;;;6;0;0;;0;0;();();(-2000.0, -2000.0);
07:52:29:493;07:52:29:398;1448046507.37;(0, 0);0;0;;;;;;;;;;;;;;6;0;0;;0;0;();();(-2000.0, -2000.0);
07:52:29:509;07:52:29:398;1448046507.37;(0, 0);0;0;;;;;;;;;;;;;;6;0;0;;0;0;();();(-2000.0, -2000.0);
07:52:29:526;07:52:29:398;1448046507.37;(0, 0);0;0;;;;;;;;;;;;;;6;0;0;;0;0;();();(-2000.0, -2000.0);
07:52:29:559;07:52:29:533;1448046507.41;(0.5265682697296142, 0.8536472956339518);55.094367981;0.711270517116;;;;;;;;;;;;;;6;0;0;;0;0;();();(-2000.0, -2000.0);
07:52:29:576;07:52:29:533;1448046507.41;(0.5265682697296142, 0.8536472956339518);55.094367981;0.711270517116;;;;;;;;;;;;;;6;0;0;;0;0;();();(-2000.0, -2000.0);
07:52:29:593;07:52:29:533;1448046507.41;(0.5265682697296142, 0.8536472956339518);55.094367981;0.711270517116;;;;;;;;;;;;;;6;0;0;;0;0;();();(-2000.0, -2000.0);
07:52:29:609;07:52:29:597;1448046507.53;(0.47724199295043945, 0.8526515536838107);38.8488388062;0.657206552224;;;;;;;;;;;;;;6;0;0;;0;0;();();(-2000.0, -2000.0);
07:52:29:626;07:52:29:597;1448046507.53;(0.47724199295043945, 0.8526515536838107);38.8488388062;0.657206552224;;;;;;;;;;;;;;6;0;0;;0;0;();();(-2000.0, -2000.0);
07:52:29:660;07:52:29:597;1448046507.53;(0.47724199295043945, 0.8526515536838107);38.8488388062;0.657206552224;;;;;;;;;;;;;;6;0;0;;0;0;();();(-2000.0, -2000.0);
07:52:29:676;07:52:29:597;1448046507.53;(0.47724199295043945, 0.8526515536838107);38.8488388062;0.657206552224;;;;;;;;;;;;;;6;0;0;;0;0;();();(-2000.0, -2000.0);
07:52:29:693;07:52:29:597;1448046507.53;(0.47724199295043945, 0.8526515536838107);38.8488388062;0.657206552224;;;;;;;;;;;;;;6;0;0;;0;0;();();(-2000.0, -2000.0);
07:52:29:710;07:52:29:597;1448046507.53;(0.47724199295043945, 0.8526515536838107);38.8488388062;0.657206552224;;;;;;;;;;;;;;6;0;0;;0;0;();();(-2000.0, -2000.0);
07:52:29:726;07:52:29:597;1448046507.53;(0.47724199295043945, 0.8526515536838107);38.8488388062;0.657206552224;;;;;;;;;;;;;;6;0;0;;0;0;();();(-2000.0, -2000.0);
07:52:29:760;07:52:29:730;1448046507.69;(0.35964987277984617, 0.734145270453559);38.6305198669;0.640566368959;;;;;;;;;;;;;;6;0;0;;0;0;();();(-2000.0, -2000.0);
07:52:29:776;07:52:29:730;1448046507.69;(0.35964987277984617, 0.734145270453559);38.6305198669;0.640566368959;;;;;;;;;;;;;;6;0;0;;0;0;();();(-2000.0, -2000.0);
07:52:29:793;07:52:29:730;1448046507.69;(0.35964987277984617, 0.734145270453559);38.6305198669;0.640566368959;;;;;;;;;;;;;;6;0;0;;0;0;();();(-2000.0, -2000.0);
07:52:29:810;07:52:29:730;1448046507.69;(0.35964987277984617, 0.734145270453559);38.6305198669;0.640566368959;;;;;;;;;;;;;;6;0;0;;0;0;();();(-2000.0, -2000.0);
07:52:29:826;07:52:29:730;1448046507.69;(0.35964987277984617, 0.734145270453559);38.6305198669;0.640566368959;;;;;;;;;;;;;;6;0;0;;0;0;();();(-2000.0, -2000.0);
07:52:29:860;07:52:29:730;1448046507.69;(0.35964987277984617, 0.734145270453559);38.6305198669;0.640566368959;;;;;;;;;;;;;;6;0;0;;0;0;();();(-2000.0, -2000.0);
07:52:29:876;07:52:29:866;1448046507.85;(0, 0);0;0;;;;;;;;;;;;;;6;0;0;;0;0;();();(-2000.0, -2000.0);
07:52:29:893;07:52:29:866;1448046507.85;(0, 0);0;0;;;;;;;;;;;;;;6;0;0;;0;0;();();(-2000.0, -2000.0);
07:52:29:910;07:52:29:866;1448046507.85;(0, 0);0;0;;;;;;;;;;;;;;6;0;0;;0;0;();();(-2000.0, -2000.0);
07:52:29:926;07:52:29:866;1448046507.85;(0, 0);0;0;;;;;;;;;;;;;;6;0;0;;0;0;();();(-2000.0, -2000.0);
07:52:29:960;07:52:29:929;1448046507.88;(0, 0);0;0;;;;;;;;;;;;;;6;0;0;;0;0;();();(-2000.0, -2000.0);
07:52:29:977;07:52:29:929;1448046507.88;(0, 0);0;0;;;;;;;;;;;;;;6;0;0;;0;0;();();(-2000.0, -2000.0);
07:52:29:993;07:52:29:929;1448046507.88;(0, 0);0;0;;;;;;;;;;;;;;6;0;0;;0;0;();();(-2000.0, -2000.0);
07:52:30:010;07:52:29:998;1448046507.98;(0.8282469749450684, 0.8856857511732313);23.2598419189;0.75433369015;;;;;;;;;;;;;;6;0;0;;0;0;();();(-2000.0, -2000.0);
07:52:30:026;07:52:29:998;1448046507.98;(0.8282469749450684, 0.8856857511732313);23.2598419189;0.75433369015;;;;;;;;;;;;;;6;0;0;;0;0;();();(-2000.0, -2000.0);
07:52:30:060;07:52:29:998;1448046507.98;(0.8282469749450684, 0.8856857511732313);23.2598419189;0.75433369015;;;;;;;;;;;;;;6;0;0;;0;0;();();(-2000.0, -2000.0);
07:52:30:076;07:52:30:061;1448046508.01;(0, 0);0;0;;;;;;;;;;;;;;6;0;0;;0;0;();();(-2000.0, -2000.0);
07:52:30:093;07:52:30:061;1448046508.01;(0, 0);0;0;;;;;;;;;;;;;;6;0;0;;0;0;();();(-2000.0, -2000.0);
07:52:30:110;07:52:30:061;1448046508.01;(0, 0);0;0;;;;;;;;;;;;;;6;0;0;;0;0;();();(-2000.0, -2000.0);
07:52:30:127;07:52:30:061;1448046508.01;(0, 0);0;0;;;;;;;;;;;;;;6;0;0;;0;0;();();(-2000.0, -2000.0);
07:52:30:160;07:52:30:130;1448046508.14;(0.560621690750122, 0.6886082543267145);75.2030105591;0.921652214329;;;;;;;;;;;;;;6;0;0;;0;0;();();(-2000.0, -2000.0);
07:52:30:177;07:52:30:130;1448046508.14;(0.560621690750122, 0.6886082543267145);75.2030105591;0.921652214329;;;;;;;;;;;;;;6;0;0;;0;0;();();(-2000.0, -2000.0);
07:52:30:193;07:52:30:130;1448046508.14;(0.560621690750122, 0.6886082543267145);75.2030105591;0.921652214329;;;;;;;;;;;;;;6;0;0;;0;0;();();(-2000.0, -2000.0);
07:52:30:210;07:52:30:130;1448046508.14;(0.560621690750122, 0.6886082543267145);75.2030105591;0.921652214329;;;;;;;;;;;;;;6;0;0;;0;0;();();(-2000.0, -2000.0);
07:52:30:227;07:52:30:130;1448046508.14;(0.560621690750122, 0.6886082543267145);75.2030105591;0.921652214329;;;;;;;;;;;;;;6;0;0;;0;0;();();(-2000.0, -2000.0);
07:52:30:260;07:52:30:130;1448046508.14;(0.560621690750122, 0.6886082543267145);75.2030105591;0.921652214329;;;;;;;;;;;;;;6;0;0;;0;0;();();(-2000.0, -2000.0);
07:52:30:276;07:52:30:263;1448046508.24;(0, 0);0;0;;;;;;;;;;;;;;6;0;0;;0;0;();();(-2000.0, -2000.0);
07:52:30:293;07:52:30:263;1448046508.24;(0, 0);0;0;;;;;;;;;;;;;;6;0;0;;0;0;();();(-2000.0, -2000.0);
07:52:30:310;07:52:30:263;1448046508.24;(0, 0);0;0;;;;;;;;;;;;;;6;0;0;;0;0;();();(-2000.0, -2000.0);
07:52:30:327;07:52:30:263;1448046508.24;(0, 0);0;0;;;;;;;;;;;;;;6;0;0;;0;0;();();(-2000.0, -2000.0);
07:52:30:360;07:52:30:329;1448046508.27;(0, 0);0;0;;;;;;;;;;;;;;6;0;0;;0;0;();();(-2000.0, -2000.0);
07:52:30:377;07:52:30:329;1448046508.27;(0, 0);0;0;;;;;;;;;;;;;;6;0;0;;0;0;();();(-2000.0, -2000.0);
07:52:30:393;07:52:30:329;1448046508.27;(0, 0);0;0;;;;;;;;;;;;;;6;0;0;;0;0;();();(-2000.0, -2000.0);
07:52:30:410;07:52:30:393;1448046508.31;(0.3307921886444092, 0.7015640046861437);26.309513092;0.605274340694;;;;;;;;;;;;;;6;0;0;;0;0;();();(-2000.0, -2000.0);
07:52:30:427;07:52:30:393;1448046508.31;(0.3307921886444092, 0.7015640046861437);26.309513092;0.605274340694;;;;;;;;;;;;;;6;0;0;;0;0;();();(-2000.0, -2000.0);
07:52:30:460;07:52:30:393;1448046508.31;(0.3307921886444092, 0.7015640046861437);26.309513092;0.605274340694;;;;;;;;;;;;;;6;0;0;;0;0;();();(-2000.0, -2000.0);
07:52:30:477;07:52:30:463;1448046508.35;(0.5751039028167725, 0.6893413543701172);72.6920089722;0.856260587979;;;;;;;;;;;;;;6;0;0;;0;0;();();(-2000.0, -2000.0);
07:52:30:494;07:52:30:463;1448046508.35;(0.5751039028167725, 0.6893413543701172);72.6920089722;0.856260587979;;;;;;;;;;;;;;6;0;0;;0;0;();();(-2000.0, -2000.0);
07:52:30:510;07:52:30:463;1448046508.35;(0.5751039028167725, 0.6893413543701172);72.6920089722;0.856260587979;;;;;;;;;;;;;;6;0;0;;0;0;();();(-2000.0, -2000.0);
07:52:30:527;07:52:30:463;1448046508.35;(0.5751039028167725, 0.6893413543701172);72.6920089722;0.856260587979;;;;;;;;;;;;;;6;0;0;;0;0;();();(-2000.0, -2000.0);
07:52:30:544;07:52:30:529;1448046508.42;(0.43863940238952637, 0.8238481415642632);20.1788711548;0.905646408794;;;;;;;;;;;;;;6;0;0;;0;0;();();(-2000.0, -2000.0);
07:52:30:577;07:52:30:529;1448046508.42;(0.43863940238952637, 0.8238481415642632);20.1788711548;0.905646408794;;;;;;;;;;;;;;6;0;0;;0;0;();();(-2000.0, -2000.0);
07:52:30:594;07:52:30:594;1448046508.59;(0.33200554847717284, 0.7787720150417752);29.4431228638;0.696643605127;;;;;;;;;;;;;;6;0;0;;0;0;();();(-2000.0, -2000.0);
07:52:30:610;07:52:30:594;1448046508.59;(0.33200554847717284, 0.7787720150417752);29.4431228638;0.696643605127;;;;;;;;;;;;;;6;0;0;;0;0;();();(-2000.0, -2000.0);
07:52:30:627;07:52:30:594;1448046508.59;(0.33200554847717284, 0.7787720150417752);29.4431228638;0.696643605127;;;;;;;;;;;;;;6;0;0;;0;0;();();(-2000.0, -2000.0);
07:52:30:644;07:52:30:594;1448046508.59;(0.33200554847717284, 0.7787720150417752);29.4431228638;0.696643605127;;;;;;;;;;;;;;6;0;0;;0;0;();();(-2000.0, -2000.0);
07:52:30:677;07:52:30:594;1448046508.59;(0.33200554847717284, 0.7787720150417752);29.4431228638;0.696643605127;;;;;;;;;;;;;;6;0;0;;0;0;();();(-2000.0, -2000.0);
07:52:30:694;07:52:30:594;1448046508.59;(0.33200554847717284, 0.7787720150417752);29.4431228638;0.696643605127;;;;;;;;;;;;;;6;0;0;;0;0;();();(-2000.0, -2000.0);
07:52:30:710;07:52:30:594;1448046508.59;(0.33200554847717284, 0.7787720150417752);29.4431228638;0.696643605127;;;;;;;;;;;;;;6;0;0;;0;0;();();(-2000.0, -2000.0);
07:52:30:727;07:52:30:725;1448046508.7;(0.18152172565460206, 0.891492059495714);23.5460014343;0.649278849932;;;;;;;;;;;;;;6;0;0;;0;0;();();(-2000.0, -2000.0);
07:52:30:744;07:52:30:725;1448046508.7;(0.18152172565460206, 0.891492059495714);23.5460014343;0.649278849932;;;;;;;;;;;;;;6;0;0;;0;0;();();(-2000.0, -2000.0);
07:52:30:777;07:52:30:725;1448046508.7;(0.18152172565460206, 0.891492059495714);23.5460014343;0.649278849932;;;;;;;;;;;;;;6;0;0;;0;0;();();(-2000.0, -2000.0);
07:52:30:794;07:52:30:793;1448046508.75;(0.5413267135620117, 0.7012340121799046);77.0356903076;0.833739510815;;;;;;;;;;;;;;6;0;0;;0;0;();();(-2000.0, -2000.0);
07:52:30:810;07:52:30:793;1448046508.75;(0.5413267135620117, 0.7012340121799046);77.0356903076;0.833739510815;;;;;;;;;;;;;;6;0;0;;0;0;();();(-2000.0, -2000.0);
07:52:30:827;07:52:30:793;1448046508.75;(0.5413267135620117, 0.7012340121799046);77.0356903076;0.833739510815;;;;;;;;;;;;;;6;0;0;;0;0;();();(-2000.0, -2000.0);
07:52:30:844;07:52:30:793;1448046508.75;(0.5413267135620117, 0.7012340121799046);77.0356903076;0.833739510815;;;;;;;;;;;;;;6;0;0;;0;0;();();(-2000.0, -2000.0);
07:52:30:877;07:52:30:861;1448046508.82;(0.3754729747772217, 0.8152858734130859);20.1767730713;0.810440676493;;;;;;;;;;;;;;6;0;0;;0;0;();();(-2000.0, -2000.0);
07:52:30:894;07:52:30:861;1448046508.82;(0.3754729747772217, 0.8152858734130859);20.1767730713;0.810440676493;;;;;;;;;;;;;;6;0;0;;0;0;();();(-2000.0, -2000.0);
07:52:30:910;07:52:30:861;1448046508.82;(0.3754729747772217, 0.8152858734130859);20.1767730713;0.810440676493;;;;;;;;;;;;;;6;0;0;;0;0;();();(-2000.0, -2000.0);
07:52:30:927;07:52:30:925;1448046508.9;(0.5521737098693847, 0.7053157806396484);76.3729476929;0.843858021927;;;;;;;;;;;;;;6;0;0;;0;0;();();(-2000.0, -2000.0);
07:52:30:943;07:52:30:925;1448046508.9;(0.5521737098693847, 0.7053157806396484);76.3729476929;0.843858021927;;;;;;;;;;;;;;6;0;0;;0;0;();();(-2000.0, -2000.0);
07:52:30:977;07:52:30:925;1448046508.9;(0.5521737098693847, 0.7053157806396484);76.3729476929;0.843858021927;;;;;;;;;;;;;;6;0;0;;0;0;();();(-2000.0, -2000.0);
07:52:30:994;07:52:30:994;1448046508.91;(0.5522507667541504, 0.7068596733940973);75.362159729;0.864665382748;;;;;;;;;;;;;;6;0;0;;0;0;();();(-2000.0, -2000.0);
07:52:31:011;07:52:31:006;1448046508.97;(0.5551380634307861, 0.709853023952908);74.2519226074;0.853862224641;;;;;;;;;;;;;;6;0;0;;0;0;();();(-2000.0, -2000.0);
07:52:31:027;07:52:31:006;1448046508.97;(0.5551380634307861, 0.709853023952908);74.2519226074;0.853862224641;;;;;;;;;;;;;;6;0;0;;0;0;();();(-2000.0, -2000.0);
07:52:31:044;07:52:31:006;1448046508.97;(0.5551380634307861, 0.709853023952908);74.2519226074;0.853862224641;;;;;;;;;;;;;;6;0;0;;0;0;();();(-2000.0, -2000.0);
07:52:31:077;07:52:31:069;1448046509.04;(0.3375372886657715, 0.7045859654744466);24.0221614838;0.772284582436;;;;;;;;;;;;;;6;0;0;;0;0;();();(-2000.0, -2000.0);
07:52:31:094;07:52:31:069;1448046509.04;(0.3375372886657715, 0.7045859654744466);24.0221614838;0.772284582436;;;;;;;;;;;;;;6;0;0;;0;0;();();(-2000.0, -2000.0);
07:52:31:111;07:52:31:069;1448046509.04;(0.3375372886657715, 0.7045859654744466);24.0221614838;0.772284582436;;;;;;;;;;;;;;6;0;0;;0;0;();();(-2000.0, -2000.0);
07:52:31:127;07:52:31:126;1448046509.07;(0.5780237674713135, 0.736509746975369);72.1248474121;0.92850183065;;;;;;;;;;;;;;6;0;0;;0;0;();();(-2000.0, -2000.0);
07:52:31:144;07:52:31:126;1448046509.07;(0.5780237674713135, 0.736509746975369);72.1248474121;0.92850183065;;;;;;;;;;;;;;6;0;0;;0;0;();();(-2000.0, -2000.0);
07:52:31:177;07:52:31:126;1448046509.07;(0.5780237674713135, 0.736509746975369);72.1248474121;0.92850183065;;;;;;;;;;;;;;6;0;0;;0;0;();();(-2000.0, -2000.0);
07:52:31:194;07:52:31:190;1448046509.18;(0.3479738235473633, 0.8589686075846354);44.9832763672;0.688326373089;;;;;;;;;;;;;;6;0;0;;0;0;();();(-2000.0, -2000.0);
07:52:31:211;07:52:31:190;1448046509.18;(0.3479738235473633, 0.8589686075846354);44.9832763672;0.688326373089;;;;;;;;;;;;;;6;0;0;;0;0;();();(-2000.0, -2000.0);
07:52:31:227;07:52:31:190;1448046509.18;(0.3479738235473633, 0.8589686075846354);44.9832763672;0.688326373089;;;;;;;;;;;;;;6;0;0;;0;0;();();(-2000.0, -2000.0);
07:52:31:244;07:52:31:190;1448046509.18;(0.3479738235473633, 0.8589686075846354);44.9832763672;0.688326373089;;;;;;;;;;;;;;6;0;0;;0;0;();();(-2000.0, -2000.0);
07:52:31:277;07:52:31:190;1448046509.18;(0.3479738235473633, 0.8589686075846354);44.9832763672;0.688326373089;;;;;;;;;;;;;;6;0;0;;0;0;();();(-2000.0, -2000.0);
07:52:31:294;07:52:31:190;1448046509.18;(0.3479738235473633, 0.8589686075846354);44.9832763672;0.688326373089;;;;;;;;;;;;;;6;0;0;;0;0;();();(-2000.0, -2000.0);
07:52:31:311;07:52:31:190;1448046509.18;(0.3479738235473633, 0.8589686075846354);44.9832763672;0.688326373089;;;;;;;;;;;;;;6;0;0;;0;0;();();(-2000.0, -2000.0);
07:52:31:327;07:52:31:325;1448046509.21;(0.5861558437347412, 0.7277073118421766);71.8384246826;0.972912144449;;;;;;;;;;;;;;6;0;0;;0;0;();();(-2000.0, -2000.0);
07:52:31:344;07:52:31:325;1448046509.21;(0.5861558437347412, 0.7277073118421766);71.8384246826;0.972912144449;;;;;;;;;;;;;;6;0;0;;0;0;();();(-2000.0, -2000.0);
07:52:31:377;07:52:31:325;1448046509.21;(0.5861558437347412, 0.7277073118421766);71.8384246826;0.972912144449;;;;;;;;;;;;;;6;0;0;;0;0;();();(-2000.0, -2000.0);
07:52:31:394;07:52:31:389;1448046509.36;(0, 0);0;0;;;;;;;;;;;;;;6;0;0;;0;0;();();(-2000.0, -2000.0);
07:52:31:411;07:52:31:389;1448046509.36;(0, 0);0;0;;;;;;;;;;;;;;6;0;0;;0;0;();();(-2000.0, -2000.0);
07:52:31:427;07:52:31:389;1448046509.36;(0, 0);0;0;;;;;;;;;;;;;;6;0;0;;0;0;();();(-2000.0, -2000.0);
07:52:31:444;07:52:31:389;1448046509.36;(0, 0);0;0;;;;;;;;;;;;;;6;0;0;;0;0;();();(-2000.0, -2000.0);
07:52:31:477;07:52:31:457;1448046509.38;(0.3294656276702881, 0.787206310696072);19.3659820557;1.0;;;;;;;;;;;;;;6;0;0;;0;0;();();(-2000.0, -2000.0);
07:52:31:494;07:52:31:457;1448046509.38;(0.3294656276702881, 0.787206310696072);19.3659820557;1.0;;;;;;;;;;;;;;6;0;0;;0;0;();();(-2000.0, -2000.0);
07:52:31:511;07:52:31:457;1448046509.38;(0.3294656276702881, 0.787206310696072);19.3659820557;1.0;;;;;;;;;;;;;;6;0;0;;0;0;();();(-2000.0, -2000.0);
07:52:31:528;07:52:31:527;1448046509.52;(0.34899780750274656, 0.9152994473775228);46.9099578857;0.61982847809;;;;;;;;;;;;;;6;0;0;;0;0;();();(-2000.0, -2000.0);
07:52:31:544;07:52:31:527;1448046509.52;(0.34899780750274656, 0.9152994473775228);46.9099578857;0.61982847809;;;;;;;;;;;;;;6;0;0;;0;0;();();(-2000.0, -2000.0);
07:52:31:578;07:52:31:527;1448046509.52;(0.34899780750274656, 0.9152994473775228);46.9099578857;0.61982847809;;;;;;;;;;;;;;6;0;0;;0;0;();();(-2000.0, -2000.0);
07:52:31:594;07:52:31:589;1448046509.57;(0, 0);0;0;;;;;;;;;;;;;;6;0;0;;0;0;();();(-2000.0, -2000.0);
07:52:31:611;07:52:31:589;1448046509.57;(0, 0);0;0;;;;;;;;;;;;;;6;0;0;;0;0;();();(-2000.0, -2000.0);
07:52:31:628;07:52:31:589;1448046509.57;(0, 0);0;0;;;;;;;;;;;;;;6;0;0;;0;0;();();(-2000.0, -2000.0);
07:52:31:644;07:52:31:589;1448046509.57;(0, 0);0;0;;;;;;;;;;;;;;6;0;0;;0;0;();();(-2000.0, -2000.0);
07:52:31:678;07:52:31:657;1448046509.61;(0.3551328182220459, 0.886504332224528);36.7574424744;0.76563751416;;;;;;;;;;;;;;6;0;0;;0;0;();();(-2000.0, -2000.0);
07:52:31:694;07:52:31:657;1448046509.61;(0.3551328182220459, 0.886504332224528);36.7574424744;0.76563751416;;;;;;;;;;;;;;6;0;0;;0;0;();();(-2000.0, -2000.0);
07:52:31:711;07:52:31:657;1448046509.61;(0.3551328182220459, 0.886504332224528);36.7574424744;0.76563751416;;;;;;;;;;;;;;6;0;0;;0;0;();();(-2000.0, -2000.0);
07:52:31:728;07:52:31:721;1448046509.71;(0, 0);0;0;;;;;;;;;;;;;;6;0;0;;0;0;();();(-2000.0, -2000.0);
07:52:31:744;07:52:31:721;1448046509.71;(0, 0);0;0;;;;;;;;;;;;;;6;0;0;;0;0;();();(-2000.0, -2000.0);
07:52:31:778;07:52:31:721;1448046509.71;(0, 0);0;0;;;;;;;;;;;;;;6;0;0;;0;0;();();(-2000.0, -2000.0);
07:52:31:794;07:52:31:789;1448046509.78;(0.5944608688354492, 0.7129529105292427);72.9238815308;0.970078656263;;;;;;;;;;;;;;6;0;0;;0;0;();();(-2000.0, -2000.0);
07:52:31:811;07:52:31:789;1448046509.78;(0.5944608688354492, 0.7129529105292427);72.9238815308;0.970078656263;;;;;;;;;;;;;;6;0;0;;0;0;();();(-2000.0, -2000.0);
07:52:31:828;07:52:31:789;1448046509.78;(0.5944608688354492, 0.7129529105292427);72.9238815308;0.970078656263;;;;;;;;;;;;;;6;0;0;;0;0;();();(-2000.0, -2000.0);
07:52:31:844;07:52:31:789;1448046509.78;(0.5944608688354492, 0.7129529105292427);72.9238815308;0.970078656263;;;;;;;;;;;;;;6;0;0;;0;0;();();(-2000.0, -2000.0);
07:52:31:878;07:52:31:854;1448046509.84;(0.24904193878173828, 0.5976538340250651);21.0530719757;0.706642102683;;;;;;;;;;;;;;6;0;0;;0;0;();();(-2000.0, -2000.0);
07:52:31:894;07:52:31:854;1448046509.84;(0.24904193878173828, 0.5976538340250651);21.0530719757;0.706642102683;;;;;;;;;;;;;;6;0;0;;0;0;();();(-2000.0, -2000.0);
07:52:31:911;07:52:31:854;1448046509.84;(0.24904193878173828, 0.5976538340250651);21.0530719757;0.706642102683;;;;;;;;;;;;;;6;0;0;;0;0;();();(-2000.0, -2000.0);
07:52:31:928;07:52:31:921;1448046509.91;(0.584531021118164, 0.7514755037095812);72.3742675781;0.789289801087;;;;;;;;;;;;;;6;0;0;;0;0;();();(-2000.0, -2000.0);
07:52:31:944;07:52:31:921;1448046509.91;(0.584531021118164, 0.7514755037095812);72.3742675781;0.789289801087;;;;;;;;;;;;;;6;0;0;;0;0;();();(-2000.0, -2000.0);
07:52:31:978;07:52:31:921;1448046509.91;(0.584531021118164, 0.7514755037095812);72.3742675781;0.789289801087;;;;;;;;;;;;;;6;0;0;;0;0;();();(-2000.0, -2000.0);
07:52:31:995;07:52:31:989;1448046509.94;(0.3558812141418457, 0.8419967439439562);30.7806873322;0.638473775082;;;;;;;;;;;;;;6;0;0;;0;0;();();(-2000.0, -2000.0);
07:52:32:011;07:52:31:989;1448046509.94;(0.3558812141418457, 0.8419967439439562);30.7806873322;0.638473775082;;;;;;;;;;;;;;6;0;0;;0;0;();();(-2000.0, -2000.0);
07:52:32:028;07:52:31:989;1448046509.94;(0.3558812141418457, 0.8419967439439562);30.7806873322;0.638473775082;;;;;;;;;;;;;;6;0;0;;0;0;();();(-2000.0, -2000.0);
07:52:32:045;07:52:31:989;1448046509.94;(0.3558812141418457, 0.8419967439439562);30.7806873322;0.638473775082;;;;;;;;;;;;;;6;0;0;;0;0;();();(-2000.0, -2000.0);
07:52:32:078;07:52:32:054;1448046509.97;(0.5897218704223632, 0.7526041454739041);70.5995941162;0.962381545143;;;;;;;;;;;;;;6;0;0;;0;0;();();(-2000.0, -2000.0);
07:52:32:095;07:52:32:054;1448046509.97;(0.5897218704223632, 0.7526041454739041);70.5995941162;0.962381545143;;;;;;;;;;;;;;6;0;0;;0;0;();();(-2000.0, -2000.0);
07:52:32:111;07:52:32:054;1448046509.97;(0.5897218704223632, 0.7526041454739041);70.5995941162;0.962381545143;;;;;;;;;;;;;;6;0;0;;0;0;();();(-2000.0, -2000.0);
07:52:32:128;07:52:32:121;1448046510.04;(0.5893074989318847, 0.7555561701456706);72.0164413452;0.727259306587;;;;;;;;;;;;;;6;0;0;;0;0;();();(-2000.0, -2000.0);
07:52:32:145;07:52:32:121;1448046510.04;(0.5893074989318847, 0.7555561701456706);72.0164413452;0.727259306587;;;;;;;;;;;;;;6;0;0;;0;0;();();(-2000.0, -2000.0);
07:52:32:178;07:52:32:121;1448046510.04;(0.5893074989318847, 0.7555561701456706);72.0164413452;0.727259306587;;;;;;;;;;;;;;6;0;0;;0;0;();();(-2000.0, -2000.0);
07:52:32:195;07:52:32:185;1448046510.08;(0.5884243965148925, 0.6904286702473958);73.7398681641;0.644298126105;;;;;;;;;;;;;;6;0;0;;0;0;();();(-2000.0, -2000.0);
07:52:32:211;07:52:32:185;1448046510.08;(0.5884243965148925, 0.6904286702473958);73.7398681641;0.644298126105;;;;;;;;;;;;;;6;0;0;;0;0;();();(-2000.0, -2000.0);
07:52:32:228;07:52:32:185;1448046510.08;(0.5884243965148925, 0.6904286702473958);73.7398681641;0.644298126105;;;;;;;;;;;;;;6;0;0;;0;0;();();(-2000.0, -2000.0);
07:52:32:245;07:52:32:185;1448046510.08;(0.5884243965148925, 0.6904286702473958);73.7398681641;0.644298126105;;;;;;;;;;;;;;6;0;0;;0;0;();();(-2000.0, -2000.0);
07:52:32:278;07:52:32:185;1448046510.08;(0.5884243965148925, 0.6904286702473958);73.7398681641;0.644298126105;;;;;;;;;;;;;;6;0;0;;0;0;();();(-2000.0, -2000.0);
07:52:32:295;07:52:32:185;1448046510.08;(0.5884243965148925, 0.6904286702473958);73.7398681641;0.644298126105;;;;;;;;;;;;;;6;0;0;;0;0;();();(-2000.0, -2000.0);
07:52:32:311;07:52:32:185;1448046510.08;(0.5884243965148925, 0.6904286702473958);73.7398681641;0.644298126105;;;;;;;;;;;;;;6;0;0;;0;0;();();(-2000.0, -2000.0);
07:52:32:328;07:52:32:321;1448046510.15;(0.5821005344390869, 0.5724387698703342);73.8483810425;1.0;;;;;;;;;;;;;;6;0;0;;0;0;();();(-2000.0, -2000.0);
07:52:32:345;07:52:32:321;1448046510.15;(0.5821005344390869, 0.5724387698703342);73.8483810425;1.0;;;;;;;;;;;;;;6;0;0;;0;0;();();(-2000.0, -2000.0);
07:52:32:378;07:52:32:321;1448046510.15;(0.5821005344390869, 0.5724387698703342);73.8483810425;1.0;;;;;;;;;;;;;;6;0;0;;0;0;();();(-2000.0, -2000.0);
07:52:32:395;07:52:32:321;1448046510.15;(0.5821005344390869, 0.5724387698703342);73.8483810425;1.0;;;;;;;;;;;;;;6;0;0;;0;0;();();(-2000.0, -2000.0);
07:52:32:412;07:52:32:321;1448046510.15;(0.5821005344390869, 0.5724387698703342);73.8483810425;1.0;;;;;;;;;;;;;;6;0;0;;0;0;();();(-2000.0, -2000.0);
07:52:32:428;07:52:32:321;1448046510.15;(0.5821005344390869, 0.5724387698703342);73.8483810425;1.0;;;;;;;;;;;;;;6;0;0;;0;0;();();(-2000.0, -2000.0);
07:52:32:445;07:52:32:321;1448046510.15;(0.5821005344390869, 0.5724387698703342);73.8483810425;1.0;;;;;;;;;;;;;;6;0;0;;0;0;();();(-2000.0, -2000.0);
07:52:32:479;07:52:32:453;1448046510.33;(0.590203046798706, 0.5810653686523437);72.2768173218;1.0;;;;;;;;;;;;;;6;0;0;;0;0;();();(-2000.0, -2000.0);
07:52:32:495;07:52:32:453;1448046510.33;(0.590203046798706, 0.5810653686523437);72.2768173218;1.0;;;;;;;;;;;;;;6;0;0;;0;0;();();(-2000.0, -2000.0);
07:52:32:512;07:52:32:453;1448046510.33;(0.590203046798706, 0.5810653686523437);72.2768173218;1.0;;;;;;;;;;;;;;6;0;0;;0;0;();();(-2000.0, -2000.0);
07:52:32:528;07:52:32:519;1448046510.51;(0.8169404983520507, 0.4042992909749349);22.7806625366;0.614012936615;;;;;;;;;;;;;;6;0;0;;0;0;();();(-2000.0, -2000.0);
07:52:32:545;07:52:32:519;1448046510.51;(0.8169404983520507, 0.4042992909749349);22.7806625366;0.614012936615;;;;;;;;;;;;;;6;0;0;;0;0;();();(-2000.0, -2000.0);
07:52:32:578;07:52:32:519;1448046510.51;(0.8169404983520507, 0.4042992909749349);22.7806625366;0.614012936615;;;;;;;;;;;;;;6;0;0;;0;0;();();(-2000.0, -2000.0);
07:52:32:595;07:52:32:585;1448046510.54;(0.5777684211730957, 0.6348240322536892);71.5121765137;0.89562855095;;;;;;;;;;;;;;6;0;0;;0;0;();();(-2000.0, -2000.0);
07:52:32:611;07:52:32:585;1448046510.54;(0.5777684211730957, 0.6348240322536892);71.5121765137;0.89562855095;;;;;;;;;;;;;;6;0;0;;0;0;();();(-2000.0, -2000.0);
07:52:32:628;07:52:32:585;1448046510.54;(0.5777684211730957, 0.6348240322536892);71.5121765137;0.89562855095;;;;;;;;;;;;;;6;0;0;;0;0;();();(-2000.0, -2000.0);
07:52:32:645;07:52:32:585;1448046510.54;(0.5777684211730957, 0.6348240322536892);71.5121765137;0.89562855095;;;;;;;;;;;;;;6;0;0;;0;0;();();(-2000.0, -2000.0);
07:52:32:678;07:52:32:656;1448046510.57;(0.5804939270019531, 0.633766131930881);71.2957229614;0.97371367399;;;;;;;;;;;;;;6;0;0;;0;0;();();(-2000.0, -2000.0);
07:52:32:695;07:52:32:656;1448046510.57;(0.5804939270019531, 0.633766131930881);71.2957229614;0.97371367399;;;;;;;;;;;;;;6;0;0;;0;0;();();(-2000.0, -2000.0);
07:52:32:712;07:52:32:656;1448046510.57;(0.5804939270019531, 0.633766131930881);71.2957229614;0.97371367399;;;;;;;;;;;;;;6;0;0;;0;0;();();(-2000.0, -2000.0);
07:52:32:728;07:52:32:656;1448046510.57;(0.5804939270019531, 0.633766131930881);71.2957229614;0.97371367399;;;;;;;;;;;;;;6;0;0;;0;0;();();(-2000.0, -2000.0);
07:52:32:745;07:52:32:656;1448046510.57;(0.5804939270019531, 0.633766131930881);71.2957229614;0.97371367399;;;;;;;;;;;;;;6;0;0;;0;0;();();(-2000.0, -2000.0);
07:52:32:778;07:52:32:656;1448046510.57;(0.5804939270019531, 0.633766131930881);71.2957229614;0.97371367399;;;;;;;;;;;;;;6;0;0;;0;0;();();(-2000.0, -2000.0);
07:52:32:795;07:52:32:656;1448046510.57;(0.5804939270019531, 0.633766131930881);71.2957229614;0.97371367399;;;;;;;;;;;;;;6;0;0;;0;0;();();(-2000.0, -2000.0);
07:52:32:812;07:52:32:656;1448046510.57;(0.5804939270019531, 0.633766131930881);71.2957229614;0.97371367399;;;;;;;;;;;;;;6;0;0;;0;0;();();(-2000.0, -2000.0);
07:52:32:828;07:52:32:656;1448046510.57;(0.5804939270019531, 0.633766131930881);71.2957229614;0.97371367399;;;;;;;;;;;;;;6;0;0;;0;0;();();(-2000.0, -2000.0);
07:52:32:845;07:52:32:656;1448046510.57;(0.5804939270019531, 0.633766131930881);71.2957229614;0.97371367399;;;;;;;;;;;;;;6;0;0;;0;0;();();(-2000.0, -2000.0);
07:52:32:878;07:52:32:850;1448046510.84;(0, 0);0;0;;;;;;;;;;;;;;6;0;0;;0;0;();();(-2000.0, -2000.0);
07:52:32:895;07:52:32:850;1448046510.84;(0, 0);0;0;;;;;;;;;;;;;;6;0;0;;0;0;();();(-2000.0, -2000.0);
07:52:32:912;07:52:32:850;1448046510.84;(0, 0);0;0;;;;;;;;;;;;;;6;0;0;;0;0;();();(-2000.0, -2000.0);
07:52:32:929;07:52:32:850;1448046510.84;(0, 0);0;0;;;;;;;;;;;;;;6;0;0;;0;0;();();(-2000.0, -2000.0);
07:52:32:945;07:52:32:850;1448046510.84;(0, 0);0;0;;;;;;;;;;;;;;6;0;0;;0;0;();();(-2000.0, -2000.0);
07:52:32:979;07:52:32:850;1448046510.84;(0, 0);0;0;;;;;;;;;;;;;;6;0;0;;0;0;();();(-2000.0, -2000.0);
07:52:32:995;07:52:32:985;1448046510.96;(0.5448674201965332, 0.5488514794243706);73.2736053467;0.972509403982;;;;;;;;;;;;;;6;0;0;;0;0;();();(-2000.0, -2000.0);
07:52:33:012;07:52:32:985;1448046510.96;(0.5448674201965332, 0.5488514794243706);73.2736053467;0.972509403982;;;;;;;;;;;;;;6;0;0;;0;0;();();(-2000.0, -2000.0);
07:52:33:029;07:52:32:985;1448046510.96;(0.5448674201965332, 0.5488514794243706);73.2736053467;0.972509403982;;;;;;;;;;;;;;6;0;0;;0;0;();();(-2000.0, -2000.0);
07:52:33:045;07:52:32:985;1448046510.96;(0.5448674201965332, 0.5488514794243706);73.2736053467;0.972509403982;;;;;;;;;;;;;;6;0;0;;0;0;();();(-2000.0, -2000.0);
07:52:33:079;07:52:33:049;1448046511.04;(0.5616893768310547, 0.5649631924099392);73.9267272949;1.0;;;;;;;;;;;;;;6;0;0;;0;0;();();(-2000.0, -2000.0);
07:52:33:095;07:52:33:049;1448046511.04;(0.5616893768310547, 0.5649631924099392);73.9267272949;1.0;;;;;;;;;;;;;;6;0;0;;0;0;();();(-2000.0, -2000.0);
07:52:33:112;07:52:33:049;1448046511.04;(0.5616893768310547, 0.5649631924099392);73.9267272949;1.0;;;;;;;;;;;;;;6;0;0;;0;0;();();(-2000.0, -2000.0);
07:52:33:129;07:52:33:117;1448046511.07;(0.5692208766937256, 0.5688340928819444);73.71043396;1.0;;;;;;;;;;;;;;6;0;0;;0;0;();();(-2000.0, -2000.0);
07:52:33:145;07:52:33:117;1448046511.07;(0.5692208766937256, 0.5688340928819444);73.71043396;1.0;;;;;;;;;;;;;;6;0;0;;0;0;();();(-2000.0, -2000.0);
07:52:33:179;07:52:33:117;1448046511.07;(0.5692208766937256, 0.5688340928819444);73.71043396;1.0;;;;;;;;;;;;;;6;0;0;;0;0;();();(-2000.0, -2000.0);
07:52:33:195;07:52:33:117;1448046511.07;(0.5692208766937256, 0.5688340928819444);73.71043396;1.0;;;;;;;;;;;;;;6;0;0;;0;0;();();(-2000.0, -2000.0);
07:52:33:212;07:52:33:117;1448046511.07;(0.5692208766937256, 0.5688340928819444);73.71043396;1.0;;;;;;;;;;;;;;6;0;0;;0;0;();();(-2000.0, -2000.0);
07:52:33:229;07:52:33:117;1448046511.07;(0.5692208766937256, 0.5688340928819444);73.71043396;1.0;;;;;;;;;;;;;;6;0;0;;0;0;();();(-2000.0, -2000.0);
07:52:33:247;07:52:33:117;1448046511.07;(0.5692208766937256, 0.5688340928819444);73.71043396;1.0;;;;;;;;;;;;;;8;0;0;;0;0;();();(-2000.0, -2000.0);
07:52:33:279;07:52:33:249;1448046511.22;(0.5894781589508057, 0.5657068888346355);73.3497848511;1.0;;;;;;;;;;;;;;8;0;0;;0;0;();();(-2000.0, -2000.0);
07:52:33:296;07:52:33:249;1448046511.22;(0.5894781589508057, 0.5657068888346355);73.3497848511;1.0;;;;;;;;;;;;;;8;0;0;;0;0;();();(-2000.0, -2000.0);
07:52:33:312;07:52:33:249;1448046511.22;(0.5894781589508057, 0.5657068888346355);73.3497848511;1.0;;;;;;;;;;;;;;8;0;0;;0;0;();();(-2000.0, -2000.0);
07:52:33:329;07:52:33:317;1448046511.27;(0.5911942005157471, 0.5675796084933811);73.2173080444;1.0;;;;;;;;;;;;;;8;0;0;;0;0;();();(-2000.0, -2000.0);
07:52:33:345;07:52:33:317;1448046511.27;(0.5911942005157471, 0.5675796084933811);73.2173080444;1.0;;;;;;;;;;;;;;8;0;0;;0;0;();();(-2000.0, -2000.0);
07:52:33:379;07:52:33:317;1448046511.27;(0.5911942005157471, 0.5675796084933811);73.2173080444;1.0;;;;;;;;;;;;;;8;0;0;;0;0;();();(-2000.0, -2000.0);
07:52:33:396;07:52:33:317;1448046511.27;(0.5911942005157471, 0.5675796084933811);73.2173080444;1.0;;;;;;;;;;;;;;8;0;0;;0;0;();();(-2000.0, -2000.0);
07:52:33:412;07:52:33:317;1448046511.27;(0.5911942005157471, 0.5675796084933811);73.2173080444;1.0;;;;;;;;;;;;;;8;0;0;;0;0;();();(-2000.0, -2000.0);
07:52:33:429;07:52:33:317;1448046511.27;(0.5911942005157471, 0.5675796084933811);73.2173080444;1.0;;;;;;;;;;;;;;8;0;0;;0;0;();();(-2000.0, -2000.0);
07:52:33:446;07:52:33:317;1448046511.27;(0.5911942005157471, 0.5675796084933811);73.2173080444;1.0;;;;;;;;;;;;;;8;0;0;;0;0;();();(-2000.0, -2000.0);
07:52:33:479;07:52:33:449;1448046511.31;(0.5983226776123047, 0.5735510084364149);73.2903213501;0.738672343834;;;;;;;;;;;;;;8;0;0;;0;0;();();(-2000.0, -2000.0);
07:52:33:496;07:52:33:449;1448046511.31;(0.5983226776123047, 0.5735510084364149);73.2903213501;0.738672343834;;;;;;;;;;;;;;8;0;0;;0;0;();();(-2000.0, -2000.0);
07:52:33:512;07:52:33:449;1448046511.31;(0.5983226776123047, 0.5735510084364149);73.2903213501;0.738672343834;;;;;;;;;;;;;;8;0;0;;0;0;();();(-2000.0, -2000.0);
07:52:33:529;07:52:33:513;1448046511.44;(0.6438553333282471, 0.6082697550455729);71.2277069092;0.966610922597;;;;;;;;;;;;;;8;0;0;;0;0;();();(-2000.0, -2000.0);
07:52:33:546;07:52:33:513;1448046511.44;(0.6438553333282471, 0.6082697550455729);71.2277069092;0.966610922597;;;;;;;;;;;;;;8;0;0;;0;0;();();(-2000.0, -2000.0);
07:52:33:579;07:52:33:513;1448046511.44;(0.6438553333282471, 0.6082697550455729);71.2277069092;0.966610922597;;;;;;;;;;;;;;8;0;0;;0;0;();();(-2000.0, -2000.0);
07:52:33:596;07:52:33:513;1448046511.44;(0.6438553333282471, 0.6082697550455729);71.2277069092;0.966610922597;;;;;;;;;;;;;;8;0;0;;0;0;();();(-2000.0, -2000.0);
07:52:33:612;07:52:33:513;1448046511.44;(0.6438553333282471, 0.6082697550455729);71.2277069092;0.966610922597;;;;;;;;;;;;;;8;0;0;;0;0;();();(-2000.0, -2000.0);
07:52:33:629;07:52:33:513;1448046511.44;(0.6438553333282471, 0.6082697550455729);71.2277069092;0.966610922597;;;;;;;;;;;;;;8;0;0;;0;0;();();(-2000.0, -2000.0);
07:52:33:646;07:52:33:513;1448046511.44;(0.6438553333282471, 0.6082697550455729);71.2277069092;0.966610922597;;;;;;;;;;;;;;8;0;0;;0;0;();();(-2000.0, -2000.0);
07:52:33:679;07:52:33:651;1448046511.62;(0.6285528182983399, 0.6146621704101562);69.6384963989;0.991514616088;;;;;;;;;;;;;;8;0;0;;0;0;();();(-2000.0, -2000.0);
07:52:33:696;07:52:33:651;1448046511.62;(0.6285528182983399, 0.6146621704101562);69.6384963989;0.991514616088;;;;;;;;;;;;;;8;0;0;;0;0;();();(-2000.0, -2000.0);
07:52:33:712;07:52:33:651;1448046511.62;(0.6285528182983399, 0.6146621704101562);69.6384963989;0.991514616088;;;;;;;;;;;;;;8;0;0;;0;0;();();(-2000.0, -2000.0);
07:52:33:729;07:52:33:713;1448046511.64;(0.4919270515441895, 0.830206224653456);26.4027900696;0.717421018291;;;;;;;;;;;;;;8;0;0;;0;0;();();(-2000.0, -2000.0);
07:52:33:746;07:52:33:713;1448046511.64;(0.4919270515441895, 0.830206224653456);26.4027900696;0.717421018291;;;;;;;;;;;;;;8;0;0;;0;0;();();(-2000.0, -2000.0);
07:52:33:779;07:52:33:713;1448046511.64;(0.4919270515441895, 0.830206224653456);26.4027900696;0.717421018291;;;;;;;;;;;;;;8;0;0;;0;0;();();(-2000.0, -2000.0);
07:52:33:796;07:52:33:781;1448046511.74;(0.6554683208465576, 0.6160332997639975);67.5293121338;1.0;;;;;;;;;;;;;;8;0;0;;0;0;();();(-2000.0, -2000.0);
07:52:33:812;07:52:33:781;1448046511.74;(0.6554683208465576, 0.6160332997639975);67.5293121338;1.0;;;;;;;;;;;;;;8;0;0;;0;0;();();(-2000.0, -2000.0);
07:52:33:829;07:52:33:781;1448046511.74;(0.6554683208465576, 0.6160332997639975);67.5293121338;1.0;;;;;;;;;;;;;;8;0;0;;0;0;();();(-2000.0, -2000.0);
07:52:33:846;07:52:33:781;1448046511.74;(0.6554683208465576, 0.6160332997639975);67.5293121338;1.0;;;;;;;;;;;;;;8;0;0;;0;0;();();(-2000.0, -2000.0);
07:52:33:879;07:52:33:781;1448046511.74;(0.6554683208465576, 0.6160332997639975);67.5293121338;1.0;;;;;;;;;;;;;;8;0;0;;0;0;();();(-2000.0, -2000.0);
07:52:33:896;07:52:33:781;1448046511.74;(0.6554683208465576, 0.6160332997639975);67.5293121338;1.0;;;;;;;;;;;;;;8;0;0;;0;0;();();(-2000.0, -2000.0);
07:52:33:913;07:52:33:913;1448046511.77;(0.6533474445343017, 0.6190018971761068);67.2601470947;0.946515243939;;;;;;;;;;;;;;8;0;0;;0;0;();();(-2000.0, -2000.0);
07:52:33:929;07:52:33:913;1448046511.77;(0.6533474445343017, 0.6190018971761068);67.2601470947;0.946515243939;;;;;;;;;;;;;;8;0;0;;0;0;();();(-2000.0, -2000.0);
07:52:33:946;07:52:33:913;1448046511.77;(0.6533474445343017, 0.6190018971761068);67.2601470947;0.946515243939;;;;;;;;;;;;;;8;0;0;;0;0;();();(-2000.0, -2000.0);
07:52:33:979;07:52:33:913;1448046511.77;(0.6533474445343017, 0.6190018971761068);67.2601470947;0.946515243939;;;;;;;;;;;;;;8;0;0;;0;0;();();(-2000.0, -2000.0);
07:52:33:996;07:52:33:982;1448046511.97;(0.6451345920562744, 0.6301355997721354);63.9985427856;0.813500006361;;;;;;;;;;;;;;8;0;0;;0;0;();();(-2000.0, -2000.0);
07:52:34:013;07:52:33:982;1448046511.97;(0.6451345920562744, 0.6301355997721354);63.9985427856;0.813500006361;;;;;;;;;;;;;;8;0;0;;0;0;();();(-2000.0, -2000.0);
07:52:34:029;07:52:33:982;1448046511.97;(0.6451345920562744, 0.6301355997721354);63.9985427856;0.813500006361;;;;;;;;;;;;;;8;0;0;;0;0;();();(-2000.0, -2000.0);
07:52:34:046;07:52:34:037;1448046512.01;(0.64530029296875, 0.631989754570855);63.3260688782;0.828272622001;;;;;;;;;;;;;;8;0;0;;0;0;();();(-2000.0, -2000.0);
07:52:34:079;07:52:34:037;1448046512.01;(0.64530029296875, 0.631989754570855);63.3260688782;0.828272622001;;;;;;;;;;;;;;8;0;0;;0;0;();();(-2000.0, -2000.0);
07:52:34:096;07:52:34:037;1448046512.01;(0.64530029296875, 0.631989754570855);63.3260688782;0.828272622001;;;;;;;;;;;;;;8;0;0;;0;0;();();(-2000.0, -2000.0);
07:52:34:113;07:52:34:097;1448046512.04;(0.6467782974243164, 0.6364063686794705);61.9576911926;1.0;;;;;;;;;;;;;;8;0;0;;0;0;();();(-2000.0, -2000.0);
07:52:34:129;07:52:34:097;1448046512.04;(0.6467782974243164, 0.6364063686794705);61.9576911926;1.0;;;;;;;;;;;;;;8;0;0;;0;0;();();(-2000.0, -2000.0);
07:52:34:146;07:52:34:097;1448046512.04;(0.6467782974243164, 0.6364063686794705);61.9576911926;1.0;;;;;;;;;;;;;;8;0;0;;0;0;();();(-2000.0, -2000.0);
07:52:34:163;07:52:34:097;1448046512.04;(0.6467782974243164, 0.6364063686794705);61.9576911926;1.0;;;;;;;;;;;;;;8;0;0;;0;0;();();(-2000.0, -2000.0);
07:52:34:196;07:52:34:097;1448046512.04;(0.6467782974243164, 0.6364063686794705);61.9576911926;1.0;;;;;;;;;;;;;;8;0;0;;0;0;();();(-2000.0, -2000.0);
07:52:34:213;07:52:34:097;1448046512.04;(0.6467782974243164, 0.6364063686794705);61.9576911926;1.0;;;;;;;;;;;;;;8;0;0;;0;0;();();(-2000.0, -2000.0);
07:52:34:230;07:52:34:213;1448046512.21;(0.3653634309768677, 0.5589028676350911);36.3709030151;0.655545285831;;;;;;;;;;;;;;8;0;0;;0;0;();();(-2000.0, -2000.0);
07:52:34:246;07:52:34:213;1448046512.21;(0.3653634309768677, 0.5589028676350911);36.3709030151;0.655545285831;;;;;;;;;;;;;;8;0;0;;0;0;();();(-2000.0, -2000.0);
07:52:34:263;07:52:34:213;1448046512.21;(0.3653634309768677, 0.5589028676350911);36.3709030151;0.655545285831;;;;;;;;;;;;;;8;0;0;;0;0;();();(-2000.0, -2000.0);
07:52:34:296;07:52:34:269;1448046512.24;(0, 0);0;0;;;;;;;;;;;;;;8;0;0;;0;0;();();(-2000.0, -2000.0);
07:52:34:313;07:52:34:269;1448046512.24;(0, 0);0;0;;;;;;;;;;;;;;8;0;0;;0;0;();();(-2000.0, -2000.0);
07:52:34:330;07:52:34:269;1448046512.24;(0, 0);0;0;;;;;;;;;;;;;;8;0;0;;0;0;();();(-2000.0, -2000.0);
07:52:34:346;07:52:34:269;1448046512.24;(0, 0);0;0;;;;;;;;;;;;;;8;0;0;;0;0;();();(-2000.0, -2000.0);
07:52:34:363;07:52:34:269;1448046512.24;(0, 0);0;0;;;;;;;;;;;;;;8;0;0;;0;0;();();(-2000.0, -2000.0);
07:52:34:396;07:52:34:385;1448046512.35;(0.8324515342712402, 0.8505645645989313);21.7811546326;0.997603399735;;;;;;;;;;;;;;8;0;0;;0;0;();();(-2000.0, -2000.0);
07:52:34:413;07:52:34:385;1448046512.35;(0.8324515342712402, 0.8505645645989313);21.7811546326;0.997603399735;;;;;;;;;;;;;;8;0;0;;0;0;();();(-2000.0, -2000.0);
07:52:34:430;07:52:34:385;1448046512.35;(0.8324515342712402, 0.8505645645989313);21.7811546326;0.997603399735;;;;;;;;;;;;;;8;0;0;;0;0;();();(-2000.0, -2000.0);
07:52:34:446;07:52:34:385;1448046512.35;(0.8324515342712402, 0.8505645645989313);21.7811546326;0.997603399735;;;;;;;;;;;;;;8;0;0;;0;0;();();(-2000.0, -2000.0);
07:52:34:463;07:52:34:385;1448046512.35;(0.8324515342712402, 0.8505645645989313);21.7811546326;0.997603399735;;;;;;;;;;;;;;8;0;0;;0;0;();();(-2000.0, -2000.0);
07:52:34:496;07:52:34:385;1448046512.35;(0.8324515342712402, 0.8505645645989313);21.7811546326;0.997603399735;;;;;;;;;;;;;;8;0;0;;0;0;();();(-2000.0, -2000.0);
07:52:34:513;07:52:34:385;1448046512.35;(0.8324515342712402, 0.8505645645989313);21.7811546326;0.997603399735;;;;;;;;;;;;;;8;0;0;;0;0;();();(-2000.0, -2000.0);
07:52:34:530;07:52:34:517;1448046512.37;(0.6063296318054199, 0.595443852742513);56.1026153564;1.0;;;;;;;;;;;;;;8;0;0;;0;0;();();(-2000.0, -2000.0);
07:52:34:546;07:52:34:517;1448046512.37;(0.6063296318054199, 0.595443852742513);56.1026153564;1.0;;;;;;;;;;;;;;8;0;0;;0;0;();();(-2000.0, -2000.0);
07:52:34:563;07:52:34:517;1448046512.37;(0.6063296318054199, 0.595443852742513);56.1026153564;1.0;;;;;;;;;;;;;;8;0;0;;0;0;();();(-2000.0, -2000.0);
07:52:34:596;07:52:34:585;1448046512.57;(0.6209480285644531, 0.5950767940945095);56.8742370605;1.0;;;;;;;;;;;;;;8;0;0;;0;0;();();(-2000.0, -2000.0);
07:52:34:613;07:52:34:585;1448046512.57;(0.6209480285644531, 0.5950767940945095);56.8742370605;1.0;;;;;;;;;;;;;;8;0;0;;0;0;();();(-2000.0, -2000.0);
07:52:34:630;07:52:34:585;1448046512.57;(0.6209480285644531, 0.5950767940945095);56.8742370605;1.0;;;;;;;;;;;;;;8;0;0;;0;0;();();(-2000.0, -2000.0);
07:52:34:646;07:52:34:585;1448046512.57;(0.6209480285644531, 0.5950767940945095);56.8742370605;1.0;;;;;;;;;;;;;;8;0;0;;0;0;();();(-2000.0, -2000.0);
07:52:34:663;07:52:34:653;1448046512.64;(0.6186304092407227, 0.5943572574191623);57.8692398071;0.842356547273;;;;;;;;;;;;;;8;0;0;;0;0;();();(-2000.0, -2000.0);
07:52:34:697;07:52:34:653;1448046512.64;(0.6186304092407227, 0.5943572574191623);57.8692398071;0.842356547273;;;;;;;;;;;;;;8;0;0;;0;0;();();(-2000.0, -2000.0);
07:52:34:713;07:52:34:653;1448046512.64;(0.6186304092407227, 0.5943572574191623);57.8692398071;0.842356547273;;;;;;;;;;;;;;8;0;0;;0;0;();();(-2000.0, -2000.0);
07:52:34:730;07:52:34:653;1448046512.64;(0.6186304092407227, 0.5943572574191623);57.8692398071;0.842356547273;;;;;;;;;;;;;;8;0;0;;0;0;();();(-2000.0, -2000.0);
07:52:34:747;07:52:34:653;1448046512.64;(0.6186304092407227, 0.5943572574191623);57.8692398071;0.842356547273;;;;;;;;;;;;;;8;0;0;;0;0;();();(-2000.0, -2000.0);
07:52:34:763;07:52:34:653;1448046512.64;(0.6186304092407227, 0.5943572574191623);57.8692398071;0.842356547273;;;;;;;;;;;;;;8;0;0;;0;0;();();(-2000.0, -2000.0);
07:52:34:797;07:52:34:653;1448046512.64;(0.6186304092407227, 0.5943572574191623);57.8692398071;0.842356547273;;;;;;;;;;;;;;8;0;0;;0;0;();();(-2000.0, -2000.0);
07:52:34:813;07:52:34:653;1448046512.64;(0.6186304092407227, 0.5943572574191623);57.8692398071;0.842356547273;;;;;;;;;;;;;;8;0;0;;0;0;();();(-2000.0, -2000.0);
07:52:34:830;07:52:34:653;1448046512.64;(0.6186304092407227, 0.5943572574191623);57.8692398071;0.842356547273;;;;;;;;;;;;;;8;0;0;;0;0;();();(-2000.0, -2000.0);
07:52:34:847;07:52:34:653;1448046512.64;(0.6186304092407227, 0.5943572574191623);57.8692398071;0.842356547273;;;;;;;;;;;;;;8;0;0;;0;0;();();(-2000.0, -2000.0);
07:52:34:863;07:52:34:849;1448046512.85;(0.5879801273345947, 0.5914941575792101);61.4315986633;1.0;;;;;;;;;;;;;;8;0;0;;0;0;();();(-2000.0, -2000.0);
07:52:34:897;07:52:34:849;1448046512.85;(0.5879801273345947, 0.5914941575792101);61.4315986633;1.0;;;;;;;;;;;;;;8;0;0;;0;0;();();(-2000.0, -2000.0);
07:52:34:913;07:52:34:849;1448046512.85;(0.5879801273345947, 0.5914941575792101);61.4315986633;1.0;;;;;;;;;;;;;;8;0;0;;0;0;();();(-2000.0, -2000.0);
07:52:34:930;07:52:34:917;1448046512.91;(0.3408193826675415, 0.729145516289605);19.1531352997;0.738906637118;;;;;;;;;;;;;;8;0;0;;0;0;();();(-2000.0, -2000.0);
07:52:34:946;07:52:34:917;1448046512.91;(0.3408193826675415, 0.729145516289605);19.1531352997;0.738906637118;;;;;;;;;;;;;;8;0;0;;0;0;();();(-2000.0, -2000.0);
07:52:34:963;07:52:34:917;1448046512.91;(0.3408193826675415, 0.729145516289605);19.1531352997;0.738906637118;;;;;;;;;;;;;;8;0;0;;0;0;();();(-2000.0, -2000.0);
07:52:34:997;07:52:34:917;1448046512.91;(0.3408193826675415, 0.729145516289605);19.1531352997;0.738906637118;;;;;;;;;;;;;;8;0;0;;0;0;();();(-2000.0, -2000.0);
07:52:35:013;07:52:34:917;1448046512.91;(0.3408193826675415, 0.729145516289605);19.1531352997;0.738906637118;;;;;;;;;;;;;;8;0;0;;0;0;();();(-2000.0, -2000.0);
07:52:35:030;07:52:34:917;1448046512.91;(0.3408193826675415, 0.729145516289605);19.1531352997;0.738906637118;;;;;;;;;;;;;;8;0;0;;0;0;();();(-2000.0, -2000.0);
07:52:35:047;07:52:34:917;1448046512.91;(0.3408193826675415, 0.729145516289605);19.1531352997;0.738906637118;;;;;;;;;;;;;;8;0;0;;0;0;();();(-2000.0, -2000.0);
07:52:35:063;07:52:35:049;1448046513.02;(0.6708189964294433, 0.6264690823025174);62.9676246643;0.876665821253;;;;;;;;;;;;;;8;0;0;;0;0;();();(-2000.0, -2000.0);
07:52:35:097;07:52:35:049;1448046513.02;(0.6708189964294433, 0.6264690823025174);62.9676246643;0.876665821253;;;;;;;;;;;;;;8;0;0;;0;0;();();(-2000.0, -2000.0);
07:52:35:113;07:52:35:049;1448046513.02;(0.6708189964294433, 0.6264690823025174);62.9676246643;0.876665821253;;;;;;;;;;;;;;8;0;0;;0;0;();();(-2000.0, -2000.0);
07:52:35:130;07:52:35:117;1448046513.05;(0.6607301235198975, 0.6300430297851562);63.1984176636;1.0;;;;;;;;;;;;;;8;0;0;;0;0;();();(-2000.0, -2000.0);
07:52:35:147;07:52:35:117;1448046513.05;(0.6607301235198975, 0.6300430297851562);63.1984176636;1.0;;;;;;;;;;;;;;8;0;0;;0;0;();();(-2000.0, -2000.0);
07:52:35:164;07:52:35:117;1448046513.05;(0.6607301235198975, 0.6300430297851562);63.1984176636;1.0;;;;;;;;;;;;;;8;0;0;;0;0;();();(-2000.0, -2000.0);
07:52:35:197;07:52:35:117;1448046513.05;(0.6607301235198975, 0.6300430297851562);63.1984176636;1.0;;;;;;;;;;;;;;8;0;0;;0;0;();();(-2000.0, -2000.0);
07:52:35:213;07:52:35:117;1448046513.05;(0.6607301235198975, 0.6300430297851562);63.1984176636;1.0;;;;;;;;;;;;;;8;0;0;;0;0;();();(-2000.0, -2000.0);
07:52:35:230;07:52:35:117;1448046513.05;(0.6607301235198975, 0.6300430297851562);63.1984176636;1.0;;;;;;;;;;;;;;8;0;0;;0;0;();();(-2000.0, -2000.0);
07:52:35:247;07:52:35:117;1448046513.05;(0.6607301235198975, 0.6300430297851562);63.1984176636;1.0;;;;;;;;;;;;;;8;0;0;;0;0;();();(-2000.0, -2000.0);
07:52:35:264;07:52:35:249;1448046513.21;(0.6266212463378906, 0.6496209886338975);62.1123886108;0.991302656182;;;;;;;;;;;;;;8;0;0;;0;0;();();(-2000.0, -2000.0);
07:52:35:297;07:52:35:249;1448046513.21;(0.6266212463378906, 0.6496209886338975);62.1123886108;0.991302656182;;;;;;;;;;;;;;8;0;0;;0;0;();();(-2000.0, -2000.0);
07:52:35:314;07:52:35:313;1448046513.29;(0.6555982112884522, 0.6538820266723633);59.5038795471;1.0;;;;;;;;;;;;;;8;0;0;;0;0;();();(-2000.0, -2000.0);
07:52:35:330;07:52:35:313;1448046513.29;(0.6555982112884522, 0.6538820266723633);59.5038795471;1.0;;;;;;;;;;;;;;8;0;0;;0;0;();();(-2000.0, -2000.0);
07:52:35:347;07:52:35:313;1448046513.29;(0.6555982112884522, 0.6538820266723633);59.5038795471;1.0;;;;;;;;;;;;;;8;0;0;;0;0;();();(-2000.0, -2000.0);
07:52:35:364;07:52:35:313;1448046513.29;(0.6555982112884522, 0.6538820266723633);59.5038795471;1.0;;;;;;;;;;;;;;8;0;0;;0;0;();();(-2000.0, -2000.0);
07:52:35:397;07:52:35:381;1448046513.35;(0.35250072479248046, 0.80144837697347);34.3074836731;0.64994944803;;;;;;;;;;;;;;8;0;0;;0;0;();();(-2000.0, -2000.0);
07:52:35:414;07:52:35:381;1448046513.35;(0.35250072479248046, 0.80144837697347);34.3074836731;0.64994944803;;;;;;;;;;;;;;8;0;0;;0;0;();();(-2000.0, -2000.0);
07:52:35:430;07:52:35:381;1448046513.35;(0.35250072479248046, 0.80144837697347);34.3074836731;0.64994944803;;;;;;;;;;;;;;8;0;0;;0;0;();();(-2000.0, -2000.0);
07:52:35:447;07:52:35:381;1448046513.35;(0.35250072479248046, 0.80144837697347);34.3074836731;0.64994944803;;;;;;;;;;;;;;8;0;0;;0;0;();();(-2000.0, -2000.0);
07:52:35:464;07:52:35:449;1448046513.41;(0.6451723575592041, 0.6638391918606228);58.1016921997;1.0;;;;;;;;;;;;;;8;0;0;;0;0;();();(-2000.0, -2000.0);
07:52:35:497;07:52:35:449;1448046513.41;(0.6451723575592041, 0.6638391918606228);58.1016921997;1.0;;;;;;;;;;;;;;8;0;0;;0;0;();();(-2000.0, -2000.0);
07:52:35:514;07:52:35:513;1448046513.51;(0.6399245738983155, 0.6683250851101346);60.7023429871;0.893100179296;;;;;;;;;;;;;;8;0;0;;0;0;();();(-2000.0, -2000.0);
07:52:35:530;07:52:35:513;1448046513.51;(0.6399245738983155, 0.6683250851101346);60.7023429871;0.893100179296;;;;;;;;;;;;;;8;0;0;;0;0;();();(-2000.0, -2000.0);
07:52:35:547;07:52:35:513;1448046513.51;(0.6399245738983155, 0.6683250851101346);60.7023429871;0.893100179296;;;;;;;;;;;;;;8;0;0;;0;0;();();(-2000.0, -2000.0);
07:52:35:564;07:52:35:513;1448046513.51;(0.6399245738983155, 0.6683250851101346);60.7023429871;0.893100179296;;;;;;;;;;;;;;8;0;0;;0;0;();();(-2000.0, -2000.0);
07:52:35:597;07:52:35:583;1448046513.57;(0.641104793548584, 0.6668910132514105);58.4646034241;1.0;;;;;;;;;;;;;;8;0;0;;0;0;();();(-2000.0, -2000.0);
07:52:35:614;07:52:35:583;1448046513.57;(0.641104793548584, 0.6668910132514105);58.4646034241;1.0;;;;;;;;;;;;;;8;0;0;;0;0;();();(-2000.0, -2000.0);
07:52:35:631;07:52:35:583;1448046513.57;(0.641104793548584, 0.6668910132514105);58.4646034241;1.0;;;;;;;;;;;;;;8;0;0;;0;0;();();(-2000.0, -2000.0);
07:52:35:647;07:52:35:645;1448046513.64;(0.6388393878936768, 0.6688809076944987);58.3734130859;0.930028555953;;;;;;;;;;;;;;8;0;0;;0;0;();();(-2000.0, -2000.0);
07:52:35:664;07:52:35:645;1448046513.64;(0.6388393878936768, 0.6688809076944987);58.3734130859;0.930028555953;;;;;;;;;;;;;;8;0;0;;0;0;();();(-2000.0, -2000.0);
07:52:35:697;07:52:35:645;1448046513.64;(0.6388393878936768, 0.6688809076944987);58.3734130859;0.930028555953;;;;;;;;;;;;;;8;0;0;;0;0;();();(-2000.0, -2000.0);
07:52:35:714;07:52:35:712;1448046513.67;(0.6374650478363038, 0.6698150210910373);58.0204467773;0.836724810385;;;;;;;;;;;;;;8;0;0;;0;0;();();(-2000.0, -2000.0);
07:52:35:731;07:52:35:712;1448046513.67;(0.6374650478363038, 0.6698150210910373);58.0204467773;0.836724810385;;;;;;;;;;;;;;8;0;0;;0;0;();();(-2000.0, -2000.0);
07:52:35:747;07:52:35:712;1448046513.67;(0.6374650478363038, 0.6698150210910373);58.0204467773;0.836724810385;;;;;;;;;;;;;;8;0;0;;0;0;();();(-2000.0, -2000.0);
07:52:35:765;07:52:35:712;1448046513.67;(0.6374650478363038, 0.6698150210910373);58.0204467773;0.836724810385;;;;;;;;;;;;;;10;0;0;;0;0;();();(-2000.0, -2000.0);
07:52:35:797;07:52:35:712;1448046513.67;(0.6374650478363038, 0.6698150210910373);58.0204467773;0.836724810385;;;;;;;;;;;;;;10;0;0;;0;0;();();(-2000.0, -2000.0);
07:52:35:814;07:52:35:712;1448046513.67;(0.6374650478363038, 0.6698150210910373);58.0204467773;0.836724810385;;;;;;;;;;;;;;10;0;0;;0;0;();();(-2000.0, -2000.0);
07:52:35:831;07:52:35:712;1448046513.67;(0.6374650478363038, 0.6698150210910373);58.0204467773;0.836724810385;;;;;;;;;;;;;;10;0;0;;0;0;();();(-2000.0, -2000.0);
07:52:35:847;07:52:35:838;1448046513.71;(0.6353285312652588, 0.6605390124850803);59.8852043152;0.845740540836;;;;;;;;;;;;;;10;0;0;;0;0;();();(-2000.0, -2000.0);
07:52:35:864;07:52:35:838;1448046513.71;(0.6353285312652588, 0.6605390124850803);59.8852043152;0.845740540836;;;;;;;;;;;;;;10;0;0;;0;0;();();(-2000.0, -2000.0);
07:52:35:897;07:52:35:838;1448046513.71;(0.6353285312652588, 0.6605390124850803);59.8852043152;0.845740540836;;;;;;;;;;;;;;10;0;0;;0;0;();();(-2000.0, -2000.0);
07:52:35:914;07:52:35:898;1448046513.91;(0.6293876647949219, 0.6550335778130425);59.4199142456;1.0;;;;;;;;;;;;;;10;0;0;;0;0;();();(-2000.0, -2000.0);
07:52:35:931;07:52:35:898;1448046513.91;(0.6293876647949219, 0.6550335778130425);59.4199142456;1.0;;;;;;;;;;;;;;10;0;0;;0;0;();();(-2000.0, -2000.0);
07:52:35:947;07:52:35:898;1448046513.91;(0.6293876647949219, 0.6550335778130425);59.4199142456;1.0;;;;;;;;;;;;;;10;0;0;;0;0;();();(-2000.0, -2000.0);
07:52:35:964;07:52:35:953;1448046513.94;(0.6291494369506836, 0.6567775090535481);59.8323326111;0.978009515427;;;;;;;;;;;;;;10;0;0;;0;0;();();(-2000.0, -2000.0);
07:52:35:997;07:52:35:953;1448046513.94;(0.6291494369506836, 0.6567775090535481);59.8323326111;0.978009515427;;;;;;;;;;;;;;10;0;0;;0;0;();();(-2000.0, -2000.0);
07:52:36:014;07:52:36:013;1448046514.01;(0.629295825958252, 0.658723407321506);60.4336891174;1.0;;;;;;;;;;;;;;10;0;0;;0;0;();();(-2000.0, -2000.0);
07:52:36:031;07:52:36:013;1448046514.01;(0.629295825958252, 0.658723407321506);60.4336891174;1.0;;;;;;;;;;;;;;10;0;0;;0;0;();();(-2000.0, -2000.0);
07:52:36:047;07:52:36:013;1448046514.01;(0.629295825958252, 0.658723407321506);60.4336891174;1.0;;;;;;;;;;;;;;10;0;0;;0;0;();();(-2000.0, -2000.0);
07:52:36:064;07:52:36:013;1448046514.01;(0.629295825958252, 0.658723407321506);60.4336891174;1.0;;;;;;;;;;;;;;10;0;0;;0;0;();();(-2000.0, -2000.0);
07:52:36:099;07:52:36:070;1448046514.04;(0.6288580894470215, 0.6528704537285699);61.1881484985;1.0;;;;;;;;;;;;;;10;0;0;;0;0;();();(-2000.0, -2000.0);
07:52:36:115;07:52:36:070;1448046514.04;(0.6288580894470215, 0.6528704537285699);61.1881484985;1.0;;;;;;;;;;;;;;10;0;0;;0;0;();();(-2000.0, -2000.0);
07:52:36:132;07:52:36:070;1448046514.04;(0.6288580894470215, 0.6528704537285699);61.1881484985;1.0;;;;;;;;;;;;;;10;0;0;;0;0;();();(-2000.0, -2000.0);
07:52:36:149;07:52:36:133;1448046514.11;(0.6294128894805908, 0.655229017469618);61.5397605896;1.0;;;;;;;;;;;;;;10;0;0;;0;0;();();(-2000.0, -2000.0);
07:52:36:165;07:52:36:133;1448046514.11;(0.6294128894805908, 0.655229017469618);61.5397605896;1.0;;;;;;;;;;;;;;10;0;0;;0;0;();();(-2000.0, -2000.0);
07:52:36:199;07:52:36:186;1448046514.17;(0.6301261901855468, 0.6552615695529513);61.3527412415;1.0;;;;;;;;;;;;;;10;0;0;;0;0;();();(-2000.0, -2000.0);
07:52:36:215;07:52:36:186;1448046514.17;(0.6301261901855468, 0.6552615695529513);61.3527412415;1.0;;;;;;;;;;;;;;10;0;0;;0;0;();();(-2000.0, -2000.0);
07:52:36:232;07:52:36:186;1448046514.17;(0.6301261901855468, 0.6552615695529513);61.3527412415;1.0;;;;;;;;;;;;;;10;0;0;;0;0;();();(-2000.0, -2000.0);
07:52:36:249;07:52:36:246;1448046514.24;(0.6301921844482422, 0.6564443800184462);61.7287368774;1.0;;;;;;;;;;;;;;10;0;0;;0;0;();();(-2000.0, -2000.0);
07:52:36:265;07:52:36:246;1448046514.24;(0.6301921844482422, 0.6564443800184462);61.7287368774;1.0;;;;;;;;;;;;;;10;0;0;;0;0;();();(-2000.0, -2000.0);
07:52:36:299;07:52:36:246;1448046514.24;(0.6301921844482422, 0.6564443800184462);61.7287368774;1.0;;;;;;;;;;;;;;10;0;0;;0;0;();();(-2000.0, -2000.0);
07:52:36:315;07:52:36:302;1448046514.31;(0.630063533782959, 0.6574408849080404);61.5778770447;1.0;;;;;;;;;;;;;;10;0;0;;0;0;();();(-2000.0, -2000.0);
07:52:36:332;07:52:36:302;1448046514.31;(0.630063533782959, 0.6574408849080404);61.5778770447;1.0;;;;;;;;;;;;;;10;0;0;;0;0;();();(-2000.0, -2000.0);
07:52:36:349;07:52:36:302;1448046514.31;(0.630063533782959, 0.6574408849080404);61.5778770447;1.0;;;;;;;;;;;;;;10;0;0;;0;0;();();(-2000.0, -2000.0);
07:52:36:365;07:52:36:362;1448046514.34;(0.6297060012817383, 0.6578379313151042);61.9249382019;1.0;;;;;;;;;;;;;;10;0;0;;0;0;();();(-2000.0, -2000.0);
07:52:36:399;07:52:36:362;1448046514.34;(0.6297060012817383, 0.6578379313151042);61.9249382019;1.0;;;;;;;;;;;;;;10;0;0;;0;0;();();(-2000.0, -2000.0);
07:52:36:415;07:52:36:362;1448046514.34;(0.6297060012817383, 0.6578379313151042);61.9249382019;1.0;;;;;;;;;;;;;;10;0;0;;0;0;();();(-2000.0, -2000.0);
07:52:36:432;07:52:36:418;1448046514.41;(0.6293270111083984, 0.6600757175021701);61.9850234985;1.0;;;;;;;;;;;;;;10;0;0;;0;0;();();(-2000.0, -2000.0);
07:52:36:449;07:52:36:418;1448046514.41;(0.6293270111083984, 0.6600757175021701);61.9850234985;1.0;;;;;;;;;;;;;;10;0;0;;0;0;();();(-2000.0, -2000.0);
07:52:36:465;07:52:36:418;1448046514.41;(0.6293270111083984, 0.6600757175021701);61.9850234985;1.0;;;;;;;;;;;;;;10;0;0;;0;0;();();(-2000.0, -2000.0);
07:52:36:499;07:52:36:478;1448046514.47;(0.6286823272705078, 0.6592538833618165);61.9364776611;0.920429844005;;;;;;;;;;;;;;10;0;0;;0;0;();();(-2000.0, -2000.0);
07:52:36:515;07:52:36:478;1448046514.47;(0.6286823272705078, 0.6592538833618165);61.9364776611;0.920429844005;;;;;;;;;;;;;;10;0;0;;0;0;();();(-2000.0, -2000.0);
07:52:36:532;07:52:36:478;1448046514.47;(0.6286823272705078, 0.6592538833618165);61.9364776611;0.920429844005;;;;;;;;;;;;;;10;0;0;;0;0;();();(-2000.0, -2000.0);
07:52:36:549;07:52:36:533;1448046514.51;(0.6284602642059326, 0.657916365729438);62.388633728;1.0;;;;;;;;;;;;;;10;0;0;;0;0;();();(-2000.0, -2000.0);
07:52:36:565;07:52:36:533;1448046514.51;(0.6284602642059326, 0.657916365729438);62.388633728;1.0;;;;;;;;;;;;;;10;0;0;;0;0;();();(-2000.0, -2000.0);
07:52:36:599;07:52:36:594;1448046514.57;(0.6284522533416748, 0.6565257814195421);62.362663269;1.0;;;;;;;;;;;;;;10;0;0;;0;0;();();(-2000.0, -2000.0);
07:52:36:616;07:52:36:594;1448046514.57;(0.6284522533416748, 0.6565257814195421);62.362663269;1.0;;;;;;;;;;;;;;10;0;0;;0;0;();();(-2000.0, -2000.0);
07:52:36:632;07:52:36:594;1448046514.57;(0.6284522533416748, 0.6565257814195421);62.362663269;1.0;;;;;;;;;;;;;;10;0;0;;0;0;();();(-2000.0, -2000.0);
07:52:36:649;07:52:36:594;1448046514.57;(0.6284522533416748, 0.6565257814195421);62.362663269;1.0;;;;;;;;;;;;;;10;0;0;;0;0;();();(-2000.0, -2000.0);
07:52:36:666;07:52:36:650;1448046514.64;(0.6284471035003663, 0.6571576012505425);61.45570755;1.0;;;;;;;;;;;;;;10;0;0;;0;0;();();(-2000.0, -2000.0);
07:52:36:699;07:52:36:650;1448046514.64;(0.6284471035003663, 0.6571576012505425);61.45570755;1.0;;;;;;;;;;;;;;10;0;0;;0;0;();();(-2000.0, -2000.0);
07:52:36:716;07:52:36:710;1448046514.71;(0.6287916660308838, 0.6582569334242079);61.3480186462;1.0;;;;;;;;;;;;;;10;0;0;;0;0;();();(-2000.0, -2000.0);
07:52:36:733;07:52:36:710;1448046514.71;(0.6287916660308838, 0.6582569334242079);61.3480186462;1.0;;;;;;;;;;;;;;10;0;0;;0;0;();();(-2000.0, -2000.0);
07:52:36:750;07:52:36:710;1448046514.71;(0.6287916660308838, 0.6582569334242079);61.3480186462;1.0;;;;;;;;;;;;;;10;0;0;;0;0;();();(-2000.0, -2000.0);
07:52:36:766;07:52:36:710;1448046514.71;(0.6287916660308838, 0.6582569334242079);61.3480186462;1.0;;;;;;;;;;;;;;10;0;0;;0;0;();();(-2000.0, -2000.0);
07:52:36:799;07:52:36:766;1448046514.74;(0.6291814327239991, 0.6583798090616861);60.6506309509;1.0;;;;;;;;;;;;;;10;0;0;;0;0;();();(-2000.0, -2000.0);
07:52:36:816;07:52:36:766;1448046514.74;(0.6291814327239991, 0.6583798090616861);60.6506309509;1.0;;;;;;;;;;;;;;10;0;0;;0;0;();();(-2000.0, -2000.0);
07:52:36:832;07:52:36:827;1448046514.81;(0.6303195953369141, 0.6573942184448243);60.0991172791;1.0;;;;;;;;;;;;;;10;0;0;;0;0;();();(-2000.0, -2000.0);
07:52:36:849;07:52:36:827;1448046514.81;(0.6303195953369141, 0.6573942184448243);60.0991172791;1.0;;;;;;;;;;;;;;10;0;0;;0;0;();();(-2000.0, -2000.0);
07:52:36:866;07:52:36:827;1448046514.81;(0.6303195953369141, 0.6573942184448243);60.0991172791;1.0;;;;;;;;;;;;;;10;0;0;;0;0;();();(-2000.0, -2000.0);
07:52:36:900;07:52:36:886;1448046514.87;(0.6313995838165283, 0.6573876910739475);59.1779403687;1.0;;;;;;;;;;;;;;10;0;0;;0;0;();();(-2000.0, -2000.0);
07:52:36:916;07:52:36:886;1448046514.87;(0.6313995838165283, 0.6573876910739475);59.1779403687;1.0;;;;;;;;;;;;;;10;0;0;;0;0;();();(-2000.0, -2000.0);
07:52:36:932;07:52:36:886;1448046514.87;(0.6313995838165283, 0.6573876910739475);59.1779403687;1.0;;;;;;;;;;;;;;10;0;0;;0;0;();();(-2000.0, -2000.0);
07:52:36:949;07:52:36:941;1448046514.91;(0, 0);0;0;;;;;;;;;;;;;;10;0;0;;0;0;();();(-2000.0, -2000.0);
07:52:36:966;07:52:36:941;1448046514.91;(0, 0);0;0;;;;;;;;;;;;;;10;0;0;;0;0;();();(-2000.0, -2000.0);
07:52:36:999;07:52:36:941;1448046514.91;(0, 0);0;0;;;;;;;;;;;;;;10;0;0;;0;0;();();(-2000.0, -2000.0);
07:52:37:016;07:52:37:002;1448046514.99;(0.684046459197998, 0.6639564514160157);21.4617214203;0.655757488944;;;;;;;;;;;;;;10;0;0;;0;0;();();(-2000.0, -2000.0);
07:52:37:033;07:52:37:002;1448046514.99;(0.684046459197998, 0.6639564514160157);21.4617214203;0.655757488944;;;;;;;;;;;;;;10;0;0;;0;0;();();(-2000.0, -2000.0);
07:52:37:049;07:52:37:002;1448046514.99;(0.684046459197998, 0.6639564514160157);21.4617214203;0.655757488944;;;;;;;;;;;;;;10;0;0;;0;0;();();(-2000.0, -2000.0);
07:52:37:066;07:52:37:057;1448046515.01;(0.6696723937988281, 0.6061024136013455);19.8638935089;0.672894995076;;;;;;;;;;;;;;10;0;0;;0;0;();();(-2000.0, -2000.0);
07:52:37:099;07:52:37:057;1448046515.01;(0.6696723937988281, 0.6061024136013455);19.8638935089;0.672894995076;;;;;;;;;;;;;;10;0;0;;0;0;();();(-2000.0, -2000.0);
07:52:37:116;07:52:37:057;1448046515.01;(0.6696723937988281, 0.6061024136013455);19.8638935089;0.672894995076;;;;;;;;;;;;;;10;0;0;;0;0;();();(-2000.0, -2000.0);
07:52:37:133;07:52:37:118;1448046515.05;(0.5324691772460938, 0.6935413996378581);23.327539444;0.667061946182;;;;;;;;;;;;;;10;0;0;;0;0;();();(-2000.0, -2000.0);
07:52:37:150;07:52:37:118;1448046515.05;(0.5324691772460938, 0.6935413996378581);23.327539444;0.667061946182;;;;;;;;;;;;;;10;0;0;;0;0;();();(-2000.0, -2000.0);
07:52:37:166;07:52:37:118;1448046515.05;(0.5324691772460938, 0.6935413996378581);23.327539444;0.667061946182;;;;;;;;;;;;;;10;0;0;;0;0;();();(-2000.0, -2000.0);
07:52:37:199;07:52:37:173;1448046515.11;(0.3800816535949707, 0.6294564988878038);33.4767379761;0.693324753636;;;;;;;;;;;;;;10;0;0;;0;0;();();(-2000.0, -2000.0);
07:52:37:216;07:52:37:173;1448046515.11;(0.3800816535949707, 0.6294564988878038);33.4767379761;0.693324753636;;;;;;;;;;;;;;10;0;0;;0;0;();();(-2000.0, -2000.0);
07:52:37:233;07:52:37:173;1448046515.11;(0.3800816535949707, 0.6294564988878038);33.4767379761;0.693324753636;;;;;;;;;;;;;;10;0;0;;0;0;();();(-2000.0, -2000.0);
07:52:37:249;07:52:37:173;1448046515.11;(0.3800816535949707, 0.6294564988878038);33.4767379761;0.693324753636;;;;;;;;;;;;;;10;0;0;;0;0;();();(-2000.0, -2000.0);
07:52:37:266;07:52:37:173;1448046515.11;(0.3800816535949707, 0.6294564988878038);33.4767379761;0.693324753636;;;;;;;;;;;;;;10;0;0;;0;0;();();(-2000.0, -2000.0);
07:52:37:299;07:52:37:290;1448046515.28;(0.5870437622070312, 0.5836580064561632);56.9188156128;0.947908150043;;;;;;;;;;;;;;10;0;0;;0;0;();();(-2000.0, -2000.0);
07:52:37:316;07:52:37:290;1448046515.28;(0.5870437622070312, 0.5836580064561632);56.9188156128;0.947908150043;;;;;;;;;;;;;;10;0;0;;0;0;();();(-2000.0, -2000.0);
07:52:37:333;07:52:37:290;1448046515.28;(0.5870437622070312, 0.5836580064561632);56.9188156128;0.947908150043;;;;;;;;;;;;;;10;0;0;;0;0;();();(-2000.0, -2000.0);
07:52:37:349;07:52:37:290;1448046515.28;(0.5870437622070312, 0.5836580064561632);56.9188156128;0.947908150043;;;;;;;;;;;;;;10;0;0;;0;0;();();(-2000.0, -2000.0);
07:52:37:366;07:52:37:350;1448046515.34;(0.5877298831939697, 0.5804229312472873);56.4852714539;0.860613413071;;;;;;;;;;;;;;10;0;0;;0;0;();();(-2000.0, -2000.0);
07:52:37:399;07:52:37:350;1448046515.34;(0.5877298831939697, 0.5804229312472873);56.4852714539;0.860613413071;;;;;;;;;;;;;;10;0;0;;0;0;();();(-2000.0, -2000.0);
07:52:37:416;07:52:37:350;1448046515.34;(0.5877298831939697, 0.5804229312472873);56.4852714539;0.860613413071;;;;;;;;;;;;;;10;0;0;;0;0;();();(-2000.0, -2000.0);
07:52:37:433;07:52:37:350;1448046515.34;(0.5877298831939697, 0.5804229312472873);56.4852714539;0.860613413071;;;;;;;;;;;;;;10;0;0;;0;0;();();(-2000.0, -2000.0);
07:52:37:450;07:52:37:350;1448046515.34;(0.5877298831939697, 0.5804229312472873);56.4852714539;0.860613413071;;;;;;;;;;;;;;10;0;0;;0;0;();();(-2000.0, -2000.0);
07:52:37:466;07:52:37:350;1448046515.34;(0.5877298831939697, 0.5804229312472873);56.4852714539;0.860613413071;;;;;;;;;;;;;;10;0;0;;0;0;();();(-2000.0, -2000.0);
07:52:37:500;07:52:37:350;1448046515.34;(0.5877298831939697, 0.5804229312472873);56.4852714539;0.860613413071;;;;;;;;;;;;;;10;0;0;;0;0;();();(-2000.0, -2000.0);
07:52:37:516;07:52:37:350;1448046515.34;(0.5877298831939697, 0.5804229312472873);56.4852714539;0.860613413071;;;;;;;;;;;;;;10;0;0;;0;0;();();(-2000.0, -2000.0);
