%Timestamp,timestamp_write;timestamp_gotpupil;eyetrackertime;norm_pos;diameter;confidence;nplanes;lastaction;lastactiondetails;lastactionairplanenumber;positivescore;negativescore;collidedairplanenumbers;targetpositions;collision_point
04:26:49:018;04:26:48:999;1448034167.03;(0.6177608966827393, 0.7020483652750651);70.2448501587;1.0;0;0;0;;0;0;();();(0.0, 0.0);
04:26:49:020;04:26:48:999;1448034167.03;(0.6177608966827393, 0.7020483652750651);70.2448501587;1.0;0;0;0;;0;0;();();(-2000.0, -2000.0);
04:26:49:020;04:26:48:999;1448034167.03;(0.6177608966827393, 0.7020483652750651);70.2448501587;1.0;0;0;0;;0;0;();();(-2000.0, -2000.0);
04:26:49:020;04:26:48:999;1448034167.03;(0.6177608966827393, 0.7020483652750651);70.2448501587;1.0;0;0;0;;0;0;();();(-2000.0, -2000.0);
04:26:49:020;04:26:48:999;1448034167.03;(0.6177608966827393, 0.7020483652750651);70.2448501587;1.0;0;0;0;;0;0;();();(-2000.0, -2000.0);
04:26:49:020;04:26:48:999;1448034167.03;(0.6177608966827393, 0.7020483652750651);70.2448501587;1.0;0;0;0;;0;0;();();(-2000.0, -2000.0);
04:26:49:021;04:26:48:999;1448034167.03;(0.6177608966827393, 0.7020483652750651);70.2448501587;1.0;0;0;0;;0;0;();();(-2000.0, -2000.0);
04:26:49:021;04:26:48:999;1448034167.03;(0.6177608966827393, 0.7020483652750651);70.2448501587;1.0;0;0;0;;0;0;();();(-2000.0, -2000.0);
04:26:49:021;04:26:48:999;1448034167.03;(0.6177608966827393, 0.7020483652750651);70.2448501587;1.0;0;0;0;;0;0;();();(-2000.0, -2000.0);
04:26:49:021;04:26:48:999;1448034167.03;(0.6177608966827393, 0.7020483652750651);70.2448501587;1.0;0;0;0;;0;0;();();(-2000.0, -2000.0);
04:26:49:021;04:26:49:021;1448034167.06;(0.6179580688476562, 0.7024829864501954);70.6114730835;1.0;0;0;0;;0;0;();();(-2000.0, -2000.0);
04:26:49:021;04:26:49:021;1448034167.06;(0.6179580688476562, 0.7024829864501954);70.6114730835;1.0;0;0;0;;0;0;();();(-2000.0, -2000.0);
04:26:49:021;04:26:49:021;1448034167.06;(0.6179580688476562, 0.7024829864501954);70.6114730835;1.0;0;0;0;;0;0;();();(-2000.0, -2000.0);
04:26:49:021;04:26:49:021;1448034167.06;(0.6179580688476562, 0.7024829864501954);70.6114730835;1.0;0;0;0;;0;0;();();(-2000.0, -2000.0);
04:26:49:021;04:26:49:021;1448034167.06;(0.6179580688476562, 0.7024829864501954);70.6114730835;1.0;0;0;0;;0;0;();();(-2000.0, -2000.0);
04:26:49:022;04:26:49:021;1448034167.06;(0.6179580688476562, 0.7024829864501954);70.6114730835;1.0;0;0;0;;0;0;();();(-2000.0, -2000.0);
04:26:49:046;04:26:49:021;1448034167.06;(0.6179580688476562, 0.7024829864501954);70.6114730835;1.0;0;0;0;;0;0;();();(-2000.0, -2000.0);
04:26:49:047;04:26:49:021;1448034167.06;(0.6179580688476562, 0.7024829864501954);70.6114730835;1.0;0;0;0;;0;0;();();(-2000.0, -2000.0);
04:26:49:080;04:26:49:053;1448034167.13;(0.6183177947998046, 0.7024536344740127);70.8432312012;1.0;0;0;0;;0;0;();();(-2000.0, -2000.0);
04:26:49:096;04:26:49:095;1448034167.16;(0.6183589935302735, 0.7022269990709094);70.6649398804;1.0;0;0;0;;0;0;();();(-2000.0, -2000.0);
04:26:49:112;04:26:49:095;1448034167.16;(0.6183589935302735, 0.7022269990709094);70.6649398804;1.0;0;0;0;;0;0;();();(-2000.0, -2000.0);
04:26:49:129;04:26:49:122;1448034167.19;(0.6182300567626953, 0.7026180055406359);70.3293609619;1.0;0;0;0;;0;0;();();(-2000.0, -2000.0);
04:26:49:145;04:26:49:122;1448034167.19;(0.6182300567626953, 0.7026180055406359);70.3293609619;1.0;0;0;0;;0;0;();();(-2000.0, -2000.0);
04:26:49:179;04:26:49:157;1448034167.23;(0.6183679580688477, 0.7030396143595378);70.5096054077;1.0;0;0;0;;0;0;();();(-2000.0, -2000.0);
04:26:49:195;04:26:49:194;1448034167.26;(0.6183632373809814, 0.703169420030382);70.4512252808;1.0;0;0;0;;0;0;();();(-2000.0, -2000.0);
04:26:49:212;04:26:49:194;1448034167.26;(0.6183632373809814, 0.703169420030382);70.4512252808;1.0;0;0;0;;0;0;();();(-2000.0, -2000.0);
04:26:49:229;04:26:49:221;1448034167.29;(0.6180914402008056, 0.7038360595703125);70.7674331665;1.0;0;0;0;;0;0;();();(-2000.0, -2000.0);
04:26:49:246;04:26:49:221;1448034167.29;(0.6180914402008056, 0.7038360595703125);70.7674331665;1.0;0;0;0;;0;0;();();(-2000.0, -2000.0);
04:26:49:278;04:26:49:259;1448034167.33;(0.6185348033905029, 0.7039567311604817);70.8670578003;1.0;0;0;0;;0;0;();();(-2000.0, -2000.0);
04:26:49:295;04:26:49:288;1448034167.36;(0.6182332515716553, 0.7033122804429797);70.7887649536;1.0;0;0;0;;0;0;();();(-2000.0, -2000.0);
04:26:49:311;04:26:49:288;1448034167.36;(0.6182332515716553, 0.7033122804429797);70.7887649536;1.0;0;0;0;;0;0;();();(-2000.0, -2000.0);
04:26:49:328;04:26:49:323;1448034167.39;(0.6180376052856446, 0.7034396489461263);71.1946563721;1.0;0;0;0;;0;0;();();(-2000.0, -2000.0);
04:26:49:345;04:26:49:323;1448034167.39;(0.6180376052856446, 0.7034396489461263);71.1946563721;1.0;0;0;0;;0;0;();();(-2000.0, -2000.0);
04:26:49:378;04:26:49:323;1448034167.39;(0.6180376052856446, 0.7034396489461263);71.1946563721;1.0;0;0;0;;0;0;();();(-2000.0, -2000.0);
04:26:49:394;04:26:49:323;1448034167.39;(0.6180376052856446, 0.7034396489461263);71.1946563721;1.0;0;0;0;;0;0;();();(-2000.0, -2000.0);
04:26:49:411;04:26:49:323;1448034167.39;(0.6180376052856446, 0.7034396489461263);71.1946563721;1.0;0;0;0;;0;0;();();(-2000.0, -2000.0);
04:26:49:427;04:26:49:425;1448034167.48;(0.6392762184143066, 0.6583518981933594);70.8109741211;0.958128845429;0;0;0;;0;0;();();(-2000.0, -2000.0);
04:26:49:445;04:26:49:425;1448034167.48;(0.6392762184143066, 0.6583518981933594);70.8109741211;0.958128845429;0;0;0;;0;0;();();(-2000.0, -2000.0);
04:26:49:477;04:26:49:457;1448034167.53;(0.6391390800476074, 0.6601165771484375);70.5060043335;1.0;0;0;0;;0;0;();();(-2000.0, -2000.0);
04:26:49:494;04:26:49:489;1448034167.56;(0.6390640258789062, 0.6607500500149197);70.7198181152;1.0;0;0;0;;0;0;();();(-2000.0, -2000.0);
04:26:49:510;04:26:49:489;1448034167.56;(0.6390640258789062, 0.6607500500149197);70.7198181152;1.0;0;0;0;;0;0;();();(-2000.0, -2000.0);
04:26:49:527;04:26:49:525;1448034167.59;(0.6390450477600098, 0.6615141126844618);70.6650924683;1.0;0;0;0;;0;0;();();(-2000.0, -2000.0);
04:26:49:559;04:26:49:525;1448034167.59;(0.6390450477600098, 0.6615141126844618);70.6650924683;1.0;0;0;0;;0;0;();();(-2000.0, -2000.0);
04:26:49:576;04:26:49:525;1448034167.59;(0.6390450477600098, 0.6615141126844618);70.6650924683;1.0;0;0;0;;0;0;();();(-2000.0, -2000.0);
04:26:49:592;04:26:49:525;1448034167.59;(0.6390450477600098, 0.6615141126844618);70.6650924683;1.0;0;0;0;;0;0;();();(-2000.0, -2000.0);
04:26:49:609;04:26:49:525;1448034167.59;(0.6390450477600098, 0.6615141126844618);70.6650924683;1.0;0;0;0;;0;0;();();(-2000.0, -2000.0);
04:26:49:625;04:26:49:525;1448034167.59;(0.6390450477600098, 0.6615141126844618);70.6650924683;1.0;0;0;0;;0;0;();();(-2000.0, -2000.0);
04:26:49:659;04:26:49:656;1448034167.66;(0.6517354488372803, 0.6497141096327039);74.383140564;0.818103877222;0;0;0;;0;0;();();(-2000.0, -2000.0);
04:26:49:675;04:26:49:656;1448034167.66;(0.6517354488372803, 0.6497141096327039);74.383140564;0.818103877222;0;0;0;;0;0;();();(-2000.0, -2000.0);
04:26:49:692;04:26:49:689;1448034167.73;(0.660633897781372, 0.6411802079942491);69.9906539917;1.0;0;0;0;;0;0;();();(-2000.0, -2000.0);
04:26:49:709;04:26:49:689;1448034167.73;(0.660633897781372, 0.6411802079942491);69.9906539917;1.0;0;0;0;;0;0;();();(-2000.0, -2000.0);
04:26:49:725;04:26:49:725;1448034167.79;(0.6604166507720948, 0.6425524181789822);70.1499786377;1.0;0;0;0;;0;0;();();(-2000.0, -2000.0);
04:26:49:758;04:26:49:756;1448034167.83;(0.6600080966949463, 0.6432201597425673);70.0228652954;1.0;0;0;0;;0;0;();();(-2000.0, -2000.0);
04:26:49:775;04:26:49:756;1448034167.83;(0.6600080966949463, 0.6432201597425673);70.0228652954;1.0;0;0;0;;0;0;();();(-2000.0, -2000.0);
04:26:49:792;04:26:49:756;1448034167.83;(0.6600080966949463, 0.6432201597425673);70.0228652954;1.0;0;0;0;;0;0;();();(-2000.0, -2000.0);
04:26:49:809;04:26:49:792;1448034167.86;(0.6598587512969971, 0.6443806542290582);70.1253356934;1.0;0;0;0;;0;0;();();(-2000.0, -2000.0);
04:26:49:824;04:26:49:824;1448034167.89;(0.6593283176422119, 0.6450002670288086);70.3600769043;1.0;0;0;0;;0;0;();();(-2000.0, -2000.0);
04:26:49:858;04:26:49:857;1448034167.93;(0.6590751647949219, 0.6453480614556206);70.422088623;1.0;0;0;0;;0;0;();();(-2000.0, -2000.0);
04:26:49:874;04:26:49:857;1448034167.93;(0.6590751647949219, 0.6453480614556206);70.422088623;1.0;0;0;0;;0;0;();();(-2000.0, -2000.0);
04:26:49:891;04:26:49:857;1448034167.93;(0.6590751647949219, 0.6453480614556206);70.422088623;1.0;0;0;0;;0;0;();();(-2000.0, -2000.0);
04:26:49:907;04:26:49:892;1448034167.96;(0.658911657333374, 0.645458878411187);70.4241943359;1.0;0;0;0;;0;0;();();(-2000.0, -2000.0);
04:26:49:941;04:26:49:924;1448034167.99;(0.6589131355285645, 0.6459977679782444);70.7514877319;1.0;0;0;0;;0;0;();();(-2000.0, -2000.0);
04:26:49:957;04:26:49:957;1448034168.03;(0.6585351467132569, 0.6462018542819553);70.8750534058;1.0;0;0;0;;0;0;();();(-2000.0, -2000.0);
04:26:49:974;04:26:49:957;1448034168.03;(0.6585351467132569, 0.6462018542819553);70.8750534058;1.0;0;0;0;;0;0;();();(-2000.0, -2000.0);
04:26:49:991;04:26:49:957;1448034168.03;(0.6585351467132569, 0.6462018542819553);70.8750534058;1.0;0;0;0;;0;0;();();(-2000.0, -2000.0);
04:26:50:007;04:26:49:957;1448034168.03;(0.6585351467132569, 0.6462018542819553);70.8750534058;1.0;0;0;0;;0;0;();();(-2000.0, -2000.0);
04:26:50:041;04:26:50:025;1448034168.06;(0.6557838916778564, 0.6434927410549588);70.4689407349;0.968481583932;0;0;0;;0;0;();();(-2000.0, -2000.0);
04:26:50:057;04:26:50:025;1448034168.06;(0.6557838916778564, 0.6434927410549588);70.4689407349;0.968481583932;0;0;0;;0;0;();();(-2000.0, -2000.0);
04:26:50:073;04:26:50:061;1448034168.09;(0.7162773609161377, 0.4165843963623047);18.3437099457;0.714379090487;0;0;0;;0;0;();();(-2000.0, -2000.0);
04:26:50:090;04:26:50:061;1448034168.09;(0.7162773609161377, 0.4165843963623047);18.3437099457;0.714379090487;0;0;0;;0;0;();();(-2000.0, -2000.0);
04:26:50:106;04:26:50:092;1448034168.13;(0.3662744998931885, 0.578202395968967);33.8544883728;0.887768915563;0;0;0;;0;0;();();(-2000.0, -2000.0);
04:26:50:139;04:26:50:124;1448034168.18;(0, 0);0;0;0;0;0;;0;0;();();(-2000.0, -2000.0);
04:26:50:156;04:26:50:124;1448034168.18;(0, 0);0;0;0;0;0;;0;0;();();(-2000.0, -2000.0);
04:26:50:172;04:26:50:124;1448034168.18;(0, 0);0;0;0;0;0;;0;0;();();(-2000.0, -2000.0);
04:26:50:189;04:26:50:124;1448034168.18;(0, 0);0;0;0;0;0;;0;0;();();(-2000.0, -2000.0);
04:26:50:206;04:26:50:124;1448034168.18;(0, 0);0;0;0;0;0;;0;0;();();(-2000.0, -2000.0);
04:26:50:239;04:26:50:224;1448034168.27;(0, 0);0;0;0;0;0;;0;0;();();(-2000.0, -2000.0);
04:26:50:256;04:26:50:224;1448034168.27;(0, 0);0;0;0;0;0;;0;0;();();(-2000.0, -2000.0);
04:26:50:272;04:26:50:261;1448034168.29;(0.614531421661377, 0.6972545835706923);72.7097625732;0.924210184886;0;0;0;;0;0;();();(-2000.0, -2000.0);
04:26:50:289;04:26:50:261;1448034168.29;(0.614531421661377, 0.6972545835706923);72.7097625732;0.924210184886;0;0;0;;0;0;();();(-2000.0, -2000.0);
04:26:50:306;04:26:50:293;1448034168.36;(0.6148562908172608, 0.6981423695882161);72.4639892578;1.0;0;0;0;;0;0;();();(-2000.0, -2000.0);
04:26:50:339;04:26:50:324;1448034168.39;(0.6152292728424072, 0.6992157406277126);72.3376541138;1.0;0;0;0;;0;0;();();(-2000.0, -2000.0);
04:26:50:355;04:26:50:324;1448034168.39;(0.6152292728424072, 0.6992157406277126);72.3376541138;1.0;0;0;0;;0;0;();();(-2000.0, -2000.0);
04:26:50:372;04:26:50:360;1448034168.43;(0.6155610084533691, 0.6992897881401909);72.2285232544;1.0;0;0;0;;0;0;();();(-2000.0, -2000.0);
04:26:50:388;04:26:50:360;1448034168.43;(0.6155610084533691, 0.6992897881401909);72.2285232544;1.0;0;0;0;;0;0;();();(-2000.0, -2000.0);
04:26:50:405;04:26:50:393;1448034168.46;(0.6157611846923828, 0.6994725545247396);72.3231811523;1.0;0;0;0;;0;0;();();(-2000.0, -2000.0);
04:26:50:438;04:26:50:429;1448034168.49;(0.615706491470337, 0.7003216213650174);71.8362808228;1.0;0;0;0;;0;0;();();(-2000.0, -2000.0);
04:26:50:454;04:26:50:429;1448034168.49;(0.615706491470337, 0.7003216213650174);71.8362808228;1.0;0;0;0;;0;0;();();(-2000.0, -2000.0);
04:26:50:471;04:26:50:460;1448034168.53;(0.6157395839691162, 0.7004754808213975);71.6282730103;1.0;0;0;0;;0;0;();();(-2000.0, -2000.0);
04:26:50:487;04:26:50:460;1448034168.53;(0.6157395839691162, 0.7004754808213975);71.6282730103;1.0;0;0;0;;0;0;();();(-2000.0, -2000.0);
04:26:50:521;04:26:50:493;1448034168.56;(0.6157102108001709, 0.7006410810682508);70.9707794189;1.0;0;0;0;;0;0;();();(-2000.0, -2000.0);
04:26:50:536;04:26:50:529;1448034168.59;(0.6158563137054444, 0.7009294086032444);70.9403381348;1.0;0;0;0;;0;0;();();(-2000.0, -2000.0);
04:26:50:554;04:26:50:529;1448034168.59;(0.6158563137054444, 0.7009294086032444);70.9403381348;1.0;0;0;0;;0;0;();();(-2000.0, -2000.0);
04:26:50:570;04:26:50:560;1448034168.63;(0.3460252046585083, 0.8409914122687445);39.7602844238;0.603045209544;0;0;0;;0;0;();();(-2000.0, -2000.0);
04:26:50:587;04:26:50:560;1448034168.63;(0.3460252046585083, 0.8409914122687445);39.7602844238;0.603045209544;0;0;0;;0;0;();();(-2000.0, -2000.0);
04:26:50:620;04:26:50:560;1448034168.63;(0.3460252046585083, 0.8409914122687445);39.7602844238;0.603045209544;0;0;0;;0;0;();();(-2000.0, -2000.0);
04:26:50:637;04:26:50:560;1448034168.63;(0.3460252046585083, 0.8409914122687445);39.7602844238;0.603045209544;0;0;0;;0;0;();();(-2000.0, -2000.0);
04:26:50:653;04:26:50:560;1448034168.63;(0.3460252046585083, 0.8409914122687445);39.7602844238;0.603045209544;0;0;0;;0;0;();();(-2000.0, -2000.0);
04:26:50:670;04:26:50:560;1448034168.63;(0.3460252046585083, 0.8409914122687445);39.7602844238;0.603045209544;0;0;0;;0;0;();();(-2000.0, -2000.0);
04:26:50:686;04:26:50:560;1448034168.63;(0.3460252046585083, 0.8409914122687445);39.7602844238;0.603045209544;0;0;0;;0;0;();();(-2000.0, -2000.0);
04:26:50:720;04:26:50:697;1448034168.66;(0.6119744300842285, 0.7087972429063585);71.2717971802;0.953804098782;0;0;0;;0;0;();();(-2000.0, -2000.0);
04:26:50:735;04:26:50:729;1448034168.79;(0.6126544952392579, 0.7078435262044271);70.8152542114;1.0;0;0;0;;0;0;();();(-2000.0, -2000.0);
04:26:50:752;04:26:50:729;1448034168.79;(0.6126544952392579, 0.7078435262044271);70.8152542114;1.0;0;0;0;;0;0;();();(-2000.0, -2000.0);
04:26:50:769;04:26:50:762;1448034168.83;(0.6127529621124268, 0.7074683083428277);71.4474182129;1.0;0;0;0;;0;0;();();(-2000.0, -2000.0);
04:26:50:786;04:26:50:762;1448034168.83;(0.6127529621124268, 0.7074683083428277);71.4474182129;1.0;0;0;0;;0;0;();();(-2000.0, -2000.0);
04:26:50:819;04:26:50:797;1448034168.86;(0.6130228042602539, 0.7075447082519531);70.9820861816;1.0;0;0;0;;0;0;();();(-2000.0, -2000.0);
04:26:50:835;04:26:50:828;1448034168.89;(0.613077974319458, 0.7080560260348849);71.172164917;1.0;0;0;0;;0;0;();();(-2000.0, -2000.0);
04:26:50:852;04:26:50:828;1448034168.89;(0.613077974319458, 0.7080560260348849);71.172164917;1.0;0;0;0;;0;0;();();(-2000.0, -2000.0);
04:26:50:869;04:26:50:861;1448034168.93;(0.6129801750183106, 0.7077577802870009);71.3901138306;1.0;0;0;0;;0;0;();();(-2000.0, -2000.0);
04:26:50:885;04:26:50:861;1448034168.93;(0.6129801750183106, 0.7077577802870009);71.3901138306;1.0;0;0;0;;0;0;();();(-2000.0, -2000.0);
04:26:50:919;04:26:50:897;1448034168.96;(0.612880802154541, 0.7074974483913845);71.6537857056;1.0;0;0;0;;0;0;();();(-2000.0, -2000.0);
04:26:50:934;04:26:50:897;1448034168.96;(0.612880802154541, 0.7074974483913845);71.6537857056;1.0;0;0;0;;0;0;();();(-2000.0, -2000.0);
04:26:50:952;04:26:50:897;1448034168.96;(0.612880802154541, 0.7074974483913845);71.6537857056;1.0;0;0;0;;0;0;();();(-2000.0, -2000.0);
04:26:50:968;04:26:50:961;1448034169.03;(0.6119184494018555, 0.7087494532267253);71.3577957153;1.0;0;0;0;;0;0;();();(-2000.0, -2000.0);
04:26:50:984;04:26:50:961;1448034169.03;(0.6119184494018555, 0.7087494532267253);71.3577957153;1.0;0;0;0;;0;0;();();(-2000.0, -2000.0);
04:26:51:018;04:26:50:997;1448034169.06;(0.612044382095337, 0.70848511589898);71.8868026733;1.0;0;0;0;;0;0;();();(-2000.0, -2000.0);
04:26:51:035;04:26:50:997;1448034169.06;(0.612044382095337, 0.70848511589898);71.8868026733;1.0;0;0;0;;0;0;();();(-2000.0, -2000.0);
04:26:51:051;04:26:50:997;1448034169.06;(0.612044382095337, 0.70848511589898);71.8868026733;1.0;0;0;0;;0;0;();();(-2000.0, -2000.0);
04:26:51:067;04:26:51:064;1448034169.13;(0.612057876586914, 0.7088478088378907);71.9344711304;1.0;0;0;0;;0;0;();();(-2000.0, -2000.0);
04:26:51:101;04:26:51:096;1448034169.16;(0.6122401714324951, 0.7090424643622504);71.9784851074;1.0;0;0;0;;0;0;();();(-2000.0, -2000.0);
04:26:51:117;04:26:51:096;1448034169.16;(0.6122401714324951, 0.7090424643622504);71.9784851074;1.0;0;0;0;;0;0;();();(-2000.0, -2000.0);
04:26:51:134;04:26:51:129;1448034169.19;(0.6125576019287109, 0.7084326426188151);71.6259460449;1.0;0;0;0;;0;0;();();(-2000.0, -2000.0);
04:26:51:151;04:26:51:129;1448034169.19;(0.6125576019287109, 0.7084326426188151);71.6259460449;1.0;0;0;0;;0;0;();();(-2000.0, -2000.0);
04:26:51:167;04:26:51:165;1448034169.23;(0.612520170211792, 0.7086475160386827);71.705619812;1.0;0;0;0;;0;0;();();(-2000.0, -2000.0);
04:26:51:200;04:26:51:198;1448034169.26;(0.6125346660614014, 0.7089257770114474);71.7212142944;1.0;0;0;0;;0;0;();();(-2000.0, -2000.0);
04:26:51:216;04:26:51:198;1448034169.26;(0.6125346660614014, 0.7089257770114474);71.7212142944;1.0;0;0;0;;0;0;();();(-2000.0, -2000.0);
04:26:51:234;04:26:51:231;1448034169.29;(0.6130716800689697, 0.7079244401719835);72.213760376;1.0;0;0;0;;0;0;();();(-2000.0, -2000.0);
04:26:51:249;04:26:51:231;1448034169.29;(0.6130716800689697, 0.7079244401719835);72.213760376;1.0;0;0;0;;0;0;();();(-2000.0, -2000.0);
04:26:51:266;04:26:51:264;1448034169.33;(0.6133883476257325, 0.7077169630262587);71.6035842896;1.0;0;0;0;;0;0;();();(-2000.0, -2000.0);
04:26:51:300;04:26:51:297;1448034169.36;(0.6134872913360596, 0.7079439798990885);71.7926864624;1.0;0;0;0;;0;0;();();(-2000.0, -2000.0);
04:26:51:316;04:26:51:297;1448034169.36;(0.6134872913360596, 0.7079439798990885);71.7926864624;1.0;0;0;0;;0;0;();();(-2000.0, -2000.0);
04:26:51:332;04:26:51:297;1448034169.36;(0.6134872913360596, 0.7079439798990885);71.7926864624;1.0;0;0;0;;0;0;();();(-2000.0, -2000.0);
04:26:51:349;04:26:51:332;1448034169.39;(0.6136467456817627, 0.7076599333021376);71.4317932129;1.0;0;0;0;;0;0;();();(-2000.0, -2000.0);
04:26:51:366;04:26:51:365;1448034169.43;(0.6136703491210938, 0.7079818301730686);71.4333572388;1.0;0;0;0;;0;0;();();(-2000.0, -2000.0);
04:26:51:398;04:26:51:396;1448034169.46;(0.613844919204712, 0.7079546398586697);71.8991851807;1.0;0;0;0;;0;0;();();(-2000.0, -2000.0);
04:26:51:415;04:26:51:396;1448034169.46;(0.613844919204712, 0.7079546398586697);71.8991851807;1.0;0;0;0;;0;0;();();(-2000.0, -2000.0);
04:26:51:432;04:26:51:396;1448034169.46;(0.613844919204712, 0.7079546398586697);71.8991851807;1.0;0;0;0;;0;0;();();(-2000.0, -2000.0);
04:26:51:448;04:26:51:432;1448034169.49;(0.6139231204986573, 0.7075301276312934);71.3881149292;1.0;0;0;0;;0;0;();();(-2000.0, -2000.0);
04:26:51:465;04:26:51:465;1448034169.53;(0.6141296863555908, 0.7076391008165148);71.5600738525;1.0;0;0;0;;0;0;();();(-2000.0, -2000.0);
04:26:51:498;04:26:51:497;1448034169.56;(0.614229393005371, 0.7077327516343859);71.2479858398;1.0;0;0;0;;0;0;();();(-2000.0, -2000.0);
04:26:51:515;04:26:51:497;1448034169.56;(0.614229393005371, 0.7077327516343859);71.2479858398;1.0;0;0;0;;0;0;();();(-2000.0, -2000.0);
04:26:51:531;04:26:51:497;1448034169.56;(0.614229393005371, 0.7077327516343859);71.2479858398;1.0;0;0;0;;0;0;();();(-2000.0, -2000.0);
04:26:51:548;04:26:51:532;1448034169.59;(0.6140200138092041, 0.7077791849772135);71.3075180054;1.0;0;0;0;;0;0;();();(-2000.0, -2000.0);
04:26:51:565;04:26:51:532;1448034169.59;(0.6140200138092041, 0.7077791849772135);71.3075180054;1.0;0;0;0;;0;0;();();(-2000.0, -2000.0);
04:26:51:597;04:26:51:597;1448034169.66;(0.6142675876617432, 0.7079369439019096);71.7289352417;1.0;0;0;0;;0;0;();();(-2000.0, -2000.0);
04:26:51:614;04:26:51:597;1448034169.66;(0.6142675876617432, 0.7079369439019096);71.7289352417;1.0;0;0;0;;0;0;();();(-2000.0, -2000.0);
04:26:51:631;04:26:51:597;1448034169.66;(0.6142675876617432, 0.7079369439019096);71.7289352417;1.0;0;0;0;;0;0;();();(-2000.0, -2000.0);
04:26:51:647;04:26:51:633;1448034169.69;(0.6142829895019531, 0.7077090369330512);72.2150115967;1.0;0;0;0;;0;0;();();(-2000.0, -2000.0);
04:26:51:680;04:26:51:665;1448034169.73;(0.6141255855560303, 0.7075349383884006);72.1263809204;1.0;0;0;0;;0;0;();();(-2000.0, -2000.0);
04:26:51:697;04:26:51:665;1448034169.73;(0.6141255855560303, 0.7075349383884006);72.1263809204;1.0;0;0;0;;0;0;();();(-2000.0, -2000.0);
04:26:51:714;04:26:51:701;1448034169.76;(0.6140891551971436, 0.7076672871907552);72.0745239258;1.0;0;0;0;;0;0;();();(-2000.0, -2000.0);
04:26:51:730;04:26:51:701;1448034169.76;(0.6140891551971436, 0.7076672871907552);72.0745239258;1.0;0;0;0;;0;0;();();(-2000.0, -2000.0);
04:26:51:746;04:26:51:735;1448034169.79;(0.6141033172607422, 0.7074392318725586);72.0544586182;1.0;0;0;0;;0;0;();();(-2000.0, -2000.0);
04:26:51:779;04:26:51:764;1448034169.83;(0.6142460823059082, 0.707384745279948);72.3244628906;1.0;0;0;0;;0;0;();();(-2000.0, -2000.0);
04:26:51:796;04:26:51:764;1448034169.83;(0.6142460823059082, 0.707384745279948);72.3244628906;1.0;0;0;0;;0;0;();();(-2000.0, -2000.0);
04:26:51:813;04:26:51:804;1448034169.86;(0.6145803451538085, 0.7070938110351562);72.454826355;1.0;0;0;0;;0;0;();();(-2000.0, -2000.0);
04:26:51:829;04:26:51:804;1448034169.86;(0.6145803451538085, 0.7070938110351562);72.454826355;1.0;0;0;0;;0;0;();();(-2000.0, -2000.0);
04:26:51:846;04:26:51:833;1448034169.89;(0.6143815517425537, 0.7075107150607639);72.3671646118;1.0;0;0;0;;0;0;();();(-2000.0, -2000.0);
04:26:51:879;04:26:51:864;1448034169.93;(0.6145148277282715, 0.7068012237548829);72.522895813;1.0;0;0;0;;0;0;();();(-2000.0, -2000.0);
04:26:51:896;04:26:51:864;1448034169.93;(0.6145148277282715, 0.7068012237548829);72.522895813;1.0;0;0;0;;0;0;();();(-2000.0, -2000.0);
04:26:51:912;04:26:51:864;1448034169.93;(0.6145148277282715, 0.7068012237548829);72.522895813;1.0;0;0;0;;0;0;();();(-2000.0, -2000.0);
04:26:51:929;04:26:51:864;1448034169.93;(0.6145148277282715, 0.7068012237548829);72.522895813;1.0;0;0;0;;0;0;();();(-2000.0, -2000.0);
04:26:51:946;04:26:51:864;1448034169.93;(0.6145148277282715, 0.7068012237548829);72.522895813;1.0;0;0;0;;0;0;();();(-2000.0, -2000.0);
04:26:51:978;04:26:51:864;1448034169.93;(0.6145148277282715, 0.7068012237548829);72.522895813;1.0;0;0;0;;0;0;();();(-2000.0, -2000.0);
04:26:51:995;04:26:51:864;1448034169.93;(0.6145148277282715, 0.7068012237548829);72.522895813;1.0;0;0;0;;0;0;();();(-2000.0, -2000.0);
04:26:52:012;04:26:52:000;1448034169.96;(0.6038145542144775, 0.6877846188015408);73.3883895874;0.948130150274;0;0;0;;0;0;();();(-2000.0, -2000.0);
04:26:52:028;04:26:52:000;1448034169.96;(0.6038145542144775, 0.6877846188015408);73.3883895874;0.948130150274;0;0;0;;0;0;();();(-2000.0, -2000.0);
04:26:52:045;04:26:52:000;1448034169.96;(0.6038145542144775, 0.6877846188015408);73.3883895874;0.948130150274;0;0;0;;0;0;();();(-2000.0, -2000.0);
04:26:52:078;04:26:52:000;1448034169.96;(0.6038145542144775, 0.6877846188015408);73.3883895874;0.948130150274;0;0;0;;0;0;();();(-2000.0, -2000.0);
04:26:52:095;04:26:52:000;1448034169.96;(0.6038145542144775, 0.6877846188015408);73.3883895874;0.948130150274;0;0;0;;0;0;();();(-2000.0, -2000.0);
04:26:52:111;04:26:52:000;1448034169.96;(0.6038145542144775, 0.6877846188015408);73.3883895874;0.948130150274;0;0;0;;0;0;();();(-2000.0, -2000.0);
04:26:52:127;04:26:52:000;1448034169.96;(0.6038145542144775, 0.6877846188015408);73.3883895874;0.948130150274;0;0;0;;0;0;();();(-2000.0, -2000.0);
04:26:52:145;04:26:52:133;1448034170.09;(0.6072636604309082, 0.6532610999213324);72.9444732666;1.0;0;0;0;;0;0;();();(-2000.0, -2000.0);
04:26:52:177;04:26:52:169;1448034170.23;(0.606946325302124, 0.6553218417697483);72.7141494751;1.0;0;0;0;;0;0;();();(-2000.0, -2000.0);
04:26:52:194;04:26:52:169;1448034170.23;(0.606946325302124, 0.6553218417697483);72.7141494751;1.0;0;0;0;;0;0;();();(-2000.0, -2000.0);
04:26:52:211;04:26:52:201;1448034170.26;(0.6065537452697753, 0.6559352874755859);71.5957946777;0.975407967365;0;0;0;;0;0;();();(-2000.0, -2000.0);
04:26:52:227;04:26:52:201;1448034170.26;(0.6065537452697753, 0.6559352874755859);71.5957946777;0.975407967365;0;0;0;;0;0;();();(-2000.0, -2000.0);
04:26:52:260;04:26:52:233;1448034170.29;(0.6066114902496338, 0.6561653349134657);70.330368042;1.0;0;0;0;;0;0;();();(-2000.0, -2000.0);
04:26:52:278;04:26:52:269;1448034170.33;(0.6088923454284668, 0.6676226298014323);69.68724823;0.976171686775;0;0;0;;0;0;();();(-2000.0, -2000.0);
04:26:52:293;04:26:52:269;1448034170.33;(0.6088923454284668, 0.6676226298014323);69.68724823;0.976171686775;0;0;0;;0;0;();();(-2000.0, -2000.0);
04:26:52:310;04:26:52:269;1448034170.33;(0.6088923454284668, 0.6676226298014323);69.68724823;0.976171686775;0;0;0;;0;0;();();(-2000.0, -2000.0);
04:26:52:327;04:26:52:269;1448034170.33;(0.6088923454284668, 0.6676226298014323);69.68724823;0.976171686775;0;0;0;;0;0;();();(-2000.0, -2000.0);
04:26:52:359;04:26:52:337;1448034170.39;(0.6251270771026611, 0.6758623970879449);66.9834976196;1.0;0;0;0;;0;0;();();(-2000.0, -2000.0);
04:26:52:376;04:26:52:337;1448034170.39;(0.6251270771026611, 0.6758623970879449);66.9834976196;1.0;0;0;0;;0;0;();();(-2000.0, -2000.0);
04:26:52:393;04:26:52:382;1448034170.43;(0.6253389835357666, 0.6761583540174696);66.6088790894;0.870040342126;0;0;0;;0;0;();();(-2000.0, -2000.0);
04:26:52:409;04:26:52:401;1448034170.46;(0.6253097534179688, 0.6762837304009331);65.9806976318;1.0;0;0;0;;0;0;();();(-2000.0, -2000.0);
04:26:52:426;04:26:52:401;1448034170.46;(0.6253097534179688, 0.6762837304009331);65.9806976318;1.0;0;0;0;;0;0;();();(-2000.0, -2000.0);
04:26:52:459;04:26:52:437;1448034170.49;(0.6253104209899902, 0.676785045199924);65.3145828247;1.0;0;0;0;;0;0;();();(-2000.0, -2000.0);
04:26:52:476;04:26:52:468;1448034170.53;(0.6252846240997314, 0.6770537482367622);65.0747299194;1.0;0;0;0;;0;0;();();(-2000.0, -2000.0);
04:26:52:492;04:26:52:468;1448034170.53;(0.6252846240997314, 0.6770537482367622);65.0747299194;1.0;0;0;0;;0;0;();();(-2000.0, -2000.0);
04:26:52:508;04:26:52:501;1448034170.56;(0.6248905658721924, 0.6787689420912001);64.9916915894;1.0;0;0;0;;0;0;();();(-2000.0, -2000.0);
04:26:52:525;04:26:52:501;1448034170.56;(0.6248905658721924, 0.6787689420912001);64.9916915894;1.0;0;0;0;;0;0;();();(-2000.0, -2000.0);
04:26:52:558;04:26:52:501;1448034170.56;(0.6248905658721924, 0.6787689420912001);64.9916915894;1.0;0;0;0;;0;0;();();(-2000.0, -2000.0);
04:26:52:575;04:26:52:501;1448034170.56;(0.6248905658721924, 0.6787689420912001);64.9916915894;1.0;0;0;0;;0;0;();();(-2000.0, -2000.0);
04:26:52:592;04:26:52:501;1448034170.56;(0.6248905658721924, 0.6787689420912001);64.9916915894;1.0;0;0;0;;0;0;();();(-2000.0, -2000.0);
04:26:52:609;04:26:52:501;1448034170.56;(0.6248905658721924, 0.6787689420912001);64.9916915894;1.0;0;0;0;;0;0;();();(-2000.0, -2000.0);
04:26:52:625;04:26:52:501;1448034170.56;(0.6248905658721924, 0.6787689420912001);64.9916915894;1.0;0;0;0;;0;0;();();(-2000.0, -2000.0);
04:26:52:658;04:26:52:637;1448034170.59;(0.6166703224182128, 0.7047381083170573);63.9132080078;1.0;0;0;0;;0;0;();();(-2000.0, -2000.0);
04:26:52:674;04:26:52:637;1448034170.59;(0.6166703224182128, 0.7047381083170573);63.9132080078;1.0;0;0;0;;0;0;();();(-2000.0, -2000.0);
04:26:52:691;04:26:52:689;1448034170.73;(0.6157291412353516, 0.7074457168579101);63.568271637;1.0;0;0;0;;0;0;();();(-2000.0, -2000.0);
04:26:52:708;04:26:52:705;1448034170.76;(0.6155702114105225, 0.7076149410671658);64.1399688721;1.0;0;0;0;;0;0;();();(-2000.0, -2000.0);
04:26:52:741;04:26:52:737;1448034170.79;(0.6159826278686523, 0.7076381259494358);64.5578842163;1.0;0;0;0;;0;0;();();(-2000.0, -2000.0);
04:26:52:756;04:26:52:737;1448034170.79;(0.6159826278686523, 0.7076381259494358);64.5578842163;1.0;0;0;0;;0;0;();();(-2000.0, -2000.0);
04:26:52:774;04:26:52:769;1448034170.83;(0.6160776615142822, 0.7075248718261719);64.5951080322;1.0;0;0;0;;0;0;();();(-2000.0, -2000.0);
04:26:52:790;04:26:52:769;1448034170.83;(0.6160776615142822, 0.7075248718261719);64.5951080322;1.0;0;0;0;;0;0;();();(-2000.0, -2000.0);
04:26:52:807;04:26:52:804;1448034170.86;(0.616335391998291, 0.707486915588379);65.3883361816;1.0;0;0;0;;0;0;();();(-2000.0, -2000.0);
04:26:52:840;04:26:52:836;1448034170.89;(0.6163020610809327, 0.7071699142456055);65.3856430054;1.0;0;0;0;;0;0;();();(-2000.0, -2000.0);
04:26:52:857;04:26:52:836;1448034170.89;(0.6163020610809327, 0.7071699142456055);65.3856430054;1.0;0;0;0;;0;0;();();(-2000.0, -2000.0);
04:26:52:872;04:26:52:869;1448034170.93;(0.6158650875091553, 0.7078070110744901);65.9072418213;1.0;0;0;0;;0;0;();();(-2000.0, -2000.0);
04:26:52:890;04:26:52:869;1448034170.93;(0.6158650875091553, 0.7078070110744901);65.9072418213;1.0;0;0;0;;0;0;();();(-2000.0, -2000.0);
04:26:52:905;04:26:52:905;1448034170.96;(0.6159133911132812, 0.7079175525241428);65.7888412476;1.0;0;0;0;;0;0;();();(-2000.0, -2000.0);
04:26:52:939;04:26:52:937;1448034170.99;(0.6159803867340088, 0.7085282431708442);66.5739135742;1.0;0;0;0;;0;0;();();(-2000.0, -2000.0);
04:26:52:956;04:26:52:937;1448034170.99;(0.6159803867340088, 0.7085282431708442);66.5739135742;1.0;0;0;0;;0;0;();();(-2000.0, -2000.0);
04:26:52:973;04:26:52:937;1448034170.99;(0.6159803867340088, 0.7085282431708442);66.5739135742;1.0;0;0;0;;0;0;();();(-2000.0, -2000.0);
04:26:52:989;04:26:52:973;1448034171.03;(0.615989875793457, 0.7081284840901693);67.2835845947;1.0;0;0;0;;0;0;();();(-2000.0, -2000.0);
04:26:53:006;04:26:53:004;1448034171.06;(0.6159305572509766, 0.7077501085069444);67.5547637939;1.0;0;0;0;;0;0;();();(-2000.0, -2000.0);
04:26:53:039;04:26:53:037;1448034171.09;(0.6158493518829345, 0.7078480826483833);67.6119384766;1.0;0;0;0;;0;0;();();(-2000.0, -2000.0);
04:26:53:056;04:26:53:037;1448034171.09;(0.6158493518829345, 0.7078480826483833);67.6119384766;1.0;0;0;0;;0;0;();();(-2000.0, -2000.0);
04:26:53:071;04:26:53:037;1448034171.09;(0.6158493518829345, 0.7078480826483833);67.6119384766;1.0;0;0;0;;0;0;();();(-2000.0, -2000.0);
04:26:53:088;04:26:53:073;1448034171.13;(0.6160850524902344, 0.7074586232503255);68.2659912109;1.0;0;0;0;;0;0;();();(-2000.0, -2000.0);
04:26:53:105;04:26:53:105;1448034171.16;(0.6159107685089111, 0.7074722501966688);68.7414779663;1.0;0;0;0;;0;0;();();(-2000.0, -2000.0);
04:26:53:138;04:26:53:137;1448034171.19;(0.6161232948303222, 0.7078298356797961);68.954864502;1.0;0;0;0;;0;0;();();(-2000.0, -2000.0);
04:26:53:155;04:26:53:137;1448034171.19;(0.6161232948303222, 0.7078298356797961);68.954864502;1.0;0;0;0;;0;0;();();(-2000.0, -2000.0);
04:26:53:172;04:26:53:137;1448034171.19;(0.6161232948303222, 0.7078298356797961);68.954864502;1.0;0;0;0;;0;0;();();(-2000.0, -2000.0);
04:26:53:189;04:26:53:173;1448034171.23;(0.6160146236419678, 0.7075667911105685);68.9938278198;1.0;0;0;0;;0;0;();();(-2000.0, -2000.0);
04:26:53:205;04:26:53:173;1448034171.23;(0.6160146236419678, 0.7075667911105685);68.9938278198;1.0;0;0;0;;0;0;();();(-2000.0, -2000.0);
04:26:53:238;04:26:53:205;1448034171.26;(0.6161382675170899, 0.707079717848036);69.2507476807;1.0;0;0;0;;0;0;();();(-2000.0, -2000.0);
04:26:53:254;04:26:53:241;1448034171.29;(0.6160440444946289, 0.7066725836859808);69.3273468018;1.0;0;0;0;;0;0;();();(-2000.0, -2000.0);
04:26:53:271;04:26:53:241;1448034171.29;(0.6160440444946289, 0.7066725836859808);69.3273468018;1.0;0;0;0;;0;0;();();(-2000.0, -2000.0);
04:26:53:288;04:26:53:273;1448034171.33;(0.616130256652832, 0.7066815906100803);69.8955764771;1.0;0;0;0;;0;0;();();(-2000.0, -2000.0);
04:26:53:321;04:26:53:304;1448034171.36;(0.6162527084350586, 0.7066328472561306);69.6523971558;1.0;0;0;0;;0;0;();();(-2000.0, -2000.0);
04:26:53:337;04:26:53:304;1448034171.36;(0.6162527084350586, 0.7066328472561306);69.6523971558;1.0;0;0;0;;0;0;();();(-2000.0, -2000.0);
04:26:53:354;04:26:53:341;1448034171.39;(0.6159031867980957, 0.7069392522176107);69.8163375854;1.0;0;0;0;;0;0;();();(-2000.0, -2000.0);
04:26:53:370;04:26:53:341;1448034171.39;(0.6159031867980957, 0.7069392522176107);69.8163375854;1.0;0;0;0;;0;0;();();(-2000.0, -2000.0);
04:26:53:386;04:26:53:374;1448034171.43;(0.6155920505523682, 0.7070219251844618);69.6144714355;1.0;0;0;0;;0;0;();();(-2000.0, -2000.0);
04:26:53:420;04:26:53:404;1448034171.46;(0.6158453464508057, 0.7068740844726562);69.310508728;1.0;0;0;0;;0;0;();();(-2000.0, -2000.0);
04:26:53:436;04:26:53:404;1448034171.46;(0.6158453464508057, 0.7068740844726562);69.310508728;1.0;0;0;0;;0;0;();();(-2000.0, -2000.0);
04:26:53:453;04:26:53:441;1448034171.49;(0.6159305095672607, 0.7071653578016492);69.3795394897;1.0;0;0;0;;0;0;();();(-2000.0, -2000.0);
04:26:53:470;04:26:53:441;1448034171.49;(0.6159305095672607, 0.7071653578016492);69.3795394897;1.0;0;0;0;;0;0;();();(-2000.0, -2000.0);
04:26:53:486;04:26:53:472;1448034171.53;(0.6157360076904297, 0.7073291142781575);69.316947937;1.0;0;0;0;;0;0;();();(-2000.0, -2000.0);
04:26:53:519;04:26:53:504;1448034171.56;(0.6157702445983887, 0.7069644292195638);68.7460708618;1.0;0;0;0;;0;0;();();(-2000.0, -2000.0);
04:26:53:536;04:26:53:504;1448034171.56;(0.6157702445983887, 0.7069644292195638);68.7460708618;1.0;0;0;0;;0;0;();();(-2000.0, -2000.0);
04:26:53:553;04:26:53:544;1448034171.59;(0.615980577468872, 0.7069262186686198);68.0175247192;1.0;0;0;0;;0;0;();();(-2000.0, -2000.0);
04:26:53:569;04:26:53:544;1448034171.59;(0.615980577468872, 0.7069262186686198);68.0175247192;1.0;0;0;0;;0;0;();();(-2000.0, -2000.0);
04:26:53:585;04:26:53:573;1448034171.63;(0.6154812812805176, 0.7070864147610134);68.1113739014;1.0;0;0;0;;0;0;();();(-2000.0, -2000.0);
