%Timestamp,timestamp_write;timestamp_gotpupil;eyetrackertime;norm_pos;diameter;confidence;timestamp_gotbitdata;CRC;SEQ;AnalogOutp1;AnalogOutp2;AnalogOutp3;AnalogOutp4;AnalogOutp5;AnalogOutp6;DigitalOutp1;DigitalOutp2;igitalOutp3;DigitalOutp4;nplanes;lastaction;lastactiondetails;lastactionairplanenumber;positivescore;negativescore;collidedairplanenumbers;targetpositions;collision_point
09:03:44:216;1448050782.13;(0.3544245004653931, 0.7919160419040256);21.4289932251;1.0;;;;;;;;;;;;;;0;0;0;;0;0;();();(0.0, 0.0);
09:03:44:220;1448050782.13;(0.3544245004653931, 0.7919160419040256);21.4289932251;1.0;;;;;;;;;;;;;;0;0;0;;0;0;();();(-2000.0, -2000.0);
09:03:44:223;1448050782.13;(0.3544245004653931, 0.7919160419040256);21.4289932251;1.0;;;;;;;;;;;;;;0;0;0;;0;0;();();(-2000.0, -2000.0);
09:03:44:225;1448050782.13;(0.3544245004653931, 0.7919160419040256);21.4289932251;1.0;;;;;;;;;;;;;;0;0;0;;0;0;();();(-2000.0, -2000.0);
09:03:44:227;1448050782.13;(0.3544245004653931, 0.7919160419040256);21.4289932251;1.0;;;;;;;;;;;;;;0;0;0;;0;0;();();(-2000.0, -2000.0);
09:03:44:230;1448050782.13;(0.3544245004653931, 0.7919160419040256);21.4289932251;1.0;;;;;;;;;;;;;;0;0;0;;0;0;();();(-2000.0, -2000.0);
09:03:44:232;1448050782.13;(0.3544245004653931, 0.7919160419040256);21.4289932251;1.0;;;;;;;;;;;;;;0;0;0;;0;0;();();(-2000.0, -2000.0);
09:03:44:234;1448050782.13;(0.3544245004653931, 0.7919160419040256);21.4289932251;1.0;;;;;;;;;;;;;;0;0;0;;0;0;();();(-2000.0, -2000.0);
09:03:44:236;1448050782.13;(0.3544245004653931, 0.7919160419040256);21.4289932251;1.0;;;;;;;;;;;;;;0;0;0;;0;0;();();(-2000.0, -2000.0);
09:03:44:238;1448050782.13;(0.3544245004653931, 0.7919160419040256);21.4289932251;1.0;;;;;;;;;;;;;;0;0;0;;0;0;();();(-2000.0, -2000.0);
09:03:44:240;1448050782.13;(0.3544245004653931, 0.7919160419040256);21.4289932251;1.0;;;;;;;;;;;;;;0;0;0;;0;0;();();(-2000.0, -2000.0);
09:03:44:242;09:03:44:241;1448050782.2;(0.3543875217437744, 0.7916163974338107);20.6018123627;1.0;;;;;;;;;;;;;;0;0;0;;0;0;();();(-2000.0, -2000.0);
09:03:44:243;09:03:44:241;1448050782.2;(0.3543875217437744, 0.7916163974338107);20.6018123627;1.0;;;;;;;;;;;;;;0;0;0;;0;0;();();(-2000.0, -2000.0);
09:03:44:245;09:03:44:241;1448050782.2;(0.3543875217437744, 0.7916163974338107);20.6018123627;1.0;;;;;;;;;;;;;;0;0;0;;0;0;();();(-2000.0, -2000.0);
09:03:44:247;09:03:44:241;1448050782.2;(0.3543875217437744, 0.7916163974338107);20.6018123627;1.0;;;;;;;;;;;;;;0;0;0;;0;0;();();(-2000.0, -2000.0);
09:03:44:249;09:03:44:241;1448050782.2;(0.3543875217437744, 0.7916163974338107);20.6018123627;1.0;;;;;;;;;;;;;;0;0;0;;0;0;();();(-2000.0, -2000.0);
09:03:44:267;09:03:44:241;1448050782.2;(0.3543875217437744, 0.7916163974338107);20.6018123627;1.0;;;;;;;;;;;;;;0;0;0;;0;0;();();(-2000.0, -2000.0);
09:03:44:269;09:03:44:241;1448050782.2;(0.3543875217437744, 0.7916163974338107);20.6018123627;1.0;;;;;;;;;;;;;;0;0;0;;0;0;();();(-2000.0, -2000.0);
09:03:44:271;09:03:44:241;1448050782.2;(0.3543875217437744, 0.7916163974338107);20.6018123627;1.0;;;;;;;;;;;;;;0;0;0;;0;0;();();(-2000.0, -2000.0);
09:03:44:284;09:03:44:241;1448050782.2;(0.3543875217437744, 0.7916163974338107);20.6018123627;1.0;;;;;;;;;;;;;;0;0;0;;0;0;();();(-2000.0, -2000.0);
09:03:44:317;09:03:44:303;1448050782.27;(0.3539984703063965, 0.7920070648193359);21.2802085876;1.0;;;;;;;;;;;;;;0;0;0;;0;0;();();(-2000.0, -2000.0);
09:03:44:333;09:03:44:303;1448050782.27;(0.3539984703063965, 0.7920070648193359);21.2802085876;1.0;;;;;;;;;;;;;;0;0;0;;0;0;();();(-2000.0, -2000.0);
09:03:44:350;09:03:44:303;1448050782.27;(0.3539984703063965, 0.7920070648193359);21.2802085876;1.0;;;;;;;;;;;;;;0;0;0;;0;0;();();(-2000.0, -2000.0);
09:03:44:367;09:03:44:303;1448050782.27;(0.3539984703063965, 0.7920070648193359);21.2802085876;1.0;;;;;;;;;;;;;;0;0;0;;0;0;();();(-2000.0, -2000.0);
09:03:47:053;09:03:47:027;1448050785.0;(0.354433274269104, 0.7916556040445963);22.581073761;1.0;;;;;;;;;;;;;;2;0;0;;0;0;();();(-2000.0, -2000.0);
09:03:47:058;09:03:47:027;1448050785.0;(0.354433274269104, 0.7916556040445963);22.581073761;1.0;;;;;;;;;;;;;;2;0;0;;0;0;();();(-2000.0, -2000.0);
09:03:47:061;09:03:47:027;1448050785.0;(0.354433274269104, 0.7916556040445963);22.581073761;1.0;;;;;;;;;;;;;;2;0;0;;0;0;();();(-2000.0, -2000.0);
09:03:47:063;09:03:47:027;1448050785.0;(0.354433274269104, 0.7916556040445963);22.581073761;1.0;;;;;;;;;;;;;;2;0;0;;0;0;();();(-2000.0, -2000.0);
09:03:47:065;09:03:47:027;1448050785.0;(0.354433274269104, 0.7916556040445963);22.581073761;1.0;;;;;;;;;;;;;;2;0;0;;0;0;();();(-2000.0, -2000.0);
09:03:47:067;09:03:47:027;1448050785.0;(0.354433274269104, 0.7916556040445963);22.581073761;1.0;;;;;;;;;;;;;;2;0;0;;0;0;();();(-2000.0, -2000.0);
09:03:47:069;09:03:47:027;1448050785.0;(0.354433274269104, 0.7916556040445963);22.581073761;1.0;;;;;;;;;;;;;;2;0;0;;0;0;();();(-2000.0, -2000.0);
09:03:47:071;09:03:47:027;1448050785.0;(0.354433274269104, 0.7916556040445963);22.581073761;1.0;;;;;;;;;;;;;;2;0;0;;0;0;();();(-2000.0, -2000.0);
09:03:47:072;09:03:47:027;1448050785.0;(0.354433274269104, 0.7916556040445963);22.581073761;1.0;;;;;;;;;;;;;;2;0;0;;0;0;();();(-2000.0, -2000.0);
09:03:47:074;09:03:47:027;1448050785.0;(0.354433274269104, 0.7916556040445963);22.581073761;1.0;;;;;;;;;;;;;;2;0;0;;0;0;();();(-2000.0, -2000.0);
09:03:47:076;09:03:47:027;1448050785.0;(0.354433274269104, 0.7916556040445963);22.581073761;1.0;;;;;;;;;;;;;;2;0;0;;0;0;();();(-2000.0, -2000.0);
09:03:47:078;09:03:47:027;1448050785.0;(0.354433274269104, 0.7916556040445963);22.581073761;1.0;;;;;;;;;;;;;;2;0;0;;0;0;();();(-2000.0, -2000.0);
09:03:47:080;09:03:47:027;1448050785.0;(0.354433274269104, 0.7916556040445963);22.581073761;1.0;;;;;;;;;;;;;;2;0;0;;0;0;();();(-2000.0, -2000.0);
09:03:47:082;09:03:47:027;1448050785.0;(0.354433274269104, 0.7916556040445963);22.581073761;1.0;;;;;;;;;;;;;;2;0;0;;0;0;();();(-2000.0, -2000.0);
09:03:47:084;09:03:47:027;1448050785.0;(0.354433274269104, 0.7916556040445963);22.581073761;1.0;;;;;;;;;;;;;;2;0;0;;0;0;();();(-2000.0, -2000.0);
09:03:47:086;09:03:47:027;1448050785.0;(0.354433274269104, 0.7916556040445963);22.581073761;1.0;;;;;;;;;;;;;;2;0;0;;0;0;();();(-2000.0, -2000.0);
09:03:47:093;09:03:47:091;1448050785.07;(0.3546804189682007, 0.7915740542941623);21.3930110931;0.887299166488;;;;;;;;;;;;;;2;0;0;;0;0;();();(-2000.0, -2000.0);
09:03:47:095;09:03:47:091;1448050785.07;(0.3546804189682007, 0.7915740542941623);21.3930110931;0.887299166488;;;;;;;;;;;;;;2;0;0;;0;0;();();(-2000.0, -2000.0);
09:03:47:097;09:03:47:091;1448050785.07;(0.3546804189682007, 0.7915740542941623);21.3930110931;0.887299166488;;;;;;;;;;;;;;2;0;0;;0;0;();();(-2000.0, -2000.0);
09:03:47:110;09:03:47:091;1448050785.07;(0.3546804189682007, 0.7915740542941623);21.3930110931;0.887299166488;;;;;;;;;;;;;;2;0;0;;0;0;();();(-2000.0, -2000.0);
09:03:47:144;09:03:47:091;1448050785.07;(0.3546804189682007, 0.7915740542941623);21.3930110931;0.887299166488;;;;;;;;;;;;;;2;0;0;;0;0;();();(-2000.0, -2000.0);
09:03:47:160;09:03:47:160;1448050785.13;(0.3548264980316162, 0.791111691792806);21.8658294678;1.0;;;;;;;;;;;;;;2;0;0;;0;0;();();(-2000.0, -2000.0);
09:03:47:177;09:03:47:160;1448050785.13;(0.3548264980316162, 0.791111691792806);21.8658294678;1.0;;;;;;;;;;;;;;2;0;0;;0;0;();();(-2000.0, -2000.0);
09:03:47:194;09:03:47:160;1448050785.13;(0.3548264980316162, 0.791111691792806);21.8658294678;1.0;;;;;;;;;;;;;;2;0;0;;0;0;();();(-2000.0, -2000.0);
09:03:47:210;09:03:47:160;1448050785.13;(0.3548264980316162, 0.791111691792806);21.8658294678;1.0;;;;;;;;;;;;;;2;0;0;;0;0;();();(-2000.0, -2000.0);
09:03:47:243;09:03:47:225;1448050785.2;(0.3540984869003296, 0.7914641486273871);22.0704555511;0.923850241392;;;;;;;;;;;;;;2;0;0;;0;0;();();(-2000.0, -2000.0);
09:03:47:260;09:03:47:225;1448050785.2;(0.3540984869003296, 0.7914641486273871);22.0704555511;0.923850241392;;;;;;;;;;;;;;2;0;0;;0;0;();();(-2000.0, -2000.0);
09:03:47:275;09:03:47:225;1448050785.2;(0.3540984869003296, 0.7914641486273871);22.0704555511;0.923850241392;;;;;;;;;;;;;;2;0;0;;0;0;();();(-2000.0, -2000.0);
09:03:47:293;09:03:47:292;1448050785.27;(0.3544171810150146, 0.7912456300523546);22.0473003387;1.0;;;;;;;;;;;;;;2;0;0;;0;0;();();(-2000.0, -2000.0);
09:03:47:309;09:03:47:292;1448050785.27;(0.3544171810150146, 0.7912456300523546);22.0473003387;1.0;;;;;;;;;;;;;;2;0;0;;0;0;();();(-2000.0, -2000.0);
09:03:47:342;09:03:47:292;1448050785.27;(0.3544171810150146, 0.7912456300523546);22.0473003387;1.0;;;;;;;;;;;;;;2;0;0;;0;0;();();(-2000.0, -2000.0);
09:03:47:358;09:03:47:292;1448050785.27;(0.3544171810150146, 0.7912456300523546);22.0473003387;1.0;;;;;;;;;;;;;;2;0;0;;0;0;();();(-2000.0, -2000.0);
09:03:47:375;09:03:47:359;1448050785.33;(0.35436334609985354, 0.7917206658257379);22.9561405182;1.0;;;;;;;;;;;;;;2;0;0;;0;0;();();(-2000.0, -2000.0);
09:03:47:392;09:03:47:359;1448050785.33;(0.35436334609985354, 0.7917206658257379);22.9561405182;1.0;;;;;;;;;;;;;;2;0;0;;0;0;();();(-2000.0, -2000.0);
09:03:47:425;09:03:47:424;1448050785.4;(0.3547254800796509, 0.7910862816704645);22.3571300507;1.0;;;;;;;;;;;;;;2;0;0;;0;0;();();(-2000.0, -2000.0);
09:03:47:442;09:03:47:424;1448050785.4;(0.3547254800796509, 0.7910862816704645);22.3571300507;1.0;;;;;;;;;;;;;;2;0;0;;0;0;();();(-2000.0, -2000.0);
09:03:47:458;09:03:47:424;1448050785.4;(0.3547254800796509, 0.7910862816704645);22.3571300507;1.0;;;;;;;;;;;;;;2;0;0;;0;0;();();(-2000.0, -2000.0);
09:03:47:474;09:03:47:424;1448050785.4;(0.3547254800796509, 0.7910862816704645);22.3571300507;1.0;;;;;;;;;;;;;;2;0;0;;0;0;();();(-2000.0, -2000.0);
09:03:47:492;09:03:47:424;1448050785.4;(0.3547254800796509, 0.7910862816704645);22.3571300507;1.0;;;;;;;;;;;;;;2;0;0;;0;0;();();(-2000.0, -2000.0);
09:03:47:524;09:03:47:492;1448050785.47;(0.3545524120330811, 0.7913655387030707);21.39661026;1.0;;;;;;;;;;;;;;2;0;0;;0;0;();();(-2000.0, -2000.0);
09:03:47:541;09:03:47:492;1448050785.47;(0.3545524120330811, 0.7913655387030707);21.39661026;1.0;;;;;;;;;;;;;;2;0;0;;0;0;();();(-2000.0, -2000.0);
09:03:47:557;09:03:47:556;1448050785.53;(0.3544423580169678, 0.7908328162299262);20.2360420227;0.992266684625;;;;;;;;;;;;;;2;0;0;;0;0;();();(-2000.0, -2000.0);
09:03:47:575;09:03:47:556;1448050785.53;(0.3544423580169678, 0.7908328162299262);20.2360420227;0.992266684625;;;;;;;;;;;;;;2;0;0;;0;0;();();(-2000.0, -2000.0);
09:03:47:591;09:03:47:556;1448050785.53;(0.3544423580169678, 0.7908328162299262);20.2360420227;0.992266684625;;;;;;;;;;;;;;2;0;0;;0;0;();();(-2000.0, -2000.0);
09:03:47:623;09:03:47:556;1448050785.53;(0.3544423580169678, 0.7908328162299262);20.2360420227;0.992266684625;;;;;;;;;;;;;;2;0;0;;0;0;();();(-2000.0, -2000.0);
09:03:47:640;09:03:47:623;1448050785.6;(0.3544377565383911, 0.7910207748413086);22.0664081573;1.0;;;;;;;;;;;;;;2;0;0;;0;0;();();(-2000.0, -2000.0);
09:03:47:658;09:03:47:623;1448050785.6;(0.3544377565383911, 0.7910207748413086);22.0664081573;1.0;;;;;;;;;;;;;;2;0;0;;0;0;();();(-2000.0, -2000.0);
09:03:47:674;09:03:47:623;1448050785.6;(0.3544377565383911, 0.7910207748413086);22.0664081573;1.0;;;;;;;;;;;;;;2;0;0;;0;0;();();(-2000.0, -2000.0);
09:03:47:690;09:03:47:623;1448050785.6;(0.3544377565383911, 0.7910207748413086);22.0664081573;1.0;;;;;;;;;;;;;;2;0;0;;0;0;();();(-2000.0, -2000.0);
09:03:47:723;09:03:47:693;1448050785.67;(0.35460705757141114, 0.7916952557033963);21.594827652;1.0;;;;;;;;;;;;;;2;0;0;;0;0;();();(-2000.0, -2000.0);
09:03:47:739;09:03:47:693;1448050785.67;(0.35460705757141114, 0.7916952557033963);21.594827652;1.0;;;;;;;;;;;;;;2;0;0;;0;0;();();(-2000.0, -2000.0);
09:03:48:274;09:03:48:220;1448050786.2;(0.35448298454284666, 0.7918265872531467);20.8634147644;0.987068290151;09:03:48:271;0;5;-1.5;1;0.0977517106549365;0;0;0;1;1;1;1;2;0;0;;0;0;();();(-2000.0, -2000.0);
09:03:48:279;09:03:48:220;1448050786.2;(0.35448298454284666, 0.7918265872531467);20.8634147644;0.987068290151;09:03:48:279;0;5;-1.5;1;0.0977517106549365;0;0;0;1;1;1;1;2;0;0;;0;0;();();(-2000.0, -2000.0);
09:03:48:284;09:03:48:220;1448050786.2;(0.35448298454284666, 0.7918265872531467);20.8634147644;0.987068290151;09:03:48:284;0;14;-1.5;1;0.0977517106549365;0;0;0;1;1;1;1;2;0;0;;0;0;();();(-2000.0, -2000.0);
09:03:48:289;09:03:48:288;1448050786.27;(0.35461652278900146, 0.7909925884670681);21.6215324402;1.0;09:03:48:288;0;0;-1.5;1;0;0;0;0;1;1;1;1;2;0;0;;0;0;();();(-2000.0, -2000.0);
09:03:48:293;09:03:48:288;1448050786.27;(0.35461652278900146, 0.7909925884670681);21.6215324402;1.0;09:03:48:293;0;10;-1.5;1;0;0;0;0;1;1;1;1;2;0;0;;0;0;();();(-2000.0, -2000.0);
09:03:48:297;09:03:48:288;1448050786.27;(0.35461652278900146, 0.7909925884670681);21.6215324402;1.0;09:03:48:297;0;10;-1.5;1;0;0;0;0;1;1;1;1;2;0;0;;0;0;();();(-2000.0, -2000.0);
09:03:48:302;09:03:48:288;1448050786.27;(0.35461652278900146, 0.7909925884670681);21.6215324402;1.0;09:03:48:302;0;10;-1.5;1;0;0;0;0;1;1;1;1;2;0;0;;0;0;();();(-2000.0, -2000.0);
09:03:48:306;09:03:48:288;1448050786.27;(0.35461652278900146, 0.7909925884670681);21.6215324402;1.0;09:03:48:306;0;5;-1.5;1;0;0;0;0;1;1;1;1;2;0;0;;0;0;();();(-2000.0, -2000.0);
09:03:48:311;09:03:48:288;1448050786.27;(0.35461652278900146, 0.7909925884670681);21.6215324402;1.0;09:03:48:311;0;5;-1.5;1;0;0;0;0;1;1;1;1;2;0;0;;0;0;();();(-2000.0, -2000.0);
09:03:48:314;09:03:48:288;1448050786.27;(0.35461652278900146, 0.7909925884670681);21.6215324402;1.0;09:03:48:314;0;5;-1.5;1;0;0;0;0;1;1;1;1;2;0;0;;0;0;();();(-2000.0, -2000.0);
09:03:48:316;09:03:48:288;1448050786.27;(0.35461652278900146, 0.7909925884670681);21.6215324402;1.0;09:03:48:316;0;5;-1.5;1;0;0;0;0;1;1;1;1;2;0;0;;0;0;();();(-2000.0, -2000.0);
09:03:48:318;09:03:48:288;1448050786.27;(0.35461652278900146, 0.7909925884670681);21.6215324402;1.0;09:03:48:318;0;15;-1.5;1;0.0977517106549365;0;0;0;1;1;1;1;2;0;0;;0;0;();();(-2000.0, -2000.0);
09:03:48:321;09:03:48:288;1448050786.27;(0.35461652278900146, 0.7909925884670681);21.6215324402;1.0;09:03:48:321;0;15;-1.5;1;0.0977517106549365;0;0;0;1;1;1;1;2;0;0;;0;0;();();(-2000.0, -2000.0);
09:03:48:323;09:03:48:288;1448050786.27;(0.35461652278900146, 0.7909925884670681);21.6215324402;1.0;09:03:48:323;0;15;-1.5;1;0.0977517106549365;0;0;0;1;1;1;1;2;0;0;;0;0;();();(-2000.0, -2000.0);
09:03:48:325;09:03:48:288;1448050786.27;(0.35461652278900146, 0.7909925884670681);21.6215324402;1.0;09:03:48:325;0;15;-1.5;1;0.0977517106549365;0;0;0;1;1;1;1;2;0;0;;0;0;();();(-2000.0, -2000.0);
09:03:48:327;09:03:48:288;1448050786.27;(0.35461652278900146, 0.7909925884670681);21.6215324402;1.0;09:03:48:327;0;15;-1.5;1;0.0977517106549365;0;0;0;1;1;1;1;2;0;0;;0;0;();();(-2000.0, -2000.0);
09:03:48:329;09:03:48:288;1448050786.27;(0.35461652278900146, 0.7909925884670681);21.6215324402;1.0;09:03:48:329;0;15;-1.5;1;0.0977517106549365;0;0;0;1;1;1;1;2;0;0;;0;0;();();(-2000.0, -2000.0);
09:03:48:333;09:03:48:288;1448050786.27;(0.35461652278900146, 0.7909925884670681);21.6215324402;1.0;09:03:48:333;0;4;-1.5;1;0;0;0;0;1;1;1;1;2;0;0;;0;0;();();(-2000.0, -2000.0);
09:03:48:335;09:03:48:288;1448050786.27;(0.35461652278900146, 0.7909925884670681);21.6215324402;1.0;09:03:48:335;0;4;-1.5;1;0;0;0;0;1;1;1;1;2;0;0;;0;0;();();(-2000.0, -2000.0);
09:03:48:337;09:03:48:288;1448050786.27;(0.35461652278900146, 0.7909925884670681);21.6215324402;1.0;09:03:48:337;0;4;-1.5;1;0;0;0;0;1;1;1;1;2;0;0;;0;0;();();(-2000.0, -2000.0);
09:03:48:350;09:03:48:288;1448050786.27;(0.35461652278900146, 0.7909925884670681);21.6215324402;1.0;09:03:48:350;0;15;-1.5;1;0;0;0;0;1;1;1;1;2;0;0;;0;0;();();(-2000.0, -2000.0);
09:03:48:366;09:03:48:356;1448050786.33;(0.35443437099456787, 0.791657829284668);21.2541007996;0.957330872603;09:03:48:366;0;10;-1.5;1;0.0977517106549365;0;0;0;1;1;1;1;2;0;0;;0;0;();();(-2000.0, -2000.0);
09:03:48:399;09:03:48:356;1448050786.33;(0.35443437099456787, 0.791657829284668);21.2541007996;0.957330872603;09:03:48:399;0;10;-1.5;1;0.0977517106549365;0;0;0;1;1;1;1;2;0;0;;0;0;();();(-2000.0, -2000.0);
09:03:48:416;09:03:48:356;1448050786.33;(0.35443437099456787, 0.791657829284668);21.2541007996;0.957330872603;09:03:48:416;0;15;-1.5;1;0;0;0;0;1;1;1;1;2;0;0;;0;0;();();(-2000.0, -2000.0);
09:03:48:433;09:03:48:424;1448050786.4;(0.35446834564208984, 0.791347885131836);22.027173996;1.0;09:03:48:433;0;4;-1.5;1;0.0977517106549365;0;0;0;1;1;1;1;2;0;0;;0;0;();();(-2000.0, -2000.0);
09:03:48:449;09:03:48:424;1448050786.4;(0.35446834564208984, 0.791347885131836);22.027173996;1.0;09:03:48:448;0;10;-1.5;1;0;0;0;0;1;1;1;1;2;0;0;;0;0;();();(-2000.0, -2000.0);
09:03:48:482;09:03:48:424;1448050786.4;(0.35446834564208984, 0.791347885131836);22.027173996;1.0;09:03:48:482;0;0;-1.5;170.5;0.684261974584555;0;0;0;1;1;1;1;2;0;0;;0;0;();();(-2000.0, -2000.0);
09:03:48:499;09:03:48:489;1448050786.47;(0.35428876876831056, 0.7911761177910699);22.0948257446;1.0;09:03:48:498;0;0;-1.5;170.5;0.684261974584555;0;0;0;1;1;1;1;2;0;0;;0;0;();();(-2000.0, -2000.0);
09:03:48:515;09:03:48:489;1448050786.47;(0.35428876876831056, 0.7911761177910699);22.0948257446;1.0;09:03:48:515;0;15;-1.5;170.5;0.684261974584555;0;0;0;1;1;1;1;2;0;0;;0;0;();();(-2000.0, -2000.0);
09:03:48:532;09:03:48:489;1448050786.47;(0.35428876876831056, 0.7911761177910699);22.0948257446;1.0;09:03:48:532;0;5;-1.5;170.5;0.684261974584555;0;0;0;1;1;1;1;2;0;0;;0;0;();();(-2000.0, -2000.0);
09:03:48:549;09:03:48:489;1448050786.47;(0.35428876876831056, 0.7911761177910699);22.0948257446;1.0;09:03:48:548;0;15;-1.5;1;0;0;0;0;1;1;1;1;2;0;0;;0;0;();();(-2000.0, -2000.0);
09:03:48:581;09:03:48:552;1448050786.53;(0.3541134834289551, 0.7917066997951931);22.3719654083;1.0;09:03:48:581;0;15;-1.5;1;0;0;0;0;1;1;1;1;2;0;0;;0;0;();();(-2000.0, -2000.0);
09:03:48:599;09:03:48:552;1448050786.53;(0.3541134834289551, 0.7917066997951931);22.3719654083;1.0;09:03:48:599;0;5;-1.5;1;0.0977517106549365;0;0;0;1;1;1;1;2;0;0;;0;0;();();(-2000.0, -2000.0);
09:03:48:615;09:03:48:552;1448050786.53;(0.3541134834289551, 0.7917066997951931);22.3719654083;1.0;09:03:48:615;0;8;-1.5;146.142857142857;0.684261974584555;0;0;0;1;1;1;1;2;0;0;;0;0;();();(-2000.0, -2000.0);
09:03:48:632;09:03:48:552;1448050786.53;(0.3541134834289551, 0.7917066997951931);22.3719654083;1.0;09:03:48:632;0;5;-1.5;170.5;0.684261974584555;0;0;0;1;1;1;1;2;0;0;;0;0;();();(-2000.0, -2000.0);
09:03:48:648;09:03:48:552;1448050786.53;(0.3541134834289551, 0.7917066997951931);22.3719654083;1.0;09:03:48:648;0;9;-1.5;170.5;0.684261974584555;0;0;0;1;1;1;1;2;0;0;;0;0;();();(-2000.0, -2000.0);
09:03:48:681;09:03:48:552;1448050786.53;(0.3541134834289551, 0.7917066997951931);22.3719654083;1.0;09:03:48:681;0;9;-1.5;1;0;0;0;0;1;1;1;1;2;0;0;;0;0;();();(-2000.0, -2000.0);
09:03:48:698;09:03:48:689;1448050786.67;(0.354657506942749, 0.7917280620998807);21.1517333984;0.947274333333;09:03:48:698;0;5;-1.5;1;0;0;0;0;1;1;1;1;2;0;0;;0;0;();();(-2000.0, -2000.0);
09:03:48:715;09:03:48:689;1448050786.67;(0.354657506942749, 0.7917280620998807);21.1517333984;0.947274333333;09:03:48:715;0;9;-1.5;1;0.0977517106549365;0;0;0;1;1;1;1;2;0;0;;0;0;();();(-2000.0, -2000.0);
09:03:48:731;09:03:48:689;1448050786.67;(0.354657506942749, 0.7917280620998807);21.1517333984;0.947274333333;09:03:48:731;0;4;-1.5;1;0;0;0;0;1;1;1;1;2;0;0;;0;0;();();(-2000.0, -2000.0);
09:03:48:747;09:03:48:689;1448050786.67;(0.354657506942749, 0.7917280620998807);21.1517333984;0.947274333333;09:03:48:747;0;10;-1.5;1;0.0977517106549365;0;0;0;1;1;1;1;2;0;0;;0;0;();();(-2000.0, -2000.0);
09:03:48:781;09:03:48:752;1448050786.73;(0.3550840377807617, 0.7913804160224067);21.7110385895;1.0;09:03:48:781;0;10;-1.5;1;0.0977517106549365;0;0;0;1;1;1;1;2;0;0;;0;0;();();(-2000.0, -2000.0);
09:03:48:797;09:03:48:752;1448050786.73;(0.3550840377807617, 0.7913804160224067);21.7110385895;1.0;09:03:48:797;0;14;-1.5;1;0;0;0;0;1;1;1;1;2;0;0;;0;0;();();(-2000.0, -2000.0);
09:03:48:813;09:03:48:752;1448050786.73;(0.3550840377807617, 0.7913804160224067);21.7110385895;1.0;09:03:48:813;0;9;-1.5;1;0;0;0;0;1;1;1;1;2;0;0;;0;0;();();(-2000.0, -2000.0);
09:03:48:831;09:03:48:823;1448050786.8;(0.3546751022338867, 0.7918940438164606);22.3097000122;1.0;09:03:48:831;0;9;-1.5;1;0;0;0;0;1;1;1;1;2;0;0;;0;0;();();(-2000.0, -2000.0);
09:03:48:847;09:03:48:823;1448050786.8;(0.3546751022338867, 0.7918940438164606);22.3097000122;1.0;09:03:48:847;0;5;-1.5;170.5;0.684261974584555;0;0;0;1;1;1;1;2;0;0;;0;0;();();(-2000.0, -2000.0);
09:03:48:880;09:03:48:823;1448050786.8;(0.3546751022338867, 0.7918940438164606);22.3097000122;1.0;09:03:48:880;0;4;-1.5;170.5;0.684261974584555;0;0;0;1;1;1;1;2;0;0;;0;0;();();(-2000.0, -2000.0);
09:03:48:896;09:03:48:884;1448050786.87;(0.35456483364105223, 0.7919210010104709);22.4813365936;1.0;09:03:48:896;0;9;-1.5;170.5;0.684261974584555;0;0;0;1;1;1;1;2;0;0;;0;0;();();(-2000.0, -2000.0);
09:03:48:913;09:03:48:884;1448050786.87;(0.35456483364105223, 0.7919210010104709);22.4813365936;1.0;09:03:48:913;0;9;-1.5;170.5;0.684261974584555;0;0;0;1;1;1;1;2;0;0;;0;0;();();(-2000.0, -2000.0);
09:03:48:930;09:03:48:884;1448050786.87;(0.35456483364105223, 0.7919210010104709);22.4813365936;1.0;09:03:48:930;0;15;-1.5;85.2500000000001;1.17302052785924;0;0;0;1;1;1;1;2;0;0;;0;0;();();(-2000.0, -2000.0);
09:03:48:947;09:03:48:884;1448050786.87;(0.35456483364105223, 0.7919210010104709);22.4813365936;1.0;09:03:48:947;0;10;-1.5;146.142857142857;0.684261974584555;0;0;0;1;1;1;1;2;0;0;;0;0;();();(-2000.0, -2000.0);
09:03:48:979;09:03:48:952;1448050786.93;(0.3544150352478027, 0.791012700398763);20.959859848;0.894530716565;09:03:48:979;0;4;-1.5;1;0;0;0;0;1;1;1;1;2;0;0;;0;0;();();(-2000.0, -2000.0);
09:03:48:996;09:03:48:952;1448050786.93;(0.3544150352478027, 0.791012700398763);20.959859848;0.894530716565;09:03:48:996;0;0;-1.5;1;0;0;0;0;1;1;1;1;2;0;0;;0;0;();();(-2000.0, -2000.0);
09:03:49:013;09:03:48:952;1448050786.93;(0.3544150352478027, 0.791012700398763);20.959859848;0.894530716565;09:03:49:013;0;5;-1.5;170.5;0.684261974584555;0;0;0;1;1;1;1;2;0;0;;0;0;();();(-2000.0, -2000.0);
09:03:49:029;09:03:49:020;1448050787.0;(0.3546560525894165, 0.7914120780097114);20.9059677124;1.0;09:03:49:029;0;15;-1.5;170.5;0.684261974584555;0;0;0;1;1;1;1;2;0;0;;0;0;();();(-2000.0, -2000.0);
09:03:49:062;09:03:49:020;1448050787.0;(0.3546560525894165, 0.7914120780097114);20.9059677124;1.0;09:03:49:062;0;10;-1.5;1;0;0;0;0;1;1;1;1;2;0;0;;0;0;();();(-2000.0, -2000.0);
09:03:49:079;09:03:49:020;1448050787.0;(0.3546560525894165, 0.7914120780097114);20.9059677124;1.0;09:03:49:079;0;4;-1.5;146.142857142857;0.684261974584555;0;0;0;1;1;1;1;2;0;0;;0;0;();();(-2000.0, -2000.0);
09:03:49:095;09:03:49:020;1448050787.0;(0.3546560525894165, 0.7914120780097114);20.9059677124;1.0;09:03:49:095;0;0;-1.5;7.30714285714286;0.879765395894428;0;0;0;1;1;1;1;2;0;0;;0;0;();();(-2000.0, -2000.0);
09:03:49:111;09:03:49:020;1448050787.0;(0.3546560525894165, 0.7914120780097114);20.9059677124;1.0;09:03:49:111;0;0;-1.5;7.30714285714286;0.879765395894428;0;0;0;1;1;1;1;2;0;0;;0;0;();();(-2000.0, -2000.0);
09:03:49:128;09:03:49:020;1448050787.0;(0.3546560525894165, 0.7914120780097114);20.9059677124;1.0;09:03:49:128;0;9;-1.5;170.5;0.684261974584555;0;0;0;1;1;1;1;2;0;0;;0;0;();();(-2000.0, -2000.0);
09:03:49:161;09:03:49:153;1448050787.13;(0.3537395715713501, 0.7918580161200629);20.7771263123;1.0;09:03:49:161;0;9;-1.5;170.5;0.684261974584555;0;0;0;1;1;1;1;2;0;0;;0;0;();();(-2000.0, -2000.0);
09:03:49:178;09:03:49:153;1448050787.13;(0.3537395715713501, 0.7918580161200629);20.7771263123;1.0;09:03:49:178;0;15;-1.5;146.142857142857;0.684261974584555;0;0;0;1;1;1;1;2;0;0;;0;0;();();(-2000.0, -2000.0);
09:03:49:195;09:03:49:153;1448050787.13;(0.3537395715713501, 0.7918580161200629);20.7771263123;1.0;09:03:49:195;0;15;-1.5;146.142857142857;0.684261974584555;0;0;0;1;1;1;1;2;0;0;;0;0;();();(-2000.0, -2000.0);
09:03:49:211;09:03:49:153;1448050787.13;(0.3537395715713501, 0.7918580161200629);20.7771263123;1.0;09:03:49:211;0;4;-1.5;170.5;0.684261974584555;0;0;0;1;1;1;1;2;0;0;;0;0;();();(-2000.0, -2000.0);
09:03:49:228;09:03:49:153;1448050787.13;(0.3537395715713501, 0.7918580161200629);20.7771263123;1.0;09:03:49:228;0;10;-1.5;170.5;0.684261974584555;0;0;0;1;1;1;1;2;0;0;;0;0;();();(-2000.0, -2000.0);
09:03:49:261;09:03:49:153;1448050787.13;(0.3537395715713501, 0.7918580161200629);20.7771263123;1.0;09:03:49:261;0;10;-1.5;170.5;0.684261974584555;0;0;0;1;1;1;1;2;0;0;;0;0;();();(-2000.0, -2000.0);
09:03:49:277;09:03:49:153;1448050787.13;(0.3537395715713501, 0.7918580161200629);20.7771263123;1.0;09:03:49:277;0;15;-1.5;170.5;0.684261974584555;0;0;0;1;1;1;1;2;0;0;;0;0;();();(-2000.0, -2000.0);
09:03:49:294;09:03:49:284;1448050787.2;(0.3545251369476318, 0.7913710912068685);22.1499404907;0.990660000483;09:03:49:294;0;3;-1.5;170.5;0.684261974584555;0;0;0;1;1;1;1;2;0;0;;0;0;();();(-2000.0, -2000.0);
09:03:49:311;09:03:49:284;1448050787.2;(0.3545251369476318, 0.7913710912068685);22.1499404907;0.990660000483;09:03:49:311;0;0;-1.5;170.5;0.684261974584555;0;0;0;1;1;1;1;2;0;0;;0;0;();();(-2000.0, -2000.0);
09:03:49:327;09:03:49:284;1448050787.2;(0.3545251369476318, 0.7913710912068685);22.1499404907;0.990660000483;09:03:49:327;0;5;-1.5;170.5;0.684261974584555;0;0;0;1;1;1;1;2;0;0;;0;0;();();(-2000.0, -2000.0);
09:03:49:360;09:03:49:348;1448050787.27;(0.35420210361480714, 0.7913335376315647);21.9257888794;1.0;09:03:49:360;0;4;-1.5;170.5;0.684261974584555;0;0;0;1;1;1;1;2;0;0;;0;0;();();(-2000.0, -2000.0);
09:03:49:376;09:03:49:348;1448050787.27;(0.35420210361480714, 0.7913335376315647);21.9257888794;1.0;09:03:49:376;0;4;-1.5;170.5;0.684261974584555;0;0;0;1;1;1;1;2;0;0;;0;0;();();(-2000.0, -2000.0);
09:03:49:394;09:03:49:348;1448050787.27;(0.35420210361480714, 0.7913335376315647);21.9257888794;1.0;09:03:49:394;0;10;-1.5;146.142857142857;0.684261974584555;0;0;0;1;1;1;1;2;0;0;;0;0;();();(-2000.0, -2000.0);
09:03:49:410;09:03:49:348;1448050787.27;(0.35420210361480714, 0.7913335376315647);21.9257888794;1.0;09:03:49:410;0;10;-1.5;170.5;0.684261974584555;0;0;0;1;1;1;1;2;0;0;;0;0;();();(-2000.0, -2000.0);
09:03:49:431;09:03:49:417;1448050787.33;(0.3540505409240723, 0.7916212505764432);21.4939403534;1.0;09:03:49:431;0;11;-1.5;146.142857142857;0.684261974584555;0;0;0;1;1;1;1;2;0;0;;0;0;();();(-2000.0, -2000.0);
09:03:49:459;09:03:49:417;1448050787.33;(0.3540505409240723, 0.7916212505764432);21.4939403534;1.0;09:03:49:459;0;9;-1.5;170.5;0.684261974584555;0;0;0;1;1;1;1;2;0;0;;0;0;();();(-2000.0, -2000.0);
09:03:49:476;09:03:49:417;1448050787.33;(0.3540505409240723, 0.7916212505764432);21.4939403534;1.0;09:03:49:476;0;15;-1.5;170.5;0.684261974584555;0;0;0;1;1;1;1;2;0;0;;0;0;();();(-2000.0, -2000.0);
09:03:49:493;09:03:49:484;1448050787.47;(0.3545895338058472, 0.7917262395222981);21.6091938019;1.0;09:03:49:492;0;9;-1.5;170.5;0.684261974584555;0;0;0;1;1;1;1;2;0;0;;0;0;();();(-2000.0, -2000.0);
09:03:49:510;09:03:49:484;1448050787.47;(0.3545895338058472, 0.7917262395222981);21.6091938019;1.0;09:03:49:509;0;15;-1.5;146.142857142857;0.684261974584555;0;0;0;1;1;1;1;2;0;0;;0;0;();();(-2000.0, -2000.0);
09:03:49:526;09:03:49:484;1448050787.47;(0.3545895338058472, 0.7917262395222981);21.6091938019;1.0;09:03:49:525;0;4;-1.5;170.5;0.684261974584555;0;0;0;1;1;1;1;2;0;0;;0;0;();();(-2000.0, -2000.0);
09:03:49:559;09:03:49:554;1448050787.53;(0.3545203924179077, 0.7913705190022786);22.3040657043;1.0;09:03:49:559;0;4;-1.49032258064516;1;0.0977517106549365;0;0;0;1;1;1;1;2;0;0;;0;0;();();(-2000.0, -2000.0);
09:03:49:575;09:03:49:554;1448050787.53;(0.3545203924179077, 0.7913705190022786);22.3040657043;1.0;09:03:49:575;0;10;-1.42258064516129;1;0.293255131964809;0;0;0;1;1;1;1;2;0;0;;0;0;();();(-2000.0, -2000.0);
09:03:49:592;09:03:49:554;1448050787.53;(0.3545203924179077, 0.7913705190022786);22.3040657043;1.0;09:03:49:592;0;15;-1.35806451612903;1;0.684261974584555;0;0;0;1;1;1;1;2;0;0;;0;0;();();(-2000.0, -2000.0);
09:03:49:608;09:03:49:554;1448050787.53;(0.3545203924179077, 0.7913705190022786);22.3040657043;1.0;09:03:49:608;0;15;-1.35806451612903;1;0.684261974584555;0;0;0;1;1;1;1;2;0;0;;0;0;();();(-2000.0, -2000.0);
09:03:49:641;09:03:49:616;1448050787.6;(0.3549757719039917, 0.7908934699164496);20.8358135223;0.973936343694;09:03:49:641;0;9;-1.3741935483871;1;0.684261974584555;0;0;0;1;1;1;1;2;0;0;;0;0;();();(-2000.0, -2000.0);
09:03:49:659;09:03:49:616;1448050787.6;(0.3549757719039917, 0.7908934699164496);20.8358135223;0.973936343694;09:03:49:659;0;8;-1.31935483870968;1;0.879765395894428;0;0;0;1;1;1;1;2;0;0;;0;0;();();(-2000.0, -2000.0);
09:03:49:675;09:03:49:616;1448050787.6;(0.3549757719039917, 0.7908934699164496);20.8358135223;0.973936343694;09:03:49:675;0;9;-1.36774193548387;1;0.684261974584555;0;0;0;1;1;1;1;2;0;0;;0;0;();();(-2000.0, -2000.0);
09:03:49:692;09:03:49:616;1448050787.6;(0.3549757719039917, 0.7908934699164496);20.8358135223;0.973936343694;09:03:49:692;0;15;-1.36774193548387;1;0.684261974584555;0;0;0;1;1;1;1;2;0;0;;0;0;();();(-2000.0, -2000.0);
09:03:49:708;09:03:49:616;1448050787.6;(0.3549757719039917, 0.7908934699164496);20.8358135223;0.973936343694;09:03:49:708;0;10;-1.34516129032258;1;0.684261974584555;0;0;0;1;1;1;1;2;0;0;;0;0;();();(-2000.0, -2000.0);
09:03:49:741;09:03:49:616;1448050787.6;(0.3549757719039917, 0.7908934699164496);20.8358135223;0.973936343694;09:03:49:741;0;5;-1.3741935483871;1;0.684261974584555;0;0;0;1;1;1;1;2;0;0;;0;0;();();(-2000.0, -2000.0);
09:03:49:757;09:03:49:616;1448050787.6;(0.3549757719039917, 0.7908934699164496);20.8358135223;0.973936343694;09:03:49:757;0;5;-1.3741935483871;1;0.684261974584555;0;0;0;1;1;1;1;2;0;0;;0;0;();();(-2000.0, -2000.0);
09:03:49:775;09:03:49:765;1448050787.73;(0.3540402889251709, 0.7913587994045681);21.5101261139;1.0;09:03:49:774;0;9;-1.3741935483871;1;0.684261974584555;0;0;0;1;1;1;1;2;0;0;;0;0;();();(-2000.0, -2000.0);
09:03:49:791;09:03:49:765;1448050787.73;(0.3540402889251709, 0.7913587994045681);21.5101261139;1.0;09:03:49:791;0;0;-1.34838709677419;1;0.684261974584555;0;0;0;1;1;1;1;2;0;0;;0;0;();();(-2000.0, -2000.0);
09:03:49:807;09:03:49:765;1448050787.73;(0.3540402889251709, 0.7913587994045681);21.5101261139;1.0;09:03:49:807;0;5;-1.3741935483871;1;0.684261974584555;0;0;0;1;1;1;1;2;0;0;;0;0;();();(-2000.0, -2000.0);
09:03:49:840;09:03:49:765;1448050787.73;(0.3540402889251709, 0.7913587994045681);21.5101261139;1.0;09:03:49:840;0;4;-1.3741935483871;1;0.684261974584555;0;0;0;1;1;1;1;2;0;0;;0;0;();();(-2000.0, -2000.0);
09:03:49:857;09:03:49:765;1448050787.73;(0.3540402889251709, 0.7913587994045681);21.5101261139;1.0;09:03:49:857;0;15;-1.3741935483871;1;0.684261974584555;0;0;0;1;1;1;1;2;0;0;;0;0;();();(-2000.0, -2000.0);
09:03:49:874;09:03:49:765;1448050787.73;(0.3540402889251709, 0.7913587994045681);21.5101261139;1.0;09:03:49:874;0;4;-1.37741935483871;1;0.684261974584555;0;0;0;1;1;1;1;2;0;0;;0;0;();();(-2000.0, -2000.0);
09:03:49:891;09:03:49:881;1448050787.8;(0.3543048143386841, 0.7914667977227106);21.6305198669;1.0;09:03:49:891;0;4;-1.37741935483871;1;0.684261974584555;0;0;0;1;1;1;1;2;0;0;;0;0;();();(-2000.0, -2000.0);
09:03:49:907;09:03:49:881;1448050787.8;(0.3543048143386841, 0.7914667977227106);21.6305198669;1.0;09:03:49:907;0;5;-1.37741935483871;1;0.684261974584555;0;0;0;1;1;1;1;2;0;0;;0;0;();();(-2000.0, -2000.0);
09:03:49:940;09:03:49:881;1448050787.8;(0.3543048143386841, 0.7914667977227106);21.6305198669;1.0;09:03:49:940;0;4;-1.34193548387097;1;0.684261974584555;0;0;0;1;1;1;1;2;0;0;;0;0;();();(-2000.0, -2000.0);
09:03:49:956;09:03:49:948;1448050787.93;(0.3544649124145508, 0.791572994656033);21.7682685852;1.0;09:03:49:956;0;0;-1.37741935483871;341;1.46627565982405;0;0;0;1;1;1;1;2;0;0;;0;0;();();(-2000.0, -2000.0);
09:03:49:974;09:03:49:948;1448050787.93;(0.3544649124145508, 0.791572994656033);21.7682685852;1.0;09:03:49:974;0;5;-1.35806451612903;341;1.85728250244379;0;0;0;1;1;1;1;2;0;0;;0;0;();();(-2000.0, -2000.0);
09:03:49:990;09:03:49:948;1448050787.93;(0.3544649124145508, 0.791572994656033);21.7682685852;1.0;09:03:49:990;0;10;-1.3741935483871;341;1.46627565982405;0;0;0;1;1;1;1;2;0;0;;0;0;();();(-2000.0, -2000.0);
09:03:50:023;09:03:50:012;1448050788.0;(0.3543915510177612, 0.7912219153510199);21.3724937439;1.0;09:03:50:023;0;15;-1.3741935483871;341;1.66177908113392;0;0;0;1;1;1;1;4;0;0;;0;0;();();(-2000.0, -2000.0);
09:03:50:038;09:03:50:012;1448050788.0;(0.3543915510177612, 0.7912219153510199);21.3724937439;1.0;09:03:50:038;0;4;-1.40967741935484;341;1.36852394916911;0;0;0;1;1;1;1;4;0;0;;0;0;();();(-2000.0, -2000.0);
09:03:50:054;09:03:50:012;1448050788.0;(0.3543915510177612, 0.7912219153510199);21.3724937439;1.0;09:03:50:054;0;10;-1.45161290322581;1;0.293255131964809;0;0;0;1;1;1;1;4;0;0;;0;0;();();(-2000.0, -2000.0);
09:03:50:071;09:03:50:012;1448050788.0;(0.3543915510177612, 0.7912219153510199);21.3724937439;1.0;09:03:50:071;0;4;-1.47741935483871;1;0.0977517106549365;0;0;0;1;1;1;1;4;0;0;;0;0;();();(-2000.0, -2000.0);
09:03:50:088;09:03:50:080;1448050788.07;(0.35418646335601806, 0.7909282896253798);21.7287139893;1.0;09:03:50:088;0;9;-1.5;1;0.0977517106549365;0;0;0;1;1;1;1;4;0;0;;0;0;();();(-2000.0, -2000.0);
09:03:50:120;09:03:50:080;1448050788.07;(0.35418646335601806, 0.7909282896253798);21.7287139893;1.0;09:03:50:120;0;15;-1.5;1;0;0;0;0;1;1;1;1;4;0;0;;0;0;();();(-2000.0, -2000.0);
09:03:50:137;09:03:50:080;1448050788.07;(0.35418646335601806, 0.7909282896253798);21.7287139893;1.0;09:03:50:137;0;5;-1.5;1;0;0;0;0;1;1;1;1;4;0;0;;0;0;();();(-2000.0, -2000.0);
09:03:50:153;09:03:50:148;1448050788.13;(0.3538121938705444, 0.7919019487169054);22.5051250458;1.0;09:03:50:153;0;10;-1.5;1;0.0977517106549365;0;0;0;1;1;1;1;4;0;0;;0;0;();();(-2000.0, -2000.0);
09:03:50:170;09:03:50:148;1448050788.13;(0.3538121938705444, 0.7919019487169054);22.5051250458;1.0;09:03:50:170;0;4;-1.5;1;0.0977517106549365;0;0;0;1;1;1;1;4;0;0;;0;0;();();(-2000.0, -2000.0);
09:03:50:187;09:03:50:148;1448050788.13;(0.3538121938705444, 0.7919019487169054);22.5051250458;1.0;09:03:50:187;0;9;-1.5;170.5;0.684261974584555;0;0;0;1;1;1;1;4;0;0;;0;0;();();(-2000.0, -2000.0);
09:03:50:220;09:03:50:212;1448050788.2;(0.35331566333770753, 0.7920487721761068);21.316286087;0.989209323234;09:03:50:220;0;0;-1.5;146.142857142857;0.684261974584555;0;0;0;1;1;1;1;4;0;0;;0;0;();();(-2000.0, -2000.0);
09:03:50:236;09:03:50:212;1448050788.2;(0.35331566333770753, 0.7920487721761068);21.316286087;0.989209323234;09:03:50:236;0;5;-1.5;170.5;0.684261974584555;0;0;0;1;1;1;1;4;0;0;;0;0;();();(-2000.0, -2000.0);
09:03:50:254;09:03:50:212;1448050788.2;(0.35331566333770753, 0.7920487721761068);21.316286087;0.989209323234;09:03:50:254;0;9;-1.5;146.142857142857;0.684261974584555;0;0;0;1;1;1;1;4;0;0;;0;0;();();(-2000.0, -2000.0);
09:03:50:270;09:03:50:212;1448050788.2;(0.35331566333770753, 0.7920487721761068);21.316286087;0.989209323234;09:03:50:270;0;9;-1.5;146.142857142857;0.684261974584555;0;0;0;1;1;1;1;4;0;0;;0;0;();();(-2000.0, -2000.0);
09:03:50:287;09:03:50:280;1448050788.27;(0.35447330474853517, 0.7918576982286241);21.2160110474;1.0;09:03:50:287;0;10;-1.5;146.142857142857;0.684261974584555;0;0;0;1;1;1;1;4;0;0;;0;0;();();(-2000.0, -2000.0);
09:03:50:320;09:03:50:280;1448050788.27;(0.35447330474853517, 0.7918576982286241);21.2160110474;1.0;09:03:50:320;0;4;-1.5;170.5;0.684261974584555;0;0;0;1;1;1;1;4;0;0;;0;0;();();(-2000.0, -2000.0);
09:03:50:337;09:03:50:280;1448050788.27;(0.35447330474853517, 0.7918576982286241);21.2160110474;1.0;09:03:50:337;0;15;-1.5;170.5;0.684261974584555;0;0;0;1;1;1;1;4;0;0;;0;0;();();(-2000.0, -2000.0);
09:03:50:352;09:03:50:344;1448050788.33;(0.3540456771850586, 0.7917424731784397);21.5931777954;0.99163544828;09:03:50:352;0;5;-1.5;85.2500000000001;1.17302052785924;0;0;0;1;1;1;1;4;0;0;;0;0;();();(-2000.0, -2000.0);
09:03:50:369;09:03:50:344;1448050788.33;(0.3540456771850586, 0.7917424731784397);21.5931777954;0.99163544828;09:03:50:369;0;15;-1.5;170.5;0.684261974584555;0;0;0;1;1;1;1;4;0;0;;0;0;();();(-2000.0, -2000.0);
09:03:50:402;09:03:50:344;1448050788.33;(0.3540456771850586, 0.7917424731784397);21.5931777954;0.99163544828;09:03:50:402;0;15;-1.5;170.5;0.684261974584555;0;0;0;1;1;1;1;4;0;0;;0;0;();();(-2000.0, -2000.0);
09:03:50:419;09:03:50:344;1448050788.33;(0.3540456771850586, 0.7917424731784397);21.5931777954;0.99163544828;09:03:50:419;0;4;-1.5;146.142857142857;0.684261974584555;0;0;0;1;1;1;1;4;0;0;;0;0;();();(-2000.0, -2000.0);
09:03:50:435;09:03:50:344;1448050788.33;(0.3540456771850586, 0.7917424731784397);21.5931777954;0.99163544828;09:03:50:435;0;9;-1.5;170.5;0.684261974584555;0;0;0;1;1;1;1;4;0;0;;0;0;();();(-2000.0, -2000.0);
09:03:50:452;09:03:50:344;1448050788.33;(0.3540456771850586, 0.7917424731784397);21.5931777954;0.99163544828;09:03:50:452;0;5;-1.5;146.142857142857;0.684261974584555;0;0;0;1;1;1;1;4;0;0;;0;0;();();(-2000.0, -2000.0);
09:03:50:469;09:03:50:344;1448050788.33;(0.3540456771850586, 0.7917424731784397);21.5931777954;0.99163544828;09:03:50:469;0;10;-1.5;85.2500000000001;1.17302052785924;0;0;0;1;1;1;1;4;0;0;;0;0;();();(-2000.0, -2000.0);
09:03:50:502;09:03:50:481;1448050788.4;(0.3544584035873413, 0.7917044321695963);21.0558300018;1.0;09:03:50:502;0;15;-1.5;170.5;0.684261974584555;0;0;0;1;1;1;1;4;0;0;;0;0;();();(-2000.0, -2000.0);
09:03:50:518;09:03:50:481;1448050788.4;(0.3544584035873413, 0.7917044321695963);21.0558300018;1.0;09:03:50:518;0;5;-1.5;146.142857142857;0.684261974584555;0;0;0;1;1;1;1;4;0;0;;0;0;();();(-2000.0, -2000.0);
09:03:50:535;09:03:50:481;1448050788.4;(0.3544584035873413, 0.7917044321695963);21.0558300018;1.0;09:03:50:535;0;10;-1.5;170.5;0.684261974584555;0;0;0;1;1;1;1;4;0;0;;0;0;();();(-2000.0, -2000.0);
09:03:50:551;09:03:50:544;1448050788.53;(0.3550388813018799, 0.7912265565660265);21.580406189;1.0;09:03:50:551;0;5;-1.5;170.5;0.684261974584555;0;0;0;1;1;1;1;4;0;0;;0;0;();();(-2000.0, -2000.0);
09:03:50:567;09:03:50:544;1448050788.53;(0.3550388813018799, 0.7912265565660265);21.580406189;1.0;09:03:50:567;0;9;-1.5;1;0;0;0;0;1;1;1;1;4;0;0;;0;0;();();(-2000.0, -2000.0);
09:03:50:601;09:03:50:544;1448050788.53;(0.3550388813018799, 0.7912265565660265);21.580406189;1.0;09:03:50:601;0;0;-1.5;1;0;0;0;0;1;1;1;1;4;0;0;;0;0;();();(-2000.0, -2000.0);
09:03:50:617;09:03:50:612;1448050788.6;(0.3540388584136963, 0.7915729734632704);21.7057800293;1.0;09:03:50:617;0;15;-1.5;1.50662739322533;0.0977517106549365;0;0;0;1;1;1;1;4;0;0;;0;0;();();(-2000.0, -2000.0);
09:03:50:634;09:03:50:612;1448050788.6;(0.3540388584136963, 0.7915729734632704);21.7057800293;1.0;09:03:50:634;0;10;-1.5;170.5;0.684261974584555;0;0;0;1;1;1;1;4;0;0;;0;0;();();(-2000.0, -2000.0);
09:03:50:650;09:03:50:612;1448050788.6;(0.3540388584136963, 0.7915729734632704);21.7057800293;1.0;09:03:50:650;0;4;-1.5;85.2500000000001;1.17302052785924;0;0;0;1;1;1;1;4;0;0;;0;0;();();(-2000.0, -2000.0);
09:03:50:667;09:03:50:612;1448050788.6;(0.3540388584136963, 0.7915729734632704);21.7057800293;1.0;09:03:50:667;0;4;-1.5;170.5;0.684261974584555;0;0;0;1;1;1;1;4;0;0;;0;0;();();(-2000.0, -2000.0);
09:03:50:701;09:03:50:612;1448050788.6;(0.3540388584136963, 0.7915729734632704);21.7057800293;1.0;09:03:50:701;0;10;-1.5;146.142857142857;0.684261974584555;0;0;0;1;1;1;1;4;0;0;;0;0;();();(-2000.0, -2000.0);
09:03:50:718;09:03:50:612;1448050788.6;(0.3540388584136963, 0.7915729734632704);21.7057800293;1.0;09:03:50:718;0;5;-1.5;146.142857142857;0.684261974584555;0;0;0;1;1;1;1;4;0;0;;0;0;();();(-2000.0, -2000.0);
09:03:50:735;09:03:50:612;1448050788.6;(0.3540388584136963, 0.7915729734632704);21.7057800293;1.0;09:03:50:735;0;9;-1.5;170.5;0.684261974584555;0;0;0;1;1;1;1;4;0;0;;0;0;();();(-2000.0, -2000.0);
09:03:50:750;09:03:50:745;1448050788.67;(0.35378317832946776, 0.7917524973551432);21.3305511475;1.0;09:03:50:750;0;9;-1.5;170.5;0.684261974584555;0;0;0;1;1;1;1;4;0;0;;0;0;();();(-2000.0, -2000.0);
09:03:50:767;09:03:50:745;1448050788.67;(0.35378317832946776, 0.7917524973551432);21.3305511475;1.0;09:03:50:767;0;9;-1.5;85.2500000000001;1.17302052785924;0;0;0;1;1;1;1;4;0;0;;0;0;();();(-2000.0, -2000.0);
09:03:50:800;09:03:50:745;1448050788.67;(0.35378317832946776, 0.7917524973551432);21.3305511475;1.0;09:03:50:800;0;14;-1.5;170.5;0.684261974584555;0;0;0;1;1;1;1;4;0;0;;0;0;();();(-2000.0, -2000.0);
09:03:50:817;09:03:50:812;1448050788.8;(0.35447053909301757, 0.7912387847900391);22.3445835114;1.0;09:03:50:817;0;15;-1.5;170.5;0.684261974584555;0;0;0;1;1;1;1;4;0;0;;0;0;();();(-2000.0, -2000.0);
09:03:50:833;09:03:50:812;1448050788.8;(0.35447053909301757, 0.7912387847900391);22.3445835114;1.0;09:03:50:833;0;9;-1.5;8.45454545454545;0.684261974584555;0;0;0;1;1;1;1;4;0;0;;0;0;();();(-2000.0, -2000.0);
09:03:50:850;09:03:50:812;1448050788.8;(0.35447053909301757, 0.7912387847900391);22.3445835114;1.0;09:03:50:850;0;5;-1.5;1;0.0977517106549365;0;0;0;1;1;1;1;4;0;0;;0;0;();();(-2000.0, -2000.0);
09:03:50:866;09:03:50:812;1448050788.8;(0.35447053909301757, 0.7912387847900391);22.3445835114;1.0;09:03:50:866;0;14;-1.5;170.5;0.684261974584555;0;0;0;1;1;1;1;4;0;0;;0;0;();();(-2000.0, -2000.0);
09:03:50:899;09:03:50:812;1448050788.8;(0.35447053909301757, 0.7912387847900391);22.3445835114;1.0;09:03:50:899;0;9;-1.5;170.5;0.684261974584555;0;0;0;1;1;1;1;4;0;0;;0;0;();();(-2000.0, -2000.0);
09:03:50:916;09:03:50:812;1448050788.8;(0.35447053909301757, 0.7912387847900391);22.3445835114;1.0;09:03:50:916;0;15;-1.5;146.142857142857;0.684261974584555;0;0;0;1;1;1;1;4;0;0;;0;0;();();(-2000.0, -2000.0);
09:03:50:933;09:03:50:812;1448050788.8;(0.35447053909301757, 0.7912387847900391);22.3445835114;1.0;09:03:50:933;0;4;-1.5;170.5;0.684261974584555;0;0;0;1;1;1;1;4;0;0;;0;0;();();(-2000.0, -2000.0);
09:03:50:950;09:03:50:945;1448050788.93;(0.354862117767334, 0.7913425233629015);21.1798820496;0.937293404868;09:03:50:950;0;10;-1.5;170.5;0.684261974584555;0;0;0;1;1;1;1;4;0;0;;0;0;();();(-2000.0, -2000.0);
09:03:50:983;09:03:50:945;1448050788.93;(0.354862117767334, 0.7913425233629015);21.1798820496;0.937293404868;09:03:50:983;0;15;-1.5;85.2500000000001;1.17302052785924;0;0;0;1;1;1;1;4;0;0;;0;0;();();(-2000.0, -2000.0);
09:03:50:999;09:03:50:945;1448050788.93;(0.354862117767334, 0.7913425233629015);21.1798820496;0.937293404868;09:03:50:999;0;10;-1.5;1;0;0;0;0;1;1;1;1;4;0;0;;0;0;();();(-2000.0, -2000.0);
09:03:51:015;09:03:50:945;1448050788.93;(0.354862117767334, 0.7913425233629015);21.1798820496;0.937293404868;09:03:51:015;0;10;-1.5;170.5;0.684261974584555;0;0;0;1;1;1;1;4;0;0;;0;0;();();(-2000.0, -2000.0);
09:03:51:032;09:03:50:945;1448050788.93;(0.354862117767334, 0.7913425233629015);21.1798820496;0.937293404868;09:03:51:032;0;5;-1.5;170.5;0.684261974584555;0;0;0;1;1;1;1;4;0;0;;0;0;();();(-2000.0, -2000.0);
09:03:51:048;09:03:50:945;1448050788.93;(0.354862117767334, 0.7913425233629015);21.1798820496;0.937293404868;09:03:51:048;0;9;-1.5;85.2500000000001;1.17302052785924;0;0;0;1;1;1;1;4;0;0;;0;0;();();(-2000.0, -2000.0);
09:03:51:081;09:03:51:076;1448050789.0;(0.35455682277679446, 0.791587045457628);21.8844013214;1.0;09:03:51:081;0;9;-1.5;170.5;0.684261974584555;0;0;0;1;1;1;1;4;0;0;;0;0;();();(-2000.0, -2000.0);
09:03:51:099;09:03:51:076;1448050789.0;(0.35455682277679446, 0.791587045457628);21.8844013214;1.0;09:03:51:099;0;5;-1.5;170.5;0.684261974584555;0;0;0;1;1;1;1;4;0;0;;0;0;();();(-2000.0, -2000.0);
09:03:51:116;09:03:51:076;1448050789.0;(0.35455682277679446, 0.791587045457628);21.8844013214;1.0;09:03:51:116;0;10;-1.5;146.142857142857;0.684261974584555;0;0;0;1;1;1;1;4;0;0;;0;0;();();(-2000.0, -2000.0);
09:03:51:132;09:03:51:076;1448050789.0;(0.35455682277679446, 0.791587045457628);21.8844013214;1.0;09:03:51:132;0;4;-1.5;170.5;0.684261974584555;0;0;0;1;1;1;1;4;0;0;;0;0;();();(-2000.0, -2000.0);
09:03:51:148;09:03:51:146;1448050789.13;(0.35470917224884035, 0.7916583167182074);21.6896629333;1.0;09:03:51:148;0;10;-1.5;146.142857142857;0.684261974584555;0;0;0;1;1;1;1;4;0;0;;0;0;();();(-2000.0, -2000.0);
09:03:51:182;09:03:51:146;1448050789.13;(0.35470917224884035, 0.7916583167182074);21.6896629333;1.0;09:03:51:182;0;10;-1.5;1;0;0;0;0;1;1;1;1;4;0;0;;0;0;();();(-2000.0, -2000.0);
09:03:51:198;09:03:51:146;1448050789.13;(0.35470917224884035, 0.7916583167182074);21.6896629333;1.0;09:03:51:198;0;4;-1.5;1;0.0977517106549365;0;0;0;1;1;1;1;4;0;0;;0;0;();();(-2000.0, -2000.0);
09:03:51:215;09:03:51:146;1448050789.13;(0.35470917224884035, 0.7916583167182074);21.6896629333;1.0;09:03:51:215;0;9;-1.5;1;0;0;0;0;1;1;1;1;4;0;0;;0;0;();();(-2000.0, -2000.0);
09:03:51:231;09:03:51:146;1448050789.13;(0.35470917224884035, 0.7916583167182074);21.6896629333;1.0;09:03:51:231;0;15;-1.5;1;0.0977517106549365;0;0;0;1;1;1;1;4;0;0;;0;0;();();(-2000.0, -2000.0);
09:03:51:247;09:03:51:146;1448050789.13;(0.35470917224884035, 0.7916583167182074);21.6896629333;1.0;09:03:51:247;0;10;-1.5;1;0;0;0;0;1;1;1;1;4;0;0;;0;0;();();(-2000.0, -2000.0);
09:03:51:280;09:03:51:277;1448050789.2;(0.3540951728820801, 0.7918056911892362);21.3176403046;1.0;09:03:51:280;0;10;-1.5;170.5;0.684261974584555;0;0;0;1;1;1;1;4;0;0;;0;0;();();(-2000.0, -2000.0);
09:03:51:297;09:03:51:277;1448050789.2;(0.3540951728820801, 0.7918056911892362);21.3176403046;1.0;09:03:51:297;0;15;-1.5;170.5;0.684261974584555;0;0;0;1;1;1;1;4;0;0;;0;0;();();(-2000.0, -2000.0);
09:03:51:313;09:03:51:277;1448050789.2;(0.3540951728820801, 0.7918056911892362);21.3176403046;1.0;09:03:51:313;0;5;-1.5;170.5;0.684261974584555;0;0;0;1;1;1;1;4;0;0;;0;0;();();(-2000.0, -2000.0);
09:03:51:330;09:03:51:277;1448050789.2;(0.3540951728820801, 0.7918056911892362);21.3176403046;1.0;09:03:51:330;0;0;-1.5;170.5;0.684261974584555;0;0;0;1;1;1;1;4;0;0;;0;0;();();(-2000.0, -2000.0);
09:03:51:347;09:03:51:343;1448050789.27;(0.35469114780426025, 0.7918037626478407);21.1971263885;1.0;09:03:51:347;0;4;-1.5;170.5;0.684261974584555;0;0;0;1;1;1;1;4;0;0;;0;0;();();(-2000.0, -2000.0);
09:03:51:380;09:03:51:343;1448050789.27;(0.35469114780426025, 0.7918037626478407);21.1971263885;1.0;09:03:51:380;0;9;-1.5;5.55978260869565;0.684261974584555;0;0;0;1;1;1;1;4;0;0;;0;0;();();(-2000.0, -2000.0);
09:03:51:396;09:03:51:343;1448050789.27;(0.35469114780426025, 0.7918037626478407);21.1971263885;1.0;09:03:51:396;0;14;-1.5;5.14070351758794;0.586510263929619;0;0;0;1;1;1;1;4;0;0;;0;0;();();(-2000.0, -2000.0);
09:03:51:413;09:03:51:408;1448050789.33;(0.35445375442504884, 0.7919277826944987);21.8278751373;1.0;09:03:51:413;0;5;-1.5;1;0.0977517106549365;0;0;0;1;1;1;1;4;0;0;;0;0;();();(-2000.0, -2000.0);
09:03:51:430;09:03:51:408;1448050789.33;(0.35445375442504884, 0.7919277826944987);21.8278751373;1.0;09:03:51:430;0;15;-1.5;1;0.0977517106549365;0;0;0;1;1;1;1;4;0;0;;0;0;();();(-2000.0, -2000.0);
09:03:51:446;09:03:51:408;1448050789.33;(0.35445375442504884, 0.7919277826944987);21.8278751373;1.0;09:03:51:446;0;4;-1.5;1;0;0;0;0;1;1;1;1;4;0;0;;0;0;();();(-2000.0, -2000.0);
09:03:51:479;09:03:51:478;1448050789.4;(0.3542619705200195, 0.7915158801608615);22.3190021515;0.982541901266;09:03:51:479;0;5;-1.5;170.5;0.684261974584555;0;0;0;1;1;1;1;4;0;0;;0;0;();();(-2000.0, -2000.0);
09:03:51:495;09:03:51:478;1448050789.4;(0.3542619705200195, 0.7915158801608615);22.3190021515;0.982541901266;09:03:51:495;0;10;-1.5;1;0.0977517106549365;0;0;0;1;1;1;1;4;0;0;;0;0;();();(-2000.0, -2000.0);
09:03:51:513;09:03:51:478;1448050789.4;(0.3542619705200195, 0.7915158801608615);22.3190021515;0.982541901266;09:03:51:513;0;15;-1.5;1;0;0;0;0;1;1;1;1;4;0;0;;0;0;();();(-2000.0, -2000.0);
09:03:51:529;09:03:51:478;1448050789.4;(0.3542619705200195, 0.7915158801608615);22.3190021515;0.982541901266;09:03:51:529;0;9;-1.5;1;0.0977517106549365;0;0;0;1;1;1;1;4;0;0;;0;0;();();(-2000.0, -2000.0);
09:03:51:562;09:03:51:541;1448050789.47;(0.35343294143676757, 0.7917015499538845);22.1333599091;0.987967969406;09:03:51:562;0;9;-1.5;1;0;0;0;0;1;1;1;1;4;0;0;;0;0;();();(-2000.0, -2000.0);
09:03:51:579;09:03:51:541;1448050789.47;(0.35343294143676757, 0.7917015499538845);22.1333599091;0.987967969406;09:03:51:579;0;15;-1.5;1;0.0977517106549365;0;0;0;1;1;1;1;4;0;0;;0;0;();();(-2000.0, -2000.0);
09:03:51:595;09:03:51:541;1448050789.47;(0.35343294143676757, 0.7917015499538845);22.1333599091;0.987967969406;09:03:51:595;0;9;-1.5;1;0;0;0;0;1;1;1;1;4;0;0;;0;0;();();(-2000.0, -2000.0);
09:03:51:611;09:03:51:609;1448050789.53;(0.35374112129211427, 0.7923792309231228);22.072637558;1.0;09:03:51:611;0;4;-1.5;1;0.0977517106549365;0;0;0;1;1;1;1;4;0;0;;0;0;();();(-2000.0, -2000.0);
09:03:51:628;09:03:51:609;1448050789.53;(0.35374112129211427, 0.7923792309231228);22.072637558;1.0;09:03:51:628;0;10;-1.5;1;0;0;0;0;1;1;1;1;4;0;0;;0;0;();();(-2000.0, -2000.0);
09:03:51:662;09:03:51:609;1448050789.53;(0.35374112129211427, 0.7923792309231228);22.072637558;1.0;09:03:51:662;0;10;-1.5;170.5;0.684261974584555;0;0;0;1;1;1;1;4;0;0;;0;0;();();(-2000.0, -2000.0);
09:03:51:677;09:03:51:672;1448050789.6;(0.3543238162994385, 0.7910256067911784);22.0254802704;1.0;09:03:51:677;0;15;-1.5;1;0.0977517106549365;0;0;0;1;1;1;1;4;0;0;;0;0;();();(-2000.0, -2000.0);
09:03:51:695;09:03:51:672;1448050789.6;(0.3543238162994385, 0.7910256067911784);22.0254802704;1.0;09:03:51:695;0;4;-1.5;1;0;0;0;0;1;1;1;1;4;0;0;;0;0;();();(-2000.0, -2000.0);
09:03:51:712;09:03:51:672;1448050789.6;(0.3543238162994385, 0.7910256067911784);22.0254802704;1.0;09:03:51:712;0;0;-1.5;1;0;0;0;0;1;1;1;1;4;0;0;;0;0;();();(-2000.0, -2000.0);
09:03:51:728;09:03:51:672;1448050789.6;(0.3543238162994385, 0.7910256067911784);22.0254802704;1.0;09:03:51:728;0;5;-1.5;1;0.0977517106549365;0;0;0;1;1;1;1;4;0;0;;0;0;();();(-2000.0, -2000.0);
09:03:51:761;09:03:51:740;1448050789.67;(0.3545976638793945, 0.7915712568495008);20.6318511963;0.958975151582;09:03:51:761;0;4;-1.5;170.5;0.684261974584555;0;0;0;1;1;1;1;4;0;0;;0;0;();();(-2000.0, -2000.0);
09:03:51:777;09:03:51:740;1448050789.67;(0.3545976638793945, 0.7915712568495008);20.6318511963;0.958975151582;09:03:51:777;0;10;-1.5;170.5;0.684261974584555;0;0;0;1;1;1;1;4;0;0;;0;0;();();(-2000.0, -2000.0);
09:03:51:794;09:03:51:740;1448050789.67;(0.3545976638793945, 0.7915712568495008);20.6318511963;0.958975151582;09:03:51:794;0;10;-1.5;170.5;0.684261974584555;0;0;0;1;1;1;1;4;0;0;;0;0;();();(-2000.0, -2000.0);
09:03:51:811;09:03:51:740;1448050789.67;(0.3545976638793945, 0.7915712568495008);20.6318511963;0.958975151582;09:03:51:811;0;15;-1.5;170.5;0.684261974584555;0;0;0;1;1;1;1;4;0;0;;0;0;();();(-2000.0, -2000.0);
09:03:51:827;09:03:51:812;1448050789.73;(0.35485594272613524, 0.7915246115790473);21.4668560028;1.0;09:03:51:827;0;4;-1.5;146.142857142857;0.684261974584555;0;0;0;1;1;1;1;4;0;0;;0;0;();();(-2000.0, -2000.0);
09:03:51:860;09:03:51:812;1448050789.73;(0.35485594272613524, 0.7915246115790473);21.4668560028;1.0;09:03:51:860;0;4;-1.5;170.5;0.684261974584555;0;0;0;1;1;1;1;4;0;0;;0;0;();();(-2000.0, -2000.0);
09:03:51:876;09:03:51:872;1448050789.8;(0.3549208164215088, 0.7915547900729709);21.4947509766;1.0;09:03:51:876;0;10;-1.5;1;0;0;0;0;1;1;1;1;4;0;0;;0;0;();();(-2000.0, -2000.0);
09:03:51:894;09:03:51:872;1448050789.8;(0.3549208164215088, 0.7915547900729709);21.4947509766;1.0;09:03:51:894;0;10;-1.5;1;0;0;0;0;1;1;1;1;4;0;0;;0;0;();();(-2000.0, -2000.0);
09:03:51:910;09:03:51:872;1448050789.8;(0.3549208164215088, 0.7915547900729709);21.4947509766;1.0;09:03:51:910;0;9;-1.5;1;0.0977517106549365;0;0;0;1;1;1;1;4;0;0;;0;0;();();(-2000.0, -2000.0);
09:03:51:926;09:03:51:872;1448050789.8;(0.3549208164215088, 0.7915547900729709);21.4947509766;1.0;09:03:51:926;0;4;-1.5;1;0;0;0;0;1;1;1;1;4;0;0;;0;0;();();(-2000.0, -2000.0);
09:03:51:960;09:03:51:940;1448050789.87;(0.35515902042388914, 0.7921603308783637);23.2064361572;1.0;09:03:51:960;0;0;-1.5;170.5;0.684261974584555;0;0;0;1;1;1;1;4;0;0;;0;0;();();(-2000.0, -2000.0);
09:03:51:976;09:03:51:940;1448050789.87;(0.35515902042388914, 0.7921603308783637);23.2064361572;1.0;09:03:51:976;0;10;-1.5;170.5;0.684261974584555;0;0;0;1;1;1;1;4;0;0;;0;0;();();(-2000.0, -2000.0);
09:03:51:992;09:03:51:940;1448050789.87;(0.35515902042388914, 0.7921603308783637);23.2064361572;1.0;09:03:51:992;0;10;-1.5;170.5;0.684261974584555;0;0;0;1;1;1;1;4;0;0;;0;0;();();(-2000.0, -2000.0);
09:03:52:010;09:03:52:004;1448050789.93;(0.35527241230010986, 0.7933701621161566);22.8556976318;0.939992713872;09:03:52:010;0;4;-1.5;1;0.0977517106549365;0;0;0;1;1;1;1;4;0;0;;0;0;();();(-2000.0, -2000.0);
09:03:52:026;09:03:52:004;1448050789.93;(0.35527241230010986, 0.7933701621161566);22.8556976318;0.939992713872;09:03:52:026;0;15;-1.5;146.142857142857;0.684261974584555;0;0;0;1;1;1;1;4;0;0;;0;0;();();(-2000.0, -2000.0);
09:03:52:058;09:03:52:004;1448050789.93;(0.35527241230010986, 0.7933701621161566);22.8556976318;0.939992713872;09:03:52:058;0;15;-1.5;341;0.684261974584555;0;0;0;1;1;1;1;4;0;0;;0;0;();();(-2000.0, -2000.0);
09:03:52:473;09:03:52:469;1448050790.4;(0.36938421726226806, 0.7967917760213217);22.8420753479;1.0;09:03:52:473;0;4;-1.5;1;0;0;0;0;1;1;1;1;4;0;0;;0;0;();();(-2000.0, -2000.0);
09:03:52:478;09:03:52:469;1448050790.4;(0.36938421726226806, 0.7967917760213217);22.8420753479;1.0;09:03:52:478;0;15;-1.5;1;0;0;0;0;1;1;1;1;4;0;0;;0;0;();();(-2000.0, -2000.0);
09:03:52:483;09:03:52:469;1448050790.4;(0.36938421726226806, 0.7967917760213217);22.8420753479;1.0;09:03:52:483;0;9;-1.5;1;0.0977517106549365;0;0;0;1;1;1;1;4;0;0;;0;0;();();(-2000.0, -2000.0);
09:03:52:487;09:03:52:469;1448050790.4;(0.36938421726226806, 0.7967917760213217);22.8420753479;1.0;09:03:52:487;0;9;-1.5;1;0.0977517106549365;0;0;0;1;1;1;1;4;0;0;;0;0;();();(-2000.0, -2000.0);
09:03:52:492;09:03:52:469;1448050790.4;(0.36938421726226806, 0.7967917760213217);22.8420753479;1.0;09:03:52:492;0;9;-1.5;1;0.0977517106549365;0;0;0;1;1;1;1;4;0;0;;0;0;();();(-2000.0, -2000.0);
09:03:52:497;09:03:52:469;1448050790.4;(0.36938421726226806, 0.7967917760213217);22.8420753479;1.0;09:03:52:497;0;4;-1.5;1;0;0;0;0;1;1;1;1;4;0;0;;0;0;();();(-2000.0, -2000.0);
09:03:52:501;09:03:52:469;1448050790.4;(0.36938421726226806, 0.7967917760213217);22.8420753479;1.0;09:03:52:501;0;4;-1.5;1;0;0;0;0;1;1;1;1;4;0;0;;0;0;();();(-2000.0, -2000.0);
09:03:52:506;09:03:52:469;1448050790.4;(0.36938421726226806, 0.7967917760213217);22.8420753479;1.0;09:03:52:506;0;4;-1.5;1;0;0;0;0;1;1;1;1;4;0;0;;0;0;();();(-2000.0, -2000.0);
09:03:52:510;09:03:52:469;1448050790.4;(0.36938421726226806, 0.7967917760213217);22.8420753479;1.0;09:03:52:510;0;4;-1.5;1;0;0;0;0;1;1;1;1;4;0;0;;0;0;();();(-2000.0, -2000.0);
09:03:52:515;09:03:52:469;1448050790.4;(0.36938421726226806, 0.7967917760213217);22.8420753479;1.0;09:03:52:515;0;0;-1.5;1.33029908972692;0.0977517106549365;0;0;0;1;1;1;1;4;0;0;;0;0;();();(-2000.0, -2000.0);
09:03:52:517;09:03:52:469;1448050790.4;(0.36938421726226806, 0.7967917760213217);22.8420753479;1.0;09:03:52:517;0;10;-1.5;170.5;0.684261974584555;0;0;0;1;1;1;1;4;0;0;;0;0;();();(-2000.0, -2000.0);
09:03:52:519;09:03:52:469;1448050790.4;(0.36938421726226806, 0.7967917760213217);22.8420753479;1.0;09:03:52:519;0;10;-1.5;170.5;0.684261974584555;0;0;0;1;1;1;1;4;0;0;;0;0;();();(-2000.0, -2000.0);
09:03:52:521;09:03:52:469;1448050790.4;(0.36938421726226806, 0.7967917760213217);22.8420753479;1.0;09:03:52:521;0;10;-1.5;170.5;0.684261974584555;0;0;0;1;1;1;1;4;0;0;;0;0;();();(-2000.0, -2000.0);
09:03:52:528;09:03:52:469;1448050790.4;(0.36938421726226806, 0.7967917760213217);22.8420753479;1.0;09:03:52:528;0;10;-1.5;170.5;0.684261974584555;0;0;0;1;1;1;1;4;0;0;;0;0;();();(-2000.0, -2000.0);
09:03:52:530;09:03:52:469;1448050790.4;(0.36938421726226806, 0.7967917760213217);22.8420753479;1.0;09:03:52:530;0;10;-1.5;170.5;0.684261974584555;0;0;0;1;1;1;1;4;0;0;;0;0;();();(-2000.0, -2000.0);
09:03:52:532;09:03:52:469;1448050790.4;(0.36938421726226806, 0.7967917760213217);22.8420753479;1.0;09:03:52:532;0;10;-1.5;170.5;0.684261974584555;0;0;0;1;1;1;1;4;0;0;;0;0;();();(-2000.0, -2000.0);
09:03:52:534;09:03:52:469;1448050790.4;(0.36938421726226806, 0.7967917760213217);22.8420753479;1.0;09:03:52:534;0;10;-1.5;170.5;0.684261974584555;0;0;0;1;1;1;1;4;0;0;;0;0;();();(-2000.0, -2000.0);
09:03:52:538;09:03:52:537;1448050790.47;(0.31726133823394775, 0.7887731128268771);20.9968566895;0.955088890114;09:03:52:538;0;10;-1.5;170.5;0.684261974584555;0;0;0;1;1;1;1;4;0;0;;0;0;();();(-2000.0, -2000.0);
09:03:52:540;09:03:52:537;1448050790.47;(0.31726133823394775, 0.7887731128268771);20.9968566895;0.955088890114;09:03:52:540;0;10;-1.5;170.5;0.684261974584555;0;0;0;1;1;1;1;4;0;0;;0;0;();();(-2000.0, -2000.0);
09:03:52:543;09:03:52:537;1448050790.47;(0.31726133823394775, 0.7887731128268771);20.9968566895;0.955088890114;09:03:52:543;0;10;-1.5;170.5;0.684261974584555;0;0;0;1;1;1;1;4;0;0;;0;0;();();(-2000.0, -2000.0);
09:03:52:555;09:03:52:537;1448050790.47;(0.31726133823394775, 0.7887731128268771);20.9968566895;0.955088890114;09:03:52:555;0;9;-1.5;170.5;0.684261974584555;0;0;0;1;1;1;1;4;0;0;;0;0;();();(-2000.0, -2000.0);
09:03:52:571;09:03:52:537;1448050790.47;(0.31726133823394775, 0.7887731128268771);20.9968566895;0.955088890114;09:03:52:571;0;15;-1.5;170.5;0.684261974584555;0;0;0;1;1;1;1;4;0;0;;0;0;();();(-2000.0, -2000.0);
09:03:52:588;09:03:52:537;1448050790.47;(0.31726133823394775, 0.7887731128268771);20.9968566895;0.955088890114;09:03:52:588;0;9;-1.5;170.5;0.684261974584555;0;0;0;1;1;1;1;4;0;0;;0;0;();();(-2000.0, -2000.0);
09:03:52:621;09:03:52:606;1448050790.53;(0.3737126350402832, 0.7981317308213975);22.795085907;0.960233824627;09:03:52:621;0;13;-1.5;1;0;0;0;0;1;1;1;1;4;0;0;;0;0;();();(-2000.0, -2000.0);
09:03:52:638;09:03:52:606;1448050790.53;(0.3737126350402832, 0.7981317308213975);22.795085907;0.960233824627;09:03:52:638;0;15;-1.5;1;0.0977517106549365;0;0;0;1;1;1;1;4;0;0;;0;0;();();(-2000.0, -2000.0);
09:03:52:654;09:03:52:606;1448050790.53;(0.3737126350402832, 0.7981317308213975);22.795085907;0.960233824627;09:03:52:654;0;9;-1.5;1;0.0977517106549365;0;0;0;1;1;1;1;4;0;0;;0;0;();();(-2000.0, -2000.0);
09:03:52:671;09:03:52:668;1448050790.6;(0.3733345031738281, 0.7982182396782769);22.413482666;0.833410489299;09:03:52:671;0;9;-1.5;1;0.0977517106549365;0;0;0;1;1;1;1;4;0;0;;0;0;();();(-2000.0, -2000.0);
09:03:52:688;09:03:52:668;1448050790.6;(0.3733345031738281, 0.7982182396782769);22.413482666;0.833410489299;09:03:52:688;0;4;-1.5;1;0;0;0;0;1;1;1;1;4;0;0;;0;0;();();(-2000.0, -2000.0);
09:03:52:720;09:03:52:668;1448050790.6;(0.3733345031738281, 0.7982182396782769);22.413482666;0.833410489299;09:03:52:720;0;10;-1.5;1;0.0977517106549365;0;0;0;1;1;1;1;4;0;0;;0;0;();();(-2000.0, -2000.0);
09:03:52:737;09:03:52:737;1448050790.67;(0.3745382070541382, 0.7990843772888183);23.4373111725;0.826278983198;09:03:52:737;0;15;-1.5;1;0;0;0;0;1;1;1;1;4;0;0;;0;0;();();(-2000.0, -2000.0);
09:03:52:754;09:03:52:737;1448050790.67;(0.3745382070541382, 0.7990843772888183);23.4373111725;0.826278983198;09:03:52:754;0;9;-1.5;1;0;0;0;0;1;1;1;1;4;0;0;;0;0;();();(-2000.0, -2000.0);
09:03:52:771;09:03:52:737;1448050790.67;(0.3745382070541382, 0.7990843772888183);23.4373111725;0.826278983198;09:03:52:771;0;10;-1.5;1;0;0;0;0;1;1;1;1;4;0;0;;0;0;();();(-2000.0, -2000.0);
09:03:52:803;09:03:52:800;1448050790.73;(0.3210400819778442, 0.791271358066135);22.3425445557;1.0;09:03:52:803;0;9;-1.5;146.142857142857;0.684261974584555;0;0;0;1;1;1;1;4;0;0;;0;0;();();(-2000.0, -2000.0);
09:03:52:820;09:03:52:800;1448050790.73;(0.3210400819778442, 0.791271358066135);22.3425445557;1.0;09:03:52:820;0;4;-1.5;85.2500000000001;1.17302052785924;0;0;0;1;1;1;1;4;0;0;;0;0;();();(-2000.0, -2000.0);
09:03:52:837;09:03:52:800;1448050790.73;(0.3210400819778442, 0.791271358066135);22.3425445557;1.0;09:03:52:837;0;15;-1.5;170.5;0.684261974584555;0;0;0;1;1;1;1;4;0;0;;0;0;();();(-2000.0, -2000.0);
09:03:52:853;09:03:52:800;1448050790.73;(0.3210400819778442, 0.791271358066135);22.3425445557;1.0;09:03:52:853;0;4;-1.5;170.5;0.684261974584555;0;0;0;1;1;1;1;4;0;0;;0;0;();();(-2000.0, -2000.0);
09:03:52:870;09:03:52:869;1448050790.8;(0.32187585830688475, 0.7913647969563802);22.3021831512;1.0;09:03:52:870;0;9;-1.5;170.5;0.684261974584555;0;0;0;1;1;1;1;4;0;0;;0;0;();();(-2000.0, -2000.0);
09:03:52:903;09:03:52:869;1448050790.8;(0.32187585830688475, 0.7913647969563802);22.3021831512;1.0;09:03:52:903;0;9;-1.5;170.5;0.684261974584555;0;0;0;1;1;1;1;4;0;0;;0;0;();();(-2000.0, -2000.0);
09:03:52:919;09:03:52:869;1448050790.8;(0.32187585830688475, 0.7913647969563802);22.3021831512;1.0;09:03:52:919;0;5;-1.5;170.5;0.684261974584555;0;0;0;1;1;1;1;4;0;0;;0;0;();();(-2000.0, -2000.0);
09:03:52:936;09:03:52:869;1448050790.8;(0.32187585830688475, 0.7913647969563802);22.3021831512;1.0;09:03:52:936;0;10;-1.5;170.5;0.684261974584555;0;0;0;1;1;1;1;4;0;0;;0;0;();();(-2000.0, -2000.0);
09:03:52:953;09:03:52:936;1448050790.87;(0.4724639892578125, 0.7218367258707683);22.480670929;0.970426042016;09:03:52:953;0;15;-1.5;170.5;0.684261974584555;0;0;0;1;1;1;1;4;0;0;;0;0;();();(-2000.0, -2000.0);
09:03:52:969;09:03:52:936;1448050790.87;(0.4724639892578125, 0.7218367258707683);22.480670929;0.970426042016;09:03:52:969;0;10;-1.5;170.5;0.684261974584555;0;0;0;1;1;1;1;4;0;0;;0;0;();();(-2000.0, -2000.0);
09:03:53:002;09:03:53:000;1448050790.93;(0.472391939163208, 0.7223373201158312);23.7035064697;0.972475467878;09:03:53:002;0;10;-1.5;146.142857142857;0.684261974584555;0;0;0;1;1;1;1;4;0;0;;0;0;();();(-2000.0, -2000.0);
09:03:53:019;09:03:53:000;1448050790.93;(0.472391939163208, 0.7223373201158312);23.7035064697;0.972475467878;09:03:53:019;0;10;-1.5;170.5;0.684261974584555;0;0;0;1;1;1;1;4;0;0;;0;0;();();(-2000.0, -2000.0);
09:03:53:035;09:03:53:000;1448050790.93;(0.472391939163208, 0.7223373201158312);23.7035064697;0.972475467878;09:03:53:035;0;9;-1.5;85.2500000000001;1.17302052785924;0;0;0;1;1;1;1;4;0;0;;0;0;();();(-2000.0, -2000.0);
09:03:53:052;09:03:53:000;1448050790.93;(0.472391939163208, 0.7223373201158312);23.7035064697;0.972475467878;09:03:53:052;0;15;-1.5;170.5;0.684261974584555;0;0;0;1;1;1;1;4;0;0;;0;0;();();(-2000.0, -2000.0);
09:03:53:069;09:03:53:068;1448050791.0;(0.47169013023376466, 0.7215458763970268);23.4848766327;0.936065698424;09:03:53:069;0;9;-1.5;170.5;0.684261974584555;0;0;0;1;1;1;1;4;0;0;;0;0;();();(-2000.0, -2000.0);
09:03:53:101;09:03:53:068;1448050791.0;(0.47169013023376466, 0.7215458763970268);23.4848766327;0.936065698424;09:03:53:101;0;10;-1.5;170.5;0.684261974584555;0;0;0;1;1;1;1;4;0;0;;0;0;();();(-2000.0, -2000.0);
09:03:53:118;09:03:53:068;1448050791.0;(0.47169013023376466, 0.7215458763970268);23.4848766327;0.936065698424;09:03:53:118;0;15;-1.5;1;0;0;0;0;1;1;1;1;4;0;0;;0;0;();();(-2000.0, -2000.0);
09:03:53:134;09:03:53:132;1448050791.07;(0.4718027591705322, 0.7217441134982638);22.9938659668;1.0;09:03:53:134;0;9;-1.5;1;0;0;0;0;1;1;1;1;4;0;0;;0;0;();();(-2000.0, -2000.0);
09:03:53:151;09:03:53:132;1448050791.07;(0.4718027591705322, 0.7217441134982638);22.9938659668;1.0;09:03:53:151;0;15;-1.5;146.142857142857;0.684261974584555;0;0;0;1;1;1;1;4;0;0;;0;0;();();(-2000.0, -2000.0);
09:03:53:168;09:03:53:132;1448050791.07;(0.4718027591705322, 0.7217441134982638);22.9938659668;1.0;09:03:53:168;0;5;-1.5;1;0.0977517106549365;0;0;0;1;1;1;1;4;0;0;;0;0;();();(-2000.0, -2000.0);
09:03:53:201;09:03:53:201;1448050791.13;(0.4724554538726807, 0.7233134587605794);22.1286659241;0.837176819128;09:03:53:201;0;4;-1.5;170.5;0.684261974584555;0;0;0;1;1;1;1;4;0;0;;0;0;();();(-2000.0, -2000.0);
09:03:53:217;09:03:53:201;1448050791.13;(0.4724554538726807, 0.7233134587605794);22.1286659241;0.837176819128;09:03:53:217;0;15;-1.5;146.142857142857;0.684261974584555;0;0;0;1;1;1;1;4;0;0;;0;0;();();(-2000.0, -2000.0);
09:03:53:234;09:03:53:201;1448050791.13;(0.4724554538726807, 0.7233134587605794);22.1286659241;0.837176819128;09:03:53:234;0;5;-1.5;170.5;0.684261974584555;0;0;0;1;1;1;1;4;0;0;;0;0;();();(-2000.0, -2000.0);
09:03:53:251;09:03:53:201;1448050791.13;(0.4724554538726807, 0.7233134587605794);22.1286659241;0.837176819128;09:03:53:251;0;10;-1.5;146.142857142857;0.684261974584555;0;0;0;1;1;1;1;4;0;0;;0;0;();();(-2000.0, -2000.0);
09:03:53:267;09:03:53:201;1448050791.13;(0.4724554538726807, 0.7233134587605794);22.1286659241;0.837176819128;09:03:53:267;0;4;-1.5;170.5;0.684261974584555;0;0;0;1;1;1;1;4;0;0;;0;0;();();(-2000.0, -2000.0);
09:03:53:300;09:03:53:268;1448050791.2;(0.47295284271240234, 0.7235338846842447);21.2527256012;1.0;09:03:53:300;0;9;-1.5;170.5;0.684261974584555;0;0;0;1;1;1;1;4;0;0;;0;0;();();(-2000.0, -2000.0);
09:03:53:316;09:03:53:268;1448050791.2;(0.47295284271240234, 0.7235338846842447);21.2527256012;1.0;09:03:53:316;0;9;-1.5;170.5;0.684261974584555;0;0;0;1;1;1;1;4;0;0;;0;0;();();(-2000.0, -2000.0);
09:03:53:334;09:03:53:268;1448050791.2;(0.47295284271240234, 0.7235338846842447);21.2527256012;1.0;09:03:53:334;0;4;-1.5;170.5;0.684261974584555;0;0;0;1;1;1;1;4;0;0;;0;0;();();(-2000.0, -2000.0);
09:03:53:350;09:03:53:338;1448050791.27;(0.4729454040527344, 0.7227674060397677);19.5958423615;1.0;09:03:53:350;0;1;-1.5;1;0;0;0;0;1;1;1;1;4;0;0;;0;0;();();(-2000.0, -2000.0);
09:03:53:384;09:03:53:338;1448050791.27;(0.4729454040527344, 0.7227674060397677);19.5958423615;1.0;09:03:53:384;0;9;-1.5;1;0;0;0;0;1;1;1;1;4;0;0;;0;0;();();(-2000.0, -2000.0);
09:03:53:400;09:03:53:338;1448050791.27;(0.4729454040527344, 0.7227674060397677);19.5958423615;1.0;09:03:53:400;0;5;-1.5;1;0;0;0;0;1;1;1;1;4;0;0;;0;0;();();(-2000.0, -2000.0);
09:03:53:416;09:03:53:400;1448050791.33;(0.47245397567749026, 0.7231004503038194);19.8734703064;1.0;09:03:53:416;0;10;-1.5;170.5;0.684261974584555;0;0;0;1;1;1;1;4;0;0;;0;0;();();(-2000.0, -2000.0);
09:03:53:432;09:03:53:400;1448050791.33;(0.47245397567749026, 0.7231004503038194);19.8734703064;1.0;09:03:53:432;0;5;-1.5;170.5;0.684261974584555;0;0;0;1;1;1;1;4;0;0;;0;0;();();(-2000.0, -2000.0);
09:03:53:449;09:03:53:400;1448050791.33;(0.47245397567749026, 0.7231004503038194);19.8734703064;1.0;09:03:53:449;0;9;-1.5;170.5;0.684261974584555;0;0;0;1;1;1;1;4;0;0;;0;0;();();(-2000.0, -2000.0);
09:03:53:482;09:03:53:464;1448050791.4;(0.4722626209259033, 0.7230823304918077);21.0183105469;1.0;09:03:53:482;0;9;-1.5;1;0.0977517106549365;0;0;0;1;1;1;1;4;0;0;;0;0;();();(-2000.0, -2000.0);
09:03:53:499;09:03:53:464;1448050791.4;(0.4722626209259033, 0.7230823304918077);21.0183105469;1.0;09:03:53:499;0;15;-1.5;1;0;0;0;0;1;1;1;1;4;0;0;;0;0;();();(-2000.0, -2000.0);
09:03:53:516;09:03:53:464;1448050791.4;(0.4722626209259033, 0.7230823304918077);21.0183105469;1.0;09:03:53:516;0;4;-1.5;1;0.0977517106549365;0;0;0;1;1;1;1;4;0;0;;0;0;();();(-2000.0, -2000.0);
09:03:53:532;09:03:53:532;1448050791.47;(0.4720460891723633, 0.7236823823716905);20.9044284821;1.0;09:03:53:532;0;15;-1.5;1;0;0;0;0;1;1;1;1;4;0;0;;0;0;();();(-2000.0, -2000.0);
09:03:53:548;09:03:53:532;1448050791.47;(0.4720460891723633, 0.7236823823716905);20.9044284821;1.0;09:03:53:548;0;13;-1.5;1;0.0977517106549365;0;0;0;1;1;1;1;4;0;0;;0;0;();();(-2000.0, -2000.0);
09:03:53:582;09:03:53:532;1448050791.47;(0.4720460891723633, 0.7236823823716905);20.9044284821;1.0;09:03:53:582;0;10;-1.5;1;0;0;0;0;1;1;1;1;4;0;0;;0;0;();();(-2000.0, -2000.0);
09:03:53:598;09:03:53:532;1448050791.47;(0.4720460891723633, 0.7236823823716905);20.9044284821;1.0;09:03:53:598;0;15;-1.5;1;0.0977517106549365;0;0;0;1;1;1;1;4;0;0;;0;0;();();(-2000.0, -2000.0);
09:03:53:615;09:03:53:600;1448050791.53;(0.4723489761352539, 0.7230622185601128);21.1676502228;1.0;09:03:53:615;0;9;-1.5;1;0;0;0;0;1;1;1;1;4;0;0;;0;0;();();(-2000.0, -2000.0);
09:03:53:632;09:03:53:600;1448050791.53;(0.4723489761352539, 0.7230622185601128);21.1676502228;1.0;09:03:53:631;0;15;-1.5;1;0.0977517106549365;0;0;0;1;1;1;1;4;0;0;;0;0;();();(-2000.0, -2000.0);
09:03:53:648;09:03:53:600;1448050791.53;(0.4723489761352539, 0.7230622185601128);21.1676502228;1.0;09:03:53:648;0;9;-1.5;1;0.0977517106549365;0;0;0;1;1;1;1;4;0;0;;0;0;();();(-2000.0, -2000.0);
09:03:53:681;09:03:53:664;1448050791.6;(0.4722892284393311, 0.7239765167236328);22.8793754578;1.0;09:03:53:681;0;4;-1.5;1;0;0;0;0;1;1;1;1;4;0;0;;0;0;();();(-2000.0, -2000.0);
09:03:53:698;09:03:53:664;1448050791.6;(0.4722892284393311, 0.7239765167236328);22.8793754578;1.0;09:03:53:698;0;15;-1.5;1;0;0;0;0;1;1;1;1;4;0;0;;0;0;();();(-2000.0, -2000.0);
09:03:53:714;09:03:53:664;1448050791.6;(0.4722892284393311, 0.7239765167236328);22.8793754578;1.0;09:03:53:714;0;9;-1.5;1;0;0;0;0;1;1;1;1;4;0;0;;0;0;();();(-2000.0, -2000.0);
09:03:53:732;09:03:53:664;1448050791.6;(0.4722892284393311, 0.7239765167236328);22.8793754578;1.0;09:03:53:732;0;0;-1.5;1;0;0;0;0;1;1;1;1;4;0;0;;0;0;();();(-2000.0, -2000.0);
09:03:53:748;09:03:53:732;1448050791.67;(0.4723045825958252, 0.72435728708903);21.7720775604;1.0;09:03:53:748;0;4;-1.5;1;0;0;0;0;1;1;1;1;4;0;0;;0;0;();();(-2000.0, -2000.0);
09:03:53:780;09:03:53:732;1448050791.67;(0.4723045825958252, 0.72435728708903);21.7720775604;1.0;09:03:53:780;0;4;-1.5;1;0;0;0;0;1;1;1;1;4;0;0;;0;0;();();(-2000.0, -2000.0);
09:03:53:798;09:03:53:797;1448050791.73;(0.4723659038543701, 0.7240704006618923);21.5156402588;1.0;09:03:53:798;0;10;-1.5;1;0;0;0;0;1;1;1;1;4;0;0;;0;0;();();(-2000.0, -2000.0);
09:03:53:813;09:03:53:797;1448050791.73;(0.4723659038543701, 0.7240704006618923);21.5156402588;1.0;09:03:53:813;0;10;-1.5;1;0;0;0;0;1;1;1;1;4;0;0;;0;0;();();(-2000.0, -2000.0);
09:03:53:830;09:03:53:797;1448050791.73;(0.4723659038543701, 0.7240704006618923);21.5156402588;1.0;09:03:53:830;0;15;-1.5;1;0;0;0;0;1;1;1;1;4;0;0;;0;0;();();(-2000.0, -2000.0);
09:03:53:847;09:03:53:797;1448050791.73;(0.4723659038543701, 0.7240704006618923);21.5156402588;1.0;09:03:53:847;0;4;-1.5;146.142857142857;0.684261974584555;0;0;0;1;1;1;1;4;0;0;;0;0;();();(-2000.0, -2000.0);
09:03:53:880;09:03:53:864;1448050791.8;(0.47226786613464355, 0.7249160130818685);22.0109024048;0.964004219546;09:03:53:880;0;5;-1.5;1;0;0;0;0;1;1;1;1;4;0;0;;0;0;();();(-2000.0, -2000.0);
09:03:53:897;09:03:53:864;1448050791.8;(0.47226786613464355, 0.7249160130818685);22.0109024048;0.964004219546;09:03:53:897;0;10;-1.5;1;0.0977517106549365;0;0;0;1;1;1;1;4;0;0;;0;0;();();(-2000.0, -2000.0);
09:03:53:913;09:03:53:864;1448050791.8;(0.47226786613464355, 0.7249160130818685);22.0109024048;0.964004219546;09:03:53:913;0;4;-1.5;1;0.0977517106549365;0;0;0;1;1;1;1;4;0;0;;0;0;();();(-2000.0, -2000.0);
09:03:53:930;09:03:53:864;1448050791.8;(0.47226786613464355, 0.7249160130818685);22.0109024048;0.964004219546;09:03:53:930;0;9;-1.5;1;0;0;0;0;1;1;1;1;4;0;0;;0;0;();();(-2000.0, -2000.0);
09:03:53:947;09:03:53:933;1448050791.87;(0.47225046157836914, 0.7243034150865343);22.7513179779;1.0;09:03:53:947;0;9;-1.5;1;0;0;0;0;1;1;1;1;4;0;0;;0;0;();();(-2000.0, -2000.0);
09:03:53:979;09:03:53:933;1448050791.87;(0.47225046157836914, 0.7243034150865343);22.7513179779;1.0;09:03:53:979;0;15;-1.5;1;0.0977517106549365;0;0;0;1;1;1;1;4;0;0;;0;0;();();(-2000.0, -2000.0);
09:03:53:996;09:03:53:996;1448050791.93;(0.47237544059753417, 0.7244399812486437);23.6236095428;0.950613892756;09:03:53:996;0;4;-1.5;1;0;0;0;0;1;1;1;1;4;0;0;;0;0;();();(-2000.0, -2000.0);
09:03:54:012;09:03:53:996;1448050791.93;(0.47237544059753417, 0.7244399812486437);23.6236095428;0.950613892756;09:03:54:012;0;4;-1.5;1;0;0;0;0;1;1;1;1;4;0;0;;0;0;();();(-2000.0, -2000.0);
09:03:54:029;09:03:53:996;1448050791.93;(0.47237544059753417, 0.7244399812486437);23.6236095428;0.950613892756;09:03:54:029;0;9;-1.5;1.01892430278884;0;0;0;0;1;1;1;1;4;0;0;;0;0;();();(-2000.0, -2000.0);
09:03:54:062;09:03:53:996;1448050791.93;(0.47237544059753417, 0.7244399812486437);23.6236095428;0.950613892756;09:03:54:062;0;10;-1.5;170.5;0.684261974584555;0;0;0;1;1;1;1;4;0;0;;0;0;();();(-2000.0, -2000.0);
09:03:54:079;09:03:54:064;1448050792.0;(0.47247023582458497, 0.7247894499037001);23.6655025482;0.978060513229;09:03:54:079;0;15;-1.5;146.142857142857;0.684261974584555;0;0;0;1;1;1;1;4;0;0;;0;0;();();(-2000.0, -2000.0);
09:03:54:095;09:03:54:064;1448050792.0;(0.47247023582458497, 0.7247894499037001);23.6655025482;0.978060513229;09:03:54:095;0;4;-1.5;170.5;0.684261974584555;0;0;0;1;1;1;1;4;0;0;;0;0;();();(-2000.0, -2000.0);
09:03:54:112;09:03:54:064;1448050792.0;(0.47247023582458497, 0.7247894499037001);23.6655025482;0.978060513229;09:03:54:112;0;15;-1.5;1;0;0;0;0;1;1;1;1;4;0;0;;0;0;();();(-2000.0, -2000.0);
09:03:54:128;09:03:54:128;1448050792.07;(0.4722140789031982, 0.7239148669772678);23.9835662842;0.940803679701;09:03:54:128;0;10;-1.5;1;0;0;0;0;1;1;1;1;4;0;0;;0;0;();();(-2000.0, -2000.0);
09:03:54:162;09:03:54:128;1448050792.07;(0.4722140789031982, 0.7239148669772678);23.9835662842;0.940803679701;09:03:54:162;0;4;-1.5;1;0;0;0;0;1;1;1;1;4;0;0;;0;0;();();(-2000.0, -2000.0);
09:03:54:178;09:03:54:128;1448050792.07;(0.4722140789031982, 0.7239148669772678);23.9835662842;0.940803679701;09:03:54:178;0;9;-1.5;1;0;0;0;0;1;1;1;1;4;0;0;;0;0;();();(-2000.0, -2000.0);
09:03:54:194;09:03:54:128;1448050792.07;(0.4722140789031982, 0.7239148669772678);23.9835662842;0.940803679701;09:03:54:194;0;4;-1.5;1;0;0;0;0;1;1;1;1;4;0;0;;0;0;();();(-2000.0, -2000.0);
09:03:54:211;09:03:54:195;1448050792.13;(0.47223701477050783, 0.7236782073974609);22.781162262;0.982877526796;09:03:54:211;0;10;-1.5;1;0;0;0;0;1;1;1;1;4;0;0;;0;0;();();(-2000.0, -2000.0);
09:03:54:228;09:03:54:195;1448050792.13;(0.47223701477050783, 0.7236782073974609);22.781162262;0.982877526796;09:03:54:228;0;5;-1.5;1;0;0;0;0;1;1;1;1;4;0;0;;0;0;();();(-2000.0, -2000.0);
09:03:54:261;09:03:54:195;1448050792.13;(0.47223701477050783, 0.7236782073974609);22.781162262;0.982877526796;09:03:54:261;0;4;-1.5;1;0;0;0;0;1;1;1;1;4;0;0;;0;0;();();(-2000.0, -2000.0);
09:03:54:277;09:03:54:264;1448050792.2;(0.472123908996582, 0.7234292772081163);23.6765232086;0.925023914723;09:03:54:277;0;10;-1.5;1;0.0977517106549365;0;0;0;1;1;1;1;4;0;0;;0;0;();();(-2000.0, -2000.0);
09:03:54:294;09:03:54:264;1448050792.2;(0.472123908996582, 0.7234292772081163);23.6765232086;0.925023914723;09:03:54:294;0;5;-1.5;1;0;0;0;0;1;1;1;1;4;0;0;;0;0;();();(-2000.0, -2000.0);
09:03:54:311;09:03:54:264;1448050792.2;(0.472123908996582, 0.7234292772081163);23.6765232086;0.925023914723;09:03:54:311;0;9;-1.5;1;0;0;0;0;1;1;1;1;4;0;0;;0;0;();();(-2000.0, -2000.0);
09:03:54:327;09:03:54:264;1448050792.2;(0.472123908996582, 0.7234292772081163);23.6765232086;0.925023914723;09:03:54:327;0;4;-1.5;170.5;0.684261974584555;0;0;0;1;1;1;1;4;0;0;;0;0;();();(-2000.0, -2000.0);
09:03:54:360;09:03:54:328;1448050792.27;(0.3116375684738159, 0.7908366309271918);34.7124710083;0.744412545628;09:03:54:360;0;5;-1.5;170.5;0.684261974584555;0;0;0;1;1;1;1;4;0;0;;0;0;();();(-2000.0, -2000.0);
09:03:54:377;09:03:54:328;1448050792.27;(0.3116375684738159, 0.7908366309271918);34.7124710083;0.744412545628;09:03:54:377;0;10;-1.5;170.5;0.684261974584555;0;0;0;1;1;1;1;4;0;0;;0;0;();();(-2000.0, -2000.0);
09:03:54:393;09:03:54:328;1448050792.27;(0.3116375684738159, 0.7908366309271918);34.7124710083;0.744412545628;09:03:54:393;0;4;-1.5;170.5;0.684261974584555;0;0;0;1;1;1;1;4;0;0;;0;0;();();(-2000.0, -2000.0);
09:03:54:410;09:03:54:396;1448050792.33;(0.3431100845336914, 0.807544591691759);21.7011375427;0.904102496578;09:03:54:410;0;9;-1.5;170.5;0.684261974584555;0;0;0;1;1;1;1;4;0;0;;0;0;();();(-2000.0, -2000.0);
09:03:54:426;09:03:54:396;1448050792.33;(0.3431100845336914, 0.807544591691759);21.7011375427;0.904102496578;09:03:54:426;0;15;-1.5;146.142857142857;0.684261974584555;0;0;0;1;1;1;1;4;0;0;;0;0;();();(-2000.0, -2000.0);
09:03:54:460;09:03:54:396;1448050792.33;(0.3431100845336914, 0.807544591691759);21.7011375427;0.904102496578;09:03:54:460;0;10;-1.5;1;0.0977517106549365;0;0;0;1;1;1;1;4;0;0;;0;0;();();(-2000.0, -2000.0);
09:03:54:476;09:03:54:460;1448050792.4;(0.43388638496398924, 0.74859619140625);24.3539237976;0.85062491376;09:03:54:476;0;10;-1.5;1;0.0977517106549365;0;0;0;1;1;1;1;4;0;0;;0;0;();();(-2000.0, -2000.0);
09:03:54:493;09:03:54:460;1448050792.4;(0.43388638496398924, 0.74859619140625);24.3539237976;0.85062491376;09:03:54:493;0;15;-1.5;1;0;0;0;0;1;1;1;1;4;0;0;;0;0;();();(-2000.0, -2000.0);
09:03:54:509;09:03:54:460;1448050792.4;(0.43388638496398924, 0.74859619140625);24.3539237976;0.85062491376;09:03:54:509;0;9;-1.5;1;0;0;0;0;1;1;1;1;4;0;0;;0;0;();();(-2000.0, -2000.0);
09:03:54:542;09:03:54:528;1448050792.47;(0, 0);0;0;09:03:54:542;0;10;-1.5;1;0;0;0;0;1;1;1;1;4;0;0;;0;0;();();(-2000.0, -2000.0);
09:03:54:559;09:03:54:528;1448050792.47;(0, 0);0;0;09:03:54:559;0;4;-1.5;1;0.0977517106549365;0;0;0;1;1;1;1;4;0;0;;0;0;();();(-2000.0, -2000.0);
09:03:54:576;09:03:54:528;1448050792.47;(0, 0);0;0;09:03:54:576;0;9;-1.5;1;0;0;0;0;1;1;1;1;4;0;0;;0;0;();();(-2000.0, -2000.0);
09:03:54:592;09:03:54:528;1448050792.47;(0, 0);0;0;09:03:54:592;0;9;-1.5;1;0;0;0;0;1;1;1;1;4;0;0;;0;0;();();(-2000.0, -2000.0);
09:03:54:610;09:03:54:595;1448050792.53;(0, 0);0;0;09:03:54:610;0;9;-1.5;1;0.0977517106549365;0;0;0;1;1;1;1;4;0;0;;0;0;();();(-2000.0, -2000.0);
09:03:54:642;09:03:54:595;1448050792.53;(0, 0);0;0;09:03:54:642;0;4;-1.5;146.142857142857;0.684261974584555;0;0;0;1;1;1;1;4;0;0;;0;0;();();(-2000.0, -2000.0);
09:03:54:659;09:03:54:595;1448050792.53;(0, 0);0;0;09:03:54:659;0;15;-1.5;170.5;0.684261974584555;0;0;0;1;1;1;1;4;0;0;;0;0;();();(-2000.0, -2000.0);
09:03:54:675;09:03:54:660;1448050792.6;(0, 0);0;0;09:03:54:675;0;5;-1.5;170.5;0.684261974584555;0;0;0;1;1;1;1;4;0;0;;0;0;();();(-2000.0, -2000.0);
09:03:54:692;09:03:54:660;1448050792.6;(0, 0);0;0;09:03:54:692;0;10;-1.5;170.5;0.684261974584555;0;0;0;1;1;1;1;4;0;0;;0;0;();();(-2000.0, -2000.0);
09:03:54:709;09:03:54:660;1448050792.6;(0, 0);0;0;09:03:54:709;0;5;-1.5;146.142857142857;0.684261974584555;0;0;0;1;1;1;1;4;0;0;;0;0;();();(-2000.0, -2000.0);
09:03:54:742;09:03:54:728;1448050792.67;(0, 0);0;0;09:03:54:742;0;5;-1.5;170.5;0.684261974584555;0;0;0;1;1;1;1;4;0;0;;0;0;();();(-2000.0, -2000.0);
09:03:54:758;09:03:54:728;1448050792.67;(0, 0);0;0;09:03:54:758;0;0;-1.5;146.142857142857;0.684261974584555;0;0;0;1;1;1;1;4;0;0;;0;0;();();(-2000.0, -2000.0);
09:03:54:775;09:03:54:728;1448050792.67;(0, 0);0;0;09:03:54:775;0;5;-1.5;170.5;0.684261974584555;0;0;0;1;1;1;1;4;0;0;;0;0;();();(-2000.0, -2000.0);
09:03:54:792;09:03:54:791;1448050792.73;(0, 0);0;0;09:03:54:792;0;10;-1.5;170.5;0.684261974584555;0;0;0;1;1;1;1;4;0;0;;0;0;();();(-2000.0, -2000.0);
09:03:54:808;09:03:54:791;1448050792.73;(0, 0);0;0;09:03:54:808;0;4;-1.5;3.77490774907749;0.586510263929619;0;0;0;1;1;1;1;4;0;0;;0;0;();();(-2000.0, -2000.0);
09:03:54:841;09:03:54:791;1448050792.73;(0, 0);0;0;09:03:54:841;0;5;-1.5;1;0;0;0;0;1;1;1;1;4;0;0;;0;0;();();(-2000.0, -2000.0);
09:03:54:859;09:03:54:791;1448050792.73;(0, 0);0;0;09:03:54:859;0;10;-1.5;1;0.0977517106549365;0;0;0;1;1;1;1;4;0;0;;0;0;();();(-2000.0, -2000.0);
09:03:54:874;09:03:54:860;1448050792.8;(0, 0);0;0;09:03:54:874;0;15;-1.5;1;0;0;0;0;1;1;1;1;4;0;0;;0;0;();();(-2000.0, -2000.0);
09:03:54:892;09:03:54:860;1448050792.8;(0, 0);0;0;09:03:54:892;0;4;-1.5;1;0.0977517106549365;0;0;0;1;1;1;1;4;0;0;;0;0;();();(-2000.0, -2000.0);
09:03:54:907;09:03:54:860;1448050792.8;(0, 0);0;0;09:03:54:907;0;0;-1.5;1;0;0;0;0;1;1;1;1;4;0;0;;0;0;();();(-2000.0, -2000.0);
09:03:54:941;09:03:54:860;1448050792.8;(0, 0);0;0;09:03:54:941;0;15;-1.5;170.5;0.684261974584555;0;0;0;1;1;1;1;4;0;0;;0;0;();();(-2000.0, -2000.0);
09:03:54:957;09:03:54:860;1448050792.8;(0, 0);0;0;09:03:54:957;0;9;-1.5;170.5;0.684261974584555;0;0;0;1;1;1;1;4;0;0;;0;0;();();(-2000.0, -2000.0);
09:03:54:974;09:03:54:860;1448050792.8;(0, 0);0;0;09:03:54:974;0;15;-1.5;146.142857142857;0.684261974584555;0;0;0;1;1;1;1;4;0;0;;0;0;();();(-2000.0, -2000.0);
09:03:54:990;09:03:54:860;1448050792.8;(0, 0);0;0;09:03:54:990;0;14;-1.5;170.5;0.684261974584555;0;0;0;1;1;1;1;4;0;0;;0;0;();();(-2000.0, -2000.0);
09:03:55:007;09:03:54:991;1448050792.93;(0, 0);0;0;09:03:55:007;0;0;-1.5;170.5;0.684261974584555;0;0;0;1;1;1;1;4;0;0;;0;0;();();(-2000.0, -2000.0);
09:03:55:040;09:03:54:991;1448050792.93;(0, 0);0;0;09:03:55:040;0;15;-1.5;170.5;0.684261974584555;0;0;0;1;1;1;1;4;0;0;;0;0;();();(-2000.0, -2000.0);
09:03:55:056;09:03:54:991;1448050792.93;(0, 0);0;0;09:03:55:056;0;15;-1.5;170.5;0.684261974584555;0;0;0;1;1;1;1;4;0;0;;0;0;();();(-2000.0, -2000.0);
09:03:55:073;09:03:54:991;1448050792.93;(0, 0);0;0;09:03:55:073;0;15;-1.5;146.142857142857;0.684261974584555;0;0;0;1;1;1;1;4;0;0;;0;0;();();(-2000.0, -2000.0);
09:03:55:089;09:03:54:991;1448050792.93;(0, 0);0;0;09:03:55:089;0;5;-1.5;170.5;0.684261974584555;0;0;0;1;1;1;1;4;0;0;;0;0;();();(-2000.0, -2000.0);
09:03:55:122;09:03:54:991;1448050792.93;(0, 0);0;0;09:03:55:122;0;4;-1.5;146.142857142857;0.684261974584555;0;0;0;1;1;1;1;4;0;0;;0;0;();();(-2000.0, -2000.0);
09:03:55:139;09:03:55:124;1448050793.06;(0, 0);0;0;09:03:55:139;0;15;-1.5;170.5;0.684261974584555;0;0;0;1;1;1;1;4;0;0;;0;0;();();(-2000.0, -2000.0);
09:03:55:156;09:03:55:124;1448050793.06;(0, 0);0;0;09:03:55:156;0;5;-1.5;1.23550724637681;0.0977517106549365;0;0;0;1;1;1;1;4;0;0;;0;0;();();(-2000.0, -2000.0);
09:03:55:172;09:03:55:124;1448050793.06;(0, 0);0;0;09:03:55:172;0;0;-1.5;1;0;0;0;0;1;1;1;1;4;0;0;;0;0;();();(-2000.0, -2000.0);
09:03:55:189;09:03:55:124;1448050793.06;(0, 0);0;0;09:03:55:189;0;4;-1.5;1.88397790055249;0.0977517106549365;0;0;0;1;1;1;1;4;0;0;;0;0;();();(-2000.0, -2000.0);
09:03:55:222;09:03:55:124;1448050793.06;(0, 0);0;0;09:03:55:222;0;9;-1.5;170.5;0.684261974584555;0;0;0;1;1;1;1;4;0;0;;0;0;();();(-2000.0, -2000.0);
09:03:55:239;09:03:55:124;1448050793.06;(0, 0);0;0;09:03:55:239;0;5;-1.5;146.142857142857;0.684261974584555;0;0;0;1;1;1;1;4;0;0;;0;0;();();(-2000.0, -2000.0);
09:03:55:255;09:03:55:124;1448050793.06;(0, 0);0;0;09:03:55:255;0;4;-1.5;170.5;0.684261974584555;0;0;0;1;1;1;1;4;0;0;;0;0;();();(-2000.0, -2000.0);
09:03:55:272;09:03:55:256;1448050793.19;(0, 0);0;0;09:03:55:272;0;10;-1.5;1;0.0977517106549365;0;0;0;1;1;1;1;4;0;0;;0;0;();();(-2000.0, -2000.0);
09:03:55:288;09:03:55:256;1448050793.19;(0, 0);0;0;09:03:55:288;0;15;-1.5;1;0;0;0;0;1;1;1;1;4;0;0;;0;0;();();(-2000.0, -2000.0);
09:03:55:322;09:03:55:256;1448050793.19;(0, 0);0;0;09:03:55:322;0;5;-1.5;1;0.0977517106549365;0;0;0;1;1;1;1;4;0;0;;0;0;();();(-2000.0, -2000.0);
09:03:55:337;09:03:55:256;1448050793.19;(0, 0);0;0;09:03:55:337;0;10;-1.5;1;0;0;0;0;1;1;1;1;4;0;0;;0;0;();();(-2000.0, -2000.0);
09:03:55:356;09:03:55:256;1448050793.19;(0, 0);0;0;09:03:55:356;0;15;-1.5;1;0.0977517106549365;0;0;0;1;1;1;1;4;0;0;;0;0;();();(-2000.0, -2000.0);
09:03:55:371;09:03:55:256;1448050793.19;(0, 0);0;0;09:03:55:371;0;10;-1.5;1;0;0;0;0;1;1;1;1;4;0;0;;0;0;();();(-2000.0, -2000.0);
09:03:55:388;09:03:55:256;1448050793.19;(0, 0);0;0;09:03:55:388;0;0;-1.5;1;0.0977517106549365;0;0;0;1;1;1;1;4;0;0;;0;0;();();(-2000.0, -2000.0);
09:03:55:430;09:03:55:391;1448050793.33;(0, 0);0;0;09:03:55:430;0;10;-1.5;170.5;0.684261974584555;0;0;0;1;1;1;1;6;0;0;;0;0;();();(-2000.0, -2000.0);
09:03:55:442;09:03:55:391;1448050793.33;(0, 0);0;0;09:03:55:442;0;4;-1.5;170.5;0.684261974584555;0;0;0;1;1;1;1;6;0;0;;0;0;();();(-2000.0, -2000.0);
09:03:55:459;09:03:55:391;1448050793.33;(0, 0);0;0;09:03:55:459;0;9;-1.5;1.00097847358121;0;0;0;0;1;1;1;1;6;0;0;;0;0;();();(-2000.0, -2000.0);
09:03:55:476;09:03:55:391;1448050793.33;(0, 0);0;0;09:03:55:476;0;5;-1.5;1;0;0;0;0;1;1;1;1;6;0;0;;0;0;();();(-2000.0, -2000.0);
09:03:55:492;09:03:55:391;1448050793.33;(0, 0);0;0;09:03:55:492;0;5;-1.5;1;0;0;0;0;1;1;1;1;6;0;0;;0;0;();();(-2000.0, -2000.0);
09:03:55:508;09:03:55:391;1448050793.33;(0, 0);0;0;09:03:55:508;0;4;-1.5;1.18953488372093;0.0977517106549365;0;0;0;1;1;1;1;6;0;0;;0;0;();();(-2000.0, -2000.0);
09:03:55:542;09:03:55:524;1448050793.46;(0, 0);0;0;09:03:55:542;0;4;-1.5;31;0.684261974584555;0;0;0;1;1;1;1;6;0;0;;0;0;();();(-2000.0, -2000.0);
09:03:55:559;09:03:55:524;1448050793.46;(0, 0);0;0;09:03:55:559;0;10;-1.5;1;0;0;0;0;1;1;1;1;6;0;0;;0;0;();();(-2000.0, -2000.0);
09:03:55:576;09:03:55:524;1448050793.46;(0, 0);0;0;09:03:55:576;0;5;-1.5;1;0;0;0;0;1;1;1;1;6;0;0;;0;0;();();(-2000.0, -2000.0);
09:03:55:591;09:03:55:524;1448050793.46;(0, 0);0;0;09:03:55:591;0;10;-1.5;1;0;0;0;0;1;1;1;1;6;0;0;;0;0;();();(-2000.0, -2000.0);
09:03:55:607;09:03:55:524;1448050793.46;(0, 0);0;0;09:03:55:607;0;15;-1.5;1.03125;0;0;0;0;1;1;1;1;6;0;0;;0;0;();();(-2000.0, -2000.0);
09:03:55:641;09:03:55:524;1448050793.46;(0, 0);0;0;09:03:55:641;0;5;-1.5;146.142857142857;0.684261974584555;0;0;0;1;1;1;1;6;0;0;;0;0;();();(-2000.0, -2000.0);
09:03:55:657;09:03:55:656;1448050793.59;(0, 0);0;0;09:03:55:657;0;10;-1.5;1;0.0977517106549365;0;0;0;1;1;1;1;6;0;0;;0;0;();();(-2000.0, -2000.0);
09:03:55:675;09:03:55:656;1448050793.59;(0, 0);0;0;09:03:55:675;0;15;-1.5;1;0;0;0;0;1;1;1;1;6;0;0;;0;0;();();(-2000.0, -2000.0);
09:03:55:691;09:03:55:656;1448050793.59;(0, 0);0;0;09:03:55:691;0;9;-1.5;1;0;0;0;0;1;1;1;1;6;0;0;;0;0;();();(-2000.0, -2000.0);
09:03:55:708;09:03:55:656;1448050793.59;(0, 0);0;0;09:03:55:708;0;0;-1.5;1;0;0;0;0;1;1;1;1;6;0;0;;0;0;();();(-2000.0, -2000.0);
09:03:55:741;09:03:55:656;1448050793.59;(0, 0);0;0;09:03:55:741;0;15;-1.5;1.00097847358121;0.0977517106549365;0;0;0;1;1;1;1;6;0;0;;0;0;();();(-2000.0, -2000.0);
09:03:55:757;09:03:55:656;1448050793.59;(0, 0);0;0;09:03:55:757;0;9;-1.5;1;0;0;0;0;1;1;1;1;6;0;0;;0;0;();();(-2000.0, -2000.0);
09:03:55:773;09:03:55:656;1448050793.59;(0, 0);0;0;09:03:55:773;0;15;-1.5;1;0.0977517106549365;0;0;0;1;1;1;1;6;0;0;;0;0;();();(-2000.0, -2000.0);
09:03:55:790;09:03:55:656;1448050793.59;(0, 0);0;0;09:03:55:790;0;3;-1.5;1;0;0;0;0;1;1;1;1;6;0;0;;0;0;();();(-2000.0, -2000.0);
09:03:55:807;09:03:55:796;1448050793.73;(0, 0);0;0;09:03:55:807;0;0;-1.5;1;0;0;0;0;1;1;1;1;6;0;0;;0;0;();();(-2000.0, -2000.0);
09:03:55:840;09:03:55:796;1448050793.73;(0, 0);0;0;09:03:55:840;0;4;-1.5;1;0;0;0;0;1;1;1;1;6;0;0;;0;0;();();(-2000.0, -2000.0);
09:03:55:856;09:03:55:796;1448050793.73;(0, 0);0;0;09:03:55:856;0;9;-1.5;170.5;0.684261974584555;0;0;0;1;1;1;1;6;0;0;;0;0;();();(-2000.0, -2000.0);
09:03:55:873;09:03:55:796;1448050793.73;(0, 0);0;0;09:03:55:873;0;9;-1.5;170.5;0.684261974584555;0;0;0;1;1;1;1;6;0;0;;0;0;();();(-2000.0, -2000.0);
09:03:55:889;09:03:55:796;1448050793.73;(0, 0);0;0;09:03:55:889;0;5;-1.5;1;0.0977517106549365;0;0;0;1;1;1;1;6;0;0;;0;0;();();(-2000.0, -2000.0);
09:03:55:923;09:03:55:921;1448050793.86;(0, 0);0;0;09:03:55:923;0;9;-1.5;1;0;0;0;0;1;1;1;1;6;0;0;;0;0;();();(-2000.0, -2000.0);
09:03:55:939;09:03:55:921;1448050793.86;(0, 0);0;0;09:03:55:939;0;15;-1.5;1;0;0;0;0;1;1;1;1;6;0;0;;0;0;();();(-2000.0, -2000.0);
09:03:55:956;09:03:55:921;1448050793.86;(0, 0);0;0;09:03:55:956;0;5;-1.5;1;0;0;0;0;1;1;1;1;6;0;0;;0;0;();();(-2000.0, -2000.0);
09:03:55:973;09:03:55:921;1448050793.86;(0, 0);0;0;09:03:55:973;0;0;-1.5;1;0.0977517106549365;0;0;0;1;1;1;1;6;0;0;;0;0;();();(-2000.0, -2000.0);
09:03:55:989;09:03:55:921;1448050793.86;(0, 0);0;0;09:03:55:989;0;4;-1.5;1;0;0;0;0;1;1;1;1;6;0;0;;0;0;();();(-2000.0, -2000.0);
09:03:56:023;09:03:55:921;1448050793.86;(0, 0);0;0;09:03:56:023;0;5;-1.5;1;0;0;0;0;1;1;1;1;6;0;0;;0;0;();();(-2000.0, -2000.0);
09:03:56:039;09:03:55:921;1448050793.86;(0, 0);0;0;09:03:56:039;0;10;-1.5;1;0.0977517106549365;0;0;0;1;1;1;1;6;0;0;;0;0;();();(-2000.0, -2000.0);
09:03:56:055;09:03:55:921;1448050793.86;(0, 0);0;0;09:03:56:055;0;4;-1.5;1;0;0;0;0;1;1;1;1;6;0;0;;0;0;();();(-2000.0, -2000.0);
09:03:56:072;09:03:56:056;1448050793.99;(0, 0);0;0;09:03:56:072;0;10;-1.5;1;0;0;0;0;1;1;1;1;6;0;0;;0;0;();();(-2000.0, -2000.0);
09:03:56:089;09:03:56:056;1448050793.99;(0, 0);0;0;09:03:56:089;0;4;-1.5;1;0.0977517106549365;0;0;0;1;1;1;1;6;0;0;;0;0;();();(-2000.0, -2000.0);
09:03:56:121;09:03:56:056;1448050793.99;(0, 0);0;0;09:03:56:121;0;5;-1.5;1;0.0977517106549365;0;0;0;1;1;1;1;6;0;0;;0;0;();();(-2000.0, -2000.0);
09:03:56:138;09:03:56:056;1448050793.99;(0, 0);0;0;09:03:56:137;0;10;-1.5;1;0;0;0;0;1;1;1;1;6;0;0;;0;0;();();(-2000.0, -2000.0);
09:03:56:155;09:03:56:056;1448050793.99;(0, 0);0;0;09:03:56:155;0;15;-1.5;1;0.0977517106549365;0;0;0;1;1;1;1;6;0;0;;0;0;();();(-2000.0, -2000.0);
09:03:56:171;09:03:56:056;1448050793.99;(0, 0);0;0;09:03:56:171;0;9;-1.5;1;0;0;0;0;1;1;1;1;6;0;0;;0;0;();();(-2000.0, -2000.0);
09:03:56:188;09:03:56:187;1448050794.13;(0, 0);0;0;09:03:56:188;0;0;-1.5;1;0.0977517106549365;0;0;0;1;1;1;1;6;0;0;;0;0;();();(-2000.0, -2000.0);
09:03:56:221;09:03:56:187;1448050794.13;(0, 0);0;0;09:03:56:221;0;15;-1.5;1.12294182217344;0;0;0;0;1;1;1;1;6;0;0;;0;0;();();(-2000.0, -2000.0);
09:03:56:238;09:03:56:187;1448050794.13;(0, 0);0;0;09:03:56:238;0;10;-1.5;1;0.0977517106549365;0;0;0;1;1;1;1;6;0;0;;0;0;();();(-2000.0, -2000.0);
09:03:56:254;09:03:56:187;1448050794.13;(0, 0);0;0;09:03:56:254;0;15;-1.5;1;0;0;0;0;1;1;1;1;6;0;0;;0;0;();();(-2000.0, -2000.0);
09:03:56:271;09:03:56:187;1448050794.13;(0, 0);0;0;09:03:56:271;0;5;-1.5;1;0;0;0;0;1;1;1;1;6;0;0;;0;0;();();(-2000.0, -2000.0);
09:03:56:287;09:03:56:187;1448050794.13;(0, 0);0;0;09:03:56:287;0;0;-1.5;1;0;0;0;0;1;1;1;1;6;0;0;;0;0;();();(-2000.0, -2000.0);
09:03:56:320;09:03:56:320;1448050794.26;(0, 0);0;0;09:03:56:320;0;15;-1.5;1.09178228388474;0;0;0;0;1;1;1;1;6;0;0;;0;0;();();(-2000.0, -2000.0);
09:03:56:337;09:03:56:320;1448050794.26;(0, 0);0;0;09:03:56:337;0;4;-1.5;170.5;0.684261974584555;0;0;0;1;1;1;1;6;0;0;;0;0;();();(-2000.0, -2000.0);
09:03:56:353;09:03:56:320;1448050794.26;(0, 0);0;0;09:03:56:353;0;0;-1.5;170.5;0.684261974584555;0;0;0;1;1;1;1;6;0;0;;0;0;();();(-2000.0, -2000.0);
09:03:56:370;09:03:56:320;1448050794.26;(0, 0);0;0;09:03:56:370;0;5;-1.5;85.2500000000001;1.17302052785924;0;0;0;1;1;1;1;6;0;0;;0;0;();();(-2000.0, -2000.0);
09:03:56:403;09:03:56:320;1448050794.26;(0, 0);0;0;09:03:56:403;0;4;-1.5;170.5;0.684261974584555;0;0;0;1;1;1;1;6;0;0;;0;0;();();(-2000.0, -2000.0);
09:03:56:420;09:03:56:320;1448050794.26;(0, 0);0;0;09:03:56:420;0;9;-1.5;170.5;0.684261974584555;0;0;0;1;1;1;1;6;0;0;;0;0;();();(-2000.0, -2000.0);
09:03:56:437;09:03:56:320;1448050794.26;(0, 0);0;0;09:03:56:436;0;5;-1.5;170.5;0.684261974584555;0;0;0;1;1;1;1;6;0;0;;0;0;();();(-2000.0, -2000.0);
09:03:56:453;09:03:56:452;1448050794.39;(0, 0);0;0;09:03:56:453;0;0;-1.5;170.5;0.684261974584555;0;0;0;1;1;1;1;6;0;0;;0;0;();();(-2000.0, -2000.0);
09:03:56:469;09:03:56:452;1448050794.39;(0, 0);0;0;09:03:56:469;0;4;-1.5;170.5;0.684261974584555;0;0;0;1;1;1;1;6;0;0;;0;0;();();(-2000.0, -2000.0);
09:03:56:503;09:03:56:452;1448050794.39;(0, 0);0;0;09:03:56:503;0;9;-1.5;146.142857142857;0.684261974584555;0;0;0;1;1;1;1;6;0;0;;0;0;();();(-2000.0, -2000.0);
09:03:56:520;09:03:56:452;1448050794.39;(0, 0);0;0;09:03:56:520;0;0;-1.5;1.998046875;0.0977517106549365;0;0;0;1;1;1;1;6;0;0;;0;0;();();(-2000.0, -2000.0);
09:03:56:535;09:03:56:452;1448050794.39;(0, 0);0;0;09:03:56:535;0;5;-1.5;1;0.0977517106549365;0;0;0;1;1;1;1;6;0;0;;0;0;();();(-2000.0, -2000.0);
09:03:56:553;09:03:56:452;1448050794.39;(0, 0);0;0;09:03:56:552;0;10;-1.5;146.142857142857;0.684261974584555;0;0;0;1;1;1;1;6;0;0;;0;0;();();(-2000.0, -2000.0);
09:03:56:568;09:03:56:452;1448050794.39;(0, 0);0;0;09:03:56:568;0;4;-1.5;170.5;0.684261974584555;0;0;0;1;1;1;1;6;0;0;;0;0;();();(-2000.0, -2000.0);
09:03:56:602;09:03:56:584;1448050794.53;(0, 0);0;0;09:03:56:602;0;5;-1.5;146.142857142857;0.684261974584555;0;0;0;1;1;1;1;6;0;0;;0;0;();();(-2000.0, -2000.0);
09:03:56:618;09:03:56:584;1448050794.53;(0, 0);0;0;09:03:56:618;0;10;-1.5;170.5;0.684261974584555;0;0;0;1;1;1;1;6;0;0;;0;0;();();(-2000.0, -2000.0);
09:03:56:635;09:03:56:584;1448050794.53;(0, 0);0;0;09:03:56:635;0;4;-1.5;170.5;0.684261974584555;0;0;0;1;1;1;1;6;0;0;;0;0;();();(-2000.0, -2000.0);
09:03:56:651;09:03:56:584;1448050794.53;(0, 0);0;0;09:03:56:651;0;9;-1.5;170.5;0.684261974584555;0;0;0;1;1;1;1;6;0;0;;0;0;();();(-2000.0, -2000.0);
09:03:56:670;09:03:56:584;1448050794.53;(0, 0);0;0;09:03:56:670;0;4;-1.5;170.5;0.684261974584555;0;0;0;1;1;1;1;6;0;0;;0;0;();();(-2000.0, -2000.0);
09:03:56:701;09:03:56:584;1448050794.53;(0, 0);0;0;09:03:56:701;0;15;-1.5;146.142857142857;0.684261974584555;0;0;0;1;1;1;1;6;0;0;;0;0;();();(-2000.0, -2000.0);
09:03:56:717;09:03:56:584;1448050794.53;(0, 0);0;0;09:03:56:717;0;10;-1.5;170.5;0.684261974584555;0;0;0;1;1;1;1;6;0;0;;0;0;();();(-2000.0, -2000.0);
09:03:56:734;09:03:56:720;1448050794.66;(0, 0);0;0;09:03:56:734;0;15;-1.5;146.142857142857;0.684261974584555;0;0;0;1;1;1;1;6;0;0;;0;0;();();(-2000.0, -2000.0);
09:03:56:751;09:03:56:720;1448050794.66;(0, 0);0;0;09:03:56:751;0;9;-1.5;1;0.0977517106549365;0;0;0;1;1;1;1;6;0;0;;0;0;();();(-2000.0, -2000.0);
09:03:56:768;09:03:56:720;1448050794.66;(0, 0);0;0;09:03:56:768;0;15;-1.5;1.00097847358121;0;0;0;0;1;1;1;1;6;0;0;;0;0;();();(-2000.0, -2000.0);
09:03:56:801;09:03:56:720;1448050794.66;(0, 0);0;0;09:03:56:801;0;15;-1.5;146.142857142857;0.684261974584555;0;0;0;1;1;1;1;6;0;0;;0;0;();();(-2000.0, -2000.0);
09:03:56:817;09:03:56:720;1448050794.66;(0, 0);0;0;09:03:56:817;0;5;-1.5;146.142857142857;0.684261974584555;0;0;0;1;1;1;1;6;0;0;;0;0;();();(-2000.0, -2000.0);
09:03:56:833;09:03:56:720;1448050794.66;(0, 0);0;0;09:03:56:833;0;9;-1.5;170.5;0.684261974584555;0;0;0;1;1;1;1;6;0;0;;0;0;();();(-2000.0, -2000.0);
09:03:56:851;09:03:56:720;1448050794.66;(0, 0);0;0;09:03:56:851;0;5;-1.5;146.142857142857;0.684261974584555;0;0;0;1;1;1;1;6;0;0;;0;0;();();(-2000.0, -2000.0);
09:03:56:867;09:03:56:852;1448050794.79;(0, 0);0;0;09:03:56:867;0;15;-1.5;146.142857142857;0.684261974584555;0;0;0;1;1;1;1;6;0;0;;0;0;();();(-2000.0, -2000.0);
09:03:56:900;09:03:56:852;1448050794.79;(0, 0);0;0;09:03:56:900;0;15;-1.5;170.5;0.684261974584555;0;0;0;1;1;1;1;6;0;0;;0;0;();();(-2000.0, -2000.0);
09:03:56:916;09:03:56:852;1448050794.79;(0, 0);0;0;09:03:56:916;0;5;-1.5;146.142857142857;0.684261974584555;0;0;0;1;1;1;1;6;0;0;;0;0;();();(-2000.0, -2000.0);
09:03:56:933;09:03:56:852;1448050794.79;(0, 0);0;0;09:03:56:933;0;10;-1.5;1;0;0;0;0;1;1;1;1;6;0;0;;0;0;();();(-2000.0, -2000.0);
09:03:56:950;09:03:56:852;1448050794.79;(0, 0);0;0;09:03:56:950;0;4;-1.5;1;0;0;0;0;1;1;1;1;6;0;0;;0;0;();();(-2000.0, -2000.0);
09:03:56:983;09:03:56:852;1448050794.79;(0, 0);0;0;09:03:56:983;0;4;-1.5;1;0;0;0;0;1;1;1;1;6;0;0;;0;0;();();(-2000.0, -2000.0);
09:03:57:000;09:03:56:983;1448050794.93;(0, 0);0;0;09:03:57:000;0;10;-1.5;1;0.0977517106549365;0;0;0;1;1;1;1;6;0;0;;0;0;();();(-2000.0, -2000.0);
09:03:57:016;09:03:56:983;1448050794.93;(0, 0);0;0;09:03:57:016;0;5;-1.5;1;0;0;0;0;1;1;1;1;6;0;0;;0;0;();();(-2000.0, -2000.0);
09:03:57:033;09:03:56:983;1448050794.93;(0, 0);0;0;09:03:57:033;0;10;-1.5;1;0;0;0;0;1;1;1;1;6;0;0;;0;0;();();(-2000.0, -2000.0);
09:03:57:050;09:03:56:983;1448050794.93;(0, 0);0;0;09:03:57:050;0;4;-1.5;1;0;0;0;0;1;1;1;1;6;0;0;;0;0;();();(-2000.0, -2000.0);
09:03:57:082;09:03:56:983;1448050794.93;(0, 0);0;0;09:03:57:082;0;5;-1.5;1;0.0977517106549365;0;0;0;1;1;1;1;6;0;0;;0;0;();();(-2000.0, -2000.0);
09:03:57:099;09:03:56:983;1448050794.93;(0, 0);0;0;09:03:57:099;0;10;-1.5;1;0;0;0;0;1;1;1;1;6;0;0;;0;0;();();(-2000.0, -2000.0);
09:03:57:115;09:03:56:983;1448050794.93;(0, 0);0;0;09:03:57:115;0;10;-1.5;1;0;0;0;0;1;1;1;1;6;0;0;;0;0;();();(-2000.0, -2000.0);
09:03:57:132;09:03:57:116;1448050795.06;(0, 0);0;0;09:03:57:132;0;9;-1.5;1;0;0;0;0;1;1;1;1;6;0;0;;0;0;();();(-2000.0, -2000.0);
09:03:57:149;09:03:57:116;1448050795.06;(0, 0);0;0;09:03:57:149;0;9;-1.5;1;0;0;0;0;1;1;1;1;6;0;0;;0;0;();();(-2000.0, -2000.0);
09:03:57:182;09:03:57:116;1448050795.06;(0, 0);0;0;09:03:57:182;0;15;-1.5;170.5;0.684261974584555;0;0;0;1;1;1;1;6;0;0;;0;0;();();(-2000.0, -2000.0);
09:03:57:198;09:03:57:116;1448050795.06;(0, 0);0;0;09:03:57:198;0;10;-1.5;146.142857142857;0.684261974584555;0;0;0;1;1;1;1;6;0;0;;0;0;();();(-2000.0, -2000.0);
09:03:57:215;09:03:57:116;1448050795.06;(0, 0);0;0;09:03:57:215;0;15;-1.5;170.5;0.684261974584555;0;0;0;1;1;1;1;6;0;0;;0;0;();();(-2000.0, -2000.0);
09:03:57:232;09:03:57:116;1448050795.06;(0, 0);0;0;09:03:57:231;0;9;-1.5;146.142857142857;0.684261974584555;0;0;0;1;1;1;1;6;0;0;;0;0;();();(-2000.0, -2000.0);
09:03:57:248;09:03:57:247;1448050795.19;(0, 0);0;0;09:03:57:247;0;5;-1.5;170.5;0.684261974584555;0;0;0;1;1;1;1;6;0;0;;0;0;();();(-2000.0, -2000.0);
09:03:57:281;09:03:57:247;1448050795.19;(0, 0);0;0;09:03:57:281;0;15;-1.5;170.5;0.684261974584555;0;0;0;1;1;1;1;6;0;0;;0;0;();();(-2000.0, -2000.0);
09:03:57:297;09:03:57:247;1448050795.19;(0, 0);0;0;09:03:57:297;0;1;-1.5;170.5;0.684261974584555;0;0;0;1;1;1;1;6;0;0;;0;0;();();(-2000.0, -2000.0);
09:03:57:315;09:03:57:247;1448050795.19;(0, 0);0;0;09:03:57:315;0;0;-1.5;170.5;0.684261974584555;0;0;0;1;1;1;1;6;0;0;;0;0;();();(-2000.0, -2000.0);
09:03:57:331;09:03:57:247;1448050795.19;(0, 0);0;0;09:03:57:331;0;4;-1.5;170.5;0.684261974584555;0;0;0;1;1;1;1;6;0;0;;0;0;();();(-2000.0, -2000.0);
09:03:57:347;09:03:57:247;1448050795.19;(0, 0);0;0;09:03:57:347;0;9;-1.5;170.5;0.684261974584555;0;0;0;1;1;1;1;6;0;0;;0;0;();();(-2000.0, -2000.0);
09:03:57:381;09:03:57:247;1448050795.19;(0, 0);0;0;09:03:57:381;0;9;-1.5;146.142857142857;0.684261974584555;0;0;0;1;1;1;1;6;0;0;;0;0;();();(-2000.0, -2000.0);
09:03:57:397;09:03:57:385;1448050795.33;(0, 0);0;0;09:03:57:397;0;5;-1.5;170.5;0.684261974584555;0;0;0;1;1;1;1;6;0;0;;0;0;();();(-2000.0, -2000.0);
09:03:57:414;09:03:57:385;1448050795.33;(0, 0);0;0;09:03:57:414;0;4;-1.5;85.2500000000001;1.17302052785924;0;0;0;1;1;1;1;6;0;0;;0;0;();();(-2000.0, -2000.0);
09:03:57:430;09:03:57:385;1448050795.33;(0, 0);0;0;09:03:57:430;0;4;-1.5;170.5;0.684261974584555;0;0;0;1;1;1;1;6;0;0;;0;0;();();(-2000.0, -2000.0);
09:03:57:447;09:03:57:385;1448050795.33;(0, 0);0;0;09:03:57:447;0;9;-1.5;170.5;0.684261974584555;0;0;0;1;1;1;1;6;0;0;;0;0;();();(-2000.0, -2000.0);
09:03:57:480;09:03:57:385;1448050795.33;(0, 0);0;0;09:03:57:480;0;10;-1.5;170.5;0.684261974584555;0;0;0;1;1;1;1;6;0;0;;0;0;();();(-2000.0, -2000.0);
09:03:57:496;09:03:57:385;1448050795.33;(0, 0);0;0;09:03:57:496;0;5;-1.5;170.5;0.684261974584555;0;0;0;1;1;1;1;6;0;0;;0;0;();();(-2000.0, -2000.0);
09:03:57:514;09:03:57:385;1448050795.33;(0, 0);0;0;09:03:57:514;0;10;-1.5;170.5;0.684261974584555;0;0;0;1;1;1;1;6;0;0;;0;0;();();(-2000.0, -2000.0);
09:03:57:530;09:03:57:517;1448050795.46;(0.3164623260498047, 0.1602851019965278);61.8285255432;0.621515165777;09:03:57:530;0;4;-1.5;170.5;0.684261974584555;0;0;0;1;1;1;1;6;0;0;;0;0;();();(-2000.0, -2000.0);
09:03:57:563;09:03:57:517;1448050795.46;(0.3164623260498047, 0.1602851019965278);61.8285255432;0.621515165777;09:03:57:563;0;0;-1.5;170.5;0.684261974584555;0;0;0;1;1;1;1;6;0;0;;0;0;();();(-2000.0, -2000.0);
09:03:57:580;09:03:57:517;1448050795.46;(0.3164623260498047, 0.1602851019965278);61.8285255432;0.621515165777;09:03:57:580;0;10;-1.5;170.5;0.684261974584555;0;0;0;1;1;1;1;6;0;0;;0;0;();();(-2000.0, -2000.0);
09:03:57:596;09:03:57:517;1448050795.46;(0.3164623260498047, 0.1602851019965278);61.8285255432;0.621515165777;09:03:57:596;0;15;-1.5;85.2500000000001;1.17302052785924;0;0;0;1;1;1;1;6;0;0;;0;0;();();(-2000.0, -2000.0);
09:03:57:613;09:03:57:517;1448050795.46;(0.3164623260498047, 0.1602851019965278);61.8285255432;0.621515165777;09:03:57:613;0;9;-1.5;170.5;0.684261974584555;0;0;0;1;1;1;1;6;0;0;;0;0;();();(-2000.0, -2000.0);
09:03:57:630;09:03:57:517;1448050795.46;(0.3164623260498047, 0.1602851019965278);61.8285255432;0.621515165777;09:03:57:630;0;0;-1.5;170.5;0.684261974584555;0;0;0;1;1;1;1;6;0;0;;0;0;();();(-2000.0, -2000.0);
09:03:57:662;09:03:57:648;1448050795.59;(0, 0);0;0;09:03:57:662;0;15;-1.5;341;0.684261974584555;0;0;0;1;1;1;1;6;0;0;;0;0;();();(-2000.0, -2000.0);
09:03:57:678;09:03:57:648;1448050795.59;(0, 0);0;0;09:03:57:678;0;14;-1.5;170.5;0.684261974584555;0;0;0;1;1;1;1;6;0;0;;0;0;();();(-2000.0, -2000.0);
09:03:57:695;09:03:57:648;1448050795.59;(0, 0);0;0;09:03:57:695;0;15;-1.5;170.5;0.684261974584555;0;0;0;1;1;1;1;6;0;0;;0;0;();();(-2000.0, -2000.0);
09:03:57:712;09:03:57:648;1448050795.59;(0, 0);0;0;09:03:57:711;0;5;-1.5;170.5;0.684261974584555;0;0;0;1;1;1;1;6;0;0;;0;0;();();(-2000.0, -2000.0);
09:03:57:729;09:03:57:648;1448050795.59;(0, 0);0;0;09:03:57:728;0;15;-1.5;170.5;0.684261974584555;0;0;0;1;1;1;1;6;0;0;;0;0;();();(-2000.0, -2000.0);
09:03:57:762;09:03:57:648;1448050795.59;(0, 0);0;0;09:03:57:762;0;15;-1.5;170.5;0.684261974584555;0;0;0;1;1;1;1;6;0;0;;0;0;();();(-2000.0, -2000.0);
09:03:57:778;09:03:57:648;1448050795.59;(0, 0);0;0;09:03:57:778;0;9;-1.5;146.142857142857;0.684261974584555;0;0;0;1;1;1;1;6;0;0;;0;0;();();(-2000.0, -2000.0);
09:03:57:794;09:03:57:780;1448050795.73;(0, 0);0;0;09:03:57:794;0;9;-1.5;146.142857142857;0.684261974584555;0;0;0;1;1;1;1;6;0;0;;0;0;();();(-2000.0, -2000.0);
09:03:57:811;09:03:57:780;1448050795.73;(0, 0);0;0;09:03:57:811;0;4;-1.5;85.2500000000001;1.17302052785924;0;0;0;1;1;1;1;6;0;0;;0;0;();();(-2000.0, -2000.0);
09:03:57:827;09:03:57:780;1448050795.73;(0, 0);0;0;09:03:57:827;0;10;-1.5;146.142857142857;0.684261974584555;0;0;0;1;1;1;1;6;0;0;;0;0;();();(-2000.0, -2000.0);
09:03:57:861;09:03:57:780;1448050795.73;(0, 0);0;0;09:03:57:861;0;15;-1.5;170.5;0.684261974584555;0;0;0;1;1;1;1;6;0;0;;0;0;();();(-2000.0, -2000.0);
09:03:57:878;09:03:57:780;1448050795.73;(0, 0);0;0;09:03:57:878;0;5;-1.5;170.5;0.684261974584555;0;0;0;1;1;1;1;6;0;0;;0;0;();();(-2000.0, -2000.0);
09:03:57:894;09:03:57:780;1448050795.73;(0, 0);0;0;09:03:57:894;0;15;-1.5;170.5;0.684261974584555;0;0;0;1;1;1;1;6;0;0;;0;0;();();(-2000.0, -2000.0);
09:03:57:911;09:03:57:780;1448050795.73;(0, 0);0;0;09:03:57:911;0;4;-1.5;2.36805555555556;0.293255131964809;0;0;0;1;1;1;1;6;0;0;;0;0;();();(-2000.0, -2000.0);
09:03:57:927;09:03:57:912;1448050795.86;(0, 0);0;0;09:03:57:927;0;9;-1.5;1;0;0;0;0;1;1;1;1;6;0;0;;0;0;();();(-2000.0, -2000.0);
09:03:57:961;09:03:57:912;1448050795.86;(0, 0);0;0;09:03:57:961;0;10;-1.5;1;0;0;0;0;1;1;1;1;6;0;0;;0;0;();();(-2000.0, -2000.0);
09:03:57:977;09:03:57:912;1448050795.86;(0, 0);0;0;09:03:57:977;0;5;-1.5;1;0;0;0;0;1;1;1;1;6;0;0;;0;0;();();(-2000.0, -2000.0);
09:03:57:994;09:03:57:912;1448050795.86;(0, 0);0;0;09:03:57:994;0;10;-1.5;1;0.0977517106549365;0;0;0;1;1;1;1;6;0;0;;0;0;();();(-2000.0, -2000.0);
09:03:58:010;09:03:57:912;1448050795.86;(0, 0);0;0;09:03:58:010;0;4;-1.5;1;0;0;0;0;1;1;1;1;6;0;0;;0;0;();();(-2000.0, -2000.0);
09:03:58:043;09:03:57:912;1448050795.86;(0, 0);0;0;09:03:58:043;0;5;-1.5;1;0;0;0;0;1;1;1;1;6;0;0;;0;0;();();(-2000.0, -2000.0);
09:03:58:060;09:03:58:044;1448050795.99;(0, 0);0;0;09:03:58:059;0;10;-1.5;1;0;0;0;0;1;1;1;1;6;0;0;;0;0;();();(-2000.0, -2000.0);
09:03:58:077;09:03:58:044;1448050795.99;(0, 0);0;0;09:03:58:077;0;15;-1.5;1;0;0;0;0;1;1;1;1;6;0;0;;0;0;();();(-2000.0, -2000.0);
09:03:58:092;09:03:58:044;1448050795.99;(0, 0);0;0;09:03:58:092;0;4;-1.5;1;0;0;0;0;1;1;1;1;6;0;0;;0;0;();();(-2000.0, -2000.0);
09:03:58:110;09:03:58:044;1448050795.99;(0, 0);0;0;09:03:58:110;0;4;-1.5;1;0;0;0;0;1;1;1;1;6;0;0;;0;0;();();(-2000.0, -2000.0);
09:03:58:143;09:03:58:044;1448050795.99;(0, 0);0;0;09:03:58:143;0;15;-1.5;1;0;0;0;0;1;1;1;1;6;0;0;;0;0;();();(-2000.0, -2000.0);
09:03:58:160;09:03:58:044;1448050795.99;(0, 0);0;0;09:03:58:160;0;4;-1.5;1;0.0977517106549365;0;0;0;1;1;1;1;6;0;0;;0;0;();();(-2000.0, -2000.0);
09:03:58:175;09:03:58:044;1448050795.99;(0, 0);0;0;09:03:58:175;0;15;-1.5;1;0;0;0;0;1;1;1;1;6;0;0;;0;0;();();(-2000.0, -2000.0);
09:03:58:193;09:03:58:179;1448050796.13;(0, 0);0;0;09:03:58:193;0;5;-1.5;1;0;0;0;0;1;1;1;1;6;0;0;;0;0;();();(-2000.0, -2000.0);
09:03:58:209;09:03:58:179;1448050796.13;(0, 0);0;0;09:03:58:209;0;5;-1.5;1;0;0;0;0;1;1;1;1;6;0;0;;0;0;();();(-2000.0, -2000.0);
09:03:58:242;09:03:58:179;1448050796.13;(0, 0);0;0;09:03:58:242;0;15;-1.5;1;0;0;0;0;1;1;1;1;6;0;0;;0;0;();();(-2000.0, -2000.0);
09:03:58:259;09:03:58:179;1448050796.13;(0, 0);0;0;09:03:58:259;0;4;-1.5;1;0;0;0;0;1;1;1;1;6;0;0;;0;0;();();(-2000.0, -2000.0);
09:03:58:276;09:03:58:179;1448050796.13;(0, 0);0;0;09:03:58:276;0;10;-1.5;1;0;0;0;0;1;1;1;1;6;0;0;;0;0;();();(-2000.0, -2000.0);
09:03:58:292;09:03:58:179;1448050796.13;(0, 0);0;0;09:03:58:292;0;4;-1.5;1;0;0;0;0;1;1;1;1;6;0;0;;0;0;();();(-2000.0, -2000.0);
09:03:58:309;09:03:58:179;1448050796.13;(0, 0);0;0;09:03:58:309;0;10;-1.5;1;0;0;0;0;1;1;1;1;6;0;0;;0;0;();();(-2000.0, -2000.0);
09:03:58:341;09:03:58:312;1448050796.26;(0, 0);0;0;09:03:58:341;0;9;-1.5;1;0;0;0;0;1;1;1;1;6;0;0;;0;0;();();(-2000.0, -2000.0);
09:03:58:358;09:03:58:312;1448050796.26;(0, 0);0;0;09:03:58:358;0;5;-1.5;1;0;0;0;0;1;1;1;1;6;0;0;;0;0;();();(-2000.0, -2000.0);
09:03:58:375;09:03:58:312;1448050796.26;(0, 0);0;0;09:03:58:375;0;10;-1.5;1;0.0977517106549365;0;0;0;1;1;1;1;6;0;0;;0;0;();();(-2000.0, -2000.0);
09:03:58:391;09:03:58:312;1448050796.26;(0, 0);0;0;09:03:58:391;0;4;-1.5;1;0;0;0;0;1;1;1;1;6;0;0;;0;0;();();(-2000.0, -2000.0);
09:03:58:408;09:03:58:312;1448050796.26;(0, 0);0;0;09:03:58:408;0;4;-1.5;1;0;0;0;0;1;1;1;1;6;0;0;;0;0;();();(-2000.0, -2000.0);
09:03:58:441;09:03:58:312;1448050796.26;(0, 0);0;0;09:03:58:441;0;4;-1.5;1;0.0977517106549365;0;0;0;1;1;1;1;6;0;0;;0;0;();();(-2000.0, -2000.0);
09:03:58:458;09:03:58:445;1448050796.39;(0, 0);0;0;09:03:58:458;0;4;-1.5;1;0.0977517106549365;0;0;0;1;1;1;1;6;0;0;;0;0;();();(-2000.0, -2000.0);
09:03:58:474;09:03:58:445;1448050796.39;(0, 0);0;0;09:03:58:474;0;10;-1.5;1;0;0;0;0;1;1;1;1;6;0;0;;0;0;();();(-2000.0, -2000.0);
09:03:58:490;09:03:58:445;1448050796.39;(0, 0);0;0;09:03:58:490;0;4;-1.5;1;0;0;0;0;1;1;1;1;6;0;0;;0;0;();();(-2000.0, -2000.0);
09:03:58:508;09:03:58:445;1448050796.39;(0, 0);0;0;09:03:58:508;0;9;-1.5;1;0;0;0;0;1;1;1;1;6;0;0;;0;0;();();(-2000.0, -2000.0);
09:03:58:541;09:03:58:445;1448050796.39;(0, 0);0;0;09:03:58:541;0;10;-1.5;1;0;0;0;0;1;1;1;1;6;0;0;;0;0;();();(-2000.0, -2000.0);
09:03:58:557;09:03:58:445;1448050796.39;(0, 0);0;0;09:03:58:557;0;15;-1.5;1;0;0;0;0;1;1;1;1;6;0;0;;0;0;();();(-2000.0, -2000.0);
09:03:58:574;09:03:58:445;1448050796.39;(0, 0);0;0;09:03:58:574;0;9;-1.5;1;0.0977517106549365;0;0;0;1;1;1;1;6;0;0;;0;0;();();(-2000.0, -2000.0);
09:03:58:590;09:03:58:576;1448050796.53;(0.6508097171783447, 0.6056194729275174);19.148557663;0.782201510199;09:03:58:590;0;0;-1.5;1;0;0;0;0;1;1;1;1;6;0;0;;0;0;();();(-2000.0, -2000.0);
09:03:58:623;09:03:58:576;1448050796.53;(0.6508097171783447, 0.6056194729275174);19.148557663;0.782201510199;09:03:58:623;0;0;-1.5;1;0;0;0;0;1;1;1;1;6;0;0;;0;0;();();(-2000.0, -2000.0);
09:03:58:640;09:03:58:576;1448050796.53;(0.6508097171783447, 0.6056194729275174);19.148557663;0.782201510199;09:03:58:640;0;12;-1.5;1;0.0977517106549365;0;0;0;1;1;1;1;6;0;0;;0;0;();();(-2000.0, -2000.0);
09:03:58:657;09:03:58:576;1448050796.53;(0.6508097171783447, 0.6056194729275174);19.148557663;0.782201510199;09:03:58:657;0;15;-1.5;1;0.0977517106549365;0;0;0;1;1;1;1;6;0;0;;0;0;();();(-2000.0, -2000.0);
09:03:58:673;09:03:58:576;1448050796.53;(0.6508097171783447, 0.6056194729275174);19.148557663;0.782201510199;09:03:58:673;0;5;-1.5;1;0.0977517106549365;0;0;0;1;1;1;1;6;0;0;;0;0;();();(-2000.0, -2000.0);
09:03:58:690;09:03:58:576;1448050796.53;(0.6508097171783447, 0.6056194729275174);19.148557663;0.782201510199;09:03:58:690;0;0;-1.5;1;0;0;0;0;1;1;1;1;6;0;0;;0;0;();();(-2000.0, -2000.0);
09:03:58:723;09:03:58:708;1448050796.66;(0, 0);0;0;09:03:58:723;0;9;-1.5;1;0;0;0;0;1;1;1;1;6;0;0;;0;0;();();(-2000.0, -2000.0);
09:03:58:739;09:03:58:708;1448050796.66;(0, 0);0;0;09:03:58:739;0;4;-1.5;1;0;0;0;0;1;1;1;1;6;0;0;;0;0;();();(-2000.0, -2000.0);
09:03:58:756;09:03:58:708;1448050796.66;(0, 0);0;0;09:03:58:756;0;0;-1.5;1;0;0;0;0;1;1;1;1;6;0;0;;0;0;();();(-2000.0, -2000.0);
09:03:58:773;09:03:58:708;1448050796.66;(0, 0);0;0;09:03:58:773;0;5;-1.5;1;0;0;0;0;1;1;1;1;6;0;0;;0;0;();();(-2000.0, -2000.0);
09:03:58:798;09:03:58:708;1448050796.66;(0, 0);0;0;09:03:58:798;0;10;-1.5;146.142857142857;0.684261974584555;0;0;0;1;1;1;1;8;0;0;;0;0;();();(-2000.0, -2000.0);
09:03:58:811;09:03:58:708;1448050796.66;(0, 0);0;0;09:03:58:811;0;15;-1.5;146.142857142857;0.684261974584555;0;0;0;1;1;1;1;8;0;0;;0;0;();();(-2000.0, -2000.0);
09:03:58:828;09:03:58:708;1448050796.66;(0, 0);0;0;09:03:58:828;0;9;-1.5;170.5;0.684261974584555;0;0;0;1;1;1;1;8;0;0;;0;0;();();(-2000.0, -2000.0);
09:03:58:861;09:03:58:843;1448050796.79;(0, 0);0;0;09:03:58:861;0;10;-1.5;170.5;0.684261974584555;0;0;0;1;1;1;1;8;0;0;;0;0;();();(-2000.0, -2000.0);
09:03:58:877;09:03:58:843;1448050796.79;(0, 0);0;0;09:03:58:877;0;15;-1.5;170.5;0.684261974584555;0;0;0;1;1;1;1;8;0;0;;0;0;();();(-2000.0, -2000.0);
09:03:58:894;09:03:58:843;1448050796.79;(0, 0);0;0;09:03:58:894;0;4;-1.5;170.5;0.684261974584555;0;0;0;1;1;1;1;8;0;0;;0;0;();();(-2000.0, -2000.0);
09:03:58:910;09:03:58:843;1448050796.79;(0, 0);0;0;09:03:58:910;0;0;-1.5;146.142857142857;0.684261974584555;0;0;0;1;1;1;1;8;0;0;;0;0;();();(-2000.0, -2000.0);
09:03:58:927;09:03:58:843;1448050796.79;(0, 0);0;0;09:03:58:927;0;10;-1.5;170.5;0.684261974584555;0;0;0;1;1;1;1;8;0;0;;0;0;();();(-2000.0, -2000.0);
09:03:58:961;09:03:58:843;1448050796.79;(0, 0);0;0;09:03:58:961;0;10;-1.5;146.142857142857;0.684261974584555;0;0;0;1;1;1;1;8;0;0;;0;0;();();(-2000.0, -2000.0);
09:03:58:977;09:03:58:976;1448050796.93;(0, 0);0;0;09:03:58:977;0;15;-1.5;170.5;0.684261974584555;0;0;0;1;1;1;1;8;0;0;;0;0;();();(-2000.0, -2000.0);
09:03:58:994;09:03:58:976;1448050796.93;(0, 0);0;0;09:03:58:993;0;9;-1.5;170.5;0.684261974584555;0;0;0;1;1;1;1;8;0;0;;0;0;();();(-2000.0, -2000.0);
09:03:59:010;09:03:58:976;1448050796.93;(0, 0);0;0;09:03:59:010;0;15;-1.5;146.142857142857;0.684261974584555;0;0;0;1;1;1;1;8;0;0;;0;0;();();(-2000.0, -2000.0);
09:03:59:043;09:03:58:976;1448050796.93;(0, 0);0;0;09:03:59:043;0;15;-1.5;170.5;0.684261974584555;0;0;0;1;1;1;1;8;0;0;;0;0;();();(-2000.0, -2000.0);
09:03:59:061;09:03:58:976;1448050796.93;(0, 0);0;0;09:03:59:061;0;9;-1.5;170.5;0.684261974584555;0;0;0;1;1;1;1;8;0;0;;0;0;();();(-2000.0, -2000.0);
09:03:59:076;09:03:58:976;1448050796.93;(0, 0);0;0;09:03:59:076;0;9;-1.5;170.5;0.684261974584555;0;0;0;1;1;1;1;8;0;0;;0;0;();();(-2000.0, -2000.0);
09:03:59:093;09:03:58:976;1448050796.93;(0, 0);0;0;09:03:59:093;0;4;-1.5;170.5;0.684261974584555;0;0;0;1;1;1;1;8;0;0;;0;0;();();(-2000.0, -2000.0);
09:03:59:109;09:03:59:108;1448050797.06;(0, 0);0;0;09:03:59:109;0;4;-1.5;170.5;0.684261974584555;0;0;0;1;1;1;1;8;0;0;;0;0;();();(-2000.0, -2000.0);
09:03:59:142;09:03:59:108;1448050797.06;(0, 0);0;0;09:03:59:142;0;10;-1.5;170.5;0.684261974584555;0;0;0;1;1;1;1;8;0;0;;0;0;();();(-2000.0, -2000.0);
09:03:59:160;09:03:59:108;1448050797.06;(0, 0);0;0;09:03:59:160;0;5;-1.5;170.5;0.684261974584555;0;0;0;1;1;1;1;8;0;0;;0;0;();();(-2000.0, -2000.0);
09:03:59:176;09:03:59:108;1448050797.06;(0, 0);0;0;09:03:59:176;0;10;-1.5;170.5;0.684261974584555;0;0;0;1;1;1;1;8;0;0;;0;0;();();(-2000.0, -2000.0);
09:03:59:192;09:03:59:108;1448050797.06;(0, 0);0;0;09:03:59:192;0;4;-1.5;6.55769230769231;0.684261974584555;0;0;0;1;1;1;1;8;0;0;;0;0;();();(-2000.0, -2000.0);
09:03:59:210;09:03:59:108;1448050797.06;(0, 0);0;0;09:03:59:210;0;9;-1.5;170.5;0.684261974584555;0;0;0;1;1;1;1;8;0;0;;0;0;();();(-2000.0, -2000.0);
09:03:59:243;09:03:59:241;1448050797.19;(0, 0);0;0;09:03:59:243;0;9;-1.5;170.5;0.684261974584555;0;0;0;1;1;1;1;8;0;0;;0;0;();();(-2000.0, -2000.0);
09:03:59:258;09:03:59:241;1448050797.19;(0, 0);0;0;09:03:59:258;0;5;-1.5;170.5;0.684261974584555;0;0;0;1;1;1;1;8;0;0;;0;0;();();(-2000.0, -2000.0);
09:03:59:275;09:03:59:241;1448050797.19;(0, 0);0;0;09:03:59:275;0;9;-1.5;146.142857142857;0.684261974584555;0;0;0;1;1;1;1;8;0;0;;0;0;();();(-2000.0, -2000.0);
09:03:59:292;09:03:59:241;1448050797.19;(0, 0);0;0;09:03:59:292;0;15;-1.5;146.142857142857;0.684261974584555;0;0;0;1;1;1;1;8;0;0;;0;0;();();(-2000.0, -2000.0);
09:03:59:308;09:03:59:241;1448050797.19;(0, 0);0;0;09:03:59:308;0;9;-1.5;170.5;0.684261974584555;0;0;0;1;1;1;1;8;0;0;;0;0;();();(-2000.0, -2000.0);
09:03:59:342;09:03:59:241;1448050797.19;(0, 0);0;0;09:03:59:342;0;1;-1.5;170.5;0.684261974584555;0;0;0;1;1;1;1;8;0;0;;0;0;();();(-2000.0, -2000.0);
09:03:59:358;09:03:59:241;1448050797.19;(0, 0);0;0;09:03:59:358;0;4;-1.5;170.5;0.684261974584555;0;0;0;1;1;1;1;8;0;0;;0;0;();();(-2000.0, -2000.0);
09:03:59:375;09:03:59:372;1448050797.33;(0, 0);0;0;09:03:59:375;0;9;-1.5;1.00097847358121;0;0;0;0;1;1;1;1;8;0;0;;0;0;();();(-2000.0, -2000.0);
09:03:59:392;09:03:59:372;1448050797.33;(0, 0);0;0;09:03:59:392;0;15;-1.5;1;0;0;0;0;1;1;1;1;8;0;0;;0;0;();();(-2000.0, -2000.0);
09:03:59:408;09:03:59:372;1448050797.33;(0, 0);0;0;09:03:59:408;0;1;-1.5;1;0;0;0;0;1;1;1;1;8;0;0;;0;0;();();(-2000.0, -2000.0);
09:03:59:441;09:03:59:372;1448050797.33;(0, 0);0;0;09:03:59:441;0;12;-1.5;1;0.0977517106549365;0;0;0;1;1;1;1;8;0;0;;0;0;();();(-2000.0, -2000.0);
09:03:59:457;09:03:59:372;1448050797.33;(0, 0);0;0;09:03:59:457;0;15;-1.5;1;0;0;0;0;1;1;1;1;8;0;0;;0;0;();();(-2000.0, -2000.0);
09:03:59:474;09:03:59:372;1448050797.33;(0, 0);0;0;09:03:59:474;0;5;-1.5;1;0.0977517106549365;0;0;0;1;1;1;1;8;0;0;;0;0;();();(-2000.0, -2000.0);
09:03:59:490;09:03:59:372;1448050797.33;(0, 0);0;0;09:03:59:490;0;15;-1.5;1;0.0977517106549365;0;0;0;1;1;1;1;8;0;0;;0;0;();();(-2000.0, -2000.0);
09:03:59:507;09:03:59:372;1448050797.33;(0, 0);0;0;09:03:59:507;0;4;-1.5;1;0;0;0;0;1;1;1;1;8;0;0;;0;0;();();(-2000.0, -2000.0);
09:03:59:540;09:03:59:508;1448050797.46;(0, 0);0;0;09:03:59:540;0;5;-1.5;1;0;0;0;0;1;1;1;1;8;0;0;;0;0;();();(-2000.0, -2000.0);
09:03:59:557;09:03:59:508;1448050797.46;(0, 0);0;0;09:03:59:557;0;0;-1.5;1;0.0977517106549365;0;0;0;1;1;1;1;8;0;0;;0;0;();();(-2000.0, -2000.0);
09:03:59:573;09:03:59:508;1448050797.46;(0, 0);0;0;09:03:59:573;0;4;-1.5;170.5;0.684261974584555;0;0;0;1;1;1;1;8;0;0;;0;0;();();(-2000.0, -2000.0);
09:03:59:590;09:03:59:508;1448050797.46;(0, 0);0;0;09:03:59:590;0;10;-1.5;85.2500000000001;1.17302052785924;0;0;0;1;1;1;1;8;0;0;;0;0;();();(-2000.0, -2000.0);
09:03:59:623;09:03:59:508;1448050797.46;(0, 0);0;0;09:03:59:623;0;9;-1.5;1;0;0;0;0;1;1;1;1;8;0;0;;0;0;();();(-2000.0, -2000.0);
09:03:59:640;09:03:59:508;1448050797.46;(0, 0);0;0;09:03:59:640;0;5;-1.5;1;0.0977517106549365;0;0;0;1;1;1;1;8;0;0;;0;0;();();(-2000.0, -2000.0);
09:03:59:657;09:03:59:646;1448050797.59;(0, 0);0;0;09:03:59:657;0;0;-1.5;1;0;0;0;0;1;1;1;1;8;0;0;;0;0;();();(-2000.0, -2000.0);
09:03:59:672;09:03:59:646;1448050797.59;(0, 0);0;0;09:03:59:672;0;4;-1.5;1;0;0;0;0;1;1;1;1;8;0;0;;0;0;();();(-2000.0, -2000.0);
09:03:59:689;09:03:59:646;1448050797.59;(0, 0);0;0;09:03:59:689;0;4;-1.5;1;0;0;0;0;1;1;1;1;8;0;0;;0;0;();();(-2000.0, -2000.0);
09:03:59:722;09:03:59:705;1448050797.67;(0, 0);0;0;09:03:59:722;0;10;-1.5;170.5;0.684261974584555;0;0;0;1;1;1;1;8;0;0;;0;0;();();(-2000.0, -2000.0);
09:03:59:739;09:03:59:705;1448050797.67;(0, 0);0;0;09:03:59:739;0;15;-1.5;146.142857142857;0.684261974584555;0;0;0;1;1;1;1;8;0;0;;0;0;();();(-2000.0, -2000.0);
09:03:59:755;09:03:59:705;1448050797.67;(0, 0);0;0;09:03:59:755;0;10;-1.5;170.5;0.684261974584555;0;0;0;1;1;1;1;8;0;0;;0;0;();();(-2000.0, -2000.0);
09:03:59:772;09:03:59:705;1448050797.67;(0, 0);0;0;09:03:59:772;0;15;-1.5;170.5;0.684261974584555;0;0;0;1;1;1;1;8;0;0;;0;0;();();(-2000.0, -2000.0);
09:03:59:789;09:03:59:772;1448050797.73;(0, 0);0;0;09:03:59:789;0;9;-1.5;170.5;0.684261974584555;0;0;0;1;1;1;1;8;0;0;;0;0;();();(-2000.0, -2000.0);
09:03:59:822;09:03:59:772;1448050797.73;(0, 0);0;0;09:03:59:822;0;10;-1.5;1;0;0;0;0;1;1;1;1;8;0;0;;0;0;();();(-2000.0, -2000.0);
09:03:59:839;09:03:59:772;1448050797.73;(0, 0);0;0;09:03:59:839;0;15;-1.5;170.5;0.684261974584555;0;0;0;1;1;1;1;8;0;0;;0;0;();();(-2000.0, -2000.0);
09:03:59:855;09:03:59:845;1448050797.82;(0, 0);0;0;09:03:59:855;0;9;-1.5;1;0;0;0;0;1;1;1;1;8;0;0;;0;0;();();(-2000.0, -2000.0);
09:03:59:871;09:03:59:845;1448050797.82;(0, 0);0;0;09:03:59:871;0;15;-1.5;1;0.0977517106549365;0;0;0;1;1;1;1;8;0;0;;0;0;();();(-2000.0, -2000.0);
09:03:59:888;09:03:59:845;1448050797.82;(0, 0);0;0;09:03:59:888;0;5;-1.5;170.5;0.684261974584555;0;0;0;1;1;1;1;8;0;0;;0;0;();();(-2000.0, -2000.0);
09:03:59:921;09:03:59:904;1448050797.85;(0, 0);0;0;09:03:59:921;0;4;-1.5;170.5;0.684261974584555;0;0;0;1;1;1;1;8;0;0;;0;0;();();(-2000.0, -2000.0);
09:03:59:938;09:03:59:904;1448050797.85;(0, 0);0;0;09:03:59:938;0;9;-1.5;146.142857142857;0.684261974584555;0;0;0;1;1;1;1;8;0;0;;0;0;();();(-2000.0, -2000.0);
09:03:59:955;09:03:59:904;1448050797.85;(0, 0);0;0;09:03:59:955;0;5;-1.5;170.5;0.684261974584555;0;0;0;1;1;1;1;8;0;0;;0;0;();();(-2000.0, -2000.0);
09:03:59:972;09:03:59:904;1448050797.85;(0, 0);0;0;09:03:59:972;0;15;-1.5;1;0;0;0;0;1;1;1;1;8;0;0;;0;0;();();(-2000.0, -2000.0);
09:03:59:987;09:03:59:973;1448050797.95;(0.8633041381835938, 0.20412690904405384);20.83344841;0.66844610673;09:03:59:987;0;4;-1.5;1;0.0977517106549365;0;0;0;1;1;1;1;8;0;0;;0;0;();();(-2000.0, -2000.0);
09:04:00:021;09:03:59:973;1448050797.95;(0.8633041381835938, 0.20412690904405384);20.83344841;0.66844610673;09:04:00:021;0;4;-1.5;1;0.0977517106549365;0;0;0;1;1;1;1;8;0;0;;0;0;();();(-2000.0, -2000.0);
09:04:00:037;09:04:00:036;1448050798.02;(0, 0);0;0;09:04:00:037;0;10;-1.5;1;0;0;0;0;1;1;1;1;8;0;0;;0;0;();();(-2000.0, -2000.0);
09:04:00:055;09:04:00:036;1448050798.02;(0, 0);0;0;09:04:00:055;0;5;-1.5;1;0;0;0;0;1;1;1;1;8;0;0;;0;0;();();(-2000.0, -2000.0);
09:04:00:070;09:04:00:036;1448050798.02;(0, 0);0;0;09:04:00:070;0;10;-1.5;1;0;0;0;0;1;1;1;1;8;0;0;;0;0;();();(-2000.0, -2000.0);
09:04:00:087;09:04:00:036;1448050798.02;(0, 0);0;0;09:04:00:087;0;4;-1.5;1;0;0;0;0;1;1;1;1;8;0;0;;0;0;();();(-2000.0, -2000.0);
09:04:00:120;09:04:00:104;1448050798.05;(0.10371108651161194, 0.5771244472927517);32.8351097107;0.845066148;09:04:00:120;0;5;-1.5;1;0;0;0;0;1;1;1;1;8;0;0;;0;0;();();(-2000.0, -2000.0);
09:04:00:136;09:04:00:104;1448050798.05;(0.10371108651161194, 0.5771244472927517);32.8351097107;0.845066148;09:04:00:136;0;10;-1.5;1;0.0977517106549365;0;0;0;1;1;1;1;8;0;0;;0;0;();();(-2000.0, -2000.0);
09:04:00:153;09:04:00:104;1448050798.05;(0.10371108651161194, 0.5771244472927517);32.8351097107;0.845066148;09:04:00:153;0;4;-1.5;1;0;0;0;0;1;1;1;1;8;0;0;;0;0;();();(-2000.0, -2000.0);
09:04:00:170;09:04:00:104;1448050798.05;(0.10371108651161194, 0.5771244472927517);32.8351097107;0.845066148;09:04:00:170;0;9;-1.5;1;0.0977517106549365;0;0;0;1;1;1;1;8;0;0;;0;0;();();(-2000.0, -2000.0);
09:04:00:203;09:04:00:172;1448050798.09;(0, 0);0;0;09:04:00:203;0;10;-1.5;1;0;0;0;0;1;1;1;1;8;0;0;;0;0;();();(-2000.0, -2000.0);
09:04:00:220;09:04:00:172;1448050798.09;(0, 0);0;0;09:04:00:220;0;15;-1.5;1;0;0;0;0;1;1;1;1;8;0;0;;0;0;();();(-2000.0, -2000.0);
09:04:00:236;09:04:00:172;1448050798.09;(0, 0);0;0;09:04:00:236;0;9;-1.5;1;0;0;0;0;1;1;1;1;8;0;0;;0;0;();();(-2000.0, -2000.0);
09:04:00:253;09:04:00:172;1448050798.09;(0, 0);0;0;09:04:00:253;0;15;-1.5;170.5;0.684261974584555;0;0;0;1;1;1;1;8;0;0;;0;0;();();(-2000.0, -2000.0);
09:04:00:270;09:04:00:172;1448050798.09;(0, 0);0;0;09:04:00:270;0;5;-1.5;146.142857142857;0.684261974584555;0;0;0;1;1;1;1;8;0;0;;0;0;();();(-2000.0, -2000.0);
09:04:00:302;09:04:00:172;1448050798.09;(0, 0);0;0;09:04:00:302;0;10;-1.5;1;0;0;0;0;1;1;1;1;8;0;0;;0;0;();();(-2000.0, -2000.0);
09:04:00:319;09:04:00:304;1448050798.25;(0, 0);0;0;09:04:00:319;0;4;-1.5;1;0;0;0;0;1;1;1;1;8;0;0;;0;0;();();(-2000.0, -2000.0);
09:04:00:335;09:04:00:304;1448050798.25;(0, 0);0;0;09:04:00:335;0;9;-1.5;1;0.0977517106549365;0;0;0;1;1;1;1;8;0;0;;0;0;();();(-2000.0, -2000.0);
09:04:00:352;09:04:00:304;1448050798.25;(0, 0);0;0;09:04:00:352;0;9;-1.5;1;0.0977517106549365;0;0;0;1;1;1;1;8;0;0;;0;0;();();(-2000.0, -2000.0);
09:04:00:368;09:04:00:368;1448050798.29;(0.3769539833068848, 0.7315251032511394);37.9628791809;0.665477368817;09:04:00:368;0;10;-1.5;1;0.0977517106549365;0;0;0;1;1;1;1;8;0;0;;0;0;();();(-2000.0, -2000.0);
09:04:00:402;09:04:00:368;1448050798.29;(0.3769539833068848, 0.7315251032511394);37.9628791809;0.665477368817;09:04:00:402;0;4;-1.5;1;0.0977517106549365;0;0;0;1;1;1;1;8;0;0;;0;0;();();(-2000.0, -2000.0);
09:04:00:418;09:04:00:368;1448050798.29;(0.3769539833068848, 0.7315251032511394);37.9628791809;0.665477368817;09:04:00:418;0;15;-1.5;1;0;0;0;0;1;1;1;1;8;0;0;;0;0;();();(-2000.0, -2000.0);
09:04:00:435;09:04:00:368;1448050798.29;(0.3769539833068848, 0.7315251032511394);37.9628791809;0.665477368817;09:04:00:435;0;10;-1.5;1;0;0;0;0;1;1;1;1;8;0;0;;0;0;();();(-2000.0, -2000.0);
09:04:00:451;09:04:00:436;1448050798.32;(0.1421566128730774, 0.8568740632798937);19.5999984741;0.620470412221;09:04:00:451;0;15;-1.5;1;0;0;0;0;1;1;1;1;8;0;0;;0;0;();();(-2000.0, -2000.0);
09:04:00:468;09:04:00:436;1448050798.32;(0.1421566128730774, 0.8568740632798937);19.5999984741;0.620470412221;09:04:00:468;0;4;-1.5;1;0;0;0;0;1;1;1;1;8;0;0;;0;0;();();(-2000.0, -2000.0);
09:04:00:501;09:04:00:436;1448050798.32;(0.1421566128730774, 0.8568740632798937);19.5999984741;0.620470412221;09:04:00:501;0;4;-1.5;1;0;0;0;0;1;1;1;1;8;0;0;;0;0;();();(-2000.0, -2000.0);
09:04:00:518;09:04:00:504;1448050798.45;(0.6488136768341064, 0.6695533540513781);85.3517608643;0.659252770817;09:04:00:518;0;5;-1.5;1;0;0;0;0;1;1;1;1;8;0;0;;0;0;();();(-2000.0, -2000.0);
09:04:00:534;09:04:00:504;1448050798.45;(0.6488136768341064, 0.6695533540513781);85.3517608643;0.659252770817;09:04:00:534;0;4;-1.5;1;0;0;0;0;1;1;1;1;8;0;0;;0;0;();();(-2000.0, -2000.0);
09:04:00:551;09:04:00:504;1448050798.45;(0.6488136768341064, 0.6695533540513781);85.3517608643;0.659252770817;09:04:00:551;0;10;-1.5;1;0.0977517106549365;0;0;0;1;1;1;1;8;0;0;;0;0;();();(-2000.0, -2000.0);
