%Timestamp,timestamp_write;timestamp_gotpupil;eyetrackertime;norm_pos;diameter;confidence;nplanes;lastaction;lastactiondetails;lastactionairplanenumber;positivescore;negativescore;collidedairplanenumbers;targetpositions;collision_point
04:27:10:521;04:27:10:506;1448034188.56;(0.6366382598876953, 0.6922369003295898);72.7082901001;1.0;0;0;0;;0;0;();();(0.0, 0.0);
04:27:10:523;04:27:10:506;1448034188.56;(0.6366382598876953, 0.6922369003295898);72.7082901001;1.0;0;0;0;;0;0;();();(-2000.0, -2000.0);
04:27:10:523;04:27:10:506;1448034188.56;(0.6366382598876953, 0.6922369003295898);72.7082901001;1.0;0;0;0;;0;0;();();(-2000.0, -2000.0);
04:27:10:524;04:27:10:506;1448034188.56;(0.6366382598876953, 0.6922369003295898);72.7082901001;1.0;0;0;0;;0;0;();();(-2000.0, -2000.0);
04:27:10:524;04:27:10:506;1448034188.56;(0.6366382598876953, 0.6922369003295898);72.7082901001;1.0;0;0;0;;0;0;();();(-2000.0, -2000.0);
04:27:10:524;04:27:10:506;1448034188.56;(0.6366382598876953, 0.6922369003295898);72.7082901001;1.0;0;0;0;;0;0;();();(-2000.0, -2000.0);
04:27:10:524;04:27:10:506;1448034188.56;(0.6366382598876953, 0.6922369003295898);72.7082901001;1.0;0;0;0;;0;0;();();(-2000.0, -2000.0);
04:27:10:524;04:27:10:506;1448034188.56;(0.6366382598876953, 0.6922369003295898);72.7082901001;1.0;0;0;0;;0;0;();();(-2000.0, -2000.0);
04:27:10:524;04:27:10:506;1448034188.56;(0.6366382598876953, 0.6922369003295898);72.7082901001;1.0;0;0;0;;0;0;();();(-2000.0, -2000.0);
04:27:10:524;04:27:10:506;1448034188.56;(0.6366382598876953, 0.6922369003295898);72.7082901001;1.0;0;0;0;;0;0;();();(-2000.0, -2000.0);
04:27:10:525;04:27:10:506;1448034188.56;(0.6366382598876953, 0.6922369003295898);72.7082901001;1.0;0;0;0;;0;0;();();(-2000.0, -2000.0);
04:27:10:525;04:27:10:506;1448034188.56;(0.6366382598876953, 0.6922369003295898);72.7082901001;1.0;0;0;0;;0;0;();();(-2000.0, -2000.0);
04:27:10:525;04:27:10:506;1448034188.56;(0.6366382598876953, 0.6922369003295898);72.7082901001;1.0;0;0;0;;0;0;();();(-2000.0, -2000.0);
04:27:10:525;04:27:10:506;1448034188.56;(0.6366382598876953, 0.6922369003295898);72.7082901001;1.0;0;0;0;;0;0;();();(-2000.0, -2000.0);
04:27:10:525;04:27:10:506;1448034188.56;(0.6366382598876953, 0.6922369003295898);72.7082901001;1.0;0;0;0;;0;0;();();(-2000.0, -2000.0);
04:27:10:525;04:27:10:506;1448034188.56;(0.6366382598876953, 0.6922369003295898);72.7082901001;1.0;0;0;0;;0;0;();();(-2000.0, -2000.0);
04:27:10:549;04:27:10:548;1448034188.59;(0.6363478183746338, 0.6928257624308268);72.3321151733;1.0;0;0;0;;0;0;();();(-2000.0, -2000.0);
04:27:10:549;04:27:10:548;1448034188.59;(0.6363478183746338, 0.6928257624308268);72.3321151733;1.0;0;0;0;;0;0;();();(-2000.0, -2000.0);
04:27:10:582;04:27:10:548;1448034188.59;(0.6363478183746338, 0.6928257624308268);72.3321151733;1.0;0;0;0;;0;0;();();(-2000.0, -2000.0);
04:27:10:599;04:27:10:585;1448034188.66;(0.6367122173309326, 0.6926523420545789);72.7002563477;1.0;0;0;0;;0;0;();();(-2000.0, -2000.0);
04:27:10:616;04:27:10:585;1448034188.66;(0.6367122173309326, 0.6926523420545789);72.7002563477;1.0;0;0;0;;0;0;();();(-2000.0, -2000.0);
04:27:10:631;04:27:10:629;1448034188.69;(0.6368914127349854, 0.6925100750393338);72.6701126099;1.0;0;0;0;;0;0;();();(-2000.0, -2000.0);
04:27:10:649;04:27:10:629;1448034188.69;(0.6368914127349854, 0.6925100750393338);72.6701126099;1.0;0;0;0;;0;0;();();(-2000.0, -2000.0);
04:27:10:681;04:27:10:669;1448034188.73;(0.637122106552124, 0.6928693347507053);72.7378387451;1.0;0;0;0;;0;0;();();(-2000.0, -2000.0);
04:27:10:698;04:27:10:669;1448034188.73;(0.637122106552124, 0.6928693347507053);72.7378387451;1.0;0;0;0;;0;0;();();(-2000.0, -2000.0);
04:27:10:715;04:27:10:713;1448034188.79;(0.6373545169830322, 0.6928038703070747);72.9371261597;1.0;0;0;0;;0;0;();();(-2000.0, -2000.0);
04:27:10:731;04:27:10:713;1448034188.79;(0.6373545169830322, 0.6928038703070747);72.9371261597;1.0;0;0;0;;0;0;();();(-2000.0, -2000.0);
04:27:10:764;04:27:10:713;1448034188.79;(0.6373545169830322, 0.6928038703070747);72.9371261597;1.0;0;0;0;;0;0;();();(-2000.0, -2000.0);
04:27:10:781;04:27:10:713;1448034188.79;(0.6373545169830322, 0.6928038703070747);72.9371261597;1.0;0;0;0;;0;0;();();(-2000.0, -2000.0);
04:27:10:798;04:27:10:713;1448034188.79;(0.6373545169830322, 0.6928038703070747);72.9371261597;1.0;0;0;0;;0;0;();();(-2000.0, -2000.0);
04:27:10:814;04:27:10:808;1448034188.86;(0.6369903564453125, 0.6931858698527018);72.6808853149;1.0;0;0;0;;0;0;();();(-2000.0, -2000.0);
04:27:10:831;04:27:10:808;1448034188.86;(0.6369903564453125, 0.6931858698527018);72.6808853149;1.0;0;0;0;;0;0;();();(-2000.0, -2000.0);
04:27:10:864;04:27:10:808;1448034188.86;(0.6369903564453125, 0.6931858698527018);72.6808853149;1.0;0;0;0;;0;0;();();(-2000.0, -2000.0);
04:27:10:880;04:27:10:808;1448034188.86;(0.6369903564453125, 0.6931858698527018);72.6808853149;1.0;0;0;0;;0;0;();();(-2000.0, -2000.0);
04:27:10:897;04:27:10:808;1448034188.86;(0.6369903564453125, 0.6931858698527018);72.6808853149;1.0;0;0;0;;0;0;();();(-2000.0, -2000.0);
04:27:10:913;04:27:10:808;1448034188.86;(0.6369903564453125, 0.6931858698527018);72.6808853149;1.0;0;0;0;;0;0;();();(-2000.0, -2000.0);
04:27:10:930;04:27:10:916;1448034188.89;(0.6282598972320557, 0.6964960522121854);69.3560562134;0.603443677074;0;0;0;;0;0;();();(-2000.0, -2000.0);
04:27:10:963;04:27:10:961;1448034189.03;(0.6095963001251221, 0.7067486233181424);73.7221603394;1.0;0;0;0;;0;0;();();(-2000.0, -2000.0);
04:27:10:980;04:27:10:961;1448034189.03;(0.6095963001251221, 0.7067486233181424);73.7221603394;1.0;0;0;0;;0;0;();();(-2000.0, -2000.0);
04:27:10:997;04:27:10:961;1448034189.03;(0.6095963001251221, 0.7067486233181424);73.7221603394;1.0;0;0;0;;0;0;();();(-2000.0, -2000.0);
04:27:11:013;04:27:10:961;1448034189.03;(0.6095963001251221, 0.7067486233181424);73.7221603394;1.0;0;0;0;;0;0;();();(-2000.0, -2000.0);
04:27:11:029;04:27:11:021;1448034189.06;(0.609663438796997, 0.7066118876139322);73.784362793;1.0;0;0;0;;0;0;();();(-2000.0, -2000.0);
04:27:11:062;04:27:11:042;1448034189.09;(0.6099056720733642, 0.7071479161580403);73.7503509521;1.0;0;0;0;;0;0;();();(-2000.0, -2000.0);
04:27:11:079;04:27:11:042;1448034189.09;(0.6099056720733642, 0.7071479161580403);73.7503509521;1.0;0;0;0;;0;0;();();(-2000.0, -2000.0);
04:27:11:096;04:27:11:085;1448034189.13;(0.6099039554595947, 0.7070053948296441);73.9672546387;1.0;0;0;0;;0;0;();();(-2000.0, -2000.0);
04:27:11:112;04:27:11:099;1448034189.16;(0.6099443912506104, 0.7077200359768338);74.0310745239;1.0;0;0;0;;0;0;();();(-2000.0, -2000.0);
04:27:11:129;04:27:11:099;1448034189.16;(0.6099443912506104, 0.7077200359768338);74.0310745239;1.0;0;0;0;;0;0;();();(-2000.0, -2000.0);
04:27:11:161;04:27:11:099;1448034189.16;(0.6099443912506104, 0.7077200359768338);74.0310745239;1.0;0;0;0;;0;0;();();(-2000.0, -2000.0);
04:27:11:178;04:27:11:099;1448034189.16;(0.6099443912506104, 0.7077200359768338);74.0310745239;1.0;0;0;0;;0;0;();();(-2000.0, -2000.0);
04:27:11:195;04:27:11:099;1448034189.16;(0.6099443912506104, 0.7077200359768338);74.0310745239;1.0;0;0;0;;0;0;();();(-2000.0, -2000.0);
04:27:11:212;04:27:11:099;1448034189.16;(0.6099443912506104, 0.7077200359768338);74.0310745239;1.0;0;0;0;;0;0;();();(-2000.0, -2000.0);
04:27:11:245;04:27:11:099;1448034189.16;(0.6099443912506104, 0.7077200359768338);74.0310745239;1.0;0;0;0;;0;0;();();(-2000.0, -2000.0);
04:27:11:261;04:27:11:249;1448034189.19;(0.6102624893188476, 0.6962109035915799);75.977897644;0.921435153821;0;0;0;;0;0;();();(-2000.0, -2000.0);
04:27:11:278;04:27:11:249;1448034189.19;(0.6102624893188476, 0.6962109035915799);75.977897644;0.921435153821;0;0;0;;0;0;();();(-2000.0, -2000.0);
04:27:11:294;04:27:11:294;1448034189.36;(0.6155537605285645, 0.6790242936876085);72.8121871948;1.0;0;0;0;;0;0;();();(-2000.0, -2000.0);
04:27:11:311;04:27:11:294;1448034189.36;(0.6155537605285645, 0.6790242936876085);72.8121871948;1.0;0;0;0;;0;0;();();(-2000.0, -2000.0);
04:27:11:344;04:27:11:333;1448034189.39;(0.6156084060668945, 0.6798183865017361);73.3637161255;1.0;0;0;0;;0;0;();();(-2000.0, -2000.0);
04:27:11:361;04:27:11:333;1448034189.39;(0.6156084060668945, 0.6798183865017361);73.3637161255;1.0;0;0;0;;0;0;();();(-2000.0, -2000.0);
04:27:11:378;04:27:11:373;1448034189.43;(0.6156294822692872, 0.6797679477267795);72.969291687;1.0;0;0;0;;0;0;();();(-2000.0, -2000.0);
04:27:11:393;04:27:11:373;1448034189.43;(0.6156294822692872, 0.6797679477267795);72.969291687;1.0;0;0;0;;0;0;();();(-2000.0, -2000.0);
04:27:11:410;04:27:11:373;1448034189.43;(0.6156294822692872, 0.6797679477267795);72.969291687;1.0;0;0;0;;0;0;();();(-2000.0, -2000.0);
04:27:11:443;04:27:11:428;1448034189.46;(0.6154761791229248, 0.6806234783596463);72.604637146;1.0;0;0;0;;0;0;();();(-2000.0, -2000.0);
04:27:11:460;04:27:11:428;1448034189.46;(0.6154761791229248, 0.6806234783596463);72.604637146;1.0;0;0;0;;0;0;();();(-2000.0, -2000.0);
04:27:11:476;04:27:11:428;1448034189.46;(0.6154761791229248, 0.6806234783596463);72.604637146;1.0;0;0;0;;0;0;();();(-2000.0, -2000.0);
04:27:11:493;04:27:11:428;1448034189.46;(0.6154761791229248, 0.6806234783596463);72.604637146;1.0;0;0;0;;0;0;();();(-2000.0, -2000.0);
04:27:11:510;04:27:11:428;1448034189.46;(0.6154761791229248, 0.6806234783596463);72.604637146;1.0;0;0;0;;0;0;();();(-2000.0, -2000.0);
04:27:11:544;04:27:11:542;1448034189.59;(0.6099254608154296, 0.7071976131863065);73.2798080444;0.918063937832;0;0;0;;0;0;();();(-2000.0, -2000.0);
04:27:11:560;04:27:11:544;1448034189.6;(0.610020112991333, 0.7073461320665148);72.5314254761;1.0;0;0;0;;0;0;();();(-2000.0, -2000.0);
04:27:11:577;04:27:11:544;1448034189.6;(0.610020112991333, 0.7073461320665148);72.5314254761;1.0;0;0;0;;0;0;();();(-2000.0, -2000.0);
04:27:11:593;04:27:11:582;1448034189.63;(0.6100411891937256, 0.7076418134901259);72.9346466064;1.0;0;0;0;;0;0;();();(-2000.0, -2000.0);
04:27:11:609;04:27:11:582;1448034189.63;(0.6100411891937256, 0.7076418134901259);72.9346466064;1.0;0;0;0;;0;0;();();(-2000.0, -2000.0);
04:27:11:642;04:27:11:625;1448034189.69;(0.6097152709960938, 0.7080668131510417);72.7697906494;1.0;0;0;0;;0;0;();();(-2000.0, -2000.0);
04:27:11:659;04:27:11:625;1448034189.69;(0.6097152709960938, 0.7080668131510417);72.7697906494;1.0;0;0;0;;0;0;();();(-2000.0, -2000.0);
04:27:11:675;04:27:11:665;1448034189.73;(0.6106706142425538, 0.7085084915161133);72.7445755005;0.904526859181;0;0;0;;0;0;();();(-2000.0, -2000.0);
04:27:11:692;04:27:11:665;1448034189.73;(0.6106706142425538, 0.7085084915161133);72.7445755005;0.904526859181;0;0;0;;0;0;();();(-2000.0, -2000.0);
04:27:11:708;04:27:11:706;1448034189.76;(0.6111681461334229, 0.708514510260688);72.8453979492;1.0;0;0;0;;0;0;();();(-2000.0, -2000.0);
04:27:11:742;04:27:11:706;1448034189.76;(0.6111681461334229, 0.708514510260688);72.8453979492;1.0;0;0;0;;0;0;();();(-2000.0, -2000.0);
04:27:11:758;04:27:11:749;1448034189.79;(0.6115504741668701, 0.7092134263780382);72.5595932007;1.0;0;0;0;;0;0;();();(-2000.0, -2000.0);
04:27:11:775;04:27:11:749;1448034189.79;(0.6115504741668701, 0.7092134263780382);72.5595932007;1.0;0;0;0;;0;0;();();(-2000.0, -2000.0);
04:27:11:792;04:27:11:789;1448034189.83;(0.6110487937927246, 0.7093050003051757);73.2471313477;1.0;0;0;0;;0;0;();();(-2000.0, -2000.0);
04:27:11:809;04:27:11:789;1448034189.83;(0.6110487937927246, 0.7093050003051757);73.2471313477;1.0;0;0;0;;0;0;();();(-2000.0, -2000.0);
04:27:11:841;04:27:11:829;1448034189.89;(0.6112030506134033, 0.7094797770182292);73.3764648438;1.0;0;0;0;;0;0;();();(-2000.0, -2000.0);
04:27:11:857;04:27:11:829;1448034189.89;(0.6112030506134033, 0.7094797770182292);73.3764648438;1.0;0;0;0;;0;0;();();(-2000.0, -2000.0);
04:27:11:875;04:27:11:873;1448034189.93;(0.6114647865295411, 0.708996327718099);73.854095459;0.927156410221;0;0;0;;0;0;();();(-2000.0, -2000.0);
04:27:11:891;04:27:11:873;1448034189.93;(0.6114647865295411, 0.708996327718099);73.854095459;0.927156410221;0;0;0;;0;0;();();(-2000.0, -2000.0);
04:27:11:924;04:27:11:873;1448034189.93;(0.6114647865295411, 0.708996327718099);73.854095459;0.927156410221;0;0;0;;0;0;();();(-2000.0, -2000.0);
04:27:11:941;04:27:11:873;1448034189.93;(0.6114647865295411, 0.708996327718099);73.854095459;0.927156410221;0;0;0;;0;0;();();(-2000.0, -2000.0);
04:27:11:957;04:27:11:957;1448034189.96;(0.6237037181854248, 0.6758859210544162);73.0012130737;1.0;0;0;0;;0;0;();();(-2000.0, -2000.0);
04:27:11:974;04:27:11:957;1448034189.96;(0.6237037181854248, 0.6758859210544162);73.0012130737;1.0;0;0;0;;0;0;();();(-2000.0, -2000.0);
04:27:11:990;04:27:11:957;1448034189.96;(0.6237037181854248, 0.6758859210544162);73.0012130737;1.0;0;0;0;;0;0;();();(-2000.0, -2000.0);
04:27:12:023;04:27:12:000;1448034190.06;(0.6227192401885986, 0.6750552283393012);73.3687362671;1.0;0;0;0;;0;0;();();(-2000.0, -2000.0);
04:27:12:040;04:27:12:037;1448034190.09;(0.6224734306335449, 0.6753258387247721);73.6788253784;1.0;0;0;0;;0;0;();();(-2000.0, -2000.0);
04:27:12:057;04:27:12:037;1448034190.09;(0.6224734306335449, 0.6753258387247721);73.6788253784;1.0;0;0;0;;0;0;();();(-2000.0, -2000.0);
04:27:12:072;04:27:12:037;1448034190.09;(0.6224734306335449, 0.6753258387247721);73.6788253784;1.0;0;0;0;;0;0;();();(-2000.0, -2000.0);
04:27:12:091;04:27:12:081;1448034190.13;(0.6216560363769531, 0.6747582965426975);73.5270004272;1.0;0;0;0;;0;0;();();(-2000.0, -2000.0);
04:27:12:123;04:27:12:081;1448034190.13;(0.6216560363769531, 0.6747582965426975);73.5270004272;1.0;0;0;0;;0;0;();();(-2000.0, -2000.0);
04:27:12:139;04:27:12:137;1448034190.16;(0, 0);0;0;0;0;0;;0;0;();();(-2000.0, -2000.0);
04:27:12:157;04:27:12:137;1448034190.16;(0, 0);0;0;0;0;0;;0;0;();();(-2000.0, -2000.0);
04:27:12:173;04:27:12:163;1448034190.19;(0.501665735244751, 0.5859395345052083);30.8813266754;0.602452001617;0;0;0;;0;0;();();(-2000.0, -2000.0);
04:27:12:189;04:27:12:163;1448034190.19;(0.501665735244751, 0.5859395345052083);30.8813266754;0.602452001617;0;0;0;;0;0;();();(-2000.0, -2000.0);
04:27:12:223;04:27:12:205;1448034190.23;(0, 0);0;0;0;0;0;;0;0;();();(-2000.0, -2000.0);
04:27:12:239;04:27:12:205;1448034190.23;(0, 0);0;0;0;0;0;;0;0;();();(-2000.0, -2000.0);
04:27:12:256;04:27:12:205;1448034190.23;(0, 0);0;0;0;0;0;;0;0;();();(-2000.0, -2000.0);
04:27:12:272;04:27:12:260;1448034190.32;(0.619757080078125, 0.6816025839911567);73.113571167;0.981536248671;0;0;0;;0;0;();();(-2000.0, -2000.0);
04:27:12:289;04:27:12:260;1448034190.32;(0.619757080078125, 0.6816025839911567);73.113571167;0.981536248671;0;0;0;;0;0;();();(-2000.0, -2000.0);
04:27:12:321;04:27:12:289;1448034190.36;(0.6214758872985839, 0.6804861280653212);73.8795928955;1.0;0;0;0;;0;0;();();(-2000.0, -2000.0);
04:27:12:338;04:27:12:328;1448034190.39;(0.6220767021179199, 0.6805762396918402);73.4884643555;1.0;0;0;0;;0;0;();();(-2000.0, -2000.0);
04:27:12:355;04:27:12:328;1448034190.39;(0.6220767021179199, 0.6805762396918402);73.4884643555;1.0;0;0;0;;0;0;();();(-2000.0, -2000.0);
04:27:12:372;04:27:12:369;1448034190.43;(0.6227878093719482, 0.6803879843817817);73.2788009644;1.0;0;0;0;;0;0;();();(-2000.0, -2000.0);
04:27:12:389;04:27:12:369;1448034190.43;(0.6227878093719482, 0.6803879843817817);73.2788009644;1.0;0;0;0;;0;0;();();(-2000.0, -2000.0);
04:27:12:421;04:27:12:421;1448034190.46;(0.6226938724517822, 0.6811051898532443);73.0302963257;1.0;0;0;0;;0;0;();();(-2000.0, -2000.0);
04:27:12:438;04:27:12:421;1448034190.46;(0.6226938724517822, 0.6811051898532443);73.0302963257;1.0;0;0;0;;0;0;();();(-2000.0, -2000.0);
04:27:12:454;04:27:12:453;1448034190.49;(0.34821362495422364, 0.8093497594197592);34.823890686;0.747676466119;0;0;0;;0;0;();();(-2000.0, -2000.0);
04:27:12:471;04:27:12:453;1448034190.49;(0.34821362495422364, 0.8093497594197592);34.823890686;0.747676466119;0;0;0;;0;0;();();(-2000.0, -2000.0);
04:27:12:505;04:27:12:493;1448034190.56;(0.6095614433288574, 0.7075033187866211);73.1183166504;1.0;0;0;0;;0;0;();();(-2000.0, -2000.0);
04:27:12:521;04:27:12:493;1448034190.56;(0.6095614433288574, 0.7075033187866211);73.1183166504;1.0;0;0;0;;0;0;();();(-2000.0, -2000.0);
04:27:12:536;04:27:12:493;1448034190.56;(0.6095614433288574, 0.7075033187866211);73.1183166504;1.0;0;0;0;;0;0;();();(-2000.0, -2000.0);
04:27:12:554;04:27:12:540;1448034190.59;(0.609454870223999, 0.7079009162055121);72.8224563599;1.0;0;0;0;;0;0;();();(-2000.0, -2000.0);
04:27:12:571;04:27:12:540;1448034190.59;(0.609454870223999, 0.7079009162055121);72.8224563599;1.0;0;0;0;;0;0;();();(-2000.0, -2000.0);
04:27:12:603;04:27:12:577;1448034190.63;(0.609517765045166, 0.7082559161716038);72.4421539307;1.0;0;0;0;;0;0;();();(-2000.0, -2000.0);
04:27:12:620;04:27:12:577;1448034190.63;(0.609517765045166, 0.7082559161716038);72.4421539307;1.0;0;0;0;;0;0;();();(-2000.0, -2000.0);
04:27:12:637;04:27:12:621;1448034190.69;(0.609785795211792, 0.7080739974975586);72.6788024902;1.0;0;0;0;;0;0;();();(-2000.0, -2000.0);
04:27:12:653;04:27:12:621;1448034190.69;(0.609785795211792, 0.7080739974975586);72.6788024902;1.0;0;0;0;;0;0;();();(-2000.0, -2000.0);
04:27:12:669;04:27:12:662;1448034190.73;(0.6095556259155274, 0.7085234747992621);73.0158691406;1.0;0;0;0;;0;0;();();(-2000.0, -2000.0);
04:27:12:703;04:27:12:701;1448034190.76;(0.6093175411224365, 0.7088071823120117);72.7243652344;1.0;0;0;0;;0;0;();();(-2000.0, -2000.0);
04:27:12:720;04:27:12:701;1448034190.76;(0.6093175411224365, 0.7088071823120117);72.7243652344;1.0;0;0;0;;0;0;();();(-2000.0, -2000.0);
04:27:12:735;04:27:12:701;1448034190.76;(0.6093175411224365, 0.7088071823120117);72.7243652344;1.0;0;0;0;;0;0;();();(-2000.0, -2000.0);
04:27:12:752;04:27:12:701;1448034190.76;(0.6093175411224365, 0.7088071823120117);72.7243652344;1.0;0;0;0;;0;0;();();(-2000.0, -2000.0);
04:27:12:769;04:27:12:757;1448034190.83;(0.6107491016387939, 0.7088586807250976);73.0483169556;1.0;0;0;0;;0;0;();();(-2000.0, -2000.0);
04:27:12:803;04:27:12:784;1448034190.86;(0.6107254028320312, 0.709045664469401);72.8356246948;1.0;0;0;0;;0;0;();();(-2000.0, -2000.0);
04:27:12:819;04:27:12:784;1448034190.86;(0.6107254028320312, 0.709045664469401);72.8356246948;1.0;0;0;0;;0;0;();();(-2000.0, -2000.0);
04:27:12:835;04:27:12:828;1448034190.89;(0.6107519626617431, 0.7093430413140192);73.3433837891;1.0;0;0;0;;0;0;();();(-2000.0, -2000.0);
04:27:12:852;04:27:12:828;1448034190.89;(0.6107519626617431, 0.7093430413140192);73.3433837891;1.0;0;0;0;;0;0;();();(-2000.0, -2000.0);
04:27:12:868;04:27:12:828;1448034190.89;(0.6107519626617431, 0.7093430413140192);73.3433837891;1.0;0;0;0;;0;0;();();(-2000.0, -2000.0);
04:27:12:902;04:27:12:868;1448034190.93;(0.6107918739318847, 0.7090521494547526);73.3107147217;1.0;0;0;0;;0;0;();();(-2000.0, -2000.0);
04:27:12:918;04:27:12:910;1448034190.96;(0.6105408668518066, 0.7096549140082465);73.0257034302;1.0;0;0;0;;0;0;();();(-2000.0, -2000.0);
04:27:12:934;04:27:12:910;1448034190.96;(0.6105408668518066, 0.7096549140082465);73.0257034302;1.0;0;0;0;;0;0;();();(-2000.0, -2000.0);
04:27:12:951;04:27:12:950;1448034190.99;(0.6109179973602294, 0.709201176961263);72.7905578613;1.0;0;0;0;;0;0;();();(-2000.0, -2000.0);
04:27:12:968;04:27:12:953;1448034191.03;(0.6111227512359619, 0.708892101711697);72.4806900024;1.0;0;0;0;;0;0;();();(-2000.0, -2000.0);
04:27:13:001;04:27:12:993;1448034191.06;(0.6109201908111572, 0.709190559387207);72.5291748047;1.0;0;0;0;;0;0;();();(-2000.0, -2000.0);
04:27:13:017;04:27:12:993;1448034191.06;(0.6109201908111572, 0.709190559387207);72.5291748047;1.0;0;0;0;;0;0;();();(-2000.0, -2000.0);
04:27:13:034;04:27:12:993;1448034191.06;(0.6109201908111572, 0.709190559387207);72.5291748047;1.0;0;0;0;;0;0;();();(-2000.0, -2000.0);
04:27:13:051;04:27:13:034;1448034191.09;(0.6109010219573975, 0.7088442696465387);72.557510376;1.0;0;0;0;;0;0;();();(-2000.0, -2000.0);
04:27:13:083;04:27:13:078;1448034191.13;(0.6107296943664551, 0.7089387893676757);72.9842987061;1.0;0;0;0;;0;0;();();(-2000.0, -2000.0);
04:27:13:100;04:27:13:078;1448034191.13;(0.6107296943664551, 0.7089387893676757);72.9842987061;1.0;0;0;0;;0;0;();();(-2000.0, -2000.0);
04:27:13:117;04:27:13:078;1448034191.13;(0.6107296943664551, 0.7089387893676757);72.9842987061;1.0;0;0;0;;0;0;();();(-2000.0, -2000.0);
04:27:13:134;04:27:13:117;1448034191.16;(0.6107810020446778, 0.709092797173394);72.8061904907;1.0;0;0;0;;0;0;();();(-2000.0, -2000.0);
04:27:13:150;04:27:13:117;1448034191.16;(0.6107810020446778, 0.709092797173394);72.8061904907;1.0;0;0;0;;0;0;();();(-2000.0, -2000.0);
04:27:13:182;04:27:13:157;1448034191.23;(0.6112658977508545, 0.708756234910753);72.9401245117;1.0;0;0;0;;0;0;();();(-2000.0, -2000.0);
04:27:13:200;04:27:13:157;1448034191.23;(0.6112658977508545, 0.708756234910753);72.9401245117;1.0;0;0;0;;0;0;();();(-2000.0, -2000.0);
04:27:13:215;04:27:13:201;1448034191.26;(0.6112336635589599, 0.7082548141479492);72.6818389893;1.0;0;0;0;;0;0;();();(-2000.0, -2000.0);
04:27:13:233;04:27:13:201;1448034191.26;(0.6112336635589599, 0.7082548141479492);72.6818389893;1.0;0;0;0;;0;0;();();(-2000.0, -2000.0);
04:27:13:249;04:27:13:241;1448034191.29;(0.6110625267028809, 0.7083785798814561);73.0227355957;1.0;0;0;0;;0;0;();();(-2000.0, -2000.0);
04:27:13:282;04:27:13:241;1448034191.29;(0.6110625267028809, 0.7083785798814561);73.0227355957;1.0;0;0;0;;0;0;();();(-2000.0, -2000.0);
04:27:13:299;04:27:13:241;1448034191.29;(0.6110625267028809, 0.7083785798814561);73.0227355957;1.0;0;0;0;;0;0;();();(-2000.0, -2000.0);
04:27:13:316;04:27:13:241;1448034191.29;(0.6110625267028809, 0.7083785798814561);73.0227355957;1.0;0;0;0;;0;0;();();(-2000.0, -2000.0);
04:27:13:332;04:27:13:241;1448034191.29;(0.6110625267028809, 0.7083785798814561);73.0227355957;1.0;0;0;0;;0;0;();();(-2000.0, -2000.0);
04:27:13:349;04:27:13:241;1448034191.29;(0.6110625267028809, 0.7083785798814561);73.0227355957;1.0;0;0;0;;0;0;();();(-2000.0, -2000.0);
04:27:13:381;04:27:13:241;1448034191.29;(0.6110625267028809, 0.7083785798814561);73.0227355957;1.0;0;0;0;;0;0;();();(-2000.0, -2000.0);
04:27:13:398;04:27:13:241;1448034191.29;(0.6110625267028809, 0.7083785798814561);73.0227355957;1.0;0;0;0;;0;0;();();(-2000.0, -2000.0);
04:27:13:416;04:27:13:409;1448034191.46;(0.5851201057434082, 0.7039102342393664);72.5336761475;1.0;0;0;0;;0;0;();();(-2000.0, -2000.0);
04:27:13:431;04:27:13:409;1448034191.46;(0.5851201057434082, 0.7039102342393664);72.5336761475;1.0;0;0;0;;0;0;();();(-2000.0, -2000.0);
04:27:13:465;04:27:13:450;1448034191.53;(0.5849868297576905, 0.7045797136094836);73.242729187;1.0;0;0;0;;0;0;();();(-2000.0, -2000.0);
04:27:13:481;04:27:13:450;1448034191.53;(0.5849868297576905, 0.7045797136094836);73.242729187;1.0;0;0;0;;0;0;();();(-2000.0, -2000.0);
04:27:13:498;04:27:13:489;1448034191.56;(0.5850736141204834, 0.7039573457505968);72.4406204224;1.0;0;0;0;;0;0;();();(-2000.0, -2000.0);
04:27:13:514;04:27:13:489;1448034191.56;(0.5850736141204834, 0.7039573457505968);72.4406204224;1.0;0;0;0;;0;0;();();(-2000.0, -2000.0);
04:27:13:531;04:27:13:489;1448034191.56;(0.5850736141204834, 0.7039573457505968);72.4406204224;1.0;0;0;0;;0;0;();();(-2000.0, -2000.0);
04:27:13:564;04:27:13:533;1448034191.59;(0.5850459575653076, 0.7047969818115234);72.3278808594;1.0;0;0;0;;0;0;();();(-2000.0, -2000.0);
04:27:13:581;04:27:13:533;1448034191.59;(0.5850459575653076, 0.7047969818115234);72.3278808594;1.0;0;0;0;;0;0;();();(-2000.0, -2000.0);
04:27:13:596;04:27:13:581;1448034191.63;(0.5848809719085694, 0.704488033718533);72.0428619385;1.0;0;0;0;;0;0;();();(-2000.0, -2000.0);
04:27:13:614;04:27:13:613;1448034191.66;(0, 0);0;0;0;0;0;;0;0;();();(-2000.0, -2000.0);
04:27:13:631;04:27:13:613;1448034191.66;(0, 0);0;0;0;0;0;;0;0;();();(-2000.0, -2000.0);
04:27:13:663;04:27:13:657;1448034191.69;(0.5869654655456543, 0.6871246549818251);71.6320419312;0.983414374572;0;0;0;;0;0;();();(-2000.0, -2000.0);
04:27:13:680;04:27:13:657;1448034191.69;(0.5869654655456543, 0.6871246549818251);71.6320419312;0.983414374572;0;0;0;;0;0;();();(-2000.0, -2000.0);
04:27:13:697;04:27:13:657;1448034191.69;(0.5869654655456543, 0.6871246549818251);71.6320419312;0.983414374572;0;0;0;;0;0;();();(-2000.0, -2000.0);
04:27:13:713;04:27:13:697;1448034191.76;(0.5870880603790283, 0.6874543295966254);71.3590927124;1.0;0;0;0;;0;0;();();(-2000.0, -2000.0);
04:27:13:730;04:27:13:697;1448034191.76;(0.5870880603790283, 0.6874543295966254);71.3590927124;1.0;0;0;0;;0;0;();();(-2000.0, -2000.0);
04:27:13:762;04:27:13:737;1448034191.79;(0.5869392395019531, 0.6876684824625652);71.0480422974;1.0;0;0;0;;0;0;();();(-2000.0, -2000.0);
04:27:13:779;04:27:13:737;1448034191.79;(0.5869392395019531, 0.6876684824625652);71.0480422974;1.0;0;0;0;;0;0;();();(-2000.0, -2000.0);
04:27:13:797;04:27:13:782;1448034191.86;(0.5866855144500732, 0.688490358988444);71.2244949341;1.0;0;0;0;;0;0;();();(-2000.0, -2000.0);
04:27:13:812;04:27:13:782;1448034191.86;(0.5866855144500732, 0.688490358988444);71.2244949341;1.0;0;0;0;;0;0;();();(-2000.0, -2000.0);
04:27:13:829;04:27:13:821;1448034191.89;(0.5867379188537598, 0.6886796951293945);71.2859039307;1.0;0;0;0;;0;0;();();(-2000.0, -2000.0);
04:27:13:862;04:27:13:821;1448034191.89;(0.5867379188537598, 0.6886796951293945);71.2859039307;1.0;0;0;0;;0;0;();();(-2000.0, -2000.0);
04:27:13:879;04:27:13:865;1448034191.93;(0.5869341850280761, 0.6887325286865235);71.2857437134;1.0;0;0;0;;0;0;();();(-2000.0, -2000.0);
04:27:13:896;04:27:13:865;1448034191.93;(0.5869341850280761, 0.6887325286865235);71.2857437134;1.0;0;0;0;;0;0;();();(-2000.0, -2000.0);
04:27:13:912;04:27:13:905;1448034191.96;(0.5870268821716309, 0.6883661905924479);71.2805709839;1.0;0;0;0;;0;0;();();(-2000.0, -2000.0);
04:27:13:929;04:27:13:905;1448034191.96;(0.5870268821716309, 0.6883661905924479);71.2805709839;1.0;0;0;0;;0;0;();();(-2000.0, -2000.0);
04:27:13:961;04:27:13:948;1448034191.99;(0, 0);0;0;0;0;0;;0;0;();();(-2000.0, -2000.0);
04:27:13:979;04:27:13:948;1448034191.99;(0, 0);0;0;0;0;0;;0;0;();();(-2000.0, -2000.0);
04:27:13:995;04:27:13:990;1448034192.03;(0.6166104793548584, 0.6736913257175021);70.2873535156;1.0;0;0;0;;0;0;();();(-2000.0, -2000.0);
04:27:14:011;04:27:13:990;1448034192.03;(0.6166104793548584, 0.6736913257175021);70.2873535156;1.0;0;0;0;;0;0;();();(-2000.0, -2000.0);
04:27:14:028;04:27:13:990;1448034192.03;(0.6166104793548584, 0.6736913257175021);70.2873535156;1.0;0;0;0;;0;0;();();(-2000.0, -2000.0);
04:27:14:060;04:27:14:029;1448034192.09;(0.6168940544128418, 0.6748819563123916);70.0828018188;1.0;0;0;0;;0;0;();();(-2000.0, -2000.0);
04:27:14:078;04:27:14:069;1448034192.13;(0.6169455051422119, 0.674931165907118);69.5154190063;1.0;0;0;0;;0;0;();();(-2000.0, -2000.0);
04:27:14:094;04:27:14:069;1448034192.13;(0.6169455051422119, 0.674931165907118);69.5154190063;1.0;0;0;0;;0;0;();();(-2000.0, -2000.0);
04:27:14:111;04:27:14:069;1448034192.13;(0.6169455051422119, 0.674931165907118);69.5154190063;1.0;0;0;0;;0;0;();();(-2000.0, -2000.0);
04:27:14:144;04:27:14:113;1448034192.19;(0.6171975612640381, 0.6762444390190971);68.8581085205;1.0;0;0;0;;0;0;();();(-2000.0, -2000.0);
04:27:14:161;04:27:14:153;1448034192.23;(0.6171728134155273, 0.676210551791721);68.4272842407;1.0;0;0;0;;0;0;();();(-2000.0, -2000.0);
04:27:14:177;04:27:14:153;1448034192.23;(0.6171728134155273, 0.676210551791721);68.4272842407;1.0;0;0;0;;0;0;();();(-2000.0, -2000.0);
04:27:14:193;04:27:14:153;1448034192.23;(0.6171728134155273, 0.676210551791721);68.4272842407;1.0;0;0;0;;0;0;();();(-2000.0, -2000.0);
04:27:14:210;04:27:14:196;1448034192.26;(0.6174498558044433, 0.6763476477728949);67.910446167;1.0;0;0;0;;0;0;();();(-2000.0, -2000.0);
04:27:14:243;04:27:14:237;1448034192.29;(0.6187392711639405, 0.6760544459025065);68.301864624;0.806083574272;0;0;0;;0;0;();();(-2000.0, -2000.0);
04:27:14:260;04:27:14:237;1448034192.29;(0.6187392711639405, 0.6760544459025065);68.301864624;0.806083574272;0;0;0;;0;0;();();(-2000.0, -2000.0);
04:27:14:277;04:27:14:237;1448034192.29;(0.6187392711639405, 0.6760544459025065);68.301864624;0.806083574272;0;0;0;;0;0;();();(-2000.0, -2000.0);
04:27:14:293;04:27:14:237;1448034192.29;(0.6187392711639405, 0.6760544459025065);68.301864624;0.806083574272;0;0;0;;0;0;();();(-2000.0, -2000.0);
04:27:14:310;04:27:14:237;1448034192.29;(0.6187392711639405, 0.6760544459025065);68.301864624;0.806083574272;0;0;0;;0;0;();();(-2000.0, -2000.0);
04:27:14:342;04:27:14:321;1448034192.39;(0.6261398792266846, 0.6744935565524631);67.2648391724;1.0;0;0;0;;0;0;();();(-2000.0, -2000.0);
04:27:14:359;04:27:14:321;1448034192.39;(0.6261398792266846, 0.6744935565524631);67.2648391724;1.0;0;0;0;;0;0;();();(-2000.0, -2000.0);
04:27:14:376;04:27:14:361;1448034192.43;(0.6261329650878906, 0.6747862074110242);67.5786209106;1.0;0;0;0;;0;0;();();(-2000.0, -2000.0);
04:27:14:393;04:27:14:361;1448034192.43;(0.6261329650878906, 0.6747862074110242);67.5786209106;1.0;0;0;0;;0;0;();();(-2000.0, -2000.0);
04:27:14:409;04:27:14:401;1448034192.46;(0.6250197410583496, 0.673548083835178);67.7277297974;0.901251447992;0;0;0;;0;0;();();(-2000.0, -2000.0);
04:27:14:442;04:27:14:401;1448034192.46;(0.6250197410583496, 0.673548083835178);67.7277297974;0.901251447992;0;0;0;;0;0;();();(-2000.0, -2000.0);
04:27:14:459;04:27:14:445;1448034192.49;(0.6192347526550293, 0.6687170240614149);66.138458252;0.658879180087;0;0;0;;0;0;();();(-2000.0, -2000.0);
04:27:14:476;04:27:14:445;1448034192.49;(0.6192347526550293, 0.6687170240614149);66.138458252;0.658879180087;0;0;0;;0;0;();();(-2000.0, -2000.0);
04:27:14:491;04:27:14:445;1448034192.49;(0.6192347526550293, 0.6687170240614149);66.138458252;0.658879180087;0;0;0;;0;0;();();(-2000.0, -2000.0);
04:27:14:508;04:27:14:445;1448034192.49;(0.6192347526550293, 0.6687170240614149);66.138458252;0.658879180087;0;0;0;;0;0;();();(-2000.0, -2000.0);
04:27:14:541;04:27:14:524;1448034192.53;(0.36740639209747317, 0.5519490136040581);30.6484642029;0.646060541917;0;0;0;;0;0;();();(-2000.0, -2000.0);
04:27:14:559;04:27:14:524;1448034192.53;(0.36740639209747317, 0.5519490136040581);30.6484642029;0.646060541917;0;0;0;;0;0;();();(-2000.0, -2000.0);
04:27:14:575;04:27:14:571;1448034192.62;(0.6172932624816895, 0.6846499549018012);68.3351287842;0.604635624706;0;0;0;;0;0;();();(-2000.0, -2000.0);
04:27:14:591;04:27:14:571;1448034192.62;(0.6172932624816895, 0.6846499549018012);68.3351287842;0.604635624706;0;0;0;;0;0;();();(-2000.0, -2000.0);
04:27:14:624;04:27:14:571;1448034192.62;(0.6172932624816895, 0.6846499549018012);68.3351287842;0.604635624706;0;0;0;;0;0;();();(-2000.0, -2000.0);
04:27:14:641;04:27:14:571;1448034192.62;(0.6172932624816895, 0.6846499549018012);68.3351287842;0.604635624706;0;0;0;;0;0;();();(-2000.0, -2000.0);
04:27:14:657;04:27:14:571;1448034192.62;(0.6172932624816895, 0.6846499549018012);68.3351287842;0.604635624706;0;0;0;;0;0;();();(-2000.0, -2000.0);
04:27:14:674;04:27:14:571;1448034192.62;(0.6172932624816895, 0.6846499549018012);68.3351287842;0.604635624706;0;0;0;;0;0;();();(-2000.0, -2000.0);
04:27:14:690;04:27:14:571;1448034192.62;(0.6172932624816895, 0.6846499549018012);68.3351287842;0.604635624706;0;0;0;;0;0;();();(-2000.0, -2000.0);
04:27:14:723;04:27:14:695;1448034192.65;(0.6188320636749267, 0.679672114054362);69.4486160278;1.0;0;0;0;;0;0;();();(-2000.0, -2000.0);
04:27:14:740;04:27:14:734;1448034192.8;(0.6221883773803711, 0.6779700173272027);70.3542022705;1.0;0;0;0;;0;0;();();(-2000.0, -2000.0);
04:27:14:757;04:27:14:734;1448034192.8;(0.6221883773803711, 0.6779700173272027);70.3542022705;1.0;0;0;0;;0;0;();();(-2000.0, -2000.0);
04:27:14:773;04:27:14:734;1448034192.8;(0.6221883773803711, 0.6779700173272027);70.3542022705;1.0;0;0;0;;0;0;();();(-2000.0, -2000.0);
04:27:14:790;04:27:14:778;1448034192.83;(0.6225030422210693, 0.6780036926269531);70.3566131592;1.0;0;0;0;;0;0;();();(-2000.0, -2000.0);
04:27:14:822;04:27:14:778;1448034192.83;(0.6225030422210693, 0.6780036926269531);70.3566131592;1.0;0;0;0;;0;0;();();(-2000.0, -2000.0);
04:27:14:840;04:27:14:825;1448034192.89;(0.623201560974121, 0.6774837493896484);70.8235015869;1.0;0;0;0;;0;0;();();(-2000.0, -2000.0);
04:27:14:856;04:27:14:825;1448034192.89;(0.623201560974121, 0.6774837493896484);70.8235015869;1.0;0;0;0;;0;0;();();(-2000.0, -2000.0);
04:27:14:873;04:27:14:856;1448034192.93;(0.6231760025024414, 0.6783234914143881);70.8497848511;1.0;0;0;0;;0;0;();();(-2000.0, -2000.0);
04:27:14:890;04:27:14:856;1448034192.93;(0.6231760025024414, 0.6783234914143881);70.8497848511;1.0;0;0;0;;0;0;();();(-2000.0, -2000.0);
04:27:14:922;04:27:14:913;1448034192.96;(0.6235068798065185, 0.6790005366007488);70.8816833496;1.0;0;0;0;;0;0;();();(-2000.0, -2000.0);
04:27:14:939;04:27:14:913;1448034192.96;(0.6235068798065185, 0.6790005366007488);70.8816833496;1.0;0;0;0;;0;0;();();(-2000.0, -2000.0);
04:27:14:956;04:27:14:941;1448034192.99;(0.6237411022186279, 0.6793087641398112);70.5209579468;1.0;0;0;0;;0;0;();();(-2000.0, -2000.0);
04:27:14:972;04:27:14:941;1448034192.99;(0.6237411022186279, 0.6793087641398112);70.5209579468;1.0;0;0;0;;0;0;();();(-2000.0, -2000.0);
04:27:14:988;04:27:14:985;1448034193.03;(0.3450662136077881, 0.8118496365017361);32.3374023438;0.831145232607;0;0;0;;0;0;();();(-2000.0, -2000.0);
04:27:15:021;04:27:14:985;1448034193.03;(0.3450662136077881, 0.8118496365017361);32.3374023438;0.831145232607;0;0;0;;0;0;();();(-2000.0, -2000.0);
04:27:15:039;04:27:15:025;1448034193.09;(0.5892210483551026, 0.6917330000135633);70.2995147705;0.972678150318;0;0;0;;0;0;();();(-2000.0, -2000.0);
04:27:15:055;04:27:15:025;1448034193.09;(0.5892210483551026, 0.6917330000135633);70.2995147705;0.972678150318;0;0;0;;0;0;();();(-2000.0, -2000.0);
04:27:15:072;04:27:15:025;1448034193.09;(0.5892210483551026, 0.6917330000135633);70.2995147705;0.972678150318;0;0;0;;0;0;();();(-2000.0, -2000.0);
04:27:15:104;04:27:15:025;1448034193.09;(0.5892210483551026, 0.6917330000135633);70.2995147705;0.972678150318;0;0;0;;0;0;();();(-2000.0, -2000.0);
04:27:15:121;04:27:15:110;1448034193.16;(0.5894845962524414, 0.6931573232014974);69.8897171021;1.0;0;0;0;;0;0;();();(-2000.0, -2000.0);
04:27:15:138;04:27:15:110;1448034193.16;(0.5894845962524414, 0.6931573232014974);69.8897171021;1.0;0;0;0;;0;0;();();(-2000.0, -2000.0);
04:27:15:155;04:27:15:150;1448034193.19;(0.5898556709289551, 0.6929715050591363);69.6907806396;1.0;0;0;0;;0;0;();();(-2000.0, -2000.0);
04:27:15:170;04:27:15:150;1448034193.19;(0.5898556709289551, 0.6929715050591363);69.6907806396;1.0;0;0;0;;0;0;();();(-2000.0, -2000.0);
04:27:15:204;04:27:15:189;1448034193.26;(0.5912652015686035, 0.6932412677341038);69.3479766846;1.0;0;0;0;;0;0;();();(-2000.0, -2000.0);
04:27:15:220;04:27:15:189;1448034193.26;(0.5912652015686035, 0.6932412677341038);69.3479766846;1.0;0;0;0;;0;0;();();(-2000.0, -2000.0);
04:27:15:238;04:27:15:237;1448034193.29;(0.5919734477996826, 0.692525651719835);69.3509979248;1.0;0;0;0;;0;0;();();(-2000.0, -2000.0);
04:27:15:254;04:27:15:237;1448034193.29;(0.5919734477996826, 0.692525651719835);69.3509979248;1.0;0;0;0;;0;0;();();(-2000.0, -2000.0);
04:27:15:270;04:27:15:237;1448034193.29;(0.5919734477996826, 0.692525651719835);69.3509979248;1.0;0;0;0;;0;0;();();(-2000.0, -2000.0);
04:27:15:303;04:27:15:272;1448034193.33;(0.5927599906921387, 0.6923075781928169);69.3250274658;1.0;0;0;0;;0;0;();();(-2000.0, -2000.0);
04:27:15:320;04:27:15:317;1448034193.36;(0.5927116870880127, 0.6923219256930881);68.8201522827;1.0;0;0;0;;0;0;();();(-2000.0, -2000.0);
04:27:15:336;04:27:15:317;1448034193.36;(0.5927116870880127, 0.6923219256930881);68.8201522827;1.0;0;0;0;;0;0;();();(-2000.0, -2000.0);
04:27:15:353;04:27:15:317;1448034193.36;(0.5927116870880127, 0.6923219256930881);68.8201522827;1.0;0;0;0;;0;0;();();(-2000.0, -2000.0);
04:27:15:370;04:27:15:357;1448034193.43;(0.5798422336578369, 0.6954039043850369);67.5759735107;0.939687246462;0;0;0;;0;0;();();(-2000.0, -2000.0);
04:27:15:403;04:27:15:357;1448034193.43;(0.5798422336578369, 0.6954039043850369);67.5759735107;0.939687246462;0;0;0;;0;0;();();(-2000.0, -2000.0);
04:27:15:419;04:27:15:409;1448034193.46;(0.579932165145874, 0.6954750908745659);67.4791183472;1.0;0;0;0;;0;0;();();(-2000.0, -2000.0);
04:27:15:436;04:27:15:409;1448034193.46;(0.579932165145874, 0.6954750908745659);67.4791183472;1.0;0;0;0;;0;0;();();(-2000.0, -2000.0);
04:27:15:453;04:27:15:441;1448034193.49;(0.5800777435302734, 0.6958018832736546);67.0282363892;1.0;0;0;0;;0;0;();();(-2000.0, -2000.0);
04:27:15:469;04:27:15:441;1448034193.49;(0.5800777435302734, 0.6958018832736546);67.0282363892;1.0;0;0;0;;0;0;();();(-2000.0, -2000.0);
04:27:15:503;04:27:15:481;1448034193.56;(0.5804098606109619, 0.6964029947916667);66.7337493896;1.0;0;0;0;;0;0;();();(-2000.0, -2000.0);
04:27:15:519;04:27:15:481;1448034193.56;(0.5804098606109619, 0.6964029947916667);66.7337493896;1.0;0;0;0;;0;0;();();(-2000.0, -2000.0);
04:27:15:535;04:27:15:481;1448034193.56;(0.5804098606109619, 0.6964029947916667);66.7337493896;1.0;0;0;0;;0;0;();();(-2000.0, -2000.0);
04:27:15:551;04:27:15:481;1448034193.56;(0.5804098606109619, 0.6964029947916667);66.7337493896;1.0;0;0;0;;0;0;();();(-2000.0, -2000.0);
04:27:15:568;04:27:15:565;1448034193.63;(0.5806162834167481, 0.6966826968722873);67.0478210449;1.0;0;0;0;;0;0;();();(-2000.0, -2000.0);
04:27:15:602;04:27:15:565;1448034193.63;(0.5806162834167481, 0.6966826968722873);67.0478210449;1.0;0;0;0;;0;0;();();(-2000.0, -2000.0);
04:27:15:619;04:27:15:605;1448034193.66;(0.581000566482544, 0.696718406677246);66.5900268555;1.0;0;0;0;;0;0;();();(-2000.0, -2000.0);
04:27:15:635;04:27:15:605;1448034193.66;(0.581000566482544, 0.696718406677246);66.5900268555;1.0;0;0;0;;0;0;();();(-2000.0, -2000.0);
04:27:15:651;04:27:15:605;1448034193.66;(0.581000566482544, 0.696718406677246);66.5900268555;1.0;0;0;0;;0;0;();();(-2000.0, -2000.0);
04:27:15:684;04:27:15:605;1448034193.66;(0.581000566482544, 0.696718406677246);66.5900268555;1.0;0;0;0;;0;0;();();(-2000.0, -2000.0);
04:27:15:701;04:27:15:689;1448034193.74;(0.5907420158386231, 0.7091558456420899);65.7822647095;1.0;0;0;0;;0;0;();();(-2000.0, -2000.0);
04:27:15:718;04:27:15:689;1448034193.74;(0.5907420158386231, 0.7091558456420899);65.7822647095;1.0;0;0;0;;0;0;();();(-2000.0, -2000.0);
04:27:15:735;04:27:15:689;1448034193.74;(0.5907420158386231, 0.7091558456420899);65.7822647095;1.0;0;0;0;;0;0;();();(-2000.0, -2000.0);
04:27:15:751;04:27:15:689;1448034193.74;(0.5907420158386231, 0.7091558456420899);65.7822647095;1.0;0;0;0;;0;0;();();(-2000.0, -2000.0);
04:27:15:784;04:27:15:773;1448034193.83;(0.5913138866424561, 0.7097219891018338);64.8043899536;0.993668315601;0;0;0;;0;0;();();(-2000.0, -2000.0);
04:27:15:801;04:27:15:773;1448034193.83;(0.5913138866424561, 0.7097219891018338);64.8043899536;0.993668315601;0;0;0;;0;0;();();(-2000.0, -2000.0);
04:27:15:817;04:27:15:773;1448034193.83;(0.5913138866424561, 0.7097219891018338);64.8043899536;0.993668315601;0;0;0;;0;0;();();(-2000.0, -2000.0);
04:27:15:833;04:27:15:829;1448034193.89;(0.5914570808410644, 0.7102550082736545);63.7185211182;1.0;0;0;0;;0;0;();();(-2000.0, -2000.0);
04:27:15:850;04:27:15:829;1448034193.89;(0.5914570808410644, 0.7102550082736545);63.7185211182;1.0;0;0;0;;0;0;();();(-2000.0, -2000.0);
04:27:15:883;04:27:15:853;1448034193.93;(0.591785192489624, 0.7103682623969184);63.5698738098;1.0;0;0;0;;0;0;();();(-2000.0, -2000.0);
04:27:15:914;04:27:15:902;1448034193.96;(0.5918275356292725, 0.710182613796658);62.8933677673;1.0;2;0;0;;0;0;();();(-2000.0, -2000.0);
04:27:15:926;04:27:15:902;1448034193.96;(0.5918275356292725, 0.710182613796658);62.8933677673;1.0;2;0;0;;0;0;();();(-2000.0, -2000.0);
04:27:15:943;04:27:15:936;1448034193.99;(0.5919052124023437, 0.7104413138495551);62.6715545654;1.0;2;0;0;;0;0;();();(-2000.0, -2000.0);
04:27:15:960;04:27:15:936;1448034193.99;(0.5919052124023437, 0.7104413138495551);62.6715545654;1.0;2;0;0;;0;0;();();(-2000.0, -2000.0);
04:27:15:976;04:27:15:936;1448034193.99;(0.5919052124023437, 0.7104413138495551);62.6715545654;1.0;2;0;0;;0;0;();();(-2000.0, -2000.0);
04:27:15:993;04:27:15:977;1448034194.03;(0.5919165134429931, 0.7104509565565321);62.2773666382;1.0;2;0;0;;0;0;();();(-2000.0, -2000.0);
04:27:16:010;04:27:15:977;1448034194.03;(0.5919165134429931, 0.7104509565565321);62.2773666382;1.0;2;0;0;;0;0;();();(-2000.0, -2000.0);
04:27:16:042;04:27:16:021;1448034194.06;(0.5928117275238037, 0.7096260918511285);62.8313980103;1.0;2;0;0;;0;0;();();(-2000.0, -2000.0);
04:27:16:059;04:27:16:021;1448034194.06;(0.5928117275238037, 0.7096260918511285);62.8313980103;1.0;2;0;0;;0;0;();();(-2000.0, -2000.0);
04:27:16:076;04:27:16:021;1448034194.06;(0.5928117275238037, 0.7096260918511285);62.8313980103;1.0;2;0;0;;0;0;();();(-2000.0, -2000.0);
04:27:16:093;04:27:16:021;1448034194.06;(0.5928117275238037, 0.7096260918511285);62.8313980103;1.0;2;0;0;;0;0;();();(-2000.0, -2000.0);
04:27:16:109;04:27:16:107;1448034194.17;(0.6178640842437744, 0.6843786027696397);61.9936447144;1.0;2;0;0;;0;0;();();(-2000.0, -2000.0);
04:27:16:142;04:27:16:107;1448034194.17;(0.6178640842437744, 0.6843786027696397);61.9936447144;1.0;2;0;0;;0;0;();();(-2000.0, -2000.0);
04:27:16:159;04:27:16:147;1448034194.19;(0.6178374290466309, 0.6842453214857314);62.4958229065;1.0;2;0;0;;0;0;();();(-2000.0, -2000.0);
04:27:16:175;04:27:16:161;1448034194.23;(0.6180562019348145, 0.6847900814480252);62.6381454468;1.0;2;0;0;;0;0;();();(-2000.0, -2000.0);
04:27:16:192;04:27:16:185;1448034194.26;(0.618035888671875, 0.6849700715806749);62.814540863;1.0;2;0;0;;0;0;();();(-2000.0, -2000.0);
04:27:16:225;04:27:16:185;1448034194.26;(0.618035888671875, 0.6849700715806749);62.814540863;1.0;2;0;0;;0;0;();();(-2000.0, -2000.0);
04:27:16:241;04:27:16:234;1448034194.29;(0.6179368972778321, 0.6852089352077908);63.1606712341;1.0;2;0;0;;0;0;();();(-2000.0, -2000.0);
04:27:16:258;04:27:16:234;1448034194.29;(0.6179368972778321, 0.6852089352077908);63.1606712341;1.0;2;0;0;;0;0;();();(-2000.0, -2000.0);
04:27:16:275;04:27:16:234;1448034194.29;(0.6179368972778321, 0.6852089352077908);63.1606712341;1.0;2;0;0;;0;0;();();(-2000.0, -2000.0);
04:27:16:292;04:27:16:234;1448034194.29;(0.6179368972778321, 0.6852089352077908);63.1606712341;1.0;2;0;0;;0;0;();();(-2000.0, -2000.0);
04:27:16:324;04:27:16:234;1448034194.29;(0.6179368972778321, 0.6852089352077908);63.1606712341;1.0;2;0;0;;0;0;();();(-2000.0, -2000.0);
04:27:16:341;04:27:16:234;1448034194.29;(0.6179368972778321, 0.6852089352077908);63.1606712341;1.0;2;0;0;;0;0;();();(-2000.0, -2000.0);
04:27:16:358;04:27:16:355;1448034194.41;(0.6253731727600098, 0.6862693786621094);62.7947120667;0.970142494576;2;0;0;;0;0;();();(-2000.0, -2000.0);
04:27:16:374;04:27:16:355;1448034194.41;(0.6253731727600098, 0.6862693786621094);62.7947120667;0.970142494576;2;0;0;;0;0;();();(-2000.0, -2000.0);
04:27:16:391;04:27:16:355;1448034194.41;(0.6253731727600098, 0.6862693786621094);62.7947120667;0.970142494576;2;0;0;;0;0;();();(-2000.0, -2000.0);
04:27:16:423;04:27:16:396;1448034194.46;(0.6253288269042969, 0.68695617251926);63.060798645;1.0;2;0;0;;0;0;();();(-2000.0, -2000.0);
04:27:16:440;04:27:16:436;1448034194.49;(0.6250460147857666, 0.6871324115329318);63.0581283569;1.0;2;0;0;;0;0;();();(-2000.0, -2000.0);
04:27:16:458;04:27:16:436;1448034194.49;(0.6250460147857666, 0.6871324115329318);63.0581283569;1.0;2;0;0;;0;0;();();(-2000.0, -2000.0);
04:27:16:474;04:27:16:436;1448034194.49;(0.6250460147857666, 0.6871324115329318);63.0581283569;1.0;2;0;0;;0;0;();();(-2000.0, -2000.0);
04:27:16:490;04:27:16:477;1448034194.53;(0.6250072479248047, 0.6867587831285265);63.109539032;1.0;2;0;0;;0;0;();();(-2000.0, -2000.0);
04:27:16:523;04:27:16:517;1448034194.56;(0.6251078128814698, 0.6865582572089302);63.6106872559;1.0;2;0;0;;0;0;();();(-2000.0, -2000.0);
04:27:16:540;04:27:16:517;1448034194.56;(0.6251078128814698, 0.6865582572089302);63.6106872559;1.0;2;0;0;;0;0;();();(-2000.0, -2000.0);
04:27:16:556;04:27:16:517;1448034194.56;(0.6251078128814698, 0.6865582572089302);63.6106872559;1.0;2;0;0;;0;0;();();(-2000.0, -2000.0);
04:27:16:573;04:27:16:561;1448034194.59;(0.6286665916442871, 0.6842116038004558);62.6071395874;1.0;2;0;0;;0;0;();();(-2000.0, -2000.0);
04:27:16:590;04:27:16:561;1448034194.59;(0.6286665916442871, 0.6842116038004558);62.6071395874;1.0;2;0;0;;0;0;();();(-2000.0, -2000.0);
04:27:16:622;04:27:16:601;1448034194.66;(0.6288534641265869, 0.6856331719292534);64.0815963745;1.0;2;0;0;;0;0;();();(-2000.0, -2000.0);
04:27:16:639;04:27:16:601;1448034194.66;(0.6288534641265869, 0.6856331719292534);64.0815963745;1.0;2;0;0;;0;0;();();(-2000.0, -2000.0);
04:27:16:656;04:27:16:645;1448034194.69;(0.6289356708526611, 0.6859799279106988);64.2751464844;1.0;2;0;0;;0;0;();();(-2000.0, -2000.0);
04:27:16:672;04:27:16:645;1448034194.69;(0.6289356708526611, 0.6859799279106988);64.2751464844;1.0;2;0;0;;0;0;();();(-2000.0, -2000.0);
04:27:16:689;04:27:16:685;1448034194.73;(0.6288044452667236, 0.6863898171318902);64.1286468506;1.0;2;0;0;;0;0;();();(-2000.0, -2000.0);
04:27:16:721;04:27:16:685;1448034194.73;(0.6288044452667236, 0.6863898171318902);64.1286468506;1.0;2;0;0;;0;0;();();(-2000.0, -2000.0);
04:27:16:739;04:27:16:685;1448034194.73;(0.6288044452667236, 0.6863898171318902);64.1286468506;1.0;2;0;0;;0;0;();();(-2000.0, -2000.0);
04:27:16:754;04:27:16:685;1448034194.73;(0.6288044452667236, 0.6863898171318902);64.1286468506;1.0;2;0;0;;0;0;();();(-2000.0, -2000.0);
04:27:16:771;04:27:16:685;1448034194.73;(0.6288044452667236, 0.6863898171318902);64.1286468506;1.0;2;0;0;;0;0;();();(-2000.0, -2000.0);
04:27:16:804;04:27:16:685;1448034194.73;(0.6288044452667236, 0.6863898171318902);64.1286468506;1.0;2;0;0;;0;0;();();(-2000.0, -2000.0);
04:27:16:821;04:27:16:809;1448034194.76;(0.6205624580383301, 0.6911079406738281);62.1277389526;0.971104545153;2;0;0;;0;0;();();(-2000.0, -2000.0);
04:27:16:838;04:27:16:809;1448034194.76;(0.6205624580383301, 0.6911079406738281);62.1277389526;0.971104545153;2;0;0;;0;0;();();(-2000.0, -2000.0);
04:27:16:854;04:27:16:809;1448034194.76;(0.6205624580383301, 0.6911079406738281);62.1277389526;0.971104545153;2;0;0;;0;0;();();(-2000.0, -2000.0);
04:27:16:871;04:27:16:862;1448034194.93;(0.6143588542938232, 0.6939851337009006);67.3781585693;1.0;2;0;0;;0;0;();();(-2000.0, -2000.0);
04:27:16:904;04:27:16:892;1448034194.96;(0.6142256736755372, 0.6934951570298937);67.8383865356;1.0;2;0;0;;0;0;();();(-2000.0, -2000.0);
04:27:16:921;04:27:16:892;1448034194.96;(0.6142256736755372, 0.6934951570298937);67.8383865356;1.0;2;0;0;;0;0;();();(-2000.0, -2000.0);
04:27:16:937;04:27:16:933;1448034194.99;(0.6146892070770263, 0.6933516608344183);68.0411987305;1.0;2;0;0;;0;0;();();(-2000.0, -2000.0);
04:27:16:954;04:27:16:933;1448034194.99;(0.6146892070770263, 0.6933516608344183);68.0411987305;1.0;2;0;0;;0;0;();();(-2000.0, -2000.0);
04:27:16:970;04:27:16:933;1448034194.99;(0.6146892070770263, 0.6933516608344183);68.0411987305;1.0;2;0;0;;0;0;();();(-2000.0, -2000.0);
04:27:17:003;04:27:16:972;1448034195.03;(0.6147488594055176, 0.6934583452012804);69.0053710938;1.0;2;0;0;;0;0;();();(-2000.0, -2000.0);
04:27:17:021;04:27:17:017;1448034195.09;(0.6145194053649903, 0.6923064761691623);68.8690948486;1.0;2;0;0;;0;0;();();(-2000.0, -2000.0);
04:27:17:036;04:27:17:017;1448034195.09;(0.6145194053649903, 0.6923064761691623);68.8690948486;1.0;2;0;0;;0;0;();();(-2000.0, -2000.0);
04:27:17:054;04:27:17:017;1448034195.09;(0.6145194053649903, 0.6923064761691623);68.8690948486;1.0;2;0;0;;0;0;();();(-2000.0, -2000.0);
04:27:17:070;04:27:17:057;1448034195.13;(0.6145278453826905, 0.6923105875651041);69.2416305542;1.0;2;0;0;;0;0;();();(-2000.0, -2000.0);
04:27:17:103;04:27:17:097;1448034195.16;(0.6144207954406739, 0.6929643419053819);69.7685012817;1.0;2;0;0;;0;0;();();(-2000.0, -2000.0);
04:27:17:119;04:27:17:097;1448034195.16;(0.6144207954406739, 0.6929643419053819);69.7685012817;1.0;2;0;0;;0;0;();();(-2000.0, -2000.0);
04:27:17:136;04:27:17:097;1448034195.16;(0.6144207954406739, 0.6929643419053819);69.7685012817;1.0;2;0;0;;0;0;();();(-2000.0, -2000.0);
04:27:17:152;04:27:17:141;1448034195.19;(0.6146337032318115, 0.6944225523206923);70.0227432251;1.0;2;0;0;;0;0;();();(-2000.0, -2000.0);
04:27:17:169;04:27:17:141;1448034195.19;(0.6146337032318115, 0.6944225523206923);70.0227432251;1.0;2;0;0;;0;0;();();(-2000.0, -2000.0);
04:27:17:202;04:27:17:182;1448034195.23;(0.618639326095581, 0.7084686703152127);70.3699874878;1.0;2;0;0;;0;0;();();(-2000.0, -2000.0);
04:27:17:219;04:27:17:182;1448034195.23;(0.618639326095581, 0.7084686703152127);70.3699874878;1.0;2;0;0;;0;0;();();(-2000.0, -2000.0);
04:27:17:235;04:27:17:225;1448034195.29;(0.6188459396362305, 0.7084365844726562);70.5303192139;1.0;2;0;0;;0;0;();();(-2000.0, -2000.0);
04:27:17:252;04:27:17:225;1448034195.29;(0.6188459396362305, 0.7084365844726562);70.5303192139;1.0;2;0;0;;0;0;();();(-2000.0, -2000.0);
04:27:17:268;04:27:17:265;1448034195.33;(0.6186925888061523, 0.7088171429104275);70.5052947998;1.0;2;0;0;;0;0;();();(-2000.0, -2000.0);
04:27:17:302;04:27:17:265;1448034195.33;(0.6186925888061523, 0.7088171429104275);70.5052947998;1.0;2;0;0;;0;0;();();(-2000.0, -2000.0);
04:27:17:318;04:27:17:305;1448034195.36;(0.6182878971099853, 0.7086731380886502);71.3600692749;1.0;2;0;0;;0;0;();();(-2000.0, -2000.0);
04:27:17:334;04:27:17:305;1448034195.36;(0.6182878971099853, 0.7086731380886502);71.3600692749;1.0;2;0;0;;0;0;();();(-2000.0, -2000.0);
04:27:17:351;04:27:17:349;1448034195.43;(0.6183507919311524, 0.7081787745157877);70.9007797241;1.0;2;0;0;;0;0;();();(-2000.0, -2000.0);
04:27:17:384;04:27:17:349;1448034195.43;(0.6183507919311524, 0.7081787745157877);70.9007797241;1.0;2;0;0;;0;0;();();(-2000.0, -2000.0);
04:27:17:401;04:27:17:389;1448034195.46;(0.6186566352844238, 0.7080751207139757);70.4733581543;1.0;2;0;0;;0;0;();();(-2000.0, -2000.0);
04:27:17:417;04:27:17:389;1448034195.46;(0.6186566352844238, 0.7080751207139757);70.4733581543;1.0;2;0;0;;0;0;();();(-2000.0, -2000.0);
04:27:17:434;04:27:17:428;1448034195.49;(0.6183179378509521, 0.7077021704779731);70.6850585938;1.0;2;0;0;;0;0;();();(-2000.0, -2000.0);
04:27:17:450;04:27:17:428;1448034195.49;(0.6183179378509521, 0.7077021704779731);70.6850585938;1.0;2;0;0;;0;0;();();(-2000.0, -2000.0);
04:27:17:484;04:27:17:473;1448034195.53;(0.6180506229400635, 0.7079172346327041);70.8899230957;1.0;2;0;0;;0;0;();();(-2000.0, -2000.0);
04:27:17:500;04:27:17:473;1448034195.53;(0.6180506229400635, 0.7079172346327041);70.8899230957;1.0;2;0;0;;0;0;();();(-2000.0, -2000.0);
04:27:17:516;04:27:17:513;1448034195.59;(0.6185116291046142, 0.708058590359158);71.3529510498;1.0;2;0;0;;0;0;();();(-2000.0, -2000.0);
04:27:17:534;04:27:17:513;1448034195.59;(0.6185116291046142, 0.708058590359158);71.3529510498;1.0;2;0;0;;0;0;();();(-2000.0, -2000.0);
04:27:17:550;04:27:17:513;1448034195.59;(0.6185116291046142, 0.708058590359158);71.3529510498;1.0;2;0;0;;0;0;();();(-2000.0, -2000.0);
04:27:17:584;04:27:17:553;1448034195.63;(0.6186073780059814, 0.7085959328545464);71.6893615723;1.0;2;0;0;;0;0;();();(-2000.0, -2000.0);
04:27:17:599;04:27:17:597;1448034195.66;(0.6184974670410156, 0.7090262095133464);71.7924499512;1.0;2;0;0;;0;0;();();(-2000.0, -2000.0);
04:27:17:616;04:27:17:597;1448034195.66;(0.6184974670410156, 0.7090262095133464);71.7924499512;1.0;2;0;0;;0;0;();();(-2000.0, -2000.0);
04:27:17:632;04:27:17:597;1448034195.66;(0.6184974670410156, 0.7090262095133464);71.7924499512;1.0;2;0;0;;0;0;();();(-2000.0, -2000.0);
04:27:17:649;04:27:17:636;1448034195.69;(0.6183578491210937, 0.7090390099419488);71.7466812134;1.0;2;0;0;;0;0;();();(-2000.0, -2000.0);
04:27:17:683;04:27:17:681;1448034195.76;(0.6186192989349365, 0.7087045033772786);71.5961608887;1.0;2;0;0;;0;0;();();(-2000.0, -2000.0);
04:27:17:699;04:27:17:681;1448034195.76;(0.6186192989349365, 0.7087045033772786);71.5961608887;1.0;2;0;0;;0;0;();();(-2000.0, -2000.0);
04:27:17:715;04:27:17:681;1448034195.76;(0.6186192989349365, 0.7087045033772786);71.5961608887;1.0;2;0;0;;0;0;();();(-2000.0, -2000.0);
04:27:17:732;04:27:17:681;1448034195.76;(0.6186192989349365, 0.7087045033772786);71.5961608887;1.0;2;0;0;;0;0;();();(-2000.0, -2000.0);
04:27:17:749;04:27:17:681;1448034195.76;(0.6186192989349365, 0.7087045033772786);71.5961608887;1.0;2;0;0;;0;0;();();(-2000.0, -2000.0);
04:27:17:783;04:27:17:766;1448034195.83;(0.6187901020050048, 0.7082013024224175);71.3370285034;1.0;2;0;0;;0;0;();();(-2000.0, -2000.0);
04:27:17:798;04:27:17:766;1448034195.83;(0.6187901020050048, 0.7082013024224175);71.3370285034;1.0;2;0;0;;0;0;();();(-2000.0, -2000.0);
04:27:17:815;04:27:17:805;1448034195.86;(0.6185604572296143, 0.7081770579020182);71.4723129272;1.0;2;0;0;;0;0;();();(-2000.0, -2000.0);
04:27:17:831;04:27:17:805;1448034195.86;(0.6185604572296143, 0.7081770579020182);71.4723129272;1.0;2;0;0;;0;0;();();(-2000.0, -2000.0);
04:27:17:849;04:27:17:845;1448034195.89;(0.6184436798095703, 0.7079226387871635);71.9492034912;1.0;2;0;0;;0;0;();();(-2000.0, -2000.0);
04:27:17:882;04:27:17:853;1448034195.93;(0.618489933013916, 0.7078414705064562);72.1792907715;1.0;2;0;0;;0;0;();();(-2000.0, -2000.0);
04:27:17:898;04:27:17:853;1448034195.93;(0.618489933013916, 0.7078414705064562);72.1792907715;1.0;2;0;0;;0;0;();();(-2000.0, -2000.0);
04:27:17:914;04:27:17:853;1448034195.93;(0.618489933013916, 0.7078414705064562);72.1792907715;1.0;2;0;0;;0;0;();();(-2000.0, -2000.0);
04:27:17:931;04:27:17:929;1448034195.99;(0.6185622215270996, 0.7079519483778212);72.1040039062;1.0;2;0;0;;0;0;();();(-2000.0, -2000.0);
04:27:17:964;04:27:17:929;1448034195.99;(0.6185622215270996, 0.7079519483778212);72.1040039062;1.0;2;0;0;;0;0;();();(-2000.0, -2000.0);
04:27:17:981;04:27:17:970;1448034196.03;(0.6186031818389892, 0.7078871832953559);72.6160049438;1.0;2;0;0;;0;0;();();(-2000.0, -2000.0);
04:27:17:997;04:27:17:970;1448034196.03;(0.6186031818389892, 0.7078871832953559);72.6160049438;1.0;2;0;0;;0;0;();();(-2000.0, -2000.0);
04:27:18:014;04:27:18:013;1448034196.06;(0.5965572357177734, 0.7097514258490669);72.8220367432;1.0;2;0;0;;0;0;();();(-2000.0, -2000.0);
04:27:18:031;04:27:18:013;1448034196.06;(0.5965572357177734, 0.7097514258490669);72.8220367432;1.0;2;0;0;;0;0;();();(-2000.0, -2000.0);
04:27:18:063;04:27:18:055;1448034196.13;(0.594901180267334, 0.7093801922268338);72.9399642944;1.0;2;0;0;;0;0;();();(-2000.0, -2000.0);
