%Timestamp,timestamp_write;timestamp_gotpupil;eyetrackertime;norm_pos;diameter;confidence;timestamp_gotbitdata;CRC;SEQ;AnalogOutp1;AnalogOutp2;AnalogOutp3;AnalogOutp4;AnalogOutp5;AnalogOutp6;DigitalOutp1;DigitalOutp2;igitalOutp3;DigitalOutp4;nplanes;lastaction;lastactiondetails;lastactionairplanenumber;positivescore;negativescore;collidedairplanenumbers;targetpositions;collision_point
11:55:29:248;1448061086.68;(0.4246788024902344, 0.6765967263115777);64.4033050537;1.0;;;;;;;;;;;;;;0;0;0;;0;0;();();(0.0, 0.0);
11:55:29:255;11:55:29:243;1448061086.71;(0.42356750965118406, 0.6769558588663738);64.37840271;1.0;;;;;;;;;;;;;;0;0;0;;0;0;();();(-2000.0, -2000.0);
11:55:29:259;11:55:29:243;1448061086.71;(0.42356750965118406, 0.6769558588663738);64.37840271;1.0;;;;;;;;;;;;;;0;0;0;;0;0;();();(-2000.0, -2000.0);
11:55:29:261;11:55:29:243;1448061086.71;(0.42356750965118406, 0.6769558588663738);64.37840271;1.0;;;;;;;;;;;;;;0;0;0;;0;0;();();(-2000.0, -2000.0);
11:55:29:263;11:55:29:243;1448061086.71;(0.42356750965118406, 0.6769558588663738);64.37840271;1.0;;;;;;;;;;;;;;0;0;0;;0;0;();();(-2000.0, -2000.0);
11:55:29:266;11:55:29:243;1448061086.71;(0.42356750965118406, 0.6769558588663738);64.37840271;1.0;;;;;;;;;;;;;;0;0;0;;0;0;();();(-2000.0, -2000.0);
11:55:29:268;11:55:29:243;1448061086.71;(0.42356750965118406, 0.6769558588663738);64.37840271;1.0;;;;;;;;;;;;;;0;0;0;;0;0;();();(-2000.0, -2000.0);
11:55:29:271;11:55:29:243;1448061086.71;(0.42356750965118406, 0.6769558588663738);64.37840271;1.0;;;;;;;;;;;;;;0;0;0;;0;0;();();(-2000.0, -2000.0);
11:55:29:272;11:55:29:243;1448061086.71;(0.42356750965118406, 0.6769558588663738);64.37840271;1.0;;;;;;;;;;;;;;0;0;0;;0;0;();();(-2000.0, -2000.0);
11:55:29:273;11:55:29:243;1448061086.71;(0.42356750965118406, 0.6769558588663738);64.37840271;1.0;;;;;;;;;;;;;;0;0;0;;0;0;();();(-2000.0, -2000.0);
11:55:29:274;11:55:29:243;1448061086.71;(0.42356750965118406, 0.6769558588663738);64.37840271;1.0;;;;;;;;;;;;;;0;0;0;;0;0;();();(-2000.0, -2000.0);
11:55:29:275;11:55:29:243;1448061086.71;(0.42356750965118406, 0.6769558588663738);64.37840271;1.0;;;;;;;;;;;;;;0;0;0;;0;0;();();(-2000.0, -2000.0);
11:55:29:276;11:55:29:243;1448061086.71;(0.42356750965118406, 0.6769558588663738);64.37840271;1.0;;;;;;;;;;;;;;0;0;0;;0;0;();();(-2000.0, -2000.0);
11:55:29:277;11:55:29:243;1448061086.71;(0.42356750965118406, 0.6769558588663738);64.37840271;1.0;;;;;;;;;;;;;;0;0;0;;0;0;();();(-2000.0, -2000.0);
11:55:29:278;11:55:29:243;1448061086.71;(0.42356750965118406, 0.6769558588663738);64.37840271;1.0;;;;;;;;;;;;;;0;0;0;;0;0;();();(-2000.0, -2000.0);
11:55:29:279;11:55:29:243;1448061086.71;(0.42356750965118406, 0.6769558588663738);64.37840271;1.0;;;;;;;;;;;;;;0;0;0;;0;0;();();(-2000.0, -2000.0);
11:55:29:281;11:55:29:243;1448061086.71;(0.42356750965118406, 0.6769558588663738);64.37840271;1.0;;;;;;;;;;;;;;0;0;0;;0;0;();();(-2000.0, -2000.0);
11:55:29:282;11:55:29:243;1448061086.71;(0.42356750965118406, 0.6769558588663738);64.37840271;1.0;;;;;;;;;;;;;;0;0;0;;0;0;();();(-2000.0, -2000.0);
11:55:29:291;11:55:29:243;1448061086.71;(0.42356750965118406, 0.6769558588663738);64.37840271;1.0;;;;;;;;;;;;;;0;0;0;;0;0;();();(-2000.0, -2000.0);
11:55:29:324;11:55:29:308;1448061086.78;(0.42155706882476807, 0.6782566918267143);64.1633758545;1.0;;;;;;;;;;;;;;0;0;0;;0;0;();();(-2000.0, -2000.0);
11:55:29:340;11:55:29:308;1448061086.78;(0.42155706882476807, 0.6782566918267143);64.1633758545;1.0;;;;;;;;;;;;;;0;0;0;;0;0;();();(-2000.0, -2000.0);
11:55:29:357;11:55:29:308;1448061086.78;(0.42155706882476807, 0.6782566918267143);64.1633758545;1.0;;;;;;;;;;;;;;0;0;0;;0;0;();();(-2000.0, -2000.0);
11:55:29:374;11:55:29:372;1448061086.85;(0.42066230773925783, 0.6796354293823242);63.3972473145;1.0;;;;;;;;;;;;;;0;0;0;;0;0;();();(-2000.0, -2000.0);
11:55:29:391;11:55:29:372;1448061086.85;(0.42066230773925783, 0.6796354293823242);63.3972473145;1.0;;;;;;;;;;;;;;0;0;0;;0;0;();();(-2000.0, -2000.0);
11:55:34:262;11:55:34:244;1448061091.71;(0.4449187755584717, 0.6457101398044163);62.4426689148;1.0;;;;;;;;;;;;;;0;0;0;;0;0;();();(-2000.0, -2000.0);
11:55:34:264;11:55:34:244;1448061091.71;(0.4449187755584717, 0.6457101398044163);62.4426689148;1.0;;;;;;;;;;;;;;0;0;0;;0;0;();();(-2000.0, -2000.0);
11:55:34:267;11:55:34:244;1448061091.71;(0.4449187755584717, 0.6457101398044163);62.4426689148;1.0;;;;;;;;;;;;;;0;0;0;;0;0;();();(-2000.0, -2000.0);
11:55:34:269;11:55:34:244;1448061091.71;(0.4449187755584717, 0.6457101398044163);62.4426689148;1.0;;;;;;;;;;;;;;0;0;0;;0;0;();();(-2000.0, -2000.0);
11:55:34:271;11:55:34:244;1448061091.71;(0.4449187755584717, 0.6457101398044163);62.4426689148;1.0;;;;;;;;;;;;;;0;0;0;;0;0;();();(-2000.0, -2000.0);
11:55:34:274;11:55:34:244;1448061091.71;(0.4449187755584717, 0.6457101398044163);62.4426689148;1.0;;;;;;;;;;;;;;0;0;0;;0;0;();();(-2000.0, -2000.0);
11:55:34:276;11:55:34:244;1448061091.71;(0.4449187755584717, 0.6457101398044163);62.4426689148;1.0;;;;;;;;;;;;;;0;0;0;;0;0;();();(-2000.0, -2000.0);
11:55:34:279;11:55:34:244;1448061091.71;(0.4449187755584717, 0.6457101398044163);62.4426689148;1.0;;;;;;;;;;;;;;0;0;0;;0;0;();();(-2000.0, -2000.0);
11:55:34:281;11:55:34:244;1448061091.71;(0.4449187755584717, 0.6457101398044163);62.4426689148;1.0;;;;;;;;;;;;;;0;0;0;;0;0;();();(-2000.0, -2000.0);
11:55:34:282;11:55:34:244;1448061091.71;(0.4449187755584717, 0.6457101398044163);62.4426689148;1.0;;;;;;;;;;;;;;0;0;0;;0;0;();();(-2000.0, -2000.0);
11:55:34:283;11:55:34:244;1448061091.71;(0.4449187755584717, 0.6457101398044163);62.4426689148;1.0;;;;;;;;;;;;;;0;0;0;;0;0;();();(-2000.0, -2000.0);
11:55:34:284;11:55:34:244;1448061091.71;(0.4449187755584717, 0.6457101398044163);62.4426689148;1.0;;;;;;;;;;;;;;0;0;0;;0;0;();();(-2000.0, -2000.0);
11:55:34:285;11:55:34:284;1448061091.75;(0.44471540451049807, 0.6456571790907117);62.785533905;1.0;;;;;;;;;;;;;;0;0;0;;0;0;();();(-2000.0, -2000.0);
11:55:34:287;11:55:34:284;1448061091.75;(0.44471540451049807, 0.6456571790907117);62.785533905;1.0;;;;;;;;;;;;;;0;0;0;;0;0;();();(-2000.0, -2000.0);
11:55:34:288;11:55:34:284;1448061091.75;(0.44471540451049807, 0.6456571790907117);62.785533905;1.0;;;;;;;;;;;;;;0;0;0;;0;0;();();(-2000.0, -2000.0);
11:55:34:289;11:55:34:284;1448061091.75;(0.44471540451049807, 0.6456571790907117);62.785533905;1.0;;;;;;;;;;;;;;0;0;0;;0;0;();();(-2000.0, -2000.0);
11:55:34:290;11:55:34:284;1448061091.75;(0.44471540451049807, 0.6456571790907117);62.785533905;1.0;;;;;;;;;;;;;;0;0;0;;0;0;();();(-2000.0, -2000.0);
11:55:34:291;11:55:34:284;1448061091.75;(0.44471540451049807, 0.6456571790907117);62.785533905;1.0;;;;;;;;;;;;;;0;0;0;;0;0;();();(-2000.0, -2000.0);
11:55:34:311;11:55:34:284;1448061091.75;(0.44471540451049807, 0.6456571790907117);62.785533905;1.0;;;;;;;;;;;;;;0;0;0;;0;0;();();(-2000.0, -2000.0);
11:55:34:327;11:55:34:284;1448061091.75;(0.44471540451049807, 0.6456571790907117);62.785533905;1.0;;;;;;;;;;;;;;0;0;0;;0;0;();();(-2000.0, -2000.0);
11:55:34:363;11:55:34:327;1448061091.81;(0.44510655403137206, 0.6455797831217448);64.1165008545;1.0;;;;;;;;;;;;;;0;0;0;;0;0;();();(-2000.0, -2000.0);
11:55:34:378;11:55:34:327;1448061091.81;(0.44510655403137206, 0.6455797831217448);64.1165008545;1.0;;;;;;;;;;;;;;0;0;0;;0;0;();();(-2000.0, -2000.0);
11:55:34:395;11:55:34:327;1448061091.81;(0.44510655403137206, 0.6455797831217448);64.1165008545;1.0;;;;;;;;;;;;;;0;0;0;;0;0;();();(-2000.0, -2000.0);
11:55:34:412;11:55:34:327;1448061091.81;(0.44510655403137206, 0.6455797831217448);64.1165008545;1.0;;;;;;;;;;;;;;0;0;0;;0;0;();();(-2000.0, -2000.0);
11:55:34:428;11:55:34:327;1448061091.81;(0.44510655403137206, 0.6455797831217448);64.1165008545;1.0;;;;;;;;;;;;;;0;0;0;;0;0;();();(-2000.0, -2000.0);
11:55:34:461;11:55:34:452;1448061091.85;(0.44361348152160646, 0.6385813819037544);64.8307952881;0.999473208386;;;;;;;;;;;;;;0;0;0;;0;0;();();(-2000.0, -2000.0);
11:55:34:479;11:55:34:452;1448061091.85;(0.44361348152160646, 0.6385813819037544);64.8307952881;0.999473208386;;;;;;;;;;;;;;0;0;0;;0;0;();();(-2000.0, -2000.0);
11:55:34:495;11:55:34:492;1448061091.98;(0.44315781593322756, 0.5625331454806858);65.4091033936;1.0;;;;;;;;;;;;;;0;0;0;;0;0;();();(-2000.0, -2000.0);
11:55:34:512;11:55:34:492;1448061091.98;(0.44315781593322756, 0.5625331454806858);65.4091033936;1.0;;;;;;;;;;;;;;0;0;0;;0;0;();();(-2000.0, -2000.0);
11:55:34:529;11:55:34:492;1448061091.98;(0.44315781593322756, 0.5625331454806858);65.4091033936;1.0;;;;;;;;;;;;;;0;0;0;;0;0;();();(-2000.0, -2000.0);
11:55:34:561;11:55:34:541;1448061092.01;(0.4428903102874756, 0.5629735310872396);65.4815750122;1.0;;;;;;;;;;;;;;0;0;0;;0;0;();();(-2000.0, -2000.0);
11:55:34:579;11:55:34:577;1448061092.05;(0.44289307594299315, 0.5632850646972656);65.3629989624;1.0;;;;;;;;;;;;;;0;0;0;;0;0;();();(-2000.0, -2000.0);
11:55:34:595;11:55:34:577;1448061092.05;(0.44289307594299315, 0.5632850646972656);65.3629989624;1.0;;;;;;;;;;;;;;0;0;0;;0;0;();();(-2000.0, -2000.0);
11:55:34:612;11:55:34:577;1448061092.05;(0.44289307594299315, 0.5632850646972656);65.3629989624;1.0;;;;;;;;;;;;;;0;0;0;;0;0;();();(-2000.0, -2000.0);
11:55:34:629;11:55:34:617;1448061092.08;(0.44283394813537597, 0.5634278615315755);65.507194519;1.0;;;;;;;;;;;;;;0;0;0;;0;0;();();(-2000.0, -2000.0);
11:55:34:661;11:55:34:659;1448061092.11;(0.4430566310882568, 0.5632523430718316);65.7136611938;1.0;;;;;;;;;;;;;;0;0;0;;0;0;();();(-2000.0, -2000.0);
11:55:34:678;11:55:34:659;1448061092.11;(0.4430566310882568, 0.5632523430718316);65.7136611938;1.0;;;;;;;;;;;;;;0;0;0;;0;0;();();(-2000.0, -2000.0);
11:55:34:695;11:55:34:659;1448061092.11;(0.4430566310882568, 0.5632523430718316);65.7136611938;1.0;;;;;;;;;;;;;;0;0;0;;0;0;();();(-2000.0, -2000.0);
11:55:34:712;11:55:34:701;1448061092.15;(0.4462269306182861, 0.5592368231879341);66.7258300781;1.0;;;;;;;;;;;;;;0;0;0;;0;0;();();(-2000.0, -2000.0);
11:55:34:729;11:55:34:701;1448061092.15;(0.4462269306182861, 0.5592368231879341);66.7258300781;1.0;;;;;;;;;;;;;;0;0;0;;0;0;();();(-2000.0, -2000.0);
11:55:34:762;11:55:34:754;1448061092.18;(0.1743236541748047, 0.554230456882053);24.0453128815;1.0;;;;;;;;;;;;;;0;0;0;;0;0;();();(-2000.0, -2000.0);
11:55:34:779;11:55:34:754;1448061092.18;(0.1743236541748047, 0.554230456882053);24.0453128815;1.0;;;;;;;;;;;;;;0;0;0;;0;0;();();(-2000.0, -2000.0);
11:55:34:795;11:55:34:785;1448061092.25;(0.1728938937187195, 0.5571653154161241);24.8549289703;0.844957856769;;;;;;;;;;;;;;0;0;0;;0;0;();();(-2000.0, -2000.0);
11:55:34:812;11:55:34:785;1448061092.25;(0.1728938937187195, 0.5571653154161241);24.8549289703;0.844957856769;;;;;;;;;;;;;;0;0;0;;0;0;();();(-2000.0, -2000.0);
11:55:34:829;11:55:34:824;1448061092.31;(0.1734660506248474, 0.558354483710395);24.9763908386;0.90885251666;;;;;;;;;;;;;;0;0;0;;0;0;();();(-2000.0, -2000.0);
11:55:34:862;11:55:34:824;1448061092.31;(0.1734660506248474, 0.558354483710395);24.9763908386;0.90885251666;;;;;;;;;;;;;;0;0;0;;0;0;();();(-2000.0, -2000.0);
11:55:34:879;11:55:34:868;1448061092.35;(0.17287139892578124, 0.5585332658555773);25.417848587;0.981187475664;;;;;;;;;;;;;;0;0;0;;0;0;();();(-2000.0, -2000.0);
11:55:34:895;11:55:34:868;1448061092.35;(0.17287139892578124, 0.5585332658555773);25.417848587;0.981187475664;;;;;;;;;;;;;;0;0;0;;0;0;();();(-2000.0, -2000.0);
11:55:34:912;11:55:34:868;1448061092.35;(0.17287139892578124, 0.5585332658555773);25.417848587;0.981187475664;;;;;;;;;;;;;;0;0;0;;0;0;();();(-2000.0, -2000.0);
11:55:34:929;11:55:34:913;1448061092.38;(0.17255042791366576, 0.5589870029025608);26.0150489807;0.886523132045;;;;;;;;;;;;;;0;0;0;;0;0;();();(-2000.0, -2000.0);
11:55:34:962;11:55:34:950;1448061092.41;(0.17199925184249878, 0.5597700754801432);24.2361125946;0.858531103779;;;;;;;;;;;;;;0;0;0;;0;0;();();(-2000.0, -2000.0);
11:55:35:489;11:55:35:448;1448061092.91;(0.4410232067108154, 0.6396774080064562);64.7214660645;1.0;11:55:35:486;0;10;1.78064516129032;1;0;0;0;0;1;1;1;1;0;0;0;;0;0;();();(-2000.0, -2000.0);
11:55:35:492;11:55:35:488;1448061092.95;(0.4407949924468994, 0.64105896419949);64.580078125;1.0;11:55:35:492;0;10;1.78064516129032;1;0;0;0;0;1;1;1;1;0;0;0;;0;0;();();(-2000.0, -2000.0);
11:55:35:494;11:55:35:488;1448061092.95;(0.4407949924468994, 0.64105896419949);64.580078125;1.0;11:55:35:494;0;10;1.78064516129032;1;0;0;0;0;1;1;1;1;0;0;0;;0;0;();();(-2000.0, -2000.0);
11:55:35:497;11:55:35:488;1448061092.95;(0.4407949924468994, 0.64105896419949);64.580078125;1.0;11:55:35:497;0;4;1.79032258064516;1;0;0;0;0;1;1;1;1;0;0;0;;0;0;();();(-2000.0, -2000.0);
11:55:35:500;11:55:35:488;1448061092.95;(0.4407949924468994, 0.64105896419949);64.580078125;1.0;11:55:35:500;0;4;1.79032258064516;1;0;0;0;0;1;1;1;1;0;0;0;;0;0;();();(-2000.0, -2000.0);
11:55:35:502;11:55:35:488;1448061092.95;(0.4407949924468994, 0.64105896419949);64.580078125;1.0;11:55:35:502;0;15;1.78064516129032;1;0;0;0;0;1;1;1;1;0;0;0;;0;0;();();(-2000.0, -2000.0);
11:55:35:505;11:55:35:488;1448061092.95;(0.4407949924468994, 0.64105896419949);64.580078125;1.0;11:55:35:505;0;15;1.78064516129032;1;0;0;0;0;1;1;1;1;0;0;0;;0;0;();();(-2000.0, -2000.0);
11:55:35:508;11:55:35:488;1448061092.95;(0.4407949924468994, 0.64105896419949);64.580078125;1.0;11:55:35:508;0;15;1.78064516129032;1;0;0;0;0;1;1;1;1;0;0;0;;0;0;();();(-2000.0, -2000.0);
11:55:35:510;11:55:35:488;1448061092.95;(0.4407949924468994, 0.64105896419949);64.580078125;1.0;11:55:35:510;0;15;1.78064516129032;1;0;0;0;0;1;1;1;1;0;0;0;;0;0;();();(-2000.0, -2000.0);
11:55:35:512;11:55:35:488;1448061092.95;(0.4407949924468994, 0.64105896419949);64.580078125;1.0;11:55:35:512;0;15;1.78064516129032;1;0;0;0;0;1;1;1;1;0;0;0;;0;0;();();(-2000.0, -2000.0);
11:55:35:513;11:55:35:488;1448061092.95;(0.4407949924468994, 0.64105896419949);64.580078125;1.0;11:55:35:513;0;15;1.78064516129032;1;0;0;0;0;1;1;1;1;0;0;0;;0;0;();();(-2000.0, -2000.0);
11:55:35:514;11:55:35:488;1448061092.95;(0.4407949924468994, 0.64105896419949);64.580078125;1.0;11:55:35:514;0;15;1.78064516129032;1;0;0;0;0;1;1;1;1;0;0;0;;0;0;();();(-2000.0, -2000.0);
11:55:35:515;11:55:35:488;1448061092.95;(0.4407949924468994, 0.64105896419949);64.580078125;1.0;11:55:35:515;0;15;1.78064516129032;1;0;0;0;0;1;1;1;1;0;0;0;;0;0;();();(-2000.0, -2000.0);
11:55:35:517;11:55:35:488;1448061092.95;(0.4407949924468994, 0.64105896419949);64.580078125;1.0;11:55:35:517;0;15;1.78064516129032;1;0;0;0;0;1;1;1;1;0;0;0;;0;0;();();(-2000.0, -2000.0);
11:55:35:518;11:55:35:488;1448061092.95;(0.4407949924468994, 0.64105896419949);64.580078125;1.0;11:55:35:518;0;15;1.78064516129032;1;0;0;0;0;1;1;1;1;0;0;0;;0;0;();();(-2000.0, -2000.0);
11:55:35:519;11:55:35:488;1448061092.95;(0.4407949924468994, 0.64105896419949);64.580078125;1.0;11:55:35:519;0;15;1.78064516129032;1;0;0;0;0;1;1;1;1;0;0;0;;0;0;();();(-2000.0, -2000.0);
11:55:35:520;11:55:35:488;1448061092.95;(0.4407949924468994, 0.64105896419949);64.580078125;1.0;11:55:35:520;0;15;1.78064516129032;1;0;0;0;0;1;1;1;1;0;0;0;;0;0;();();(-2000.0, -2000.0);
11:55:35:522;11:55:35:488;1448061092.95;(0.4407949924468994, 0.64105896419949);64.580078125;1.0;11:55:35:522;0;15;1.78064516129032;1;0;0;0;0;1;1;1;1;0;0;0;;0;0;();();(-2000.0, -2000.0);
11:55:35:523;11:55:35:488;1448061092.95;(0.4407949924468994, 0.64105896419949);64.580078125;1.0;11:55:35:523;0;9;1.77741935483871;1;0;0;0;0;1;1;1;1;0;0;0;;0;0;();();(-2000.0, -2000.0);
11:55:35:546;11:55:35:532;1448061093.01;(0.4403709888458252, 0.6425415462917752);64.5375595093;1.0;11:55:35:546;0;5;1.78064516129032;1;0;0;0;0;1;1;1;1;0;0;0;;0;0;();();(-2000.0, -2000.0);
11:55:35:562;11:55:35:532;1448061093.01;(0.4403709888458252, 0.6425415462917752);64.5375595093;1.0;11:55:35:562;0;4;-1.5;1;0;0;0;0;1;1;1;1;0;0;0;;0;0;();();(-2000.0, -2000.0);
11:55:35:579;11:55:35:571;1448061093.05;(0.44036030769348145, 0.6422879325018989);64.0541000366;1.0;11:55:35:579;0;15;-1.5;1;0;0;0;0;1;1;1;1;0;0;0;;0;0;();();(-2000.0, -2000.0);
11:55:35:613;11:55:35:612;1448061093.08;(0.44026889801025393, 0.6427690929836697);63.6933097839;1.0;11:55:35:613;0;10;-1.5;1;0;0;0;0;1;1;1;1;0;0;0;;0;0;();();(-2000.0, -2000.0);
11:55:35:640;11:55:35:612;1448061093.08;(0.44026889801025393, 0.6427690929836697);63.6933097839;1.0;11:55:35:640;0;15;-1.5;1;0;0;0;0;1;1;1;1;2;0;0;;0;0;();();(-2000.0, -2000.0);
11:55:35:665;11:55:35:656;1448061093.11;(0.440231990814209, 0.6430234697129991);62.7673034668;1.0;11:55:35:665;0;4;1.78064516129032;1;0;0;0;0;1;1;1;1;2;0;0;;0;0;();();(-2000.0, -2000.0);
11:55:35:668;11:55:35:656;1448061093.11;(0.440231990814209, 0.6430234697129991);62.7673034668;1.0;11:55:35:668;0;4;1.78064516129032;1;0;0;0;0;1;1;1;1;2;0;0;;0;0;();();(-2000.0, -2000.0);
11:55:35:679;11:55:35:656;1448061093.11;(0.440231990814209, 0.6430234697129991);62.7673034668;1.0;11:55:35:679;0;4;1.78064516129032;1;0;0;0;0;1;1;1;1;2;0;0;;0;0;();();(-2000.0, -2000.0);
11:55:35:696;11:55:35:696;1448061093.15;(0.4403985500335693, 0.6434647242228191);61.4776687622;1.0;11:55:35:696;0;5;-1.5;1;0;0;0;0;1;1;1;1;2;0;0;;0;0;();();(-2000.0, -2000.0);
11:55:35:728;11:55:35:696;1448061093.15;(0.4403985500335693, 0.6434647242228191);61.4776687622;1.0;11:55:35:728;0;15;1.46129032258064;1;0;0;0;0;1;1;1;1;2;0;0;;0;0;();();(-2000.0, -2000.0);
11:55:35:746;11:55:35:736;1448061093.21;(0.44025821685791017, 0.6437110053168402);59.4719200134;1.0;11:55:35:746;0;15;1.46129032258064;1;0;0;0;0;1;1;1;1;2;0;0;;0;0;();();(-2000.0, -2000.0);
11:55:35:762;11:55:35:736;1448061093.21;(0.44025821685791017, 0.6437110053168402);59.4719200134;1.0;11:55:35:762;0;9;1.68709677419355;1;0;0;0;0;1;1;1;1;2;0;0;;0;0;();();(-2000.0, -2000.0);
11:55:35:779;11:55:35:736;1448061093.21;(0.44025821685791017, 0.6437110053168402);59.4719200134;1.0;11:55:35:779;0;9;1.68709677419355;1;0;0;0;0;1;1;1;1;2;0;0;;0;0;();();(-2000.0, -2000.0);
11:55:35:796;11:55:35:779;1448061093.25;(0.44044008255004885, 0.643742815653483);58.7623138428;1.0;11:55:35:796;0;0;-0.603225806451613;1;0;0;0;0;1;1;1;1;2;0;0;;0;0;();();(-2000.0, -2000.0);
11:55:35:829;11:55:35:820;1448061093.28;(0.44030013084411623, 0.6440889782375759);58.2243041992;1.0;11:55:35:829;0;15;0.52258064516129;1;0;0;0;0;1;1;1;1;2;0;0;;0;0;();();(-2000.0, -2000.0);
11:55:35:846;11:55:35:820;1448061093.28;(0.44030013084411623, 0.6440889782375759);58.2243041992;1.0;11:55:35:846;0;9;-0.519354838709677;1;0;0;0;0;1;1;1;1;2;0;0;;0;0;();();(-2000.0, -2000.0);
11:55:35:863;11:55:35:860;1448061093.35;(0.4400654315948486, 0.6441723293728299);57.7646369934;1.0;11:55:35:863;0;15;0.396774193548387;1;0;0;0;0;1;1;1;1;2;0;0;;0;0;();();(-2000.0, -2000.0);
11:55:35:879;11:55:35:860;1448061093.35;(0.4400654315948486, 0.6441723293728299);57.7646369934;1.0;11:55:35:879;0;10;-0.629032258064516;1;0;0;0;0;1;1;1;1;2;0;0;;0;0;();();(-2000.0, -2000.0);
11:55:35:896;11:55:35:860;1448061093.35;(0.4400654315948486, 0.6441723293728299);57.7646369934;1.0;11:55:35:896;0;15;1.78064516129032;1;0;0;0;0;1;1;1;1;2;0;0;;0;0;();();(-2000.0, -2000.0);
11:55:35:930;11:55:35:860;1448061093.35;(0.4400654315948486, 0.6441723293728299);57.7646369934;1.0;11:55:35:930;0;10;1.37741935483871;1;0;0;0;0;1;1;1;1;2;0;0;;0;0;();();(-2000.0, -2000.0);
11:55:35:946;11:55:35:944;1448061093.38;(0.4109747648239136, 0.6366781234741211);71.2135772705;0.753264750671;11:55:35:946;0;10;1.37741935483871;1;0;0;0;0;1;1;1;1;2;0;0;;0;0;();();(-2000.0, -2000.0);
11:55:35:964;11:55:35:944;1448061093.38;(0.4109747648239136, 0.6366781234741211);71.2135772705;0.753264750671;11:55:35:964;0;10;1.78064516129032;1;0;0;0;0;1;1;1;1;2;0;0;;0;0;();();(-2000.0, -2000.0);
11:55:35:980;11:55:35:944;1448061093.38;(0.4109747648239136, 0.6366781234741211);71.2135772705;0.753264750671;11:55:35:980;0;4;1.78064516129032;1;0;0;0;0;1;1;1;1;2;0;0;;0;0;();();(-2000.0, -2000.0);
11:55:35:997;11:55:35:988;1448061093.45;(0.49527530670166015, 0.5126018948025174);18.0929813385;0.791456489802;11:55:35:997;0;10;0.587096774193548;1;0;0;0;0;1;1;1;1;2;0;0;;0;0;();();(-2000.0, -2000.0);
11:55:36:029;11:55:36:028;1448061093.48;(0.35358829498291017, 0.6023732079399957);29.0665187836;0.918548667027;11:55:36:029;0;10;1.07741935483871;1;0;0;0;0;1;1;1;1;2;0;0;;0;0;();();(-2000.0, -2000.0);
11:55:36:047;11:55:36:028;1448061093.48;(0.35358829498291017, 0.6023732079399957);29.0665187836;0.918548667027;11:55:36:047;0;4;1.0258064516129;1;0;0;0;0;1;1;1;1;2;0;0;;0;0;();();(-2000.0, -2000.0);
11:55:36:063;11:55:36:028;1448061093.48;(0.35358829498291017, 0.6023732079399957);29.0665187836;0.918548667027;11:55:36:063;0;10;1.78064516129032;1;0;0;0;0;1;1;1;1;2;0;0;;0;0;();();(-2000.0, -2000.0);
11:55:36:080;11:55:36:028;1448061093.48;(0.35358829498291017, 0.6023732079399957);29.0665187836;0.918548667027;11:55:36:080;0;5;1.78064516129032;1;0;0;0;0;1;1;1;1;2;0;0;;0;0;();();(-2000.0, -2000.0);
11:55:36:096;11:55:36:028;1448061093.48;(0.35358829498291017, 0.6023732079399957);29.0665187836;0.918548667027;11:55:36:096;0;10;1.77741935483871;1;0;0;0;0;1;1;1;1;2;0;0;;0;0;();();(-2000.0, -2000.0);
11:55:36:130;11:55:36:111;1448061093.51;(0.3716789960861206, 0.583459981282552);58.7005844116;0.678277007979;11:55:36:130;0;10;1.79032258064516;1;0;0;0;0;1;1;1;1;2;0;0;;0;0;();();(-2000.0, -2000.0);
11:55:36:147;11:55:36:111;1448061093.51;(0.3716789960861206, 0.583459981282552);58.7005844116;0.678277007979;11:55:36:147;0;4;1.78064516129032;1;0;0;0;0;1;1;1;1;2;0;0;;0;0;();();(-2000.0, -2000.0);
11:55:36:164;11:55:36:154;1448061093.62;(0.3812912702560425, 0.588192876180013);60.2299461365;1.0;11:55:36:164;0;10;-1.5;1;0;0;0;0;1;1;1;1;2;0;0;;0;0;();();(-2000.0, -2000.0);
11:55:36:180;11:55:36:154;1448061093.62;(0.3812912702560425, 0.588192876180013);60.2299461365;1.0;11:55:36:180;0;15;-0.2;1;0;0;0;0;1;1;1;1;2;0;0;;0;0;();();(-2000.0, -2000.0);
11:55:36:196;11:55:36:192;1448061093.65;(0.3817160606384277, 0.5890265570746528);60.7221336365;1.0;11:55:36:196;0;10;1.49032258064516;1;0;0;0;0;1;1;1;1;2;0;0;;0;0;();();(-2000.0, -2000.0);
11:55:36:230;11:55:36:192;1448061093.65;(0.3817160606384277, 0.5890265570746528);60.7221336365;1.0;11:55:36:230;0;10;1.06774193548387;1;0;0;0;0;1;1;1;1;2;0;0;;0;0;();();(-2000.0, -2000.0);
11:55:36:247;11:55:36:236;1448061093.71;(0.3822073221206665, 0.589664798312717);61.1787452698;1.0;11:55:36:247;0;0;0.874193548387097;1;0;0;0;0;1;1;1;1;2;0;0;;0;0;();();(-2000.0, -2000.0);
11:55:36:263;11:55:36:236;1448061093.71;(0.3822073221206665, 0.589664798312717);61.1787452698;1.0;11:55:36:263;0;10;1.78064516129032;1;0;0;0;0;1;1;1;1;2;0;0;;0;0;();();(-2000.0, -2000.0);
11:55:36:280;11:55:36:276;1448061093.75;(0.38248419761657715, 0.5896464453803169);61.9923057556;1.0;11:55:36:280;0;10;1.78064516129032;1;0;0;0;0;1;1;1;1;2;0;0;;0;0;();();(-2000.0, -2000.0);
11:55:36:297;11:55:36:276;1448061093.75;(0.38248419761657715, 0.5896464453803169);61.9923057556;1.0;11:55:36:297;0;4;1.77741935483871;1;0;0;0;0;1;1;1;1;2;0;0;;0;0;();();(-2000.0, -2000.0);
11:55:36:330;11:55:36:320;1448061093.78;(0.3826392889022827, 0.589888424343533);62.0976333618;1.0;11:55:36:330;0;5;1.18064516129032;1;0;0;0;0;1;1;1;1;2;0;0;;0;0;();();(-2000.0, -2000.0);
11:55:36:347;11:55:36:320;1448061093.78;(0.3826392889022827, 0.589888424343533);62.0976333618;1.0;11:55:36:347;0;10;1.77741935483871;1;0;0;0;0;1;1;1;1;2;0;0;;0;0;();();(-2000.0, -2000.0);
11:55:36:363;11:55:36:360;1448061093.85;(0.38298170566558837, 0.5904874165852865);62.8433113098;1.0;11:55:36:363;0;4;1.01612903225806;1;0;0;0;0;1;1;1;1;2;0;0;;0;0;();();(-2000.0, -2000.0);
11:55:36:380;11:55:36:360;1448061093.85;(0.38298170566558837, 0.5904874165852865);62.8433113098;1.0;11:55:36:380;0;15;-0.212903225806452;1;0;0;0;0;1;1;1;1;2;0;0;;0;0;();();(-2000.0, -2000.0);
11:55:36:396;11:55:36:360;1448061093.85;(0.38298170566558837, 0.5904874165852865);62.8433113098;1.0;11:55:36:396;0;4;-0.135483870967742;1;0;0;0;0;1;1;1;1;2;0;0;;0;0;();();(-2000.0, -2000.0);
11:55:36:430;11:55:36:399;1448061093.88;(0.3830426216125488, 0.5902506086561414);62.8876876831;1.0;11:55:36:430;0;15;0.306451612903226;1;0;0;0;0;1;1;1;1;2;0;0;;0;0;();();(-2000.0, -2000.0);
11:55:36:446;11:55:36:443;1448061093.91;(0.382925820350647, 0.5903114318847656);62.9984130859;1.0;11:55:36:446;0;10;0.258064516129032;1;0;0;0;0;1;1;1;1;2;0;0;;0;0;();();(-2000.0, -2000.0);
11:55:36:464;11:55:36:443;1448061093.91;(0.382925820350647, 0.5903114318847656);62.9984130859;1.0;11:55:36:464;0;11;0.0935483870967739;1;0;0;0;0;1;1;1;1;2;0;0;;0;0;();();(-2000.0, -2000.0);
11:55:36:480;11:55:36:443;1448061093.91;(0.382925820350647, 0.5903114318847656);62.9984130859;1.0;11:55:36:480;0;10;0.719354838709677;1;0;0;0;0;1;1;1;1;2;0;0;;0;0;();();(-2000.0, -2000.0);
11:55:36:496;11:55:36:443;1448061093.91;(0.382925820350647, 0.5903114318847656);62.9984130859;1.0;11:55:36:496;0;5;0.561290322580645;1;0;0;0;0;1;1;1;1;2;0;0;;0;0;();();(-2000.0, -2000.0);
11:55:36:530;11:55:36:524;1448061093.99;(0.4437578201293945, 0.6341184828016493);62.0540390015;1.0;11:55:36:530;0;4;1.10322580645161;1;0;0;0;0;1;1;1;1;2;0;0;;0;0;();();(-2000.0, -2000.0);
11:55:36:547;11:55:36:524;1448061093.99;(0.4437578201293945, 0.6341184828016493);62.0540390015;1.0;11:55:36:547;0;4;1.13225806451613;1;0;0;0;0;1;1;1;1;2;0;0;;0;0;();();(-2000.0, -2000.0);
11:55:36:564;11:55:36:524;1448061093.99;(0.4437578201293945, 0.6341184828016493);62.0540390015;1.0;11:55:36:564;0;15;1.61935483870968;1;0;0;0;0;1;1;1;1;2;0;0;;0;0;();();(-2000.0, -2000.0);
11:55:36:580;11:55:36:568;1448061094.02;(0.44580397605895994, 0.6368061277601453);61.6006240845;1.0;11:55:36:580;0;0;0.977419354838709;1;0;0;0;0;1;1;1;1;2;0;0;;0;0;();();(-2000.0, -2000.0);
11:55:36:596;11:55:36:568;1448061094.02;(0.44580397605895994, 0.6368061277601453);61.6006240845;1.0;11:55:36:596;0;4;0.506451612903226;1;0;0;0;0;1;1;1;1;2;0;0;;0;0;();();(-2000.0, -2000.0);
11:55:36:630;11:55:36:608;1448061094.08;(0.4462437629699707, 0.639208624098036);61.8807029724;1.0;11:55:36:630;0;15;-1.5;1;0;0;0;0;1;1;1;1;2;0;0;;0;0;();();(-2000.0, -2000.0);
11:55:36:647;11:55:36:608;1448061094.08;(0.4462437629699707, 0.639208624098036);61.8807029724;1.0;11:55:36:647;0;5;-1.5;1;0;0;0;0;1;1;1;1;2;0;0;;0;0;();();(-2000.0, -2000.0);
11:55:36:663;11:55:36:651;1448061094.11;(0.4459211349487305, 0.6398557239108615);62.1058273315;1.0;11:55:36:663;0;15;-1.5;1;0;0;0;0;1;1;1;1;2;0;0;;0;0;();();(-2000.0, -2000.0);
11:55:36:680;11:55:36:651;1448061094.11;(0.4459211349487305, 0.6398557239108615);62.1058273315;1.0;11:55:36:680;0;5;-1.5;1;0;0;0;0;1;1;1;1;2;0;0;;0;0;();();(-2000.0, -2000.0);
11:55:36:697;11:55:36:692;1448061094.18;(0.44577369689941404, 0.6401547325981988);62.0882911682;1.0;11:55:36:697;0;15;-1.5;1;0;0;0;0;1;1;1;1;2;0;0;;0;0;();();(-2000.0, -2000.0);
11:55:36:730;11:55:36:692;1448061094.18;(0.44577369689941404, 0.6401547325981988);62.0882911682;1.0;11:55:36:730;0;10;1.78064516129032;1;0;0;0;0;1;1;1;1;2;0;0;;0;0;();();(-2000.0, -2000.0);
11:55:36:748;11:55:36:731;1448061094.21;(0.4456210136413574, 0.6402096218532987);62.0054626465;1.0;11:55:36:748;0;5;1.28709677419355;1;0;0;0;0;1;1;1;1;2;0;0;;0;0;();();(-2000.0, -2000.0);
11:55:36:764;11:55:36:731;1448061094.21;(0.4456210136413574, 0.6402096218532987);62.0054626465;1.0;11:55:36:764;0;15;-0.87741935483871;1;0;0;0;0;1;1;1;1;2;0;0;;0;0;();();(-2000.0, -2000.0);
11:55:36:781;11:55:36:776;1448061094.25;(0.4453725337982178, 0.6403541141086154);61.7320327759;1.0;11:55:36:781;0;4;0.354838709677419;1;0;0;0;0;1;1;1;1;2;0;0;;0;0;();();(-2000.0, -2000.0);
11:55:36:797;11:55:36:776;1448061094.25;(0.4453725337982178, 0.6403541141086154);61.7320327759;1.0;11:55:36:797;0;15;-0.00645161290322593;1;0;0;0;0;1;1;1;1;2;0;0;;0;0;();();(-2000.0, -2000.0);
11:55:36:830;11:55:36:816;1448061094.28;(0.4452971458435059, 0.6402452256944444);61.5838775635;1.0;11:55:36:830;0;0;-1.5;1;0;0;0;0;1;1;1;1;2;0;0;;0;0;();();(-2000.0, -2000.0);
11:55:36:847;11:55:36:816;1448061094.28;(0.4452971458435059, 0.6402452256944444);61.5838775635;1.0;11:55:36:847;0;12;-1.5;1;0;0;0;0;1;1;1;1;2;0;0;;0;0;();();(-2000.0, -2000.0);
11:55:36:864;11:55:36:856;1448061094.31;(0.44538135528564454, 0.6403107325236003);61.428817749;1.0;11:55:36:864;0;10;-1.5;1;0;0;0;0;1;1;1;1;2;0;0;;0;0;();();(-2000.0, -2000.0);
11:55:36:881;11:55:36:856;1448061094.31;(0.44538135528564454, 0.6403107325236003);61.428817749;1.0;11:55:36:881;0;5;-1.5;1;0;0;0;0;1;1;1;1;2;0;0;;0;0;();();(-2000.0, -2000.0);
11:55:36:898;11:55:36:856;1448061094.31;(0.44538135528564454, 0.6403107325236003);61.428817749;1.0;11:55:36:898;0;9;-1.5;1;0;0;0;0;1;1;1;1;2;0;0;;0;0;();();(-2000.0, -2000.0);
11:55:36:931;11:55:36:901;1448061094.38;(0.44507565498352053, 0.6397220823499892);61.6369056702;1.0;11:55:36:931;0;10;-1.4;1;0;0;0;0;1;1;1;1;2;0;0;;0;0;();();(-2000.0, -2000.0);
11:55:36:947;11:55:36:940;1448061094.41;(0.4447659969329834, 0.6396046532524957);61.9122924805;1.0;11:55:36:947;0;0;-0.319354838709677;1;0;0;0;0;1;1;1;1;2;0;0;;0;0;();();(-2000.0, -2000.0);
11:55:36:963;11:55:36:940;1448061094.41;(0.4447659969329834, 0.6396046532524957);61.9122924805;1.0;11:55:36:963;0;9;-0.429032258064516;1;0;0;0;0;1;1;1;1;2;0;0;;0;0;();();(-2000.0, -2000.0);
11:55:36:981;11:55:36:980;1448061094.45;(0.4443976402282715, 0.6391078101264106);61.8292617798;1.0;11:55:36:981;0;5;1.73870967741935;1;0;0;0;0;1;1;1;1;2;0;0;;0;0;();();(-2000.0, -2000.0);
11:55:36:997;11:55:36:980;1448061094.45;(0.4443976402282715, 0.6391078101264106);61.8292617798;1.0;11:55:36:997;0;4;1.0258064516129;1;0;0;0;0;1;1;1;1;2;0;0;;0;0;();();(-2000.0, -2000.0);
11:55:37:030;11:55:37:024;1448061094.48;(0.4439749240875244, 0.638356335957845);61.9499969482;1.0;11:55:37:030;0;4;1.0258064516129;1;0;0;0;0;1;1;1;1;2;0;0;;0;0;();();(-2000.0, -2000.0);
11:55:37:047;11:55:37:024;1448061094.48;(0.4439749240875244, 0.638356335957845);61.9499969482;1.0;11:55:37:047;0;10;-0.0161290322580645;1;0;0;0;0;1;1;1;1;2;0;0;;0;0;();();(-2000.0, -2000.0);
11:55:37:064;11:55:37:064;1448061094.51;(0.4431654453277588, 0.6370109346177844);62.414855957;1.0;11:55:37:064;0;0;0.612903225806452;1;0;0;0;0;1;1;1;1;2;0;0;;0;0;();();(-2000.0, -2000.0);
11:55:37:079;11:55:37:064;1448061094.51;(0.4431654453277588, 0.6370109346177844);62.414855957;1.0;11:55:37:079;0;10;0.619354838709677;1;0;0;0;0;1;1;1;1;2;0;0;;0;0;();();(-2000.0, -2000.0);
11:55:37:098;11:55:37:064;1448061094.51;(0.4431654453277588, 0.6370109346177844);62.414855957;1.0;11:55:37:098;0;5;1.79032258064516;1;0;0;0;0;1;1;1;1;2;0;0;;0;0;();();(-2000.0, -2000.0);
11:55:37:131;11:55:37:108;1448061094.58;(0.44092464447021484, 0.6343378278944227);62.8644828796;0.825297275789;11:55:37:131;0;5;1.78064516129032;1;0;0;0;0;1;1;1;1;2;0;0;;0;0;();();(-2000.0, -2000.0);
11:55:37:148;11:55:37:108;1448061094.58;(0.44092464447021484, 0.6343378278944227);62.8644828796;0.825297275789;11:55:37:148;0;15;1.78064516129032;1;0;0;0;0;1;1;1;1;2;0;0;;0;0;();();(-2000.0, -2000.0);
11:55:37:164;11:55:37:148;1448061094.61;(0.45117769241333006, 0.623455450269911);65.1389389038;0.992868572078;11:55:37:164;0;4;1.78064516129032;1;0;0;0;0;1;1;1;1;2;0;0;;0;0;();();(-2000.0, -2000.0);
11:55:37:180;11:55:37:148;1448061094.61;(0.45117769241333006, 0.623455450269911);65.1389389038;0.992868572078;11:55:37:180;0;4;1.78064516129032;1;0;0;0;0;1;1;1;1;2;0;0;;0;0;();();(-2000.0, -2000.0);
11:55:37:198;11:55:37:188;1448061094.65;(0.46344804763793945, 0.5983931647406684);52.9356613159;0.658846970355;11:55:37:198;0;0;1.77741935483871;1;0;0;0;0;1;1;1;1;2;0;0;;0;0;();();(-2000.0, -2000.0);
11:55:37:231;11:55:37:188;1448061094.65;(0.46344804763793945, 0.5983931647406684);52.9356613159;0.658846970355;11:55:37:231;0;4;1.78064516129032;1;0;0;0;0;1;1;1;1;2;0;0;;0;0;();();(-2000.0, -2000.0);
11:55:37:248;11:55:37:232;1448061094.68;(0.3278554916381836, 0.5309935675726997);37.977558136;0.638251865223;11:55:37:248;0;10;1.78064516129032;1;0;0;0;0;1;1;1;1;2;0;0;;0;0;();();(-2000.0, -2000.0);
11:55:37:264;11:55:37:232;1448061094.68;(0.3278554916381836, 0.5309935675726997);37.977558136;0.638251865223;11:55:37:264;0;4;1.78064516129032;1;0;0;0;0;1;1;1;1;2;0;0;;0;0;();();(-2000.0, -2000.0);
11:55:37:281;11:55:37:232;1448061094.68;(0.3278554916381836, 0.5309935675726997);37.977558136;0.638251865223;11:55:37:281;0;9;1.78064516129032;1;0;0;0;0;1;1;1;1;2;0;0;;0;0;();();(-2000.0, -2000.0);
11:55:37:297;11:55:37:232;1448061094.68;(0.3278554916381836, 0.5309935675726997);37.977558136;0.638251865223;11:55:37:297;0;5;1.78064516129032;1;0;0;0;0;1;1;1;1;2;0;0;;0;0;();();(-2000.0, -2000.0);
11:55:37:331;11:55:37:312;1448061094.71;(0.47887768745422366, 0.579708735148112);72.2471923828;0.700517340896;11:55:37:331;0;15;1.36774193548387;1;0;0;0;0;1;1;1;1;2;0;0;;0;0;();();(-2000.0, -2000.0);
11:55:37:348;11:55:37:312;1448061094.71;(0.47887768745422366, 0.579708735148112);72.2471923828;0.700517340896;11:55:37:348;0;10;1.78064516129032;1;0;0;0;0;1;1;1;1;2;0;0;;0;0;();();(-2000.0, -2000.0);
11:55:37:364;11:55:37:356;1448061094.8;(0.47295284271240234, 0.5532818264431424);62.2363052368;1.0;11:55:37:364;0;5;1.78064516129032;1;0;0;0;0;1;1;1;1;2;0;0;;0;0;();();(-2000.0, -2000.0);
11:55:37:381;11:55:37:356;1448061094.8;(0.47295284271240234, 0.5532818264431424);62.2363052368;1.0;11:55:37:381;0;10;1.78064516129032;1;0;0;0;0;1;1;1;1;2;0;0;;0;0;();();(-2000.0, -2000.0);
11:55:37:397;11:55:37:396;1448061094.85;(0.4650815486907959, 0.5520374721950955);63.3191947937;1.0;11:55:37:397;0;15;-0.470967741935484;1;0;0;0;0;1;1;1;1;2;0;0;;0;0;();();(-2000.0, -2000.0);
11:55:37:431;11:55:37:396;1448061094.85;(0.4650815486907959, 0.5520374721950955);63.3191947937;1.0;11:55:37:431;0;15;1.74516129032258;1;0;0;0;0;1;1;1;1;2;0;0;;0;0;();();(-2000.0, -2000.0);
11:55:37:448;11:55:37:440;1448061094.91;(0.4555973052978516, 0.5488875918918186);63.7799415588;1.0;11:55:37:448;0;9;1.50322580645161;1;0;0;0;0;1;1;1;1;2;0;0;;0;0;();();(-2000.0, -2000.0);
11:55:37:464;11:55:37:440;1448061094.91;(0.4555973052978516, 0.5488875918918186);63.7799415588;1.0;11:55:37:464;0;15;0.0677419354838709;1;0;0;0;0;1;1;1;1;2;0;0;;0;0;();();(-2000.0, -2000.0);
11:55:37:482;11:55:37:440;1448061094.91;(0.4555973052978516, 0.5488875918918186);63.7799415588;1.0;11:55:37:482;0;4;-1.5;1;0;0;0;0;1;1;1;1;2;0;0;;0;0;();();(-2000.0, -2000.0);
11:55:37:498;11:55:37:440;1448061094.91;(0.4555973052978516, 0.5488875918918186);63.7799415588;1.0;11:55:37:498;0;15;-1.5;1;0;0;0;0;1;1;1;1;2;0;0;;0;0;();();(-2000.0, -2000.0);
11:55:37:531;11:55:37:529;1448061094.98;(0.44549927711486814, 0.5426108042399089);65.3971862793;0.964896316342;11:55:37:531;0;10;-1.5;1;0;0;0;0;1;1;1;1;2;0;0;;0;0;();();(-2000.0, -2000.0);
11:55:37:548;11:55:37:529;1448061094.98;(0.44549927711486814, 0.5426108042399089);65.3971862793;0.964896316342;11:55:37:548;0;5;-1.5;1;0;0;0;0;1;1;1;1;2;0;0;;0;0;();();(-2000.0, -2000.0);
11:55:37:565;11:55:37:529;1448061094.98;(0.44549927711486814, 0.5426108042399089);65.3971862793;0.964896316342;11:55:37:565;0;10;1.30967741935484;1;0;0;0;0;1;1;1;1;2;0;0;;0;0;();();(-2000.0, -2000.0);
11:55:37:581;11:55:37:529;1448061094.98;(0.44549927711486814, 0.5426108042399089);65.3971862793;0.964896316342;11:55:37:581;0;4;-1.35806451612903;1;0;0;0;0;1;1;1;1;2;0;0;;0;0;();();(-2000.0, -2000.0);
11:55:37:597;11:55:37:529;1448061094.98;(0.44549927711486814, 0.5426108042399089);65.3971862793;0.964896316342;11:55:37:597;0;9;-1.5;1;0;0;0;0;1;1;1;1;2;0;0;;0;0;();();(-2000.0, -2000.0);
11:55:37:631;11:55:37:529;1448061094.98;(0.44549927711486814, 0.5426108042399089);65.3971862793;0.964896316342;11:55:37:631;0;15;-1.5;1;0;0;0;0;1;1;1;1;2;0;0;;0;0;();();(-2000.0, -2000.0);
11:55:37:648;11:55:37:644;1448061095.12;(0.450593376159668, 0.49512685139973955);63.5260887146;1.0;11:55:37:648;0;4;-1.5;1;0;0;0;0;1;1;1;1;2;0;0;;0;0;();();(-2000.0, -2000.0);
11:55:37:664;11:55:37:644;1448061095.12;(0.450593376159668, 0.49512685139973955);63.5260887146;1.0;11:55:37:664;0;9;-1.5;1;0;0;0;0;1;1;1;1;2;0;0;;0;0;();();(-2000.0, -2000.0);
11:55:37:682;11:55:37:644;1448061095.12;(0.450593376159668, 0.49512685139973955);63.5260887146;1.0;11:55:37:682;0;4;-1.5;1;0;0;0;0;1;1;1;1;2;0;0;;0;0;();();(-2000.0, -2000.0);
11:55:37:699;11:55:37:644;1448061095.12;(0.450593376159668, 0.49512685139973955);63.5260887146;1.0;11:55:37:698;0;4;-1.5;1;0;0;0;0;1;1;1;1;2;0;0;;0;0;();();(-2000.0, -2000.0);
11:55:37:731;11:55:37:719;1448061095.18;(0.43810176849365234, 0.4950755225287543);63.9706993103;1.0;11:55:37:731;0;4;1.42903225806452;1;0;0;0;0;1;1;1;1;2;0;0;;0;0;();();(-2000.0, -2000.0);
11:55:37:748;11:55:37:719;1448061095.18;(0.43810176849365234, 0.4950755225287543);63.9706993103;1.0;11:55:37:748;0;0;-1.5;1;0;0;0;0;1;1;1;1;2;0;0;;0;0;();();(-2000.0, -2000.0);
11:55:37:764;11:55:37:719;1448061095.18;(0.43810176849365234, 0.4950755225287543);63.9706993103;1.0;11:55:37:764;0;5;-1.5;1;0;0;0;0;1;1;1;1;2;0;0;;0;0;();();(-2000.0, -2000.0);
11:55:37:782;11:55:37:719;1448061095.18;(0.43810176849365234, 0.4950755225287543);63.9706993103;1.0;11:55:37:782;0;15;-1.5;1;0;0;0;0;1;1;1;1;2;0;0;;0;0;();();(-2000.0, -2000.0);
11:55:37:798;11:55:37:719;1448061095.18;(0.43810176849365234, 0.4950755225287543);63.9706993103;1.0;11:55:37:798;0;10;-1.5;1;0;0;0;0;1;1;1;1;2;0;0;;0;0;();();(-2000.0, -2000.0);
11:55:37:832;11:55:37:719;1448061095.18;(0.43810176849365234, 0.4950755225287543);63.9706993103;1.0;11:55:37:832;0;10;-1.19032258064516;1;0;0;0;0;1;1;1;1;2;0;0;;0;0;();();(-2000.0, -2000.0);
11:55:37:848;11:55:37:719;1448061095.18;(0.43810176849365234, 0.4950755225287543);63.9706993103;1.0;11:55:37:848;0;0;1.16129032258065;1;0;0;0;0;1;1;1;1;2;0;0;;0;0;();();(-2000.0, -2000.0);
11:55:37:864;11:55:37:719;1448061095.18;(0.43810176849365234, 0.4950755225287543);63.9706993103;1.0;11:55:37:864;0;10;-0.0806451612903225;1;0;0;0;0;1;1;1;1;2;0;0;;0;0;();();(-2000.0, -2000.0);
11:55:37:882;11:55:37:719;1448061095.18;(0.43810176849365234, 0.4950755225287543);63.9706993103;1.0;11:55:37:882;0;15;-0.519354838709677;1;0;0;0;0;1;1;1;1;2;0;0;;0;0;();();(-2000.0, -2000.0);
11:55:37:898;11:55:37:719;1448061095.18;(0.43810176849365234, 0.4950755225287543);63.9706993103;1.0;11:55:37:898;0;10;0.74516129032258;1;0;0;0;0;1;1;1;1;2;0;0;;0;0;();();(-2000.0, -2000.0);
11:55:37:932;11:55:37:912;1448061095.35;(0, 0);0;0;11:55:37:932;0;5;-1.5;1;0;0;0;0;1;1;1;1;2;0;0;;0;0;();();(-2000.0, -2000.0);
11:55:37:948;11:55:37:912;1448061095.35;(0, 0);0;0;11:55:37:948;0;15;-1.5;1;0;0;0;0;1;1;1;1;2;0;0;;0;0;();();(-2000.0, -2000.0);
11:55:37:965;11:55:37:912;1448061095.35;(0, 0);0;0;11:55:37:965;0;4;1.28709677419355;1;0;0;0;0;1;1;1;1;2;0;0;;0;0;();();(-2000.0, -2000.0);
11:55:37:982;11:55:37:912;1448061095.35;(0, 0);0;0;11:55:37:982;0;10;-1.5;1;0;0;0;0;1;1;1;1;2;0;0;;0;0;();();(-2000.0, -2000.0);
11:55:37:998;11:55:37:912;1448061095.35;(0, 0);0;0;11:55:37:998;0;4;0.696774193548387;1;0;0;0;0;1;1;1;1;2;0;0;;0;0;();();(-2000.0, -2000.0);
11:55:38:031;11:55:37:912;1448061095.35;(0, 0);0;0;11:55:38:031;0;5;0.0516129032258064;1;0;0;0;0;1;1;1;1;2;0;0;;0;0;();();(-2000.0, -2000.0);
11:55:38:048;11:55:38:044;1448061095.5;(0.501091194152832, 0.5677684783935547);63.2576332092;1.0;11:55:38:048;0;9;0.935483870967742;1;0;0;0;0;1;1;1;1;2;0;0;;0;0;();();(-2000.0, -2000.0);
11:55:38:064;11:55:38:044;1448061095.5;(0.501091194152832, 0.5677684783935547);63.2576332092;1.0;11:55:38:064;0;4;-1.5;1;0;0;0;0;1;1;1;1;2;0;0;;0;0;();();(-2000.0, -2000.0);
11:55:38:082;11:55:38:044;1448061095.5;(0.501091194152832, 0.5677684783935547);63.2576332092;1.0;11:55:38:082;0;9;-0.825806451612903;1;0;0;0;0;1;1;1;1;2;0;0;;0;0;();();(-2000.0, -2000.0);
11:55:38:098;11:55:38:044;1448061095.5;(0.501091194152832, 0.5677684783935547);63.2576332092;1.0;11:55:38:098;0;15;-1.5;1;0;0;0;0;1;1;1;1;2;0;0;;0;0;();();(-2000.0, -2000.0);
11:55:38:132;11:55:38:112;1448061095.58;(0.4700336933135986, 0.5797734154595269);64.1646347046;1.0;11:55:38:132;0;10;-1.5;1;0;0;0;0;1;1;1;1;2;0;0;;0;0;();();(-2000.0, -2000.0);
11:55:38:148;11:55:38:112;1448061095.58;(0.4700336933135986, 0.5797734154595269);64.1646347046;1.0;11:55:38:148;0;14;-1.5;1;0;0;0;0;1;1;1;1;2;0;0;;0;0;();();(-2000.0, -2000.0);
11:55:38:165;11:55:38:112;1448061095.58;(0.4700336933135986, 0.5797734154595269);64.1646347046;1.0;11:55:38:165;0;4;-1.5;1;0;0;0;0;1;1;1;1;2;0;0;;0;0;();();(-2000.0, -2000.0);
11:55:38:182;11:55:38:179;1448061095.65;(0.45354723930358887, 0.5793877919514974);65.4049072266;1.0;11:55:38:182;0;10;-1.5;1;0;0;0;0;1;1;1;1;2;0;0;;0;0;();();(-2000.0, -2000.0);
11:55:38:198;11:55:38:179;1448061095.65;(0.45354723930358887, 0.5793877919514974);65.4049072266;1.0;11:55:38:198;0;15;1.78064516129032;1;0;0;0;0;1;1;1;1;2;0;0;;0;0;();();(-2000.0, -2000.0);
11:55:38:232;11:55:38:179;1448061095.65;(0.45354723930358887, 0.5793877919514974);65.4049072266;1.0;11:55:38:232;0;15;-1.5;1;0;0;0;0;1;1;1;1;2;0;0;;0;0;();();(-2000.0, -2000.0);
11:55:38:248;11:55:38:244;1448061095.68;(0.4481366157531738, 0.5779741499159071);65.8097915649;1.0;11:55:38:248;0;5;-1.5;1;0;0;0;0;1;1;1;1;2;0;0;;0;0;();();(-2000.0, -2000.0);
11:55:38:265;11:55:38:244;1448061095.68;(0.4481366157531738, 0.5779741499159071);65.8097915649;1.0;11:55:38:265;0;10;-1.5;1;0;0;0;0;1;1;1;1;2;0;0;;0;0;();();(-2000.0, -2000.0);
11:55:38:282;11:55:38:244;1448061095.68;(0.4481366157531738, 0.5779741499159071);65.8097915649;1.0;11:55:38:282;0;4;-1.5;1;0;0;0;0;1;1;1;1;2;0;0;;0;0;();();(-2000.0, -2000.0);
11:55:38:298;11:55:38:244;1448061095.68;(0.4481366157531738, 0.5779741499159071);65.8097915649;1.0;11:55:38:298;0;15;-1.5;1;0;0;0;0;1;1;1;1;2;0;0;;0;0;();();(-2000.0, -2000.0);
11:55:38:332;11:55:38:244;1448061095.68;(0.4481366157531738, 0.5779741499159071);65.8097915649;1.0;11:55:38:332;0;10;1.77741935483871;1;0;0;0;0;1;1;1;1;2;0;0;;0;0;();();(-2000.0, -2000.0);
11:55:38:348;11:55:38:244;1448061095.68;(0.4481366157531738, 0.5779741499159071);65.8097915649;1.0;11:55:38:348;0;0;-1.5;1;0;0;0;0;1;1;1;1;2;0;0;;0;0;();();(-2000.0, -2000.0);
11:55:38:365;11:55:38:244;1448061095.68;(0.4481366157531738, 0.5779741499159071);65.8097915649;1.0;11:55:38:365;0;10;-1.31935483870968;1;0;0;0;0;1;1;1;1;2;0;0;;0;0;();();(-2000.0, -2000.0);
11:55:38:382;11:55:38:376;1448061095.71;(0.44435791969299315, 0.5769525316026476);66.0157012939;1.0;11:55:38:382;0;10;-1.5;1;0;0;0;0;1;1;1;1;2;0;0;;0;0;();();(-2000.0, -2000.0);
11:55:38:398;11:55:38:376;1448061095.71;(0.44435791969299315, 0.5769525316026476);66.0157012939;1.0;11:55:38:398;0;9;1.78064516129032;1;0;0;0;0;1;1;1;1;2;0;0;;0;0;();();(-2000.0, -2000.0);
11:55:38:431;11:55:38:376;1448061095.71;(0.44435791969299315, 0.5769525316026476);66.0157012939;1.0;11:55:38:431;0;10;0.0774193548387094;1;0;0;0;0;1;1;1;1;2;0;0;;0;0;();();(-2000.0, -2000.0);
11:55:38:449;11:55:38:440;1448061095.87;(0.4334862470626831, 0.608389409383138);66.8665161133;0.798862966836;11:55:38:449;0;5;1.49677419354839;1;0;0;0;0;1;1;1;1;2;0;0;;0;0;();();(-2000.0, -2000.0);
11:55:38:465;11:55:38:440;1448061095.87;(0.4334862470626831, 0.608389409383138);66.8665161133;0.798862966836;11:55:38:465;0;15;-1.5;1;0;0;0;0;1;1;1;1;2;0;0;;0;0;();();(-2000.0, -2000.0);
11:55:38:482;11:55:38:440;1448061095.87;(0.4334862470626831, 0.608389409383138);66.8665161133;0.798862966836;11:55:38:482;0;15;1.76129032258065;1;0;0;0;0;1;1;1;1;2;0;0;;0;0;();();(-2000.0, -2000.0);
11:55:38:499;11:55:38:440;1448061095.87;(0.4334862470626831, 0.608389409383138);66.8665161133;0.798862966836;11:55:38:499;0;10;1.77741935483871;1;0;0;0;0;1;1;1;1;2;0;0;;0;0;();();(-2000.0, -2000.0);
11:55:38:516;11:55:38:509;1448061095.92;(0.4015932559967041, 0.7283234066433377);68.3097076416;0.911676238836;11:55:38:516;0;11;-1.5;1;0;0;0;0;1;1;1;1;2;0;0;;0;0;();();(-2000.0, -2000.0);
11:55:38:549;11:55:38:509;1448061095.92;(0.4015932559967041, 0.7283234066433377);68.3097076416;0.911676238836;11:55:38:549;0;15;1.48064516129032;1;0;0;0;0;1;1;1;1;2;0;0;;0;0;();();(-2000.0, -2000.0);
11:55:38:566;11:55:38:509;1448061095.92;(0.4015932559967041, 0.7283234066433377);68.3097076416;0.911676238836;11:55:38:566;0;9;1.78064516129032;1;0;0;0;0;1;1;1;1;2;0;0;;0;0;();();(-2000.0, -2000.0);
11:55:38:582;11:55:38:577;1448061096.01;(0.40744335651397706, 0.7188819673326281);69.4731826782;0.937528071017;11:55:38:582;0;15;1.76129032258065;1;0;0;0;0;1;1;1;1;2;0;0;;0;0;();();(-2000.0, -2000.0);
11:55:38:599;11:55:38:577;1448061096.01;(0.40744335651397706, 0.7188819673326281);69.4731826782;0.937528071017;11:55:38:599;0;4;1.78064516129032;1;0;0;0;0;1;1;1;1;2;0;0;;0;0;();();(-2000.0, -2000.0);
11:55:38:615;11:55:38:577;1448061096.01;(0.40744335651397706, 0.7188819673326281);69.4731826782;0.937528071017;11:55:38:615;0;9;0.538709677419355;1;0;0;0;0;1;1;1;1;2;0;0;;0;0;();();(-2000.0, -2000.0);
11:55:38:649;11:55:38:640;1448061096.08;(0.41580610275268554, 0.7108798344930013);70.9384536743;0.958707047977;11:55:38:649;0;10;-1.5;1;0;0;0;0;1;1;1;1;2;0;0;;0;0;();();(-2000.0, -2000.0);
11:55:38:666;11:55:38:640;1448061096.08;(0.41580610275268554, 0.7108798344930013);70.9384536743;0.958707047977;11:55:38:666;0;5;-1.5;1;0;0;0;0;1;1;1;1;2;0;0;;0;0;();();(-2000.0, -2000.0);
11:55:38:683;11:55:38:640;1448061096.08;(0.41580610275268554, 0.7108798344930013);70.9384536743;0.958707047977;11:55:38:683;0;10;-1.5;1;0;0;0;0;1;1;1;1;2;0;0;;0;0;();();(-2000.0, -2000.0);
11:55:38:699;11:55:38:640;1448061096.08;(0.41580610275268554, 0.7108798344930013);70.9384536743;0.958707047977;11:55:38:699;0;5;-1.5;1;0;0;0;0;1;1;1;1;2;0;0;;0;0;();();(-2000.0, -2000.0);
11:55:38:716;11:55:38:708;1448061096.16;(0.4246355533599854, 0.7039050632052951);69.4589996338;1.0;11:55:38:716;0;9;1.79032258064516;1;0;0;0;0;1;1;1;1;2;0;0;;0;0;();();(-2000.0, -2000.0);
11:55:38:749;11:55:38:708;1448061096.16;(0.4246355533599854, 0.7039050632052951);69.4589996338;1.0;11:55:38:749;0;15;1.78064516129032;1;0;0;0;0;1;1;1;1;2;0;0;;0;0;();();(-2000.0, -2000.0);
11:55:38:765;11:55:38:708;1448061096.16;(0.4246355533599854, 0.7039050632052951);69.4589996338;1.0;11:55:38:765;0;4;-0.445161290322581;1;0;0;0;0;1;1;1;1;2;0;0;;0;0;();();(-2000.0, -2000.0);
11:55:38:782;11:55:38:773;1448061096.24;(0.22446982860565184, 0.5017377641465929);19.3141555786;0.657326432127;11:55:38:782;0;0;1.77741935483871;1;0;0;0;0;1;1;1;1;2;0;0;;0;0;();();(-2000.0, -2000.0);
11:55:38:799;11:55:38:773;1448061096.24;(0.22446982860565184, 0.5017377641465929);19.3141555786;0.657326432127;11:55:38:799;0;4;0.380645161290323;1;0;0;0;0;1;1;1;1;2;0;0;;0;0;();();(-2000.0, -2000.0);
11:55:38:816;11:55:38:773;1448061096.24;(0.22446982860565184, 0.5017377641465929);19.3141555786;0.657326432127;11:55:38:816;0;10;1.78064516129032;1;0;0;0;0;1;1;1;1;2;0;0;;0;0;();();(-2000.0, -2000.0);
11:55:38:849;11:55:38:842;1448061096.25;(0.43906774520874026, 0.6520798365275065);64.8114547729;0.804660598444;11:55:38:849;0;10;-1.5;1;0;0;0;0;1;1;1;1;2;0;0;;0;0;();();(-2000.0, -2000.0);
11:55:38:866;11:55:38:842;1448061096.25;(0.43906774520874026, 0.6520798365275065);64.8114547729;0.804660598444;11:55:38:866;0;0;-1.5;1;0;0;0;0;1;1;1;1;2;0;0;;0;0;();();(-2000.0, -2000.0);
11:55:38:882;11:55:38:842;1448061096.25;(0.43906774520874026, 0.6520798365275065);64.8114547729;0.804660598444;11:55:38:882;0;9;-1.5;1;0;0;0;0;1;1;1;1;2;0;0;;0;0;();();(-2000.0, -2000.0);
11:55:38:899;11:55:38:842;1448061096.25;(0.43906774520874026, 0.6520798365275065);64.8114547729;0.804660598444;11:55:38:899;0;15;-1.5;1;0;0;0;0;1;1;1;1;2;0;0;;0;0;();();(-2000.0, -2000.0);
11:55:38:916;11:55:38:908;1448061096.29;(0.20996381044387818, 0.507665506998698);34.4639015198;0.600422053866;11:55:38:916;0;10;1.78064516129032;1;0;0;0;0;1;1;1;1;2;0;0;;0;0;();();(-2000.0, -2000.0);
11:55:38:949;11:55:38:908;1448061096.29;(0.20996381044387818, 0.507665506998698);34.4639015198;0.600422053866;11:55:38:949;0;10;-0.319354838709677;1;0;0;0;0;1;1;1;1;2;0;0;;0;0;();();(-2000.0, -2000.0);
11:55:38:965;11:55:38:908;1448061096.29;(0.20996381044387818, 0.507665506998698);34.4639015198;0.600422053866;11:55:38:965;0;5;-1.5;1;0;0;0;0;1;1;1;1;2;0;0;;0;0;();();(-2000.0, -2000.0);
11:55:38:982;11:55:38:908;1448061096.29;(0.20996381044387818, 0.507665506998698);34.4639015198;0.600422053866;11:55:38:982;0;5;-1.5;1;0;0;0;0;1;1;1;1;2;0;0;;0;0;();();(-2000.0, -2000.0);
11:55:38:999;11:55:38:908;1448061096.29;(0.20996381044387818, 0.507665506998698);34.4639015198;0.600422053866;11:55:38:999;0;15;-1.5;1;0;0;0;0;1;1;1;1;2;0;0;;0;0;();();(-2000.0, -2000.0);
11:55:39:016;11:55:38:908;1448061096.29;(0.20996381044387818, 0.507665506998698);34.4639015198;0.600422053866;11:55:39:016;0;4;-1.5;1;0;0;0;0;1;1;1;1;2;0;0;;0;0;();();(-2000.0, -2000.0);
11:55:39:049;11:55:39:040;1448061096.34;(0.4942616939544678, 0.5161783854166666);47.3035163879;0.705849152669;11:55:39:049;0;4;-1.5;1;0;0;0;0;1;1;1;1;2;0;0;;0;0;();();(-2000.0, -2000.0);
11:55:39:066;11:55:39:040;1448061096.34;(0.4942616939544678, 0.5161783854166666);47.3035163879;0.705849152669;11:55:39:065;0;10;-1.5;1;0;0;0;0;1;1;1;1;2;0;0;;0;0;();();(-2000.0, -2000.0);
11:55:39:083;11:55:39:040;1448061096.34;(0.4942616939544678, 0.5161783854166666);47.3035163879;0.705849152669;11:55:39:083;0;4;-1.5;1;0;0;0;0;1;1;1;1;2;0;0;;0;0;();();(-2000.0, -2000.0);
11:55:39:099;11:55:39:040;1448061096.34;(0.4942616939544678, 0.5161783854166666);47.3035163879;0.705849152669;11:55:39:099;0;15;-1.5;1;0;0;0;0;1;1;1;1;2;0;0;;0;0;();();(-2000.0, -2000.0);
11:55:39:116;11:55:39:040;1448061096.34;(0.4942616939544678, 0.5161783854166666);47.3035163879;0.705849152669;11:55:39:116;0;5;1.78064516129032;1;0;0;0;0;1;1;1;1;2;0;0;;0;0;();();(-2000.0, -2000.0);
11:55:39:149;11:55:39:040;1448061096.34;(0.4942616939544678, 0.5161783854166666);47.3035163879;0.705849152669;11:55:39:149;0;4;-1.5;1;0;0;0;0;1;1;1;1;2;0;0;;0;0;();();(-2000.0, -2000.0);
11:55:39:166;11:55:39:040;1448061096.34;(0.4942616939544678, 0.5161783854166666);47.3035163879;0.705849152669;11:55:39:166;0;15;-1.5;1;0;0;0;0;1;1;1;1;2;0;0;;0;0;();();(-2000.0, -2000.0);
11:55:39:182;11:55:39:040;1448061096.34;(0.4942616939544678, 0.5161783854166666);47.3035163879;0.705849152669;11:55:39:182;0;4;0.809677419354839;1;0;0;0;0;1;1;1;1;2;0;0;;0;0;();();(-2000.0, -2000.0);
11:55:39:199;11:55:39:040;1448061096.34;(0.4942616939544678, 0.5161783854166666);47.3035163879;0.705849152669;11:55:39:199;0;9;1.77741935483871;1;0;0;0;0;1;1;1;1;2;0;0;;0;0;();();(-2000.0, -2000.0);
11:55:39:216;11:55:39:040;1448061096.34;(0.4942616939544678, 0.5161783854166666);47.3035163879;0.705849152669;11:55:39:216;0;15;1.78064516129032;1;0;0;0;0;1;1;1;1;2;0;0;;0;0;();();(-2000.0, -2000.0);
11:55:39:250;11:55:39:240;1448061096.48;(0.4588313579559326, 0.5443100823296441);96.5090026855;0.61996551578;11:55:39:250;0;15;1.78064516129032;1;0;0;0;0;1;1;1;1;2;0;0;;0;0;();();(-2000.0, -2000.0);
11:55:39:266;11:55:39:240;1448061096.48;(0.4588313579559326, 0.5443100823296441);96.5090026855;0.61996551578;11:55:39:266;0;4;-1.5;1;0;0;0;0;1;1;1;1;2;0;0;;0;0;();();(-2000.0, -2000.0);
11:55:39:283;11:55:39:240;1448061096.48;(0.4588313579559326, 0.5443100823296441);96.5090026855;0.61996551578;11:55:39:283;0;0;-1.5;1;0;0;0;0;1;1;1;1;2;0;0;;0;0;();();(-2000.0, -2000.0);
11:55:39:299;11:55:39:240;1448061096.48;(0.4588313579559326, 0.5443100823296441);96.5090026855;0.61996551578;11:55:39:299;0;10;-1.5;1;0;0;0;0;1;1;1;1;2;0;0;;0;0;();();(-2000.0, -2000.0);
11:55:39:316;11:55:39:305;1448061096.77;(0.4761226654052734, 0.538117938571506);65.3548049927;1.0;11:55:39:316;0;15;-1.5;1;0;0;0;0;1;1;1;1;2;0;0;;0;0;();();(-2000.0, -2000.0);
11:55:39:350;11:55:39:305;1448061096.77;(0.4761226654052734, 0.538117938571506);65.3548049927;1.0;11:55:39:350;0;15;-1.5;1;0;0;0;0;1;1;1;1;2;0;0;;0;0;();();(-2000.0, -2000.0);
11:55:39:366;11:55:39:305;1448061096.77;(0.4761226654052734, 0.538117938571506);65.3548049927;1.0;11:55:39:366;0;5;-1.5;1;0;0;0;0;1;1;1;1;2;0;0;;0;0;();();(-2000.0, -2000.0);
11:55:39:383;11:55:39:373;1448061096.81;(0.4700786590576172, 0.5392587025960287);66.4351348877;1.0;11:55:39:383;0;15;-1.5;1;0;0;0;0;1;1;1;1;2;0;0;;0;0;();();(-2000.0, -2000.0);
11:55:39:399;11:55:39:373;1448061096.81;(0.4700786590576172, 0.5392587025960287);66.4351348877;1.0;11:55:39:399;0;10;-1.5;1;0;0;0;0;1;1;1;1;2;0;0;;0;0;();();(-2000.0, -2000.0);
11:55:39:416;11:55:39:373;1448061096.81;(0.4700786590576172, 0.5392587025960287);66.4351348877;1.0;11:55:39:416;0;15;-1.5;1;0;0;0;0;1;1;1;1;2;0;0;;0;0;();();(-2000.0, -2000.0);
11:55:39:449;11:55:39:436;1448061096.91;(0.46456480026245117, 0.5383754730224609);67.6156692505;0.847102706169;11:55:39:449;0;0;1.78064516129032;1;0;0;0;0;1;1;1;1;2;0;0;;0;0;();();(-2000.0, -2000.0);
11:55:39:466;11:55:39:436;1448061096.91;(0.46456480026245117, 0.5383754730224609);67.6156692505;0.847102706169;11:55:39:466;0;10;1.77741935483871;1;0;0;0;0;1;1;1;1;2;0;0;;0;0;();();(-2000.0, -2000.0);
11:55:39:483;11:55:39:436;1448061096.91;(0.46456480026245117, 0.5383754730224609);67.6156692505;0.847102706169;11:55:39:483;0;15;-1.5;1;0;0;0;0;1;1;1;1;2;0;0;;0;0;();();(-2000.0, -2000.0);
11:55:39:499;11:55:39:436;1448061096.91;(0.46456480026245117, 0.5383754730224609);67.6156692505;0.847102706169;11:55:39:499;0;4;-1.5;1;0;0;0;0;1;1;1;1;2;0;0;;0;0;();();(-2000.0, -2000.0);
11:55:39:516;11:55:39:504;1448061096.98;(0.46269612312316893, 0.5350657569037544);67.8909301758;0.950891958399;11:55:39:516;0;9;-1.5;1;0;0;0;0;1;1;1;1;2;0;0;;0;0;();();(-2000.0, -2000.0);
11:55:39:550;11:55:39:504;1448061096.98;(0.46269612312316893, 0.5350657569037544);67.8909301758;0.950891958399;11:55:39:550;0;15;-1.28387096774194;1;0;0;0;0;1;1;1;1;2;0;0;;0;0;();();(-2000.0, -2000.0);
11:55:39:566;11:55:39:504;1448061096.98;(0.46269612312316893, 0.5350657569037544);67.8909301758;0.950891958399;11:55:39:566;0;4;-1.5;1;0;0;0;0;1;1;1;1;2;0;0;;0;0;();();(-2000.0, -2000.0);
11:55:39:583;11:55:39:572;1448061097.05;(0.4636058330535889, 0.5315251668294271);68.1758499146;0.891669487728;11:55:39:583;0;4;-1.5;1;0;0;0;0;1;1;1;1;2;0;0;;0;0;();();(-2000.0, -2000.0);
11:55:39:603;11:55:39:572;1448061097.05;(0.4636058330535889, 0.5315251668294271);68.1758499146;0.891669487728;11:55:39:603;0;4;-1.5;1;0;0;0;0;1;1;1;1;4;0;0;;0;0;();();(-2000.0, -2000.0);
11:55:39:616;11:55:39:572;1448061097.05;(0.4636058330535889, 0.5315251668294271);68.1758499146;0.891669487728;11:55:39:616;0;4;-1.5;1;0;0;0;0;1;1;1;1;4;0;0;;0;0;();();(-2000.0, -2000.0);
11:55:39:649;11:55:39:636;1448061097.08;(0.4657418727874756, 0.5276279873318143);68.4077224731;1.0;11:55:39:649;0;10;-1.5;1;0;0;0;0;1;1;1;1;4;0;0;;0;0;();();(-2000.0, -2000.0);
11:55:39:666;11:55:39:636;1448061097.08;(0.4657418727874756, 0.5276279873318143);68.4077224731;1.0;11:55:39:666;0;4;-1.5;1;0;0;0;0;1;1;1;1;4;0;0;;0;0;();();(-2000.0, -2000.0);
11:55:39:682;11:55:39:636;1448061097.08;(0.4657418727874756, 0.5276279873318143);68.4077224731;1.0;11:55:39:682;0;10;-1.5;1;0;0;0;0;1;1;1;1;4;0;0;;0;0;();();(-2000.0, -2000.0);
11:55:39:700;11:55:39:636;1448061097.08;(0.4657418727874756, 0.5276279873318143);68.4077224731;1.0;11:55:39:700;0;15;-1.5;1;0;0;0;0;1;1;1;1;4;0;0;;0;0;();();(-2000.0, -2000.0);
11:55:39:716;11:55:39:704;1448061097.18;(0.28508131504058837, 0.40366198221842453);18.2647800446;0.742377039078;11:55:39:716;0;4;-1.5;1;0;0;0;0;1;1;1;1;4;0;0;;0;0;();();(-2000.0, -2000.0);
11:55:39:750;11:55:39:704;1448061097.18;(0.28508131504058837, 0.40366198221842453);18.2647800446;0.742377039078;11:55:39:750;0;10;-1.5;1;0;0;0;0;1;1;1;1;4;0;0;;0;0;();();(-2000.0, -2000.0);
11:55:39:766;11:55:39:704;1448061097.18;(0.28508131504058837, 0.40366198221842453);18.2647800446;0.742377039078;11:55:39:766;0;0;-1.5;1;0;0;0;0;1;1;1;1;4;0;0;;0;0;();();(-2000.0, -2000.0);
11:55:39:783;11:55:39:768;1448061097.21;(0, 0);0;0;11:55:39:783;0;5;-1.5;1;0;0;0;0;1;1;1;1;4;0;0;;0;0;();();(-2000.0, -2000.0);
11:55:39:800;11:55:39:768;1448061097.21;(0, 0);0;0;11:55:39:800;0;15;-1.5;1;0;0;0;0;1;1;1;1;4;0;0;;0;0;();();(-2000.0, -2000.0);
11:55:39:816;11:55:39:768;1448061097.21;(0, 0);0;0;11:55:39:816;0;4;1.79032258064516;1;0;0;0;0;1;1;1;1;4;0;0;;0;0;();();(-2000.0, -2000.0);
