%Timestamp,timestamp_write;timestamp_gotpupil;eyetrackertime;norm_pos;diameter;confidence;timestamp_gotbitdata;CRC;SEQ;AnalogOutp1;AnalogOutp2;AnalogOutp3;AnalogOutp4;AnalogOutp5;AnalogOutp6;DigitalOutp1;DigitalOutp2;igitalOutp3;DigitalOutp4;nplanes;lastaction;lastactiondetails;lastactionairplanenumber;positivescore;negativescore;collidedairplanenumbers;targetpositions;collision_point
04:37:48:636;1448034826.66;(0, 0);0;0;;;;;;;;;;;;;;0;0;0;;0;0;();();(0.0, 0.0);
04:37:48:641;1448034826.66;(0, 0);0;0;;;;;;;;;;;;;;0;0;0;;0;0;();();(-2000.0, -2000.0);
04:37:48:642;1448034826.66;(0, 0);0;0;;;;;;;;;;;;;;0;0;0;;0;0;();();(-2000.0, -2000.0);
04:37:48:642;1448034826.66;(0, 0);0;0;;;;;;;;;;;;;;0;0;0;;0;0;();();(-2000.0, -2000.0);
04:37:48:642;1448034826.66;(0, 0);0;0;;;;;;;;;;;;;;0;0;0;;0;0;();();(-2000.0, -2000.0);
04:37:48:642;1448034826.66;(0, 0);0;0;;;;;;;;;;;;;;0;0;0;;0;0;();();(-2000.0, -2000.0);
04:37:48:642;1448034826.66;(0, 0);0;0;;;;;;;;;;;;;;0;0;0;;0;0;();();(-2000.0, -2000.0);
04:37:48:643;1448034826.66;(0, 0);0;0;;;;;;;;;;;;;;0;0;0;;0;0;();();(-2000.0, -2000.0);
04:37:48:643;1448034826.66;(0, 0);0;0;;;;;;;;;;;;;;0;0;0;;0;0;();();(-2000.0, -2000.0);
04:37:48:643;1448034826.66;(0, 0);0;0;;;;;;;;;;;;;;0;0;0;;0;0;();();(-2000.0, -2000.0);
04:37:48:643;1448034826.66;(0, 0);0;0;;;;;;;;;;;;;;0;0;0;;0;0;();();(-2000.0, -2000.0);
04:37:48:643;1448034826.66;(0, 0);0;0;;;;;;;;;;;;;;0;0;0;;0;0;();();(-2000.0, -2000.0);
04:37:48:644;1448034826.66;(0, 0);0;0;;;;;;;;;;;;;;0;0;0;;0;0;();();(-2000.0, -2000.0);
04:37:48:644;1448034826.66;(0, 0);0;0;;;;;;;;;;;;;;0;0;0;;0;0;();();(-2000.0, -2000.0);
04:37:48:644;1448034826.66;(0, 0);0;0;;;;;;;;;;;;;;0;0;0;;0;0;();();(-2000.0, -2000.0);
04:37:48:644;1448034826.66;(0, 0);0;0;;;;;;;;;;;;;;0;0;0;;0;0;();();(-2000.0, -2000.0);
04:37:48:645;1448034826.66;(0, 0);0;0;;;;;;;;;;;;;;0;0;0;;0;0;();();(-2000.0, -2000.0);
04:37:48:668;1448034826.66;(0, 0);0;0;;;;;;;;;;;;;;0;0;0;;0;0;();();(-2000.0, -2000.0);
04:37:48:685;1448034826.66;(0, 0);0;0;;;;;;;;;;;;;;0;0;0;;0;0;();();(-2000.0, -2000.0);
04:37:48:702;04:37:48:695;1448034826.74;(0.3550794363021851, 0.7099960115220811);21.8497276306;0.756238719536;;;;;;;;;;;;;;0;0;0;;0;0;();();(-2000.0, -2000.0);
04:37:48:735;04:37:48:695;1448034826.74;(0.3550794363021851, 0.7099960115220811);21.8497276306;0.756238719536;;;;;;;;;;;;;;0;0;0;;0;0;();();(-2000.0, -2000.0);
04:37:48:752;04:37:48:695;1448034826.74;(0.3550794363021851, 0.7099960115220811);21.8497276306;0.756238719536;;;;;;;;;;;;;;0;0;0;;0;0;();();(-2000.0, -2000.0);
04:37:48:768;04:37:48:757;1448034826.76;(0.5943297386169434, 0.7428542878892687);68.9717788696;0.879684143363;;;;;;;;;;;;;;0;0;0;;0;0;();();(-2000.0, -2000.0);
04:37:48:785;04:37:48:757;1448034826.76;(0.5943297386169434, 0.7428542878892687);68.9717788696;0.879684143363;;;;;;;;;;;;;;0;0;0;;0;0;();();(-2000.0, -2000.0);
04:37:50:230;04:37:50:221;1448034828.29;(0.33914732933044434, 0.7935638639662002);19.736700058;0.888209550689;;;;;;;;;;;;;;0;0;0;;0;0;();();(-2000.0, -2000.0);
04:37:50:230;04:37:50:221;1448034828.29;(0.33914732933044434, 0.7935638639662002);19.736700058;0.888209550689;;;;;;;;;;;;;;0;0;0;;0;0;();();(-2000.0, -2000.0);
04:37:50:230;04:37:50:221;1448034828.29;(0.33914732933044434, 0.7935638639662002);19.736700058;0.888209550689;;;;;;;;;;;;;;0;0;0;;0;0;();();(-2000.0, -2000.0);
04:37:50:230;04:37:50:221;1448034828.29;(0.33914732933044434, 0.7935638639662002);19.736700058;0.888209550689;;;;;;;;;;;;;;0;0;0;;0;0;();();(-2000.0, -2000.0);
04:37:50:231;04:37:50:221;1448034828.29;(0.33914732933044434, 0.7935638639662002);19.736700058;0.888209550689;;;;;;;;;;;;;;0;0;0;;0;0;();();(-2000.0, -2000.0);
04:37:50:231;04:37:50:221;1448034828.29;(0.33914732933044434, 0.7935638639662002);19.736700058;0.888209550689;;;;;;;;;;;;;;0;0;0;;0;0;();();(-2000.0, -2000.0);
04:37:50:231;04:37:50:221;1448034828.29;(0.33914732933044434, 0.7935638639662002);19.736700058;0.888209550689;;;;;;;;;;;;;;0;0;0;;0;0;();();(-2000.0, -2000.0);
04:37:50:231;04:37:50:221;1448034828.29;(0.33914732933044434, 0.7935638639662002);19.736700058;0.888209550689;;;;;;;;;;;;;;0;0;0;;0;0;();();(-2000.0, -2000.0);
04:37:50:443;04:37:50:417;1448034828.45;(0.5503081798553466, 0.7078157424926758);70.0820541382;0.967517828534;;;;;;;;;;;;;;0;0;0;;0;0;();();(-2000.0, -2000.0);
04:37:50:443;04:37:50:417;1448034828.45;(0.5503081798553466, 0.7078157424926758);70.0820541382;0.967517828534;;;;;;;;;;;;;;0;0;0;;0;0;();();(-2000.0, -2000.0);
04:37:50:443;04:37:50:417;1448034828.45;(0.5503081798553466, 0.7078157424926758);70.0820541382;0.967517828534;;;;;;;;;;;;;;0;0;0;;0;0;();();(-2000.0, -2000.0);
04:37:50:443;04:37:50:417;1448034828.45;(0.5503081798553466, 0.7078157424926758);70.0820541382;0.967517828534;;;;;;;;;;;;;;0;0;0;;0;0;();();(-2000.0, -2000.0);
04:37:50:444;04:37:50:417;1448034828.45;(0.5503081798553466, 0.7078157424926758);70.0820541382;0.967517828534;;;;;;;;;;;;;;0;0;0;;0;0;();();(-2000.0, -2000.0);
04:37:50:444;04:37:50:417;1448034828.45;(0.5503081798553466, 0.7078157424926758);70.0820541382;0.967517828534;;;;;;;;;;;;;;0;0;0;;0;0;();();(-2000.0, -2000.0);
04:37:50:444;04:37:50:417;1448034828.45;(0.5503081798553466, 0.7078157424926758);70.0820541382;0.967517828534;;;;;;;;;;;;;;0;0;0;;0;0;();();(-2000.0, -2000.0);
04:37:50:444;04:37:50:417;1448034828.45;(0.5503081798553466, 0.7078157424926758);70.0820541382;0.967517828534;;;;;;;;;;;;;;0;0;0;;0;0;();();(-2000.0, -2000.0);
04:37:50:445;04:37:50:417;1448034828.45;(0.5503081798553466, 0.7078157424926758);70.0820541382;0.967517828534;;;;;;;;;;;;;;0;0;0;;0;0;();();(-2000.0, -2000.0);
04:37:50:445;04:37:50:417;1448034828.45;(0.5503081798553466, 0.7078157424926758);70.0820541382;0.967517828534;;;;;;;;;;;;;;0;0;0;;0;0;();();(-2000.0, -2000.0);
04:37:50:445;04:37:50:417;1448034828.45;(0.5503081798553466, 0.7078157424926758);70.0820541382;0.967517828534;;;;;;;;;;;;;;0;0;0;;0;0;();();(-2000.0, -2000.0);
04:37:50:445;04:37:50:417;1448034828.45;(0.5503081798553466, 0.7078157424926758);70.0820541382;0.967517828534;;;;;;;;;;;;;;0;0;0;;0;0;();();(-2000.0, -2000.0);
04:37:50:446;04:37:50:417;1448034828.45;(0.5503081798553466, 0.7078157424926758);70.0820541382;0.967517828534;;;;;;;;;;;;;;0;0;0;;0;0;();();(-2000.0, -2000.0);
04:37:50:446;04:37:50:417;1448034828.45;(0.5503081798553466, 0.7078157424926758);70.0820541382;0.967517828534;;;;;;;;;;;;;;0;0;0;;0;0;();();(-2000.0, -2000.0);
04:37:50:446;04:37:50:417;1448034828.45;(0.5503081798553466, 0.7078157424926758);70.0820541382;0.967517828534;;;;;;;;;;;;;;0;0;0;;0;0;();();(-2000.0, -2000.0);
04:37:50:446;04:37:50:417;1448034828.45;(0.5503081798553466, 0.7078157424926758);70.0820541382;0.967517828534;;;;;;;;;;;;;;0;0;0;;0;0;();();(-2000.0, -2000.0);
04:37:50:446;04:37:50:417;1448034828.45;(0.5503081798553466, 0.7078157424926758);70.0820541382;0.967517828534;;;;;;;;;;;;;;0;0;0;;0;0;();();(-2000.0, -2000.0);
04:37:50:448;04:37:50:417;1448034828.45;(0.5503081798553466, 0.7078157424926758);70.0820541382;0.967517828534;;;;;;;;;;;;;;0;0;0;;0;0;();();(-2000.0, -2000.0);
04:37:50:448;04:37:50:417;1448034828.45;(0.5503081798553466, 0.7078157424926758);70.0820541382;0.967517828534;;;;;;;;;;;;;;0;0;0;;0;0;();();(-2000.0, -2000.0);
04:37:50:470;04:37:50:417;1448034828.45;(0.5503081798553466, 0.7078157424926758);70.0820541382;0.967517828534;;;;;;;;;;;;;;0;0;0;;0;0;();();(-2000.0, -2000.0);
04:37:50:488;04:37:50:417;1448034828.45;(0.5503081798553466, 0.7078157424926758);70.0820541382;0.967517828534;;;;;;;;;;;;;;0;0;0;;0;0;();();(-2000.0, -2000.0);
04:37:50:503;04:37:50:417;1448034828.45;(0.5503081798553466, 0.7078157424926758);70.0820541382;0.967517828534;;;;;;;;;;;;;;0;0;0;;0;0;();();(-2000.0, -2000.0);
04:37:50:520;04:37:50:417;1448034828.45;(0.5503081798553466, 0.7078157424926758);70.0820541382;0.967517828534;;;;;;;;;;;;;;0;0;0;;0;0;();();(-2000.0, -2000.0);
04:37:50:537;04:37:50:417;1448034828.45;(0.5503081798553466, 0.7078157424926758);70.0820541382;0.967517828534;;;;;;;;;;;;;;0;0;0;;0;0;();();(-2000.0, -2000.0);
04:37:50:570;04:37:50:566;1448034828.49;(0.5545560836791992, 0.7082018322414823);69.98412323;1.0;;;;;;;;;;;;;;0;0;0;;0;0;();();(-2000.0, -2000.0);
04:37:50:587;04:37:50:566;1448034828.49;(0.5545560836791992, 0.7082018322414823);69.98412323;1.0;;;;;;;;;;;;;;0;0;0;;0;0;();();(-2000.0, -2000.0);
04:37:50:603;04:37:50:566;1448034828.49;(0.5545560836791992, 0.7082018322414823);69.98412323;1.0;;;;;;;;;;;;;;0;0;0;;0;0;();();(-2000.0, -2000.0);
04:37:50:620;04:37:50:566;1448034828.49;(0.5545560836791992, 0.7082018322414823);69.98412323;1.0;;;;;;;;;;;;;;0;0;0;;0;0;();();(-2000.0, -2000.0);
04:37:50:637;04:37:50:566;1448034828.49;(0.5545560836791992, 0.7082018322414823);69.98412323;1.0;;;;;;;;;;;;;;0;0;0;;0;0;();();(-2000.0, -2000.0);
04:37:50:670;04:37:50:566;1448034828.49;(0.5545560836791992, 0.7082018322414823);69.98412323;1.0;;;;;;;;;;;;;;0;0;0;;0;0;();();(-2000.0, -2000.0);
04:37:50:686;04:37:50:686;1448034828.76;(0.33206658363342284, 0.7685150782267253);21.6760292053;1.0;;;;;;;;;;;;;;0;0;0;;0;0;();();(-2000.0, -2000.0);
04:37:50:702;04:37:50:686;1448034828.76;(0.33206658363342284, 0.7685150782267253);21.6760292053;1.0;;;;;;;;;;;;;;0;0;0;;0;0;();();(-2000.0, -2000.0);
04:37:50:720;04:37:50:686;1448034828.76;(0.33206658363342284, 0.7685150782267253);21.6760292053;1.0;;;;;;;;;;;;;;0;0;0;;0;0;();();(-2000.0, -2000.0);
04:37:50:737;04:37:50:686;1448034828.76;(0.33206658363342284, 0.7685150782267253);21.6760292053;1.0;;;;;;;;;;;;;;0;0;0;;0;0;();();(-2000.0, -2000.0);
04:37:50:770;04:37:50:686;1448034828.76;(0.33206658363342284, 0.7685150782267253);21.6760292053;1.0;;;;;;;;;;;;;;0;0;0;;0;0;();();(-2000.0, -2000.0);
04:37:50:787;04:37:50:686;1448034828.76;(0.33206658363342284, 0.7685150782267253);21.6760292053;1.0;;;;;;;;;;;;;;0;0;0;;0;0;();();(-2000.0, -2000.0);
04:37:50:803;04:37:50:686;1448034828.76;(0.33206658363342284, 0.7685150782267253);21.6760292053;1.0;;;;;;;;;;;;;;0;0;0;;0;0;();();(-2000.0, -2000.0);
04:37:50:820;04:37:50:817;1448034828.79;(0.5236398220062256, 0.69166013929579);70.6214675903;1.0;;;;;;;;;;;;;;0;0;0;;0;0;();();(-2000.0, -2000.0);
04:37:50:837;04:37:50:817;1448034828.79;(0.5236398220062256, 0.69166013929579);70.6214675903;1.0;;;;;;;;;;;;;;0;0;0;;0;0;();();(-2000.0, -2000.0);
04:37:50:870;04:37:50:817;1448034828.79;(0.5236398220062256, 0.69166013929579);70.6214675903;1.0;;;;;;;;;;;;;;0;0;0;;0;0;();();(-2000.0, -2000.0);
04:37:50:886;04:37:50:886;1448034828.93;(0.3383219242095947, 0.826142692565918);29.1589756012;0.878671548167;;;;;;;;;;;;;;0;0;0;;0;0;();();(-2000.0, -2000.0);
04:37:50:904;04:37:50:886;1448034828.93;(0.3383219242095947, 0.826142692565918);29.1589756012;0.878671548167;;;;;;;;;;;;;;0;0;0;;0;0;();();(-2000.0, -2000.0);
04:37:50:920;04:37:50:886;1448034828.93;(0.3383219242095947, 0.826142692565918);29.1589756012;0.878671548167;;;;;;;;;;;;;;0;0;0;;0;0;();();(-2000.0, -2000.0);
04:37:50:937;04:37:50:886;1448034828.93;(0.3383219242095947, 0.826142692565918);29.1589756012;0.878671548167;;;;;;;;;;;;;;0;0;0;;0;0;();();(-2000.0, -2000.0);
04:37:51:491;04:37:51:482;1448034829.53;(0.34263646602630615, 0.795916387769911);36.0490722656;0.643875321117;04:37:51:488;0;9;-1.5;1;0;0;0;0;1;1;1;1;0;0;0;;0;0;();();(-2000.0, -2000.0);
04:37:51:491;04:37:51:482;1448034829.53;(0.34263646602630615, 0.795916387769911);36.0490722656;0.643875321117;04:37:51:491;0;9;-1.5;1;0;0;0;0;1;1;1;1;0;0;0;;0;0;();();(-2000.0, -2000.0);
04:37:51:491;04:37:51:482;1448034829.53;(0.34263646602630615, 0.795916387769911);36.0490722656;0.643875321117;04:37:51:491;0;9;-1.5;1;0;0;0;0;1;1;1;1;0;0;0;;0;0;();();(-2000.0, -2000.0);
04:37:51:492;04:37:51:482;1448034829.53;(0.34263646602630615, 0.795916387769911);36.0490722656;0.643875321117;04:37:51:492;0;11;-1.5;1;0;0;0;0;1;1;1;1;0;0;0;;0;0;();();(-2000.0, -2000.0);
04:37:51:492;04:37:51:482;1448034829.53;(0.34263646602630615, 0.795916387769911);36.0490722656;0.643875321117;04:37:51:492;0;1;-1.5;1;0;0;0;0;1;1;1;1;0;0;0;;0;0;();();(-2000.0, -2000.0);
04:37:51:492;04:37:51:482;1448034829.53;(0.34263646602630615, 0.795916387769911);36.0490722656;0.643875321117;04:37:51:492;0;5;-1.5;1;0;0;0;0;1;1;1;1;0;0;0;;0;0;();();(-2000.0, -2000.0);
04:37:51:492;04:37:51:482;1448034829.53;(0.34263646602630615, 0.795916387769911);36.0490722656;0.643875321117;04:37:51:492;0;5;-1.5;1;0;0;0;0;1;1;1;1;0;0;0;;0;0;();();(-2000.0, -2000.0);
04:37:51:493;04:37:51:482;1448034829.53;(0.34263646602630615, 0.795916387769911);36.0490722656;0.643875321117;04:37:51:493;0;5;-1.5;1;0;0;0;0;1;1;1;1;0;0;0;;0;0;();();(-2000.0, -2000.0);
04:37:51:493;04:37:51:482;1448034829.53;(0.34263646602630615, 0.795916387769911);36.0490722656;0.643875321117;04:37:51:493;0;5;-1.5;1;0;0;0;0;1;1;1;1;0;0;0;;0;0;();();(-2000.0, -2000.0);
04:37:51:493;04:37:51:482;1448034829.53;(0.34263646602630615, 0.795916387769911);36.0490722656;0.643875321117;04:37:51:493;0;5;-1.5;1;0;0;0;0;1;1;1;1;0;0;0;;0;0;();();(-2000.0, -2000.0);
04:37:51:493;04:37:51:482;1448034829.53;(0.34263646602630615, 0.795916387769911);36.0490722656;0.643875321117;04:37:51:493;0;5;-1.5;1;0;0;0;0;1;1;1;1;0;0;0;;0;0;();();(-2000.0, -2000.0);
04:37:51:493;04:37:51:482;1448034829.53;(0.34263646602630615, 0.795916387769911);36.0490722656;0.643875321117;04:37:51:493;0;5;-1.5;1;0;0;0;0;1;1;1;1;0;0;0;;0;0;();();(-2000.0, -2000.0);
04:37:51:494;04:37:51:482;1448034829.53;(0.34263646602630615, 0.795916387769911);36.0490722656;0.643875321117;04:37:51:494;0;5;-1.5;1;0;0;0;0;1;1;1;1;0;0;0;;0;0;();();(-2000.0, -2000.0);
04:37:51:494;04:37:51:482;1448034829.53;(0.34263646602630615, 0.795916387769911);36.0490722656;0.643875321117;04:37:51:494;0;5;-1.5;1;0;0;0;0;1;1;1;1;0;0;0;;0;0;();();(-2000.0, -2000.0);
04:37:51:494;04:37:51:482;1448034829.53;(0.34263646602630615, 0.795916387769911);36.0490722656;0.643875321117;04:37:51:494;0;5;-1.5;1;0;0;0;0;1;1;1;1;0;0;0;;0;0;();();(-2000.0, -2000.0);
04:37:51:494;04:37:51:482;1448034829.53;(0.34263646602630615, 0.795916387769911);36.0490722656;0.643875321117;04:37:51:494;0;5;-1.5;1;0;0;0;0;1;1;1;1;0;0;0;;0;0;();();(-2000.0, -2000.0);
04:37:51:495;04:37:51:482;1448034829.53;(0.34263646602630615, 0.795916387769911);36.0490722656;0.643875321117;04:37:51:495;0;5;-1.5;1;0;0;0;0;1;1;1;1;0;0;0;;0;0;();();(-2000.0, -2000.0);
04:37:51:495;04:37:51:482;1448034829.53;(0.34263646602630615, 0.795916387769911);36.0490722656;0.643875321117;04:37:51:495;0;5;-1.5;1;0;0;0;0;1;1;1;1;0;0;0;;0;0;();();(-2000.0, -2000.0);
04:37:51:521;04:37:51:482;1448034829.53;(0.34263646602630615, 0.795916387769911);36.0490722656;0.643875321117;04:37:51:521;0;9;-1.5;1;0;0;0;0;1;1;1;1;0;0;0;;0;0;();();(-2000.0, -2000.0);
04:37:51:537;04:37:51:482;1448034829.53;(0.34263646602630615, 0.795916387769911);36.0490722656;0.643875321117;04:37:51:537;0;9;-1.5;1;0;0;0;0;1;1;1;1;0;0;0;;0;0;();();(-2000.0, -2000.0);
04:37:51:555;04:37:51:545;1448034829.59;(0.3396917343139648, 0.8045054117838542);33.1223640442;0.782559492697;04:37:51:555;0;10;-1.5;170.5;1.17302052785924;0;0;0;1;1;1;1;0;0;0;;0;0;();();(-2000.0, -2000.0);
04:37:51:588;04:37:51:545;1448034829.59;(0.3396917343139648, 0.8045054117838542);33.1223640442;0.782559492697;04:37:51:588;0;10;-1.5;146.142857142857;1.46627565982405;0;0;0;1;1;1;1;0;0;0;;0;0;();();(-2000.0, -2000.0);
04:37:51:604;04:37:51:545;1448034829.59;(0.3396917343139648, 0.8045054117838542);33.1223640442;0.782559492697;04:37:51:604;0;4;-1.5;170.5;1.17302052785924;0;0;0;1;1;1;1;0;0;0;;0;0;();();(-2000.0, -2000.0);
04:37:51:621;04:37:51:545;1448034829.59;(0.3396917343139648, 0.8045054117838542);33.1223640442;0.782559492697;04:37:51:621;0;9;-1.5;146.142857142857;1.46627565982405;0;0;0;1;1;1;1;0;0;0;;0;0;();();(-2000.0, -2000.0);
04:37:51:638;04:37:51:545;1448034829.59;(0.3396917343139648, 0.8045054117838542);33.1223640442;0.782559492697;04:37:51:638;0;0;-1.5;170.5;1.17302052785924;0;0;0;1;1;1;1;0;0;0;;0;0;();();(-2000.0, -2000.0);
04:37:51:670;04:37:51:545;1448034829.59;(0.3396917343139648, 0.8045054117838542);33.1223640442;0.782559492697;04:37:51:670;0;15;-1.5;85.2500000000001;1.85728250244379;0;0;0;1;1;1;1;0;0;0;;0;0;();();(-2000.0, -2000.0);
04:37:51:688;04:37:51:545;1448034829.59;(0.3396917343139648, 0.8045054117838542);33.1223640442;0.782559492697;04:37:51:688;0;4;-1.5;170.5;1.17302052785924;0;0;0;1;1;1;1;0;0;0;;0;0;();();(-2000.0, -2000.0);
04:37:51:705;04:37:51:545;1448034829.59;(0.3396917343139648, 0.8045054117838542);33.1223640442;0.782559492697;04:37:51:705;0;15;-1.5;146.142857142857;1.46627565982405;0;0;0;1;1;1;1;0;0;0;;0;0;();();(-2000.0, -2000.0);
04:37:51:720;04:37:51:545;1448034829.59;(0.3396917343139648, 0.8045054117838542);33.1223640442;0.782559492697;04:37:51:720;0;10;-1.5;170.5;1.17302052785924;0;0;0;1;1;1;1;0;0;0;;0;0;();();(-2000.0, -2000.0);
04:37:51:738;04:37:51:545;1448034829.59;(0.3396917343139648, 0.8045054117838542);33.1223640442;0.782559492697;04:37:51:738;0;10;-1.5;170.5;1.17302052785924;0;0;0;1;1;1;1;0;0;0;;0;0;();();(-2000.0, -2000.0);
04:37:51:754;04:37:51:746;1448034829.8;(0.624332332611084, 0.6701628790961371);70.7679367065;0.939739322084;04:37:51:754;0;5;-1.5;170.5;1.17302052785924;0;0;0;1;1;1;1;0;0;0;;0;0;();();(-2000.0, -2000.0);
04:37:51:788;04:37:51:746;1448034829.8;(0.624332332611084, 0.6701628790961371);70.7679367065;0.939739322084;04:37:51:788;0;5;-1.5;170.5;1.17302052785924;0;0;0;1;1;1;1;0;0;0;;0;0;();();(-2000.0, -2000.0);
04:37:51:805;04:37:51:746;1448034829.8;(0.624332332611084, 0.6701628790961371);70.7679367065;0.939739322084;04:37:51:805;0;10;-1.5;170.5;1.17302052785924;0;0;0;1;1;1;1;0;0;0;;0;0;();();(-2000.0, -2000.0);
04:37:51:821;04:37:51:814;1448034829.89;(0.6237476825714111, 0.6737362755669487);70.3892211914;1.0;04:37:51:821;0;5;-1.5;170.5;1.17302052785924;0;0;0;1;1;1;1;0;0;0;;0;0;();();(-2000.0, -2000.0);
04:37:51:838;04:37:51:814;1448034829.89;(0.6237476825714111, 0.6737362755669487);70.3892211914;1.0;04:37:51:838;0;10;-1.5;1;0;0;0;0;1;1;1;1;0;0;0;;0;0;();();(-2000.0, -2000.0);
04:37:51:854;04:37:51:814;1448034829.89;(0.6237476825714111, 0.6737362755669487);70.3892211914;1.0;04:37:51:854;0;4;-1.5;1;0;0;0;0;1;1;1;1;0;0;0;;0;0;();();(-2000.0, -2000.0);
04:37:51:886;04:37:51:877;1448034829.92;(0.6232646465301513, 0.6736246532864041);70.2539901733;1.0;04:37:51:886;0;4;-1.5;1;0;0;0;0;1;1;1;1;0;0;0;;0;0;();();(-2000.0, -2000.0);
04:37:51:904;04:37:51:877;1448034829.92;(0.6232646465301513, 0.6736246532864041);70.2539901733;1.0;04:37:51:904;0;10;-1.5;1;0;0;0;0;1;1;1;1;0;0;0;;0;0;();();(-2000.0, -2000.0);
04:37:51:921;04:37:51:877;1448034829.92;(0.6232646465301513, 0.6736246532864041);70.2539901733;1.0;04:37:51:921;0;13;-1.5;170.5;1.17302052785924;0;0;0;1;1;1;1;0;0;0;;0;0;();();(-2000.0, -2000.0);
04:37:51:938;04:37:51:877;1448034829.92;(0.6232646465301513, 0.6736246532864041);70.2539901733;1.0;04:37:51:938;0;9;-1.5;170.5;1.17302052785924;0;0;0;1;1;1;1;0;0;0;;0;0;();();(-2000.0, -2000.0);
04:37:51:954;04:37:51:946;1448034829.99;(0.6225005626678467, 0.67380494011773);70.4443969727;1.0;04:37:51:954;0;0;-1.5;170.5;1.17302052785924;0;0;0;1;1;1;1;0;0;0;;0;0;();();(-2000.0, -2000.0);
04:37:51:987;04:37:51:946;1448034829.99;(0.6225005626678467, 0.67380494011773);70.4443969727;1.0;04:37:51:987;0;15;-1.5;170.5;1.17302052785924;0;0;0;1;1;1;1;0;0;0;;0;0;();();(-2000.0, -2000.0);
04:37:52:004;04:37:51:946;1448034829.99;(0.6225005626678467, 0.67380494011773);70.4443969727;1.0;04:37:52:004;0;9;-1.5;170.5;1.17302052785924;0;0;0;1;1;1;1;0;0;0;;0;0;();();(-2000.0, -2000.0);
04:37:52:021;04:37:52:014;1448034830.06;(0.6397382259368897, 0.6551627688937717);70.0383605957;1.0;04:37:52:021;0;15;-1.5;170.5;1.17302052785924;0;0;0;1;1;1;1;0;0;0;;0;0;();();(-2000.0, -2000.0);
04:37:52:038;04:37:52:014;1448034830.06;(0.6397382259368897, 0.6551627688937717);70.0383605957;1.0;04:37:52:038;0;4;-1.5;170.5;1.17302052785924;0;0;0;1;1;1;1;0;0;0;;0;0;();();(-2000.0, -2000.0);
04:37:52:054;04:37:52:014;1448034830.06;(0.6397382259368897, 0.6551627688937717);70.0383605957;1.0;04:37:52:054;0;0;-1.5;170.5;1.17302052785924;0;0;0;1;1;1;1;0;0;0;;0;0;();();(-2000.0, -2000.0);
04:37:52:088;04:37:52:014;1448034830.06;(0.6397382259368897, 0.6551627688937717);70.0383605957;1.0;04:37:52:088;0;15;-1.5;341;0.684261974584555;0;0;0;1;1;1;1;0;0;0;;0;0;();();(-2000.0, -2000.0);
04:37:52:104;04:37:52:099;1448034830.12;(0.6387115001678467, 0.6558586968315971);70.2444000244;1.0;04:37:52:104;0;9;-1.5;146.142857142857;1.46627565982405;0;0;0;1;1;1;1;0;0;0;;0;0;();();(-2000.0, -2000.0);
04:37:52:121;04:37:52:099;1448034830.12;(0.6387115001678467, 0.6558586968315971);70.2444000244;1.0;04:37:52:121;0;15;-1.5;170.5;1.17302052785924;0;0;0;1;1;1;1;0;0;0;;0;0;();();(-2000.0, -2000.0);
04:37:52:137;04:37:52:099;1448034830.12;(0.6387115001678467, 0.6558586968315971);70.2444000244;1.0;04:37:52:137;0;10;-1.5;170.5;1.17302052785924;0;0;0;1;1;1;1;0;0;0;;0;0;();();(-2000.0, -2000.0);
04:37:52:154;04:37:52:146;1448034830.22;(0.6371290683746338, 0.658725463019477);70.2183456421;1.0;04:37:52:154;0;10;-1.5;170.5;1.17302052785924;0;0;0;1;1;1;1;0;0;0;;0;0;();();(-2000.0, -2000.0);
04:37:52:188;04:37:52:146;1448034830.22;(0.6371290683746338, 0.658725463019477);70.2183456421;1.0;04:37:52:188;0;15;-1.5;170.5;1.17302052785924;0;0;0;1;1;1;1;0;0;0;;0;0;();();(-2000.0, -2000.0);
04:37:52:204;04:37:52:146;1448034830.22;(0.6371290683746338, 0.658725463019477);70.2183456421;1.0;04:37:52:204;0;5;-1.5;85.2500000000001;1.85728250244379;0;0;0;1;1;1;1;0;0;0;;0;0;();();(-2000.0, -2000.0);
04:37:52:221;04:37:52:209;1448034830.26;(0.34181716442108157, 0.8097736570570204);32.6601371765;0.674293471509;04:37:52:221;0;10;-1.5;1;0;0;0;0;1;1;1;1;0;0;0;;0;0;();();(-2000.0, -2000.0);
04:37:52:238;04:37:52:209;1448034830.26;(0.34181716442108157, 0.8097736570570204);32.6601371765;0.674293471509;04:37:52:238;0;4;-1.5;1;0;0;0;0;1;1;1;1;0;0;0;;0;0;();();(-2000.0, -2000.0);
04:37:52:254;04:37:52:209;1448034830.26;(0.34181716442108157, 0.8097736570570204);32.6601371765;0.674293471509;04:37:52:254;0;9;-1.5;1;0;0;0;0;1;1;1;1;0;0;0;;0;0;();();(-2000.0, -2000.0);
04:37:52:288;04:37:52:277;1448034830.32;(0.6036929607391357, 0.6984684414333767);71.5144424438;1.0;04:37:52:288;0;10;-1.5;1.99415204678363;0;0;0;0;1;1;1;1;0;0;0;;0;0;();();(-2000.0, -2000.0);
04:37:52:305;04:37:52:277;1448034830.32;(0.6036929607391357, 0.6984684414333767);71.5144424438;1.0;04:37:52:305;0;5;-1.5;170.5;1.17302052785924;0;0;0;1;1;1;1;0;0;0;;0;0;();();(-2000.0, -2000.0);
04:37:52:322;04:37:52:277;1448034830.32;(0.6036929607391357, 0.6984684414333767);71.5144424438;1.0;04:37:52:322;0;10;-1.5;1;0;0;0;0;1;1;1;1;0;0;0;;0;0;();();(-2000.0, -2000.0);
04:37:52:338;04:37:52:277;1448034830.32;(0.6036929607391357, 0.6984684414333767);71.5144424438;1.0;04:37:52:338;0;4;-1.5;1;0;0;0;0;1;1;1;1;0;0;0;;0;0;();();(-2000.0, -2000.0);
04:37:52:355;04:37:52:347;1448034830.39;(0.6043585777282715, 0.6998873604668512);71.3069152832;1.0;04:37:52:355;0;9;-1.5;1;0;0;0;0;1;1;1;1;0;0;0;;0;0;();();(-2000.0, -2000.0);
04:37:52:388;04:37:52:347;1448034830.39;(0.6043585777282715, 0.6998873604668512);71.3069152832;1.0;04:37:52:388;0;10;-1.5;1;0;0;0;0;1;1;1;1;0;0;0;;0;0;();();(-2000.0, -2000.0);
04:37:52:405;04:37:52:347;1448034830.39;(0.6043585777282715, 0.6998873604668512);71.3069152832;1.0;04:37:52:405;0;15;-1.5;1;0;0;0;0;1;1;1;1;0;0;0;;0;0;();();(-2000.0, -2000.0);
04:37:52:422;04:37:52:410;1448034830.46;(0.604724931716919, 0.7009626388549804);71.6907577515;1.0;04:37:52:422;0;9;-1.5;1;0;0;0;0;1;1;1;1;0;0;0;;0;0;();();(-2000.0, -2000.0);
04:37:52:438;04:37:52:410;1448034830.46;(0.604724931716919, 0.7009626388549804);71.6907577515;1.0;04:37:52:438;0;0;-1.5;1;0;0;0;0;1;1;1;1;0;0;0;;0;0;();();(-2000.0, -2000.0);
04:37:52:454;04:37:52:410;1448034830.46;(0.604724931716919, 0.7009626388549804);71.6907577515;1.0;04:37:52:454;0;5;-1.5;1;0;0;0;0;1;1;1;1;0;0;0;;0;0;();();(-2000.0, -2000.0);
04:37:52:488;04:37:52:477;1448034830.52;(0.6050215244293213, 0.701169204711914);72.0421905518;1.0;04:37:52:488;0;14;-1.5;1;0;0;0;0;1;1;1;1;0;0;0;;0;0;();();(-2000.0, -2000.0);
04:37:52:505;04:37:52:477;1448034830.52;(0.6050215244293213, 0.701169204711914);72.0421905518;1.0;04:37:52:505;0;15;-1.5;1;0;0;0;0;1;1;1;1;0;0;0;;0;0;();();(-2000.0, -2000.0);
04:37:52:521;04:37:52:477;1448034830.52;(0.6050215244293213, 0.701169204711914);72.0421905518;1.0;04:37:52:521;0;5;-1.5;1;0;0;0;0;1;1;1;1;0;0;0;;0;0;();();(-2000.0, -2000.0);
04:37:52:538;04:37:52:477;1448034830.52;(0.6050215244293213, 0.701169204711914);72.0421905518;1.0;04:37:52:538;0;5;-1.5;1;0;0;0;0;1;1;1;1;0;0;0;;0;0;();();(-2000.0, -2000.0);
04:37:52:555;04:37:52:477;1448034830.52;(0.6050215244293213, 0.701169204711914);72.0421905518;1.0;04:37:52:555;0;10;-1.5;1;0;0;0;0;1;1;1;1;0;0;0;;0;0;();();(-2000.0, -2000.0);
04:37:52:588;04:37:52:477;1448034830.52;(0.6050215244293213, 0.701169204711914);72.0421905518;1.0;04:37:52:588;0;4;-1.5;1;0;0;0;0;1;1;1;1;0;0;0;;0;0;();();(-2000.0, -2000.0);
04:37:52:605;04:37:52:477;1448034830.52;(0.6050215244293213, 0.701169204711914);72.0421905518;1.0;04:37:52:605;0;9;-1.5;53.8421052631579;1.46627565982405;0;0;0;1;1;1;1;0;0;0;;0;0;();();(-2000.0, -2000.0);
04:37:52:622;04:37:52:611;1448034830.65;(0.3420854091644287, 0.7974735471937391);35.3199653625;0.671036280726;04:37:52:622;0;5;-1.5;12.6296296296296;1.17302052785924;0;0;0;1;1;1;1;0;0;0;;0;0;();();(-2000.0, -2000.0);
04:37:52:638;04:37:52:611;1448034830.65;(0.3420854091644287, 0.7974735471937391);35.3199653625;0.671036280726;04:37:52:638;0;10;-1.5;1;0;0;0;0;1;1;1;1;0;0;0;;0;0;();();(-2000.0, -2000.0);
04:37:52:655;04:37:52:611;1448034830.65;(0.3420854091644287, 0.7974735471937391);35.3199653625;0.671036280726;04:37:52:655;0;4;-1.5;1;0;0;0;0;1;1;1;1;0;0;0;;0;0;();();(-2000.0, -2000.0);
04:37:52:689;04:37:52:677;1448034830.68;(0.34020702838897704, 0.7992119047376844);35.6682319641;0.682038906611;04:37:52:689;0;0;-1.5;1;0;0;0;0;1;1;1;1;0;0;0;;0;0;();();(-2000.0, -2000.0);
04:37:52:705;04:37:52:677;1448034830.68;(0.34020702838897704, 0.7992119047376844);35.6682319641;0.682038906611;04:37:52:705;0;10;-1.5;146.142857142857;1.17302052785924;0;0;0;1;1;1;1;0;0;0;;0;0;();();(-2000.0, -2000.0);
04:37:52:722;04:37:52:677;1448034830.68;(0.34020702838897704, 0.7992119047376844);35.6682319641;0.682038906611;04:37:52:722;0;15;-1.5;170.5;1.17302052785924;0;0;0;1;1;1;1;0;0;0;;0;0;();();(-2000.0, -2000.0);
04:37:52:739;04:37:52:677;1448034830.68;(0.34020702838897704, 0.7992119047376844);35.6682319641;0.682038906611;04:37:52:739;0;4;-1.5;170.5;1.17302052785924;0;0;0;1;1;1;1;0;0;0;;0;0;();();(-2000.0, -2000.0);
04:37:52:755;04:37:52:742;1448034830.8;(0.6039359092712402, 0.659517330593533);72.2000961304;1.0;04:37:52:755;0;0;-1.5;146.142857142857;1.46627565982405;0;0;0;1;1;1;1;0;0;0;;0;0;();();(-2000.0, -2000.0);
04:37:52:789;04:37:52:742;1448034830.8;(0.6039359092712402, 0.659517330593533);72.2000961304;1.0;04:37:52:789;0;15;-1.5;170.5;1.17302052785924;0;0;0;1;1;1;1;0;0;0;;0;0;();();(-2000.0, -2000.0);
04:37:52:805;04:37:52:742;1448034830.8;(0.6039359092712402, 0.659517330593533);72.2000961304;1.0;04:37:52:805;0;10;-1.5;170.5;1.17302052785924;0;0;0;1;1;1;1;0;0;0;;0;0;();();(-2000.0, -2000.0);
04:37:52:822;04:37:52:811;1448034830.86;(0.6039176464080811, 0.6600241343180339);71.4724655151;1.0;04:37:52:822;0;10;-1.5;170.5;1.17302052785924;0;0;0;1;1;1;1;0;0;0;;0;0;();();(-2000.0, -2000.0);
04:37:52:838;04:37:52:811;1448034830.86;(0.6039176464080811, 0.6600241343180339);71.4724655151;1.0;04:37:52:838;0;5;-1.5;1;0;0;0;0;1;1;1;1;0;0;0;;0;0;();();(-2000.0, -2000.0);
04:37:52:855;04:37:52:811;1448034830.86;(0.6039176464080811, 0.6600241343180339);71.4724655151;1.0;04:37:52:855;0;0;-1.5;1;0;0;0;0;1;1;1;1;0;0;0;;0;0;();();(-2000.0, -2000.0);
04:37:52:887;04:37:52:873;1448034830.92;(0.34771153926849363, 0.7818198733859592);29.0532569885;0.619679739544;04:37:52:887;0;15;-1.5;1;0;0;0;0;1;1;1;1;0;0;0;;0;0;();();(-2000.0, -2000.0);
04:37:52:905;04:37:52:873;1448034830.92;(0.34771153926849363, 0.7818198733859592);29.0532569885;0.619679739544;04:37:52:905;0;4;-1.5;1;0;0;0;0;1;1;1;1;0;0;0;;0;0;();();(-2000.0, -2000.0);
04:37:52:922;04:37:52:873;1448034830.92;(0.34771153926849363, 0.7818198733859592);29.0532569885;0.619679739544;04:37:52:922;0;6;-1.5;1;0;0;0;0;1;1;1;1;0;0;0;;0;0;();();(-2000.0, -2000.0);
04:37:52:939;04:37:52:873;1448034830.92;(0.34771153926849363, 0.7818198733859592);29.0532569885;0.619679739544;04:37:52:939;0;5;-1.5;1;0;0;0;0;1;1;1;1;0;0;0;;0;0;();();(-2000.0, -2000.0);
04:37:52:955;04:37:52:946;1448034830.99;(0.6350831031799317, 0.6262974633110894);70.031036377;1.0;04:37:52:955;0;9;-1.5;1;0;0;0;0;1;1;1;1;0;0;0;;0;0;();();(-2000.0, -2000.0);
04:37:52:988;04:37:52:946;1448034830.99;(0.6350831031799317, 0.6262974633110894);70.031036377;1.0;04:37:52:988;0;15;-1.5;1;0;0;0;0;1;1;1;1;0;0;0;;0;0;();();(-2000.0, -2000.0);
04:37:53:005;04:37:52:946;1448034830.99;(0.6350831031799317, 0.6262974633110894);70.031036377;1.0;04:37:53:005;0;4;-1.5;1;0;0;0;0;1;1;1;1;0;0;0;;0;0;();();(-2000.0, -2000.0);
04:37:53:022;04:37:53:011;1448034831.06;(0.6347966194152832, 0.6274175008138021);69.6170654297;1.0;04:37:53:022;0;10;-1.5;1;0;0;0;0;1;1;1;1;0;0;0;;0;0;();();(-2000.0, -2000.0);
04:37:53:039;04:37:53:011;1448034831.06;(0.6347966194152832, 0.6274175008138021);69.6170654297;1.0;04:37:53:039;0;15;-1.5;1;0;0;0;0;1;1;1;1;0;0;0;;0;0;();();(-2000.0, -2000.0);
04:37:53:055;04:37:53:011;1448034831.06;(0.6347966194152832, 0.6274175008138021);69.6170654297;1.0;04:37:53:055;0;9;-1.5;1;0;0;0;0;1;1;1;1;0;0;0;;0;0;();();(-2000.0, -2000.0);
04:37:53:088;04:37:53:077;1448034831.12;(0.6349499702453614, 0.6281292385525173);69.6688842773;1.0;04:37:53:088;0;10;-1.5;1;0;0;0;0;1;1;1;1;0;0;0;;0;0;();();(-2000.0, -2000.0);
04:37:53:105;04:37:53:077;1448034831.12;(0.6349499702453614, 0.6281292385525173);69.6688842773;1.0;04:37:53:105;0;15;-1.5;1;0;0;0;0;1;1;1;1;0;0;0;;0;0;();();(-2000.0, -2000.0);
04:37:53:122;04:37:53:077;1448034831.12;(0.6349499702453614, 0.6281292385525173);69.6688842773;1.0;04:37:53:122;0;10;-1.5;1;0;0;0;0;1;1;1;1;0;0;0;;0;0;();();(-2000.0, -2000.0);
04:37:53:138;04:37:53:077;1448034831.12;(0.6349499702453614, 0.6281292385525173);69.6688842773;1.0;04:37:53:138;0;4;-1.5;1;0;0;0;0;1;1;1;1;0;0;0;;0;0;();();(-2000.0, -2000.0);
04:37:53:155;04:37:53:145;1448034831.16;(0.6349606513977051, 0.6293106926812067);69.8611602783;1.0;04:37:53:155;0;10;-1.5;1;0;0;0;0;1;1;1;1;0;0;0;;0;0;();();(-2000.0, -2000.0);
04:37:53:189;04:37:53:145;1448034831.16;(0.6349606513977051, 0.6293106926812067);69.8611602783;1.0;04:37:53:189;0;10;-1.5;1;0;0;0;0;1;1;1;1;0;0;0;;0;0;();();(-2000.0, -2000.0);
04:37:53:205;04:37:53:145;1448034831.16;(0.6349606513977051, 0.6293106926812067);69.8611602783;1.0;04:37:53:205;0;15;-1.5;1;0;0;0;0;1;1;1;1;0;0;0;;0;0;();();(-2000.0, -2000.0);
04:37:53:223;04:37:53:145;1448034831.16;(0.6349606513977051, 0.6293106926812067);69.8611602783;1.0;04:37:53:223;0;9;-1.5;1;0;0;0;0;1;1;1;1;0;0;0;;0;0;();();(-2000.0, -2000.0);
04:37:53:239;04:37:53:145;1448034831.16;(0.6349606513977051, 0.6293106926812067);69.8611602783;1.0;04:37:53:239;0;15;-1.5;1;0;0;0;0;1;1;1;1;0;0;0;;0;0;();();(-2000.0, -2000.0);
04:37:53:255;04:37:53:145;1448034831.16;(0.6349606513977051, 0.6293106926812067);69.8611602783;1.0;04:37:53:255;0;4;-1.5;170.5;1.17302052785924;0;0;0;1;1;1;1;0;0;0;;0;0;();();(-2000.0, -2000.0);
04:37:53:288;04:37:53:273;1448034831.3;(0.6210445404052735, 0.6817498524983724);70.3553924561;0.947355490612;04:37:53:288;0;4;-1.5;170.5;1.17302052785924;0;0;0;1;1;1;1;0;0;0;;0;0;();();(-2000.0, -2000.0);
04:37:53:305;04:37:53:273;1448034831.3;(0.6210445404052735, 0.6817498524983724);70.3553924561;0.947355490612;04:37:53:305;0;15;-1.5;170.5;1.17302052785924;0;0;0;1;1;1;1;0;0;0;;0;0;();();(-2000.0, -2000.0);
04:37:53:322;04:37:53:273;1448034831.3;(0.6210445404052735, 0.6817498524983724);70.3553924561;0.947355490612;04:37:53:322;0;5;-1.5;146.142857142857;1.46627565982405;0;0;0;1;1;1;1;0;0;0;;0;0;();();(-2000.0, -2000.0);
04:37:53:339;04:37:53:273;1448034831.3;(0.6210445404052735, 0.6817498524983724);70.3553924561;0.947355490612;04:37:53:339;0;0;-1.5;146.142857142857;1.46627565982405;0;0;0;1;1;1;1;0;0;0;;0;0;();();(-2000.0, -2000.0);
04:37:53:356;04:37:53:345;1448034831.39;(0.620872688293457, 0.6816757202148438);70.6479721069;1.0;04:37:53:356;0;5;-1.5;170.5;1.17302052785924;0;0;0;1;1;1;1;0;0;0;;0;0;();();(-2000.0, -2000.0);
04:37:53:390;04:37:53:345;1448034831.39;(0.620872688293457, 0.6816757202148438);70.6479721069;1.0;04:37:53:390;0;4;-1.5;1.00294117647059;0;0;0;0;1;1;1;1;0;0;0;;0;0;();();(-2000.0, -2000.0);
04:37:53:406;04:37:53:405;1448034831.46;(0.6210950374603271, 0.6815678066677517);70.8487319946;1.0;04:37:53:406;0;10;-1.5;1;0;0;0;0;1;1;1;1;0;0;0;;0;0;();();(-2000.0, -2000.0);
04:37:53:422;04:37:53:405;1448034831.46;(0.6210950374603271, 0.6815678066677517);70.8487319946;1.0;04:37:53:422;0;10;-1.5;1;0;0;0;0;1;1;1;1;0;0;0;;0;0;();();(-2000.0, -2000.0);
04:37:53:440;04:37:53:405;1448034831.46;(0.6210950374603271, 0.6815678066677517);70.8487319946;1.0;04:37:53:440;0;5;-1.5;1.61867088607595;0;0;0;0;1;1;1;1;0;0;0;;0;0;();();(-2000.0, -2000.0);
04:37:53:456;04:37:53:405;1448034831.46;(0.6210950374603271, 0.6815678066677517);70.8487319946;1.0;04:37:53:456;0;10;-1.5;1.07345225603358;0;0;0;0;1;1;1;1;0;0;0;;0;0;();();(-2000.0, -2000.0);
04:37:53:489;04:37:53:474;1448034831.52;(0.6215197086334229, 0.6817075941297743);70.8547897339;1.0;04:37:53:489;0;0;-1.5;1;0;0;0;0;1;1;1;1;0;0;0;;0;0;();();(-2000.0, -2000.0);
04:37:53:506;04:37:53:474;1448034831.52;(0.6215197086334229, 0.6817075941297743);70.8547897339;1.0;04:37:53:506;0;10;-1.5;1;0;0;0;0;1;1;1;1;0;0;0;;0;0;();();(-2000.0, -2000.0);
04:37:53:523;04:37:53:474;1448034831.52;(0.6215197086334229, 0.6817075941297743);70.8547897339;1.0;04:37:53:523;0;0;-1.5;1;0;0;0;0;1;1;1;1;0;0;0;;0;0;();();(-2000.0, -2000.0);
04:37:53:539;04:37:53:538;1448034831.59;(0.3397835254669189, 0.8188838322957357);32.1127128601;0.759592880992;04:37:53:539;0;9;-1.5;1;0;0;0;0;1;1;1;1;0;0;0;;0;0;();();(-2000.0, -2000.0);
04:37:53:556;04:37:53:538;1448034831.59;(0.3397835254669189, 0.8188838322957357);32.1127128601;0.759592880992;04:37:53:556;0;0;-1.5;1;0;0;0;0;1;1;1;1;0;0;0;;0;0;();();(-2000.0, -2000.0);
04:37:53:589;04:37:53:538;1448034831.59;(0.3397835254669189, 0.8188838322957357);32.1127128601;0.759592880992;04:37:53:589;0;15;-1.5;1;0;0;0;0;1;1;1;1;0;0;0;;0;0;();();(-2000.0, -2000.0);
04:37:53:606;04:37:53:605;1448034831.62;(0.5902894496917724, 0.6916063096788194);71.063583374;1.0;04:37:53:606;0;4;-1.5;1;0;0;0;0;1;1;1;1;0;0;0;;0;0;();();(-2000.0, -2000.0);
04:37:53:622;04:37:53:606;1448034831.66;(0.590746259689331, 0.6922511630588107);71.6032943726;1.0;04:37:53:622;0;15;-1.5;1;0;0;0;0;1;1;1;1;0;0;0;;0;0;();();(-2000.0, -2000.0);
04:37:53:639;04:37:53:606;1448034831.66;(0.590746259689331, 0.6922511630588107);71.6032943726;1.0;04:37:53:639;0;5;-1.5;1;0;0;0;0;1;1;1;1;0;0;0;;0;0;();();(-2000.0, -2000.0);
04:37:53:656;04:37:53:606;1448034831.66;(0.590746259689331, 0.6922511630588107);71.6032943726;1.0;04:37:53:656;0;15;-1.5;1;0;0;0;0;1;1;1;1;0;0;0;;0;0;();();(-2000.0, -2000.0);
04:37:53:701;04:37:53:673;1448034831.72;(0.5924174308776855, 0.6948187934027779);71.5864944458;1.0;04:37:53:700;0;4;-1.5;1;0;0;0;0;1;1;1;1;2;0;0;;0;0;();();(-2000.0, -2000.0);
04:37:53:728;04:37:53:673;1448034831.72;(0.5924174308776855, 0.6948187934027779);71.5864944458;1.0;04:37:53:728;0;0;-1.5;1;0;0;0;0;1;1;1;1;2;0;0;;0;0;();();(-2000.0, -2000.0);
04:37:53:729;04:37:53:673;1448034831.72;(0.5924174308776855, 0.6948187934027779);71.5864944458;1.0;04:37:53:729;0;0;-1.5;1;0;0;0;0;1;1;1;1;2;0;0;;0;0;();();(-2000.0, -2000.0);
04:37:53:739;04:37:53:737;1448034831.79;(0.810692310333252, 0.3993984646267361);23.2487449646;0.818319752612;04:37:53:739;0;5;-1.5;1;0;0;0;0;1;1;1;1;2;0;0;;0;0;();();(-2000.0, -2000.0);
04:37:53:756;04:37:53:737;1448034831.79;(0.810692310333252, 0.3993984646267361);23.2487449646;0.818319752612;04:37:53:756;0;10;-1.5;1;0;0;0;0;1;1;1;1;2;0;0;;0;0;();();(-2000.0, -2000.0);
04:37:53:789;04:37:53:737;1448034831.79;(0.810692310333252, 0.3993984646267361);23.2487449646;0.818319752612;04:37:53:789;0;15;-1.5;170.5;1.17302052785924;0;0;0;1;1;1;1;2;0;0;;0;0;();();(-2000.0, -2000.0);
04:37:53:805;04:37:53:737;1448034831.79;(0.810692310333252, 0.3993984646267361);23.2487449646;0.818319752612;04:37:53:805;0;5;-1.5;146.142857142857;1.46627565982405;0;0;0;1;1;1;1;2;0;0;;0;0;();();(-2000.0, -2000.0);
04:37:53:823;04:37:53:806;1448034831.82;(0.5270085811614991, 0.4908749898274739);24.4537277222;0.73789389881;04:37:53:823;0;10;-1.5;146.142857142857;1.46627565982405;0;0;0;1;1;1;1;2;0;0;;0;0;();();(-2000.0, -2000.0);
04:37:53:840;04:37:53:806;1448034831.82;(0.5270085811614991, 0.4908749898274739);24.4537277222;0.73789389881;04:37:53:840;0;4;-1.5;170.5;1.17302052785924;0;0;0;1;1;1;1;2;0;0;;0;0;();();(-2000.0, -2000.0);
04:37:53:856;04:37:53:806;1448034831.82;(0.5270085811614991, 0.4908749898274739);24.4537277222;0.73789389881;04:37:53:856;0;9;-1.5;146.142857142857;1.46627565982405;0;0;0;1;1;1;1;2;0;0;;0;0;();();(-2000.0, -2000.0);
04:37:53:890;04:37:53:869;1448034831.9;(0.7838838577270508, 0.42801250881618924);31.3315811157;0.759756028489;04:37:53:890;0;10;-1.5;170.5;1.17302052785924;0;0;0;1;1;1;1;2;0;0;;0;0;();();(-2000.0, -2000.0);
04:37:53:907;04:37:53:869;1448034831.9;(0.7838838577270508, 0.42801250881618924);31.3315811157;0.759756028489;04:37:53:907;0;4;-1.5;170.5;1.17302052785924;0;0;0;1;1;1;1;2;0;0;;0;0;();();(-2000.0, -2000.0);
04:37:53:923;04:37:53:869;1448034831.9;(0.7838838577270508, 0.42801250881618924);31.3315811157;0.759756028489;04:37:53:923;0;10;-1.5;146.142857142857;1.46627565982405;0;0;0;1;1;1;1;2;0;0;;0;0;();();(-2000.0, -2000.0);
04:37:53:940;04:37:53:939;1448034831.99;(0.41905689239501953, 0.48039991590711806);20.8907203674;0.651159761214;04:37:53:940;0;15;-1.5;146.142857142857;1.46627565982405;0;0;0;1;1;1;1;2;0;0;;0;0;();();(-2000.0, -2000.0);
04:37:53:956;04:37:53:939;1448034831.99;(0.41905689239501953, 0.48039991590711806);20.8907203674;0.651159761214;04:37:53:956;0;9;-1.5;146.142857142857;1.46627565982405;0;0;0;1;1;1;1;2;0;0;;0;0;();();(-2000.0, -2000.0);
04:37:53:989;04:37:53:939;1448034831.99;(0.41905689239501953, 0.48039991590711806);20.8907203674;0.651159761214;04:37:53:989;0;10;-1.5;146.142857142857;1.46627565982405;0;0;0;1;1;1;1;2;0;0;;0;0;();();(-2000.0, -2000.0);
04:37:54:007;04:37:54:001;1448034832.02;(0.29898838996887206, 0.4494494967990451);30.8855895996;0.62918110938;04:37:54:007;0;15;-1.5;170.5;1.17302052785924;0;0;0;1;1;1;1;2;0;0;;0;0;();();(-2000.0, -2000.0);
04:37:54:023;04:37:54:001;1448034832.02;(0.29898838996887206, 0.4494494967990451);30.8855895996;0.62918110938;04:37:54:023;0;9;-1.5;170.5;1.17302052785924;0;0;0;1;1;1;1;2;0;0;;0;0;();();(-2000.0, -2000.0);
04:37:54:040;04:37:54:001;1448034832.02;(0.29898838996887206, 0.4494494967990451);30.8855895996;0.62918110938;04:37:54:040;0;0;-1.5;170.5;1.17302052785924;0;0;0;1;1;1;1;2;0;0;;0;0;();();(-2000.0, -2000.0);
04:37:54:057;04:37:54:001;1448034832.02;(0.29898838996887206, 0.4494494967990451);30.8855895996;0.62918110938;04:37:54:057;0;5;-1.5;146.142857142857;1.46627565982405;0;0;0;1;1;1;1;2;0;0;;0;0;();();(-2000.0, -2000.0);
04:37:54:089;04:37:54:069;1448034832.08;(0, 0);0;0;04:37:54:089;0;10;-1.5;170.5;1.17302052785924;0;0;0;1;1;1;1;2;0;0;;0;0;();();(-2000.0, -2000.0);
04:37:54:107;04:37:54:069;1448034832.08;(0, 0);0;0;04:37:54:107;0;10;-1.5;170.5;1.17302052785924;0;0;0;1;1;1;1;2;0;0;;0;0;();();(-2000.0, -2000.0);
04:37:54:123;04:37:54:069;1448034832.08;(0, 0);0;0;04:37:54:123;0;5;-1.5;1;0;0;0;0;1;1;1;1;2;0;0;;0;0;();();(-2000.0, -2000.0);
04:37:54:141;04:37:54:137;1448034832.11;(0.2950979471206665, 0.4316974639892578);29.5009384155;0.831623090125;04:37:54:141;0;10;-1.5;1;0;0;0;0;1;1;1;1;2;0;0;;0;0;();();(-2000.0, -2000.0);
04:37:54:157;04:37:54:137;1448034832.11;(0.2950979471206665, 0.4316974639892578);29.5009384155;0.831623090125;04:37:54:157;0;5;-1.5;1;0;0;0;0;1;1;1;1;2;0;0;;0;0;();();(-2000.0, -2000.0);
04:37:54:190;04:37:54:137;1448034832.11;(0.2950979471206665, 0.4316974639892578);29.5009384155;0.831623090125;04:37:54:190;0;4;-1.5;1;0;0;0;0;1;1;1;1;2;0;0;;0;0;();();(-2000.0, -2000.0);
04:37:54:206;04:37:54:201;1448034832.18;(0.4392515182495117, 0.5462217542860244);29.6738204956;1.0;04:37:54:206;0;10;-1.5;170.5;1.17302052785924;0;0;0;1;1;1;1;2;0;0;;0;0;();();(-2000.0, -2000.0);
04:37:54:224;04:37:54:201;1448034832.18;(0.4392515182495117, 0.5462217542860244);29.6738204956;1.0;04:37:54:224;0;4;-1.5;170.5;1.17302052785924;0;0;0;1;1;1;1;2;0;0;;0;0;();();(-2000.0, -2000.0);
04:37:54:240;04:37:54:201;1448034832.18;(0.4392515182495117, 0.5462217542860244);29.6738204956;1.0;04:37:54:240;0;9;-1.5;170.5;1.17302052785924;0;0;0;1;1;1;1;2;0;0;;0;0;();();(-2000.0, -2000.0);
04:37:54:256;04:37:54:201;1448034832.18;(0.4392515182495117, 0.5462217542860244);29.6738204956;1.0;04:37:54:256;0;4;-1.5;170.5;1.17302052785924;0;0;0;1;1;1;1;2;0;0;;0;0;();();(-2000.0, -2000.0);
04:37:54:290;04:37:54:269;1448034832.26;(0.5806922435760498, 0.544110616048177);78.5684432983;0.600643195766;04:37:54:290;0;0;-1.5;170.5;1.17302052785924;0;0;0;1;1;1;1;2;0;0;;0;0;();();(-2000.0, -2000.0);
04:37:54:307;04:37:54:269;1448034832.26;(0.5806922435760498, 0.544110616048177);78.5684432983;0.600643195766;04:37:54:307;0;10;-1.5;170.5;1.17302052785924;0;0;0;1;1;1;1;2;0;0;;0;0;();();(-2000.0, -2000.0);
04:37:54:323;04:37:54:269;1448034832.26;(0.5806922435760498, 0.544110616048177);78.5684432983;0.600643195766;04:37:54:323;0;15;-1.5;170.5;1.17302052785924;0;0;0;1;1;1;1;2;0;0;;0;0;();();(-2000.0, -2000.0);
04:37:54:340;04:37:54:269;1448034832.26;(0.5806922435760498, 0.544110616048177);78.5684432983;0.600643195766;04:37:54:340;0;9;-1.5;146.142857142857;1.46627565982405;0;0;0;1;1;1;1;2;0;0;;0;0;();();(-2000.0, -2000.0);
04:37:54:357;04:37:54:346;1448034832.39;(0.5618562698364258, 0.6566624323527018);20.0049266815;0.734446153538;04:37:54:357;0;15;-1.5;146.142857142857;1.46627565982405;0;0;0;1;1;1;1;2;0;0;;0;0;();();(-2000.0, -2000.0);
04:37:54:390;04:37:54:346;1448034832.39;(0.5618562698364258, 0.6566624323527018);20.0049266815;0.734446153538;04:37:54:390;0;0;-1.5;146.142857142857;1.46627565982405;0;0;0;1;1;1;1;2;0;0;;0;0;();();(-2000.0, -2000.0);
04:37:54:407;04:37:54:402;1448034832.42;(0.6166609764099121, 0.7395266215006511);71.2135391235;0.906268211362;04:37:54:407;0;10;-1.5;170.5;1.17302052785924;0;0;0;1;1;1;1;2;0;0;;0;0;();();(-2000.0, -2000.0);
04:37:54:424;04:37:54:402;1448034832.42;(0.6166609764099121, 0.7395266215006511);71.2135391235;0.906268211362;04:37:54:424;0;15;-1.5;146.142857142857;1.46627565982405;0;0;0;1;1;1;1;2;0;0;;0;0;();();(-2000.0, -2000.0);
04:37:54:440;04:37:54:402;1448034832.42;(0.6166609764099121, 0.7395266215006511);71.2135391235;0.906268211362;04:37:54:440;0;5;-1.5;170.5;1.17302052785924;0;0;0;1;1;1;1;2;0;0;;0;0;();();(-2000.0, -2000.0);
04:37:54:457;04:37:54:402;1448034832.42;(0.6166609764099121, 0.7395266215006511);71.2135391235;0.906268211362;04:37:54:457;0;15;-1.5;170.5;1.17302052785924;0;0;0;1;1;1;1;2;0;0;;0;0;();();(-2000.0, -2000.0);
04:37:54:474;04:37:54:402;1448034832.42;(0.6166609764099121, 0.7395266215006511);71.2135391235;0.906268211362;04:37:54:474;0;4;-1.5;170.5;1.17302052785924;0;0;0;1;1;1;1;2;0;0;;0;0;();();(-2000.0, -2000.0);
04:37:54:507;04:37:54:402;1448034832.42;(0.6166609764099121, 0.7395266215006511);71.2135391235;0.906268211362;04:37:54:507;0;4;-1.5;170.5;1.17302052785924;0;0;0;1;1;1;1;2;0;0;;0;0;();();(-2000.0, -2000.0);
04:37:54:524;04:37:54:402;1448034832.42;(0.6166609764099121, 0.7395266215006511);71.2135391235;0.906268211362;04:37:54:524;0;10;-1.5;170.5;1.17302052785924;0;0;0;1;1;1;1;2;0;0;;0;0;();();(-2000.0, -2000.0);
04:37:54:540;04:37:54:533;1448034832.6;(0.34785847663879393, 0.8513445218404134);37.6036148071;0.778588679085;04:37:54:540;0;5;-1.5;170.5;1.17302052785924;0;0;0;1;1;1;1;2;0;0;;0;0;();();(-2000.0, -2000.0);
04:37:54:557;04:37:54:533;1448034832.6;(0.34785847663879393, 0.8513445218404134);37.6036148071;0.778588679085;04:37:54:557;0;15;-1.5;170.5;1.17302052785924;0;0;0;1;1;1;1;2;0;0;;0;0;();();(-2000.0, -2000.0);
04:37:54:574;04:37:54:533;1448034832.6;(0.34785847663879393, 0.8513445218404134);37.6036148071;0.778588679085;04:37:54:574;0;4;-1.5;146.142857142857;1.46627565982405;0;0;0;1;1;1;1;2;0;0;;0;0;();();(-2000.0, -2000.0);
04:37:54:608;04:37:54:601;1448034832.62;(0.6090473651885986, 0.7065375010172525);70.8163528442;0.953779591489;04:37:54:608;0;5;-1.5;170.5;1.17302052785924;0;0;0;1;1;1;1;2;0;0;;0;0;();();(-2000.0, -2000.0);
04:37:54:624;04:37:54:601;1448034832.62;(0.6090473651885986, 0.7065375010172525);70.8163528442;0.953779591489;04:37:54:624;0;10;-1.5;170.5;1.17302052785924;0;0;0;1;1;1;1;2;0;0;;0;0;();();(-2000.0, -2000.0);
04:37:54:641;04:37:54:601;1448034832.62;(0.6090473651885986, 0.7065375010172525);70.8163528442;0.953779591489;04:37:54:641;0;4;-1.5;170.5;1.17302052785924;0;0;0;1;1;1;1;2;0;0;;0;0;();();(-2000.0, -2000.0);
04:37:54:657;04:37:54:601;1448034832.62;(0.6090473651885986, 0.7065375010172525);70.8163528442;0.953779591489;04:37:54:657;0;9;-1.5;170.5;1.17302052785924;0;0;0;1;1;1;1;2;0;0;;0;0;();();(-2000.0, -2000.0);
04:37:54:674;04:37:54:666;1448034832.7;(0.606095266342163, 0.7023953331841363);71.4837722778;0.822974470921;04:37:54:674;0;15;-1.5;170.5;1.17302052785924;0;0;0;1;1;1;1;2;0;0;;0;0;();();(-2000.0, -2000.0);
04:37:54:707;04:37:54:666;1448034832.7;(0.606095266342163, 0.7023953331841363);71.4837722778;0.822974470921;04:37:54:707;0;4;-1.5;170.5;1.17302052785924;0;0;0;1;1;1;1;2;0;0;;0;0;();();(-2000.0, -2000.0);
04:37:54:724;04:37:54:666;1448034832.7;(0.606095266342163, 0.7023953331841363);71.4837722778;0.822974470921;04:37:54:724;0;15;-1.5;1;0;0;0;0;1;1;1;1;2;0;0;;0;0;();();(-2000.0, -2000.0);
04:37:54:740;04:37:54:666;1448034832.7;(0.606095266342163, 0.7023953331841363);71.4837722778;0.822974470921;04:37:54:740;0;15;-1.5;1;0;0;0;0;1;1;1;1;2;0;0;;0;0;();();(-2000.0, -2000.0);
04:37:54:757;04:37:54:666;1448034832.7;(0.606095266342163, 0.7023953331841363);71.4837722778;0.822974470921;04:37:54:757;0;9;-1.5;1;0;0;0;0;1;1;1;1;2;0;0;;0;0;();();(-2000.0, -2000.0);
04:37:54:774;04:37:54:666;1448034832.7;(0.606095266342163, 0.7023953331841363);71.4837722778;0.822974470921;04:37:54:774;0;15;-1.5;1;0;0;0;0;1;1;1;1;2;0;0;;0;0;();();(-2000.0, -2000.0);
04:37:54:807;04:37:54:801;1448034832.85;(0.3514846324920654, 0.8263194296095107);36.7375106812;0.648729658125;04:37:54:807;0;15;-1.5;1;0;0;0;0;1;1;1;1;2;0;0;;0;0;();();(-2000.0, -2000.0);
04:37:54:823;04:37:54:801;1448034832.85;(0.3514846324920654, 0.8263194296095107);36.7375106812;0.648729658125;04:37:54:823;0;4;-1.5;1;0;0;0;0;1;1;1;1;2;0;0;;0;0;();();(-2000.0, -2000.0);
04:37:54:841;04:37:54:801;1448034832.85;(0.3514846324920654, 0.8263194296095107);36.7375106812;0.648729658125;04:37:54:841;0;0;-1.5;1;0;0;0;0;1;1;1;1;2;0;0;;0;0;();();(-2000.0, -2000.0);
04:37:54:857;04:37:54:801;1448034832.85;(0.3514846324920654, 0.8263194296095107);36.7375106812;0.648729658125;04:37:54:857;0;5;-1.5;1;0;0;0;0;1;1;1;1;2;0;0;;0;0;();();(-2000.0, -2000.0);
04:37:54:874;04:37:54:866;1448034832.91;(0.6740509033203125, 0.6192347208658855);68.936706543;0.988318121084;04:37:54:874;0;15;-1.5;1;0;0;0;0;1;1;1;1;2;0;0;;0;0;();();(-2000.0, -2000.0);
04:37:54:907;04:37:54:866;1448034832.91;(0.6740509033203125, 0.6192347208658855);68.936706543;0.988318121084;04:37:54:907;0;15;-1.5;1;0;0;0;0;1;1;1;1;2;0;0;;0;0;();();(-2000.0, -2000.0);
04:37:54:924;04:37:54:866;1448034832.91;(0.6740509033203125, 0.6192347208658855);68.936706543;0.988318121084;04:37:54:924;0;5;-1.5;1;0;0;0;0;1;1;1;1;2;0;0;;0;0;();();(-2000.0, -2000.0);
04:37:54:941;04:37:54:933;1448034832.96;(0.6590592861175537, 0.6304484473334419);69.4930877686;0.909076934928;04:37:54:941;0;10;-1.5;1;0;0;0;0;1;1;1;1;2;0;0;;0;0;();();(-2000.0, -2000.0);
04:37:54:958;04:37:54:933;1448034832.96;(0.6590592861175537, 0.6304484473334419);69.4930877686;0.909076934928;04:37:54:958;0;4;-1.5;1;0;0;0;0;1;1;1;1;2;0;0;;0;0;();();(-2000.0, -2000.0);
04:37:54:974;04:37:54:933;1448034832.96;(0.6590592861175537, 0.6304484473334419);69.4930877686;0.909076934928;04:37:54:974;0;15;-1.5;1;0;0;0;0;1;1;1;1;2;0;0;;0;0;();();(-2000.0, -2000.0);
04:37:55:008;04:37:54:933;1448034832.96;(0.6590592861175537, 0.6304484473334419);69.4930877686;0.909076934928;04:37:55:008;0;10;-1.5;1;0;0;0;0;1;1;1;1;2;0;0;;0;0;();();(-2000.0, -2000.0);
04:37:55:024;04:37:55:013;1448034833.02;(0, 0);0;0;04:37:55:024;0;15;-1.5;1;0;0;0;0;1;1;1;1;2;0;0;;0;0;();();(-2000.0, -2000.0);
04:37:55:041;04:37:55:013;1448034833.02;(0, 0);0;0;04:37:55:041;0;10;-1.5;1;0;0;0;0;1;1;1;1;2;0;0;;0;0;();();(-2000.0, -2000.0);
04:37:55:058;04:37:55:013;1448034833.02;(0, 0);0;0;04:37:55:058;0;15;-1.5;170.5;1.17302052785924;0;0;0;1;1;1;1;2;0;0;;0;0;();();(-2000.0, -2000.0);
04:37:55:074;04:37:55:066;1448034833.12;(0.6402955532073975, 0.6366164737277561);69.6309967041;0.975620746278;04:37:55:074;0;9;-1.5;170.5;1.17302052785924;0;0;0;1;1;1;1;2;0;0;;0;0;();();(-2000.0, -2000.0);
04:37:55:107;04:37:55:066;1448034833.12;(0.6402955532073975, 0.6366164737277561);69.6309967041;0.975620746278;04:37:55:107;0;10;-1.5;146.142857142857;1.46627565982405;0;0;0;1;1;1;1;2;0;0;;0;0;();();(-2000.0, -2000.0);
04:37:55:124;04:37:55:066;1448034833.12;(0.6402955532073975, 0.6366164737277561);69.6309967041;0.975620746278;04:37:55:124;0;15;-1.5;170.5;1.17302052785924;0;0;0;1;1;1;1;2;0;0;;0;0;();();(-2000.0, -2000.0);
04:37:55:141;04:37:55:134;1448034833.19;(0.639528465270996, 0.6389884948730469);69.2501525879;0.991233707012;04:37:55:141;0;9;-1.5;146.142857142857;1.46627565982405;0;0;0;1;1;1;1;2;0;0;;0;0;();();(-2000.0, -2000.0);
04:37:55:158;04:37:55:134;1448034833.19;(0.639528465270996, 0.6389884948730469);69.2501525879;0.991233707012;04:37:55:158;0;15;-1.5;1;0;0;0;0;1;1;1;1;2;0;0;;0;0;();();(-2000.0, -2000.0);
04:37:55:191;04:37:55:134;1448034833.19;(0.639528465270996, 0.6389884948730469);69.2501525879;0.991233707012;04:37:55:191;0;15;-1.5;2.61636828644501;0.293255131964809;0;0;0;1;1;1;1;2;0;0;;0;0;();();(-2000.0, -2000.0);
04:37:55:208;04:37:55:199;1448034833.26;(0.3455665111541748, 0.8180967542860242);31.9474239349;0.813109882629;04:37:55:208;0;4;-1.5;170.5;1.17302052785924;0;0;0;1;1;1;1;2;0;0;;0;0;();();(-2000.0, -2000.0);
04:37:55:224;04:37:55:199;1448034833.26;(0.3455665111541748, 0.8180967542860242);31.9474239349;0.813109882629;04:37:55:224;0;15;-1.5;170.5;1.17302052785924;0;0;0;1;1;1;1;2;0;0;;0;0;();();(-2000.0, -2000.0);
04:37:55:241;04:37:55:199;1448034833.26;(0.3455665111541748, 0.8180967542860242);31.9474239349;0.813109882629;04:37:55:241;0;5;-1.5;1;0;0;0;0;1;1;1;1;2;0;0;;0;0;();();(-2000.0, -2000.0);
04:37:55:257;04:37:55:199;1448034833.26;(0.3455665111541748, 0.8180967542860242);31.9474239349;0.813109882629;04:37:55:257;0;0;-1.5;1;0;0;0;0;1;1;1;1;2;0;0;;0;0;();();(-2000.0, -2000.0);
04:37:55:274;04:37:55:266;1448034833.32;(0.6427474975585937, 0.6592080646091037);68.6515808105;1.0;04:37:55:274;0;4;-1.5;170.5;1.17302052785924;0;0;0;1;1;1;1;2;0;0;;0;0;();();(-2000.0, -2000.0);
04:37:55:308;04:37:55:266;1448034833.32;(0.6427474975585937, 0.6592080646091037);68.6515808105;1.0;04:37:55:308;0;4;-1.5;170.5;1.17302052785924;0;0;0;1;1;1;1;2;0;0;;0;0;();();(-2000.0, -2000.0);
04:37:55:324;04:37:55:266;1448034833.32;(0.6427474975585937, 0.6592080646091037);68.6515808105;1.0;04:37:55:324;0;9;-1.5;170.5;1.17302052785924;0;0;0;1;1;1;1;2;0;0;;0;0;();();(-2000.0, -2000.0);
04:37:55:341;04:37:55:330;1448034833.39;(0, 0);0;0;04:37:55:341;0;15;-1.5;146.142857142857;1.46627565982405;0;0;0;1;1;1;1;2;0;0;;0;0;();();(-2000.0, -2000.0);
04:37:55:358;04:37:55:330;1448034833.39;(0, 0);0;0;04:37:55:358;0;10;-1.5;1;0;0;0;0;1;1;1;1;2;0;0;;0;0;();();(-2000.0, -2000.0);
04:37:55:375;04:37:55:330;1448034833.39;(0, 0);0;0;04:37:55:374;0;10;-1.5;1;0;0;0;0;1;1;1;1;2;0;0;;0;0;();();(-2000.0, -2000.0);
04:37:55:408;04:37:55:401;1448034833.46;(0.35025582313537595, 0.5342405107286241);21.3907146454;0.661736528984;04:37:55:408;0;5;-1.5;1;0;0;0;0;1;1;1;1;2;0;0;;0;0;();();(-2000.0, -2000.0);
04:37:55:424;04:37:55:401;1448034833.46;(0.35025582313537595, 0.5342405107286241);21.3907146454;0.661736528984;04:37:55:424;0;10;-1.5;1;0;0;0;0;1;1;1;1;2;0;0;;0;0;();();(-2000.0, -2000.0);
04:37:55:441;04:37:55:401;1448034833.46;(0.35025582313537595, 0.5342405107286241);21.3907146454;0.661736528984;04:37:55:441;0;4;-1.5;1;0;0;0;0;1;1;1;1;2;0;0;;0;0;();();(-2000.0, -2000.0);
04:37:55:458;04:37:55:401;1448034833.46;(0.35025582313537595, 0.5342405107286241);21.3907146454;0.661736528984;04:37:55:458;0;9;-1.5;1;0;0;0;0;1;1;1;1;2;0;0;;0;0;();();(-2000.0, -2000.0);
04:37:55:491;04:37:55:467;1448034833.52;(0.7543770790100097, 0.39962031046549484);20.1969223022;0.601401983605;04:37:55:491;0;10;-1.5;146.142857142857;1.46627565982405;0;0;0;1;1;1;1;2;0;0;;0;0;();();(-2000.0, -2000.0);
04:37:55:507;04:37:55:467;1448034833.52;(0.7543770790100097, 0.39962031046549484);20.1969223022;0.601401983605;04:37:55:507;0;15;-1.5;170.5;1.17302052785924;0;0;0;1;1;1;1;2;0;0;;0;0;();();(-2000.0, -2000.0);
04:37:55:524;04:37:55:467;1448034833.52;(0.7543770790100097, 0.39962031046549484);20.1969223022;0.601401983605;04:37:55:524;0;10;-1.5;170.5;1.17302052785924;0;0;0;1;1;1;1;2;0;0;;0;0;();();(-2000.0, -2000.0);
04:37:55:541;04:37:55:530;1448034833.59;(0.4100499629974365, 0.513325203789605);27.7425708771;0.726744318921;04:37:55:541;0;15;-1.5;170.5;1.17302052785924;0;0;0;1;1;1;1;2;0;0;;0;0;();();(-2000.0, -2000.0);
04:37:55:558;04:37:55:530;1448034833.59;(0.4100499629974365, 0.513325203789605);27.7425708771;0.726744318921;04:37:55:558;0;4;-1.5;1;0;0;0;0;1;1;1;1;2;0;0;;0;0;();();(-2000.0, -2000.0);
04:37:55:575;04:37:55:530;1448034833.59;(0.4100499629974365, 0.513325203789605);27.7425708771;0.726744318921;04:37:55:575;0;0;-1.5;1;0;0;0;0;1;1;1;1;2;0;0;;0;0;();();(-2000.0, -2000.0);
04:37:55:608;04:37:55:597;1448034833.62;(0.34519431591033933, 0.4934390174018012);35.0025177002;0.828788860152;04:37:55:608;0;15;-1.5;1;0;0;0;0;1;1;1;1;2;0;0;;0;0;();();(-2000.0, -2000.0);
04:37:55:624;04:37:55:597;1448034833.62;(0.34519431591033933, 0.4934390174018012);35.0025177002;0.828788860152;04:37:55:624;0;9;-1.5;1;0;0;0;0;1;1;1;1;2;0;0;;0;0;();();(-2000.0, -2000.0);
04:37:55:641;04:37:55:597;1448034833.62;(0.34519431591033933, 0.4934390174018012);35.0025177002;0.828788860152;04:37:55:641;0;15;-1.5;1;0;0;0;0;1;1;1;1;2;0;0;;0;0;();();(-2000.0, -2000.0);
04:37:55:658;04:37:55:597;1448034833.62;(0.34519431591033933, 0.4934390174018012);35.0025177002;0.828788860152;04:37:55:658;0;4;-1.5;1;0;0;0;0;1;1;1;1;2;0;0;;0;0;();();(-2000.0, -2000.0);
04:37:55:674;04:37:55:661;1448034833.66;(0.5101185798645019, 0.6141432444254558);40.2253570557;0.867273776561;04:37:55:674;0;0;-1.5;1;0;0;0;0;1;1;1;1;2;0;0;;0;0;();();(-2000.0, -2000.0);
04:37:55:708;04:37:55:661;1448034833.66;(0.5101185798645019, 0.6141432444254558);40.2253570557;0.867273776561;04:37:55:708;0;15;-1.5;1;0;0;0;0;1;1;1;1;2;0;0;;0;0;();();(-2000.0, -2000.0);
04:37:55:724;04:37:55:661;1448034833.66;(0.5101185798645019, 0.6141432444254558);40.2253570557;0.867273776561;04:37:55:724;0;5;-1.5;1;0;0;0;0;1;1;1;1;2;0;0;;0;0;();();(-2000.0, -2000.0);
04:37:55:741;04:37:55:661;1448034833.66;(0.5101185798645019, 0.6141432444254558);40.2253570557;0.867273776561;04:37:55:741;0;10;-1.5;1;0;0;0;0;1;1;1;1;2;0;0;;0;0;();();(-2000.0, -2000.0);
04:37:55:758;04:37:55:661;1448034833.66;(0.5101185798645019, 0.6141432444254558);40.2253570557;0.867273776561;04:37:55:758;0;4;-1.5;3.86037735849057;0.684261974584555;0;0;0;1;1;1;1;2;0;0;;0;0;();();(-2000.0, -2000.0);
04:37:55:774;04:37:55:661;1448034833.66;(0.5101185798645019, 0.6141432444254558);40.2253570557;0.867273776561;04:37:55:774;0;9;-1.5;170.5;1.17302052785924;0;0;0;1;1;1;1;2;0;0;;0;0;();();(-2000.0, -2000.0);
04:37:55:808;04:37:55:797;1448034833.72;(0.5640290260314942, 0.5555104149712456);85.0809173584;0.633481823771;04:37:55:808;0;10;-1.5;1;0;0;0;0;1;1;1;1;2;0;0;;0;0;();();(-2000.0, -2000.0);
04:37:55:824;04:37:55:797;1448034833.72;(0.5640290260314942, 0.5555104149712456);85.0809173584;0.633481823771;04:37:55:824;0;6;-1.5;1;0;0;0;0;1;1;1;1;2;0;0;;0;0;();();(-2000.0, -2000.0);
04:37:55:841;04:37:55:797;1448034833.72;(0.5640290260314942, 0.5555104149712456);85.0809173584;0.633481823771;04:37:55:841;0;10;-1.5;170.5;1.17302052785924;0;0;0;1;1;1;1;2;0;0;;0;0;();();(-2000.0, -2000.0);
04:37:55:858;04:37:55:797;1448034833.72;(0.5640290260314942, 0.5555104149712456);85.0809173584;0.633481823771;04:37:55:858;0;10;-1.5;170.5;1.17302052785924;0;0;0;1;1;1;1;2;0;0;;0;0;();();(-2000.0, -2000.0);
04:37:55:875;04:37:55:797;1448034833.72;(0.5640290260314942, 0.5555104149712456);85.0809173584;0.633481823771;04:37:55:875;0;9;-1.5;146.142857142857;1.46627565982405;0;0;0;1;1;1;1;2;0;0;;0;0;();();(-2000.0, -2000.0);
04:37:55:909;04:37:55:797;1448034833.72;(0.5640290260314942, 0.5555104149712456);85.0809173584;0.633481823771;04:37:55:909;0;3;-1.5;1.51555555555556;0;0;0;0;1;1;1;1;2;0;0;;0;0;();();(-2000.0, -2000.0);
04:37:55:924;04:37:55:797;1448034833.72;(0.5640290260314942, 0.5555104149712456);85.0809173584;0.633481823771;04:37:55:924;0;6;-1.5;146.142857142857;1.17302052785924;0;0;0;1;1;1;1;2;0;0;;0;0;();();(-2000.0, -2000.0);
04:37:55:941;04:37:55:929;1448034833.84;(0.5833144187927246, 0.5505362616644965);69.0496673584;0.774457218222;04:37:55:941;0;4;-1.5;170.5;1.17302052785924;0;0;0;1;1;1;1;2;0;0;;0;0;();();(-2000.0, -2000.0);
04:37:55:958;04:37:55:929;1448034833.84;(0.5833144187927246, 0.5505362616644965);69.0496673584;0.774457218222;04:37:55:958;0;0;-1.5;170.5;1.17302052785924;0;0;0;1;1;1;1;2;0;0;;0;0;();();(-2000.0, -2000.0);
04:37:55:975;04:37:55:929;1448034833.84;(0.5833144187927246, 0.5505362616644965);69.0496673584;0.774457218222;04:37:55:975;0;5;-1.5;85.2500000000001;1.85728250244379;0;0;0;1;1;1;1;2;0;0;;0;0;();();(-2000.0, -2000.0);
04:37:56:008;04:37:55:929;1448034833.84;(0.5833144187927246, 0.5505362616644965);69.0496673584;0.774457218222;04:37:56:008;0;10;-1.5;146.142857142857;1.46627565982405;0;0;0;1;1;1;1;2;0;0;;0;0;();();(-2000.0, -2000.0);
04:37:56:024;04:37:55:929;1448034833.84;(0.5833144187927246, 0.5505362616644965);69.0496673584;0.774457218222;04:37:56:024;0;10;-1.5;146.142857142857;1.46627565982405;0;0;0;1;1;1;1;2;0;0;;0;0;();();(-2000.0, -2000.0);
04:37:56:042;04:37:55:929;1448034833.84;(0.5833144187927246, 0.5505362616644965);69.0496673584;0.774457218222;04:37:56:042;0;5;-1.5;146.142857142857;1.46627565982405;0;0;0;1;1;1;1;2;0;0;;0;0;();();(-2000.0, -2000.0);
04:37:56:059;04:37:55:929;1448034833.84;(0.5833144187927246, 0.5505362616644965);69.0496673584;0.774457218222;04:37:56:059;0;10;-1.5;170.5;1.17302052785924;0;0;0;1;1;1;1;2;0;0;;0;0;();();(-2000.0, -2000.0);
04:37:56:075;04:37:55:929;1448034833.84;(0.5833144187927246, 0.5505362616644965);69.0496673584;0.774457218222;04:37:56:075;0;4;-1.5;170.5;1.17302052785924;0;0;0;1;1;1;1;2;0;0;;0;0;();();(-2000.0, -2000.0);
04:37:56:108;04:37:55:929;1448034833.84;(0.5833144187927246, 0.5505362616644965);69.0496673584;0.774457218222;04:37:56:108;0;4;-1.5;170.5;1.17302052785924;0;0;0;1;1;1;1;2;0;0;;0;0;();();(-2000.0, -2000.0);
04:37:56:125;04:37:55:929;1448034833.84;(0.5833144187927246, 0.5505362616644965);69.0496673584;0.774457218222;04:37:56:125;0;9;-1.5;170.5;1.17302052785924;0;0;0;1;1;1;1;2;0;0;;0;0;();();(-2000.0, -2000.0);
04:37:56:142;04:37:56:130;1448034834.0;(0.5764262199401855, 0.5705574883355035);71.0301513672;0.86219548924;04:37:56:142;0;4;-1.5;85.2500000000001;1.85728250244379;0;0;0;1;1;1;1;2;0;0;;0;0;();();(-2000.0, -2000.0);
04:37:56:158;04:37:56:130;1448034834.0;(0.5764262199401855, 0.5705574883355035);71.0301513672;0.86219548924;04:37:56:158;0;5;-1.5;170.5;1.17302052785924;0;0;0;1;1;1;1;2;0;0;;0;0;();();(-2000.0, -2000.0);
04:37:56:175;04:37:56:130;1448034834.0;(0.5764262199401855, 0.5705574883355035);71.0301513672;0.86219548924;04:37:56:175;0;4;-1.5;1;0;0;0;0;1;1;1;1;2;0;0;;0;0;();();(-2000.0, -2000.0);
04:37:56:209;04:37:56:194;1448034834.26;(0.5712055683135986, 0.5763075510660807);71.6644287109;0.997835389621;04:37:56:209;0;0;-1.5;146.142857142857;1.46627565982405;0;0;0;1;1;1;1;2;0;0;;0;0;();();(-2000.0, -2000.0);
04:37:56:225;04:37:56:194;1448034834.26;(0.5712055683135986, 0.5763075510660807);71.6644287109;0.997835389621;04:37:56:225;0;10;-1.5;170.5;1.17302052785924;0;0;0;1;1;1;1;2;0;0;;0;0;();();(-2000.0, -2000.0);
04:37:56:241;04:37:56:194;1448034834.26;(0.5712055683135986, 0.5763075510660807);71.6644287109;0.997835389621;04:37:56:241;0;4;-1.5;170.5;1.17302052785924;0;0;0;1;1;1;1;2;0;0;;0;0;();();(-2000.0, -2000.0);
04:37:56:258;04:37:56:194;1448034834.26;(0.5712055683135986, 0.5763075510660807);71.6644287109;0.997835389621;04:37:56:258;0;9;-1.5;85.2500000000001;1.85728250244379;0;0;0;1;1;1;1;2;0;0;;0;0;();();(-2000.0, -2000.0);
04:37:56:275;04:37:56:261;1448034834.32;(0.570329236984253, 0.5753668043348524);71.7085800171;1.0;04:37:56:275;0;0;-1.5;170.5;1.17302052785924;0;0;0;1;1;1;1;2;0;0;;0;0;();();(-2000.0, -2000.0);
04:37:56:309;04:37:56:261;1448034834.32;(0.570329236984253, 0.5753668043348524);71.7085800171;1.0;04:37:56:309;0;15;-1.5;170.5;1.17302052785924;0;0;0;1;1;1;1;2;0;0;;0;0;();();(-2000.0, -2000.0);
04:37:56:325;04:37:56:261;1448034834.32;(0.570329236984253, 0.5753668043348524);71.7085800171;1.0;04:37:56:325;0;10;-1.5;170.5;1.17302052785924;0;0;0;1;1;1;1;2;0;0;;0;0;();();(-2000.0, -2000.0);
04:37:56:341;04:37:56:326;1448034834.39;(0.5713243007659912, 0.5699314117431641);72.033744812;0.979344898837;04:37:56:341;0;15;-1.5;8.05511811023622;1.36852394916911;0;0;0;1;1;1;1;2;0;0;;0;0;();();(-2000.0, -2000.0);
04:37:56:359;04:37:56:326;1448034834.39;(0.5713243007659912, 0.5699314117431641);72.033744812;0.979344898837;04:37:56:359;0;9;-1.5;26.2307692307693;0.879765395894428;0;0;0;1;1;1;1;2;0;0;;0;0;();();(-2000.0, -2000.0);
04:37:56:375;04:37:56:326;1448034834.39;(0.5713243007659912, 0.5699314117431641);72.033744812;0.979344898837;04:37:56:375;0;15;-1.5;1;0;0;0;0;1;1;1;1;2;0;0;;0;0;();();(-2000.0, -2000.0);
04:37:56:409;04:37:56:394;1448034834.46;(0.5697214126586914, 0.5680069393581815);72.0063781738;1.0;04:37:56:409;0;15;-1.5;1;0;0;0;0;1;1;1;1;2;0;0;;0;0;();();(-2000.0, -2000.0);
04:37:56:425;04:37:56:394;1448034834.46;(0.5697214126586914, 0.5680069393581815);72.0063781738;1.0;04:37:56:425;0;4;-1.5;1.4698275862069;0;0;0;0;1;1;1;1;2;0;0;;0;0;();();(-2000.0, -2000.0);
04:37:56:442;04:37:56:394;1448034834.46;(0.5697214126586914, 0.5680069393581815);72.0063781738;1.0;04:37:56:442;0;15;-1.5;3.36513157894737;0.293255131964809;0;0;0;1;1;1;1;2;0;0;;0;0;();();(-2000.0, -2000.0);
04:37:56:458;04:37:56:394;1448034834.46;(0.5697214126586914, 0.5680069393581815);72.0063781738;1.0;04:37:56:458;0;4;-1.5;1;0;0;0;0;1;1;1;1;2;0;0;;0;0;();();(-2000.0, -2000.0);
04:37:56:475;04:37:56:462;1448034834.52;(0.5679631710052491, 0.5654491424560547);71.8369522095;0.984603283769;04:37:56:475;0;10;-1.5;1;0;0;0;0;1;1;1;1;2;0;0;;0;0;();();(-2000.0, -2000.0);
04:37:56:509;04:37:56:462;1448034834.52;(0.5679631710052491, 0.5654491424560547);71.8369522095;0.984603283769;04:37:56:509;0;10;-1.5;1;0;0;0;0;1;1;1;1;2;0;0;;0;0;();();(-2000.0, -2000.0);
04:37:56:525;04:37:56:462;1448034834.52;(0.5679631710052491, 0.5654491424560547);71.8369522095;0.984603283769;04:37:56:525;0;5;-1.5;1;0;0;0;0;1;1;1;1;2;0;0;;0;0;();();(-2000.0, -2000.0);
04:37:56:542;04:37:56:527;1448034834.59;(0.5662223815917968, 0.5649625142415364);71.6669311523;1.0;04:37:56:542;0;10;-1.5;1;0;0;0;0;1;1;1;1;2;0;0;;0;0;();();(-2000.0, -2000.0);
04:37:56:559;04:37:56:527;1448034834.59;(0.5662223815917968, 0.5649625142415364);71.6669311523;1.0;04:37:56:559;0;15;-1.5;1.00294117647059;0;0;0;0;1;1;1;1;2;0;0;;0;0;();();(-2000.0, -2000.0);
04:37:56:576;04:37:56:527;1448034834.59;(0.5662223815917968, 0.5649625142415364);71.6669311523;1.0;04:37:56:575;0;9;-1.5;2.13125;0.0977517106549365;0;0;0;1;1;1;1;2;0;0;;0;0;();();(-2000.0, -2000.0);
04:37:56:609;04:37:56:594;1448034834.66;(0.5638751983642578, 0.5654875013563367);71.9638900757;1.0;04:37:56:609;0;10;-1.5;1;0;0;0;0;1;1;1;1;2;0;0;;0;0;();();(-2000.0, -2000.0);
04:37:56:625;04:37:56:594;1448034834.66;(0.5638751983642578, 0.5654875013563367);71.9638900757;1.0;04:37:56:625;0;5;-1.5;1;0;0;0;0;1;1;1;1;2;0;0;;0;0;();();(-2000.0, -2000.0);
04:37:56:642;04:37:56:594;1448034834.66;(0.5638751983642578, 0.5654875013563367);71.9638900757;1.0;04:37:56:642;0;9;-1.5;1;0;0;0;0;1;1;1;1;2;0;0;;0;0;();();(-2000.0, -2000.0);
04:37:56:659;04:37:56:658;1448034834.72;(0.5621653079986573, 0.5662705739339193);72.1158676147;1.0;04:37:56:659;0;9;-1.5;1;0;0;0;0;1;1;1;1;2;0;0;;0;0;();();(-2000.0, -2000.0);
04:37:56:675;04:37:56:658;1448034834.72;(0.5621653079986573, 0.5662705739339193);72.1158676147;1.0;04:37:56:675;0;9;-1.5;1;0;0;0;0;1;1;1;1;2;0;0;;0;0;();();(-2000.0, -2000.0);
04:37:56:708;04:37:56:658;1448034834.72;(0.5621653079986573, 0.5662705739339193);72.1158676147;1.0;04:37:56:708;0;10;-1.5;1;0;0;0;0;1;1;1;1;2;0;0;;0;0;();();(-2000.0, -2000.0);
04:37:56:725;04:37:56:658;1448034834.72;(0.5621653079986573, 0.5662705739339193);72.1158676147;1.0;04:37:56:725;0;4;-1.5;1;0;0;0;0;1;1;1;1;2;0;0;;0;0;();();(-2000.0, -2000.0);
04:37:56:742;04:37:56:734;1448034834.79;(0.5598145484924316, 0.566217549641927);72.5268096924;0.964994796909;04:37:56:742;0;4;-1.5;1;0;0;0;0;1;1;1;1;2;0;0;;0;0;();();(-2000.0, -2000.0);
04:37:56:760;04:37:56:734;1448034834.79;(0.5598145484924316, 0.566217549641927);72.5268096924;0.964994796909;04:37:56:759;0;0;-1.5;1;0;0;0;0;1;1;1;1;2;0;0;;0;0;();();(-2000.0, -2000.0);
04:37:56:775;04:37:56:734;1448034834.79;(0.5598145484924316, 0.566217549641927);72.5268096924;0.964994796909;04:37:56:775;0;10;-1.5;1;0;0;0;0;1;1;1;1;2;0;0;;0;0;();();(-2000.0, -2000.0);
04:37:56:809;04:37:56:795;1448034834.82;(0.5584834098815918, 0.5661453247070313);72.4500427246;1.0;04:37:56:809;0;4;-1.5;1;0;0;0;0;1;1;1;1;2;0;0;;0;0;();();(-2000.0, -2000.0);
04:37:56:825;04:37:56:795;1448034834.82;(0.5584834098815918, 0.5661453247070313);72.4500427246;1.0;04:37:56:825;0;15;-1.5;1;0;0;0;0;1;1;1;1;2;0;0;;0;0;();();(-2000.0, -2000.0);
04:37:56:842;04:37:56:795;1448034834.82;(0.5584834098815918, 0.5661453247070313);72.4500427246;1.0;04:37:56:842;0;5;-1.5;1;0;0;0;0;1;1;1;1;2;0;0;;0;0;();();(-2000.0, -2000.0);
04:37:56:859;04:37:56:795;1448034834.82;(0.5584834098815918, 0.5661453247070313);72.4500427246;1.0;04:37:56:859;0;10;-1.5;1;0;0;0;0;1;1;1;1;2;0;0;;0;0;();();(-2000.0, -2000.0);
04:37:56:875;04:37:56:795;1448034834.82;(0.5584834098815918, 0.5661453247070313);72.4500427246;1.0;04:37:56:875;0;5;-1.5;1;0;0;0;0;1;1;1;1;2;0;0;;0;0;();();(-2000.0, -2000.0);
04:37:56:909;04:37:56:795;1448034834.82;(0.5584834098815918, 0.5661453247070313);72.4500427246;1.0;04:37:56:909;0;5;-1.5;1;0;0;0;0;1;1;1;1;2;0;0;;0;0;();();(-2000.0, -2000.0);
04:37:56:925;04:37:56:795;1448034834.82;(0.5584834098815918, 0.5661453247070313);72.4500427246;1.0;04:37:56:925;0;10;-1.5;1;0;0;0;0;1;1;1;1;2;0;0;;0;0;();();(-2000.0, -2000.0);
04:37:56:942;04:37:56:795;1448034834.82;(0.5584834098815918, 0.5661453247070313);72.4500427246;1.0;04:37:56:942;0;4;-1.5;1;0;0;0;0;1;1;1;1;2;0;0;;0;0;();();(-2000.0, -2000.0);
04:37:56:959;04:37:56:795;1448034834.82;(0.5584834098815918, 0.5661453247070313);72.4500427246;1.0;04:37:56:959;0;10;-1.5;1;0;0;0;0;1;1;1;1;2;0;0;;0;0;();();(-2000.0, -2000.0);
04:37:56:976;04:37:56:795;1448034834.82;(0.5584834098815918, 0.5661453247070313);72.4500427246;1.0;04:37:56:976;0;15;-1.5;1;0;0;0;0;1;1;1;1;2;0;0;;0;0;();();(-2000.0, -2000.0);
04:37:57:009;04:37:56:990;1448034835.04;(0.6066702842712403, 0.5520147111680773);71.9076538086;1.0;04:37:57:009;0;5;-1.5;170.5;1.17302052785924;0;0;0;1;1;1;1;2;0;0;;0;0;();();(-2000.0, -2000.0);
04:37:57:026;04:37:56:990;1448034835.04;(0.6066702842712403, 0.5520147111680773);71.9076538086;1.0;04:37:57:026;0;10;-1.5;146.142857142857;1.46627565982405;0;0;0;1;1;1;1;2;0;0;;0;0;();();(-2000.0, -2000.0);
04:37:57:043;04:37:56:990;1448034835.04;(0.6066702842712403, 0.5520147111680773);71.9076538086;1.0;04:37:57:043;0;4;-1.5;170.5;1.17302052785924;0;0;0;1;1;1;1;2;0;0;;0;0;();();(-2000.0, -2000.0);
04:37:57:060;04:37:57:057;1448034835.09;(0.6037559509277344, 0.5523382822672527);72.7664337158;0.820025096584;04:37:57:060;0;9;-1.5;170.5;1.17302052785924;0;0;0;1;1;1;1;2;0;0;;0;0;();();(-2000.0, -2000.0);
04:37:57:075;04:37:57:057;1448034835.09;(0.6037559509277344, 0.5523382822672527);72.7664337158;0.820025096584;04:37:57:075;0;0;-1.5;146.142857142857;1.17302052785924;0;0;0;1;1;1;1;2;0;0;;0;0;();();(-2000.0, -2000.0);
04:37:57:109;04:37:57:057;1448034835.09;(0.6037559509277344, 0.5523382822672527);72.7664337158;0.820025096584;04:37:57:109;0;15;-1.5;1;0;0;0;0;1;1;1;1;2;0;0;;0;0;();();(-2000.0, -2000.0);
04:37:57:126;04:37:57:057;1448034835.09;(0.6037559509277344, 0.5523382822672527);72.7664337158;0.820025096584;04:37:57:126;0;4;-1.5;1;0;0;0;0;1;1;1;1;2;0;0;;0;0;();();(-2000.0, -2000.0);
04:37:57:142;04:37:57:057;1448034835.09;(0.6037559509277344, 0.5523382822672527);72.7664337158;0.820025096584;04:37:57:142;0;15;-1.5;1;0;0;0;0;1;1;1;1;2;0;0;;0;0;();();(-2000.0, -2000.0);
04:37:57:158;04:37:57:057;1448034835.09;(0.6037559509277344, 0.5523382822672527);72.7664337158;0.820025096584;04:37:57:158;0;4;-1.5;1;0;0;0;0;1;1;1;1;2;0;0;;0;0;();();(-2000.0, -2000.0);
04:37:57:175;04:37:57:057;1448034835.09;(0.6037559509277344, 0.5523382822672527);72.7664337158;0.820025096584;04:37:57:175;0;0;-1.5;1;0;0;0;0;1;1;1;1;2;0;0;;0;0;();();(-2000.0, -2000.0);
04:37:57:209;04:37:57:191;1448034835.12;(0.6074412345886231, 0.5488274892171223);72.7762908936;0.993987458813;04:37:57:209;0;15;-1.5;1;0;0;0;0;1;1;1;1;2;0;0;;0;0;();();(-2000.0, -2000.0);
04:37:57:226;04:37:57:191;1448034835.12;(0.6074412345886231, 0.5488274892171223);72.7762908936;0.993987458813;04:37:57:226;0;4;-1.5;1;0;0;0;0;1;1;1;1;2;0;0;;0;0;();();(-2000.0, -2000.0);
04:37:57:243;04:37:57:191;1448034835.12;(0.6074412345886231, 0.5488274892171223);72.7762908936;0.993987458813;04:37:57:243;0;15;-1.5;1;0;0;0;0;1;1;1;1;2;0;0;;0;0;();();(-2000.0, -2000.0);
04:37:57:260;04:37:57:191;1448034835.12;(0.6074412345886231, 0.5488274892171223);72.7762908936;0.993987458813;04:37:57:260;0;5;-1.5;1;0;0;0;0;1;1;1;1;2;0;0;;0;0;();();(-2000.0, -2000.0);
04:37:57:276;04:37:57:261;1448034835.32;(0.6011811256408691, 0.5509931776258681);72.8106155396;0.911613459963;04:37:57:276;0;5;-1.5;1;0;0;0;0;1;1;1;1;2;0;0;;0;0;();();(-2000.0, -2000.0);
04:37:57:309;04:37:57:261;1448034835.32;(0.6011811256408691, 0.5509931776258681);72.8106155396;0.911613459963;04:37:57:309;0;15;-1.5;1;0;0;0;0;1;1;1;1;2;0;0;;0;0;();();(-2000.0, -2000.0);
04:37:57:327;04:37:57:322;1448034835.39;(0.6029951572418213, 0.5489221784803602);72.873626709;0.912704098172;04:37:57:327;0;5;-1.5;1;0;0;0;0;1;1;1;1;2;0;0;;0;0;();();(-2000.0, -2000.0);
04:37:57:343;04:37:57:322;1448034835.39;(0.6029951572418213, 0.5489221784803602);72.873626709;0.912704098172;04:37:57:343;0;10;-1.5;1;0;0;0;0;1;1;1;1;2;0;0;;0;0;();();(-2000.0, -2000.0);
04:37:57:359;04:37:57:322;1448034835.39;(0.6029951572418213, 0.5489221784803602);72.873626709;0.912704098172;04:37:57:359;0;15;-1.5;1.18953488372093;0;0;0;0;1;1;1;1;2;0;0;;0;0;();();(-2000.0, -2000.0);
04:37:57:376;04:37:57:322;1448034835.39;(0.6029951572418213, 0.5489221784803602);72.873626709;0.912704098172;04:37:57:376;0;9;-1.5;1;0;0;0;0;1;1;1;1;2;0;0;;0;0;();();(-2000.0, -2000.0);
04:37:57:409;04:37:57:390;1448034835.46;(0.6010194301605225, 0.5492017110188803);72.6533355713;1.0;04:37:57:409;0;9;-1.5;1;0;0;0;0;1;1;1;1;2;0;0;;0;0;();();(-2000.0, -2000.0);
04:37:57:426;04:37:57:390;1448034835.46;(0.6010194301605225, 0.5492017110188803);72.6533355713;1.0;04:37:57:426;0;7;-1.5;1;0;0;0;0;1;1;1;1;2;0;0;;0;0;();();(-2000.0, -2000.0);
04:37:57:442;04:37:57:390;1448034835.46;(0.6010194301605225, 0.5492017110188803);72.6533355713;1.0;04:37:57:442;0;9;-1.5;1;0;0;0;0;1;1;1;1;2;0;0;;0;0;();();(-2000.0, -2000.0);
04:37:57:460;04:37:57:453;1448034835.49;(0.6001344680786133, 0.5487177954779732);72.5688705444;1.0;04:37:57:460;0;13;-1.5;170.5;1.17302052785924;0;0;0;1;1;1;1;2;0;0;;0;0;();();(-2000.0, -2000.0);
04:37:57:476;04:37:57:453;1448034835.49;(0.6001344680786133, 0.5487177954779732);72.5688705444;1.0;04:37:57:476;0;9;-1.5;85.2500000000001;1.85728250244379;0;0;0;1;1;1;1;2;0;0;;0;0;();();(-2000.0, -2000.0);
04:37:57:509;04:37:57:453;1448034835.49;(0.6001344680786133, 0.5487177954779732);72.5688705444;1.0;04:37:57:509;0;10;-1.5;85.2500000000001;1.85728250244379;0;0;0;1;1;1;1;2;0;0;;0;0;();();(-2000.0, -2000.0);
04:37:57:526;04:37:57:523;1448034835.59;(0.5965356826782227, 0.547054206000434);72.7742080688;0.906360364005;04:37:57:526;0;15;-1.5;146.142857142857;1.46627565982405;0;0;0;1;1;1;1;2;0;0;;0;0;();();(-2000.0, -2000.0);
04:37:57:543;04:37:57:523;1448034835.59;(0.5965356826782227, 0.547054206000434);72.7742080688;0.906360364005;04:37:57:543;0;4;-1.5;170.5;1.17302052785924;0;0;0;1;1;1;1;2;0;0;;0;0;();();(-2000.0, -2000.0);
04:37:57:559;04:37:57:523;1448034835.59;(0.5965356826782227, 0.547054206000434);72.7742080688;0.906360364005;04:37:57:559;0;15;-1.5;170.5;1.17302052785924;0;0;0;1;1;1;1;2;0;0;;0;0;();();(-2000.0, -2000.0);
04:37:57:576;04:37:57:523;1448034835.59;(0.5965356826782227, 0.547054206000434);72.7742080688;0.906360364005;04:37:57:576;0;5;-1.5;170.5;1.17302052785924;0;0;0;1;1;1;1;2;0;0;;0;0;();();(-2000.0, -2000.0);
04:37:57:610;04:37:57:590;1448034835.66;(0.595775556564331, 0.545834477742513);72.984161377;1.0;04:37:57:610;0;4;-1.5;170.5;1.17302052785924;0;0;0;1;1;1;1;2;0;0;;0;0;();();(-2000.0, -2000.0);
04:37:57:626;04:37:57:590;1448034835.66;(0.595775556564331, 0.545834477742513);72.984161377;1.0;04:37:57:626;0;9;-1.5;170.5;1.17302052785924;0;0;0;1;1;1;1;2;0;0;;0;0;();();(-2000.0, -2000.0);
04:37:57:643;04:37:57:590;1448034835.66;(0.595775556564331, 0.545834477742513);72.984161377;1.0;04:37:57:643;0;4;-1.5;170.5;1.17302052785924;0;0;0;1;1;1;1;2;0;0;;0;0;();();(-2000.0, -2000.0);
04:37:57:663;04:37:57:590;1448034835.66;(0.595775556564331, 0.545834477742513);72.984161377;1.0;04:37:57:663;0;15;-1.5;4.2448132780083;0.684261974584555;0;0;0;1;1;1;1;4;0;0;;0;0;();();(-2000.0, -2000.0);
04:37:57:677;04:37:57:590;1448034835.66;(0.595775556564331, 0.545834477742513);72.984161377;1.0;04:37:57:677;0;4;-1.5;1;0;0;0;0;1;1;1;1;4;0;0;;0;0;();();(-2000.0, -2000.0);
04:37:57:710;04:37:57:590;1448034835.66;(0.595775556564331, 0.545834477742513);72.984161377;1.0;04:37:57:710;0;0;-1.5;170.5;1.17302052785924;0;0;0;1;1;1;1;4;0;0;;0;0;();();(-2000.0, -2000.0);
04:37:57:727;04:37:57:590;1448034835.66;(0.595775556564331, 0.545834477742513);72.984161377;1.0;04:37:57:727;0;10;-1.5;36.5357142857143;1.17302052785924;0;0;0;1;1;1;1;4;0;0;;0;0;();();(-2000.0, -2000.0);
04:37:57:742;04:37:57:590;1448034835.66;(0.595775556564331, 0.545834477742513);72.984161377;1.0;04:37:57:742;0;5;-1.5;170.5;1.17302052785924;0;0;0;1;1;1;1;4;0;0;;0;0;();();(-2000.0, -2000.0);
04:37:57:760;04:37:57:590;1448034835.66;(0.595775556564331, 0.545834477742513);72.984161377;1.0;04:37:57:760;0;9;-1.5;170.5;1.17302052785924;0;0;0;1;1;1;1;4;0;0;;0;0;();();(-2000.0, -2000.0);
04:37:57:777;04:37:57:590;1448034835.66;(0.595775556564331, 0.545834477742513);72.984161377;1.0;04:37:57:777;0;5;-1.5;2.56390977443609;0.0977517106549365;0;0;0;1;1;1;1;4;0;0;;0;0;();();(-2000.0, -2000.0);
04:37:57:810;04:37:57:786;1448034835.69;(0.5891042232513428, 0.5458040025499131);71.7697296143;0.763697130696;04:37:57:810;0;5;-1.5;3.78888888888889;0.586510263929619;0;0;0;1;1;1;1;4;0;0;;0;0;();();(-2000.0, -2000.0);
04:37:57:827;04:37:57:786;1448034835.69;(0.5891042232513428, 0.5458040025499131);71.7697296143;0.763697130696;04:37:57:827;0;10;-1.5;2.13125;0.0977517106549365;0;0;0;1;1;1;1;4;0;0;;0;0;();();(-2000.0, -2000.0);
04:37:57:843;04:37:57:786;1448034835.69;(0.5891042232513428, 0.5458040025499131);71.7697296143;0.763697130696;04:37:57:843;0;15;-1.5;12.3253012048193;0.684261974584555;0;0;0;1;1;1;1;4;0;0;;0;0;();();(-2000.0, -2000.0);
04:37:57:860;04:37:57:855;1448034835.9;(0.5638708591461181, 0.5644510057237413);74.054145813;1.0;04:37:57:860;0;9;-1.5;6.43396226415094;0.684261974584555;0;0;0;1;1;1;1;4;0;0;;0;0;();();(-2000.0, -2000.0);
04:37:57:876;04:37:57:855;1448034835.9;(0.5638708591461181, 0.5644510057237413);74.054145813;1.0;04:37:57:876;0;0;-1.5;1.03125;0;0;0;0;1;1;1;1;4;0;0;;0;0;();();(-2000.0, -2000.0);
04:37:57:910;04:37:57:855;1448034835.9;(0.5638708591461181, 0.5644510057237413);74.054145813;1.0;04:37:57:910;0;15;-1.5;146.142857142857;1.46627565982405;0;0;0;1;1;1;1;4;0;0;;0;0;();();(-2000.0, -2000.0);
04:37:57:927;04:37:57:921;1448034835.96;(0.5678648471832275, 0.5648379855685763);74.2785568237;1.0;04:37:57:927;0;15;-1.5;146.142857142857;1.46627565982405;0;0;0;1;1;1;1;4;0;0;;0;0;();();(-2000.0, -2000.0);
04:37:57:943;04:37:57:921;1448034835.96;(0.5678648471832275, 0.5648379855685763);74.2785568237;1.0;04:37:57:943;0;15;-1.5;146.142857142857;1.46627565982405;0;0;0;1;1;1;1;4;0;0;;0;0;();();(-2000.0, -2000.0);
04:37:57:960;04:37:57:921;1448034835.96;(0.5678648471832275, 0.5648379855685763);74.2785568237;1.0;04:37:57:960;0;15;-1.5;170.5;1.17302052785924;0;0;0;1;1;1;1;4;0;0;;0;0;();();(-2000.0, -2000.0);
04:37:57:977;04:37:57:921;1448034835.96;(0.5678648471832275, 0.5648379855685763);74.2785568237;1.0;04:37:57:977;0;0;-1.5;170.5;1.17302052785924;0;0;0;1;1;1;1;4;0;0;;0;0;();();(-2000.0, -2000.0);
04:37:58:010;04:37:57:986;1448034836.02;(0.5791434288024903, 0.5562533484564887);73.7601928711;1.0;04:37:58:010;0;15;-1.5;146.142857142857;1.46627565982405;0;0;0;1;1;1;1;4;0;0;;0;0;();();(-2000.0, -2000.0);
04:37:58:027;04:37:57:986;1448034836.02;(0.5791434288024903, 0.5562533484564887);73.7601928711;1.0;04:37:58:027;0;4;-1.5;170.5;1.17302052785924;0;0;0;1;1;1;1;4;0;0;;0;0;();();(-2000.0, -2000.0);
04:37:58:043;04:37:57:986;1448034836.02;(0.5791434288024903, 0.5562533484564887);73.7601928711;1.0;04:37:58:043;0;10;-1.5;170.5;1.17302052785924;0;0;0;1;1;1;1;4;0;0;;0;0;();();(-2000.0, -2000.0);
04:37:58:060;04:37:58:055;1448034836.09;(0.5796589851379395, 0.5565620422363281);73.8957977295;1.0;04:37:58:060;0;5;-1.5;146.142857142857;1.46627565982405;0;0;0;1;1;1;1;4;0;0;;0;0;();();(-2000.0, -2000.0);
04:37:58:076;04:37:58:055;1448034836.09;(0.5796589851379395, 0.5565620422363281);73.8957977295;1.0;04:37:58:076;0;15;-1.5;170.5;1.17302052785924;0;0;0;1;1;1;1;4;0;0;;0;0;();();(-2000.0, -2000.0);
04:37:58:110;04:37:58:055;1448034836.09;(0.5796589851379395, 0.5565620422363281);73.8957977295;1.0;04:37:58:110;0;9;-1.5;146.142857142857;1.46627565982405;0;0;0;1;1;1;1;4;0;0;;0;0;();();(-2000.0, -2000.0);
04:37:58:126;04:37:58:119;1448034836.16;(0.5797266960144043, 0.5571128421359592);73.116027832;1.0;04:37:58:126;0;5;-1.5;146.142857142857;1.46627565982405;0;0;0;1;1;1;1;4;0;0;;0;0;();();(-2000.0, -2000.0);
04:37:58:143;04:37:58:119;1448034836.16;(0.5797266960144043, 0.5571128421359592);73.116027832;1.0;04:37:58:143;0;10;-1.5;1;0;0;0;0;1;1;1;1;4;0;0;;0;0;();();(-2000.0, -2000.0);
04:37:58:160;04:37:58:119;1448034836.16;(0.5797266960144043, 0.5571128421359592);73.116027832;1.0;04:37:58:160;0;15;-1.5;1;0;0;0;0;1;1;1;1;4;0;0;;0;0;();();(-2000.0, -2000.0);
04:37:58:177;04:37:58:119;1448034836.16;(0.5797266960144043, 0.5571128421359592);73.116027832;1.0;04:37:58:177;0;9;-1.5;1;0;0;0;0;1;1;1;1;4;0;0;;0;0;();();(-2000.0, -2000.0);
04:37:58:210;04:37:58:119;1448034836.16;(0.5797266960144043, 0.5571128421359592);73.116027832;1.0;04:37:58:210;0;10;-1.5;1;0;0;0;0;1;1;1;1;4;0;0;;0;0;();();(-2000.0, -2000.0);
04:37:58:227;04:37:58:119;1448034836.16;(0.5797266960144043, 0.5571128421359592);73.116027832;1.0;04:37:58:227;0;15;-1.5;170.5;1.17302052785924;0;0;0;1;1;1;1;4;0;0;;0;0;();();(-2000.0, -2000.0);
04:37:58:243;04:37:58:119;1448034836.16;(0.5797266960144043, 0.5571128421359592);73.116027832;1.0;04:37:58:243;0;9;-1.5;170.5;1.17302052785924;0;0;0;1;1;1;1;4;0;0;;0;0;();();(-2000.0, -2000.0);
04:37:58:260;04:37:58:119;1448034836.16;(0.5797266960144043, 0.5571128421359592);73.116027832;1.0;04:37:58:260;0;4;-1.5;146.142857142857;1.46627565982405;0;0;0;1;1;1;1;4;0;0;;0;0;();();(-2000.0, -2000.0);
04:37:58:277;04:37:58:119;1448034836.16;(0.5797266960144043, 0.5571128421359592);73.116027832;1.0;04:37:58:277;0;9;-1.5;146.142857142857;1.46627565982405;0;0;0;1;1;1;1;4;0;0;;0;0;();();(-2000.0, -2000.0);
04:37:58:310;04:37:58:119;1448034836.16;(0.5797266960144043, 0.5571128421359592);73.116027832;1.0;04:37:58:310;0;4;-1.5;1;0;0;0;0;1;1;1;1;4;0;0;;0;0;();();(-2000.0, -2000.0);
04:37:58:329;04:37:58:317;1448034836.19;(0.5721734046936036, 0.5655393812391494);73.7603378296;0.999483863308;04:37:58:328;0;4;-1.5;1;0;0;0;0;1;1;1;1;4;0;0;;0;0;();();(-2000.0, -2000.0);
04:37:58:343;04:37:58:317;1448034836.19;(0.5721734046936036, 0.5655393812391494);73.7603378296;0.999483863308;04:37:58:343;0;4;-1.5;146.142857142857;1.46627565982405;0;0;0;1;1;1;1;4;0;0;;0;0;();();(-2000.0, -2000.0);
04:37:58:360;04:37:58:317;1448034836.19;(0.5721734046936036, 0.5655393812391494);73.7603378296;0.999483863308;04:37:58:360;0;0;-1.5;1;0;0;0;0;1;1;1;1;4;0;0;;0;0;();();(-2000.0, -2000.0);
04:37:58:377;04:37:58:317;1448034836.19;(0.5721734046936036, 0.5655393812391494);73.7603378296;0.999483863308;04:37:58:377;0;13;-1.5;1;0;0;0;0;1;1;1;1;4;0;0;;0;0;();();(-2000.0, -2000.0);
04:37:58:410;04:37:58:317;1448034836.19;(0.5721734046936036, 0.5655393812391494);73.7603378296;0.999483863308;04:37:58:410;0;4;-1.5;1;0;0;0;0;1;1;1;1;4;0;0;;0;0;();();(-2000.0, -2000.0);
04:37:58:427;04:37:58:317;1448034836.19;(0.5721734046936036, 0.5655393812391494);73.7603378296;0.999483863308;04:37:58:427;0;9;-1.5;170.5;1.17302052785924;0;0;0;1;1;1;1;4;0;0;;0;0;();();(-2000.0, -2000.0);
04:37:58:443;04:37:58:317;1448034836.19;(0.5721734046936036, 0.5655393812391494);73.7603378296;0.999483863308;04:37:58:443;0;5;-1.5;170.5;1.17302052785924;0;0;0;1;1;1;1;4;0;0;;0;0;();();(-2000.0, -2000.0);
04:37:58:460;04:37:58:450;1448034836.37;(0.5670114517211914, 0.5495546552870009);74.0929107666;1.0;04:37:58:460;0;15;-1.5;146.142857142857;1.17302052785924;0;0;0;1;1;1;1;4;0;0;;0;0;();();(-2000.0, -2000.0);
04:37:58:477;04:37:58:450;1448034836.37;(0.5670114517211914, 0.5495546552870009);74.0929107666;1.0;04:37:58:477;0;4;-1.5;1;0;0;0;0;1;1;1;1;4;0;0;;0;0;();();(-2000.0, -2000.0);
04:37:58:494;04:37:58:450;1448034836.37;(0.5670114517211914, 0.5495546552870009);74.0929107666;1.0;04:37:58:494;0;15;-1.5;170.5;0.684261974584555;0;0;0;1;1;1;1;4;0;0;;0;0;();();(-2000.0, -2000.0);
04:37:58:528;04:37:58:518;1448034836.5;(0, 0);0;0;04:37:58:528;0;10;-1.5;146.142857142857;1.46627565982405;0;0;0;1;1;1;1;4;0;0;;0;0;();();(-2000.0, -2000.0);
04:37:58:544;04:37:58:518;1448034836.5;(0, 0);0;0;04:37:58:544;0;10;-1.5;146.142857142857;1.46627565982405;0;0;0;1;1;1;1;4;0;0;;0;0;();();(-2000.0, -2000.0);
04:37:58:560;04:37:58:518;1448034836.5;(0, 0);0;0;04:37:58:560;0;5;-1.5;146.142857142857;1.46627565982405;0;0;0;1;1;1;1;4;0;0;;0;0;();();(-2000.0, -2000.0);
04:37:58:577;04:37:58:518;1448034836.5;(0, 0);0;0;04:37:58:577;0;5;-1.5;146.142857142857;1.46627565982405;0;0;0;1;1;1;1;4;0;0;;0;0;();();(-2000.0, -2000.0);
04:37:58:611;04:37:58:592;1448034836.55;(0.6098998069763184, 0.8854749785529242);24.873758316;0.635185007454;04:37:58:611;0;5;-1.5;170.5;1.17302052785924;0;0;0;1;1;1;1;4;0;0;;0;0;();();(-2000.0, -2000.0);
04:37:58:627;04:37:58:592;1448034836.55;(0.6098998069763184, 0.8854749785529242);24.873758316;0.635185007454;04:37:58:627;0;10;-1.5;1.32684824902724;0;0;0;0;1;1;1;1;4;0;0;;0;0;();();(-2000.0, -2000.0);
04:37:58:644;04:37:58:592;1448034836.55;(0.6098998069763184, 0.8854749785529242);24.873758316;0.635185007454;04:37:58:644;0;15;-1.5;1;0;0;0;0;1;1;1;1;4;0;0;;0;0;();();(-2000.0, -2000.0);
04:37:58:660;04:37:58:592;1448034836.55;(0.6098998069763184, 0.8854749785529242);24.873758316;0.635185007454;04:37:58:660;0;9;-1.5;1;0;0;0;0;1;1;1;1;4;0;0;;0;0;();();(-2000.0, -2000.0);
04:37:58:677;04:37:58:592;1448034836.55;(0.6098998069763184, 0.8854749785529242);24.873758316;0.635185007454;04:37:58:677;0;0;-1.5;1;0;0;0;0;1;1;1;1;4;0;0;;0;0;();();(-2000.0, -2000.0);
04:37:58:711;04:37:58:592;1448034836.55;(0.6098998069763184, 0.8854749785529242);24.873758316;0.635185007454;04:37:58:711;0;15;-1.5;170.5;1.17302052785924;0;0;0;1;1;1;1;4;0;0;;0;0;();();(-2000.0, -2000.0);
04:37:58:727;04:37:58:718;1448034836.67;(0.6180223941802978, 0.6812140146891277);75.0218582153;0.974396206533;04:37:58:727;0;4;-1.5;1;0;0;0;0;1;1;1;1;4;0;0;;0;0;();();(-2000.0, -2000.0);
04:37:58:743;04:37:58:718;1448034836.67;(0.6180223941802978, 0.6812140146891277);75.0218582153;0.974396206533;04:37:58:743;0;9;-1.5;1.00887573964497;0;0;0;0;1;1;1;1;4;0;0;;0;0;();();(-2000.0, -2000.0);
04:37:58:761;04:37:58:718;1448034836.67;(0.6180223941802978, 0.6812140146891277);75.0218582153;0.974396206533;04:37:58:761;0;9;-1.5;1.00887573964497;0;0;0;0;1;1;1;1;4;0;0;;0;0;();();(-2000.0, -2000.0);
04:37:58:777;04:37:58:718;1448034836.67;(0.6180223941802978, 0.6812140146891277);75.0218582153;0.974396206533;04:37:58:777;0;15;-1.5;146.142857142857;1.46627565982405;0;0;0;1;1;1;1;4;0;0;;0;0;();();(-2000.0, -2000.0);
04:37:58:811;04:37:58:718;1448034836.67;(0.6180223941802978, 0.6812140146891277);75.0218582153;0.974396206533;04:37:58:811;0;15;-1.5;146.142857142857;1.46627565982405;0;0;0;1;1;1;1;4;0;0;;0;0;();();(-2000.0, -2000.0);
04:37:58:827;04:37:58:718;1448034836.67;(0.6180223941802978, 0.6812140146891277);75.0218582153;0.974396206533;04:37:58:827;0;4;-1.5;170.5;1.17302052785924;0;0;0;1;1;1;1;4;0;0;;0;0;();();(-2000.0, -2000.0);
04:37:58:844;04:37:58:718;1448034836.67;(0.6180223941802978, 0.6812140146891277);75.0218582153;0.974396206533;04:37:58:844;0;10;-1.5;170.5;1.17302052785924;0;0;0;1;1;1;1;4;0;0;;0;0;();();(-2000.0, -2000.0);
04:37:58:861;04:37:58:718;1448034836.67;(0.6180223941802978, 0.6812140146891277);75.0218582153;0.974396206533;04:37:58:861;0;15;-1.5;170.5;1.17302052785924;0;0;0;1;1;1;1;4;0;0;;0;0;();();(-2000.0, -2000.0);
04:37:58:877;04:37:58:718;1448034836.67;(0.6180223941802978, 0.6812140146891277);75.0218582153;0.974396206533;04:37:58:877;0;15;-1.5;170.5;1.17302052785924;0;0;0;1;1;1;1;4;0;0;;0;0;();();(-2000.0, -2000.0);
04:37:58:894;04:37:58:718;1448034836.67;(0.6180223941802978, 0.6812140146891277);75.0218582153;0.974396206533;04:37:58:894;0;9;-1.5;170.5;1.17302052785924;0;0;0;1;1;1;1;4;0;0;;0;0;();();(-2000.0, -2000.0);
04:37:58:927;04:37:58:919;1448034836.99;(0.34359843730926515, 0.783289188808865);26.0947780609;0.864843495613;04:37:58:927;0;5;-1.5;170.5;1.17302052785924;0;0;0;1;1;1;1;4;0;0;;0;0;();();(-2000.0, -2000.0);
04:37:58:944;04:37:58:919;1448034836.99;(0.34359843730926515, 0.783289188808865);26.0947780609;0.864843495613;04:37:58:944;0;10;-1.5;146.142857142857;1.46627565982405;0;0;0;1;1;1;1;4;0;0;;0;0;();();(-2000.0, -2000.0);
04:37:58:961;04:37:58:919;1448034836.99;(0.34359843730926515, 0.783289188808865);26.0947780609;0.864843495613;04:37:58:961;0;4;-1.5;170.5;1.17302052785924;0;0;0;1;1;1;1;4;0;0;;0;0;();();(-2000.0, -2000.0);
04:37:58:977;04:37:58:919;1448034836.99;(0.34359843730926515, 0.783289188808865);26.0947780609;0.864843495613;04:37:58:977;0;9;-1.5;170.5;1.17302052785924;0;0;0;1;1;1;1;4;0;0;;0;0;();();(-2000.0, -2000.0);
04:37:58:994;04:37:58:982;1448034837.02;(0.34304821491241455, 0.7834877438015408);26.445350647;0.983625649792;04:37:58:994;0;4;-1.5;146.142857142857;1.46627565982405;0;0;0;1;1;1;1;4;0;0;;0;0;();();(-2000.0, -2000.0);
04:37:59:027;04:37:58:982;1448034837.02;(0.34304821491241455, 0.7834877438015408);26.445350647;0.983625649792;04:37:59:027;0;15;-1.5;146.142857142857;1.46627565982405;0;0;0;1;1;1;1;4;0;0;;0;0;();();(-2000.0, -2000.0);
04:37:59:044;04:37:58:982;1448034837.02;(0.34304821491241455, 0.7834877438015408);26.445350647;0.983625649792;04:37:59:044;0;4;-1.5;170.5;1.17302052785924;0;0;0;1;1;1;1;4;0;0;;0;0;();();(-2000.0, -2000.0);
04:37:59:061;04:37:59:050;1448034837.12;(0.3436783790588379, 0.7835425059000651);26.4477424622;0.979338923825;04:37:59:061;0;15;-1.5;146.142857142857;1.46627565982405;0;0;0;1;1;1;1;4;0;0;;0;0;();();(-2000.0, -2000.0);
04:37:59:078;04:37:59:050;1448034837.12;(0.3436783790588379, 0.7835425059000651);26.4477424622;0.979338923825;04:37:59:078;0;5;-1.5;170.5;1.17302052785924;0;0;0;1;1;1;1;4;0;0;;0;0;();();(-2000.0, -2000.0);
04:37:59:095;04:37:59:050;1448034837.12;(0.3436783790588379, 0.7835425059000651);26.4477424622;0.979338923825;04:37:59:095;0;5;-1.5;170.5;1.17302052785924;0;0;0;1;1;1;1;4;0;0;;0;0;();();(-2000.0, -2000.0);
04:37:59:127;04:37:59:117;1448034837.16;(0.34371380805969237, 0.7843234168158637);26.9140720367;0.95140346826;04:37:59:127;0;9;-1.5;85.2500000000001;1.85728250244379;0;0;0;1;1;1;1;4;0;0;;0;0;();();(-2000.0, -2000.0);
04:37:59:144;04:37:59:117;1448034837.16;(0.34371380805969237, 0.7843234168158637);26.9140720367;0.95140346826;04:37:59:144;0;4;-1.5;170.5;1.17302052785924;0;0;0;1;1;1;1;4;0;0;;0;0;();();(-2000.0, -2000.0);
04:37:59:161;04:37:59:117;1448034837.16;(0.34371380805969237, 0.7843234168158637);26.9140720367;0.95140346826;04:37:59:161;0;10;-1.5;1.95229007633588;0;0;0;0;1;1;1;1;4;0;0;;0;0;();();(-2000.0, -2000.0);
04:37:59:178;04:37:59:117;1448034837.16;(0.34371380805969237, 0.7843234168158637);26.9140720367;0.95140346826;04:37:59:178;0;10;-1.5;1.95229007633588;0;0;0;0;1;1;1;1;4;0;0;;0;0;();();(-2000.0, -2000.0);
04:37:59:194;04:37:59:182;1448034837.22;(0.3438018798828125, 0.7840446048312717);27.951543808;0.896272861113;04:37:59:194;0;15;-1.5;1;0;0;0;0;1;1;1;1;4;0;0;;0;0;();();(-2000.0, -2000.0);
04:37:59:227;04:37:59:182;1448034837.22;(0.3438018798828125, 0.7840446048312717);27.951543808;0.896272861113;04:37:59:227;0;15;-1.5;146.142857142857;1.46627565982405;0;0;0;1;1;1;1;4;0;0;;0;0;();();(-2000.0, -2000.0);
04:37:59:245;04:37:59:182;1448034837.22;(0.3438018798828125, 0.7840446048312717);27.951543808;0.896272861113;04:37:59:245;0;5;-1.5;170.5;1.17302052785924;0;0;0;1;1;1;1;4;0;0;;0;0;();();(-2000.0, -2000.0);
04:37:59:261;04:37:59:252;1448034837.29;(0.34346320629119875, 0.7828195359971788);26.8796710968;0.913728328602;04:37:59:261;0;10;-1.5;146.142857142857;1.46627565982405;0;0;0;1;1;1;1;4;0;0;;0;0;();();(-2000.0, -2000.0);
04:37:59:278;04:37:59:252;1448034837.29;(0.34346320629119875, 0.7828195359971788);26.8796710968;0.913728328602;04:37:59:278;0;4;-1.5;170.5;1.17302052785924;0;0;0;1;1;1;1;4;0;0;;0;0;();();(-2000.0, -2000.0);
04:37:59:294;04:37:59:252;1448034837.29;(0.34346320629119875, 0.7828195359971788);26.8796710968;0.913728328602;04:37:59:294;0;15;-1.5;170.5;0.684261974584555;0;0;0;1;1;1;1;4;0;0;;0;0;();();(-2000.0, -2000.0);
04:37:59:328;04:37:59:313;1448034837.36;(0.34356396198272704, 0.7823693381415473);27.2655391693;0.811880791092;04:37:59:328;0;10;-1.5;170.5;1.17302052785924;0;0;0;1;1;1;1;4;0;0;;0;0;();();(-2000.0, -2000.0);
04:37:59:345;04:37:59:313;1448034837.36;(0.34356396198272704, 0.7823693381415473);27.2655391693;0.811880791092;04:37:59:345;0;4;-1.5;170.5;1.17302052785924;0;0;0;1;1;1;1;4;0;0;;0;0;();();(-2000.0, -2000.0);
04:37:59:361;04:37:59:313;1448034837.36;(0.34356396198272704, 0.7823693381415473);27.2655391693;0.811880791092;04:37:59:361;0;10;-1.5;146.142857142857;1.46627565982405;0;0;0;1;1;1;1;4;0;0;;0;0;();();(-2000.0, -2000.0);
04:37:59:378;04:37:59:313;1448034837.36;(0.34356396198272704, 0.7823693381415473);27.2655391693;0.811880791092;04:37:59:378;0;4;-1.5;1;0;0;0;0;1;1;1;1;4;0;0;;0;0;();();(-2000.0, -2000.0);
04:37:59:395;04:37:59:313;1448034837.36;(0.34356396198272704, 0.7823693381415473);27.2655391693;0.811880791092;04:37:59:395;0;9;-1.5;1;0;0;0;0;1;1;1;1;4;0;0;;0;0;();();(-2000.0, -2000.0);
04:37:59:427;04:37:59:313;1448034837.36;(0.34356396198272704, 0.7823693381415473);27.2655391693;0.811880791092;04:37:59:427;0;10;-1.5;1;0;0;0;0;1;1;1;1;4;0;0;;0;0;();();(-2000.0, -2000.0);
04:37:59:444;04:37:59:313;1448034837.36;(0.34356396198272704, 0.7823693381415473);27.2655391693;0.811880791092;04:37:59:444;0;10;-1.5;85.2500000000001;1.85728250244379;0;0;0;1;1;1;1;4;0;0;;0;0;();();(-2000.0, -2000.0);
04:37:59:462;04:37:59:446;1448034837.5;(0.6061361312866211, 0.6572959476047092);72.7693023682;1.0;04:37:59:462;0;4;-1.5;170.5;1.17302052785924;0;0;0;1;1;1;1;4;1;3;28;0;0;();();(-2000.0, -2000.0);
04:37:59:478;04:37:59:446;1448034837.5;(0.6061361312866211, 0.6572959476047092);72.7693023682;1.0;04:37:59:478;0;0;-1.5;170.5;1.17302052785924;0;0;0;1;1;1;1;4;0;0;;0;0;();();(-2000.0, -2000.0);
04:37:59:495;04:37:59:446;1448034837.5;(0.6061361312866211, 0.6572959476047092);72.7693023682;1.0;04:37:59:495;0;10;-1.5;170.5;1.17302052785924;0;0;0;1;1;1;1;4;0;0;;0;0;();();(-2000.0, -2000.0);
04:37:59:527;04:37:59:518;1448034837.56;(0.6063794136047364, 0.658858405219184);72.5067825317;1.0;04:37:59:527;0;4;-1.5;170.5;1.17302052785924;0;0;0;1;1;1;1;4;0;0;;0;0;();();(-2000.0, -2000.0);
04:37:59:545;04:37:59:518;1448034837.56;(0.6063794136047364, 0.658858405219184);72.5067825317;1.0;04:37:59:545;0;9;-1.5;170.5;1.17302052785924;0;0;0;1;1;1;1;4;0;0;;0;0;();();(-2000.0, -2000.0);
04:37:59:562;04:37:59:518;1448034837.56;(0.6063794136047364, 0.658858405219184);72.5067825317;1.0;04:37:59:562;0;10;-1.5;170.5;1.17302052785924;0;0;0;1;1;1;1;4;0;0;;0;0;();();(-2000.0, -2000.0);
04:37:59:578;04:37:59:518;1448034837.56;(0.6063794136047364, 0.658858405219184);72.5067825317;1.0;04:37:59:578;0;0;-1.5;4.84834123222749;0.684261974584555;0;0;0;1;1;1;1;4;0;0;;0;0;();();(-2000.0, -2000.0);
04:37:59:594;04:37:59:582;1448034837.62;(0.6057734012603759, 0.6597585890028212);72.3257980347;1.0;04:37:59:594;0;4;-1.5;1;0;0;0;0;1;1;1;1;4;0;0;;0;0;();();(-2000.0, -2000.0);
04:37:59:628;04:37:59:582;1448034837.62;(0.6057734012603759, 0.6597585890028212);72.3257980347;1.0;04:37:59:628;0;4;-1.5;170.5;1.17302052785924;0;0;0;1;1;1;1;4;0;0;;0;0;();();(-2000.0, -2000.0);
04:37:59:645;04:37:59:582;1448034837.62;(0.6057734012603759, 0.6597585890028212);72.3257980347;1.0;04:37:59:645;0;10;-1.5;170.5;1.17302052785924;0;0;0;1;1;1;1;4;0;0;;0;0;();();(-2000.0, -2000.0);
04:37:59:661;04:37:59:647;1448034837.69;(0.6052781581878662, 0.6595914204915365);72.643737793;1.0;04:37:59:661;0;15;-1.5;170.5;1.17302052785924;0;0;0;1;1;1;1;4;0;0;;0;0;();();(-2000.0, -2000.0);
04:37:59:678;04:37:59:647;1448034837.69;(0.6052781581878662, 0.6595914204915365);72.643737793;1.0;04:37:59:678;0;10;-1.5;146.142857142857;1.46627565982405;0;0;0;1;1;1;1;4;0;0;;0;0;();();(-2000.0, -2000.0);
04:37:59:695;04:37:59:647;1448034837.69;(0.6052781581878662, 0.6595914204915365);72.643737793;1.0;04:37:59:695;0;15;-1.5;170.5;1.17302052785924;0;0;0;1;1;1;1;4;0;0;;0;0;();();(-2000.0, -2000.0);
04:37:59:728;04:37:59:714;1448034837.76;(0.6050451755523681, 0.6601189295450847);72.9149246216;1.0;04:37:59:728;0;0;-1.5;170.5;1.17302052785924;0;0;0;1;1;1;1;4;0;0;;0;0;();();(-2000.0, -2000.0);
04:37:59:745;04:37:59:714;1448034837.76;(0.6050451755523681, 0.6601189295450847);72.9149246216;1.0;04:37:59:745;0;10;-1.5;170.5;1.17302052785924;0;0;0;1;1;1;1;4;0;0;;0;0;();();(-2000.0, -2000.0);
04:37:59:761;04:37:59:714;1448034837.76;(0.6050451755523681, 0.6601189295450847);72.9149246216;1.0;04:37:59:761;0;4;-1.5;170.5;1.17302052785924;0;0;0;1;1;1;1;4;0;0;;0;0;();();(-2000.0, -2000.0);
04:37:59:778;04:37:59:777;1448034837.82;(0.6044256210327148, 0.6600559870402019);73.412437439;1.0;04:37:59:778;0;9;-1.5;170.5;1.17302052785924;0;0;0;1;1;1;1;4;0;0;;0;0;();();(-2000.0, -2000.0);
04:37:59:794;04:37:59:777;1448034837.82;(0.6044256210327148, 0.6600559870402019);73.412437439;1.0;04:37:59:794;0;5;-1.5;170.5;1.17302052785924;0;0;0;1;1;1;1;4;0;0;;0;0;();();(-2000.0, -2000.0);
04:37:59:828;04:37:59:777;1448034837.82;(0.6044256210327148, 0.6600559870402019);73.412437439;1.0;04:37:59:828;0;10;-1.5;170.5;1.17302052785924;0;0;0;1;1;1;1;4;0;0;;0;0;();();(-2000.0, -2000.0);
04:37:59:845;04:37:59:777;1448034837.82;(0.6044256210327148, 0.6600559870402019);73.412437439;1.0;04:37:59:845;0;10;-1.5;170.5;1.17302052785924;0;0;0;1;1;1;1;4;0;0;;0;0;();();(-2000.0, -2000.0);
04:37:59:861;04:37:59:846;1448034837.89;(0.6036049842834472, 0.6615645938449436);73.8378219604;1.0;04:37:59:861;0;10;-1.5;170.5;1.17302052785924;0;0;0;1;1;1;1;4;0;0;;0;0;();();(-2000.0, -2000.0);
04:37:59:878;04:37:59:846;1448034837.89;(0.6036049842834472, 0.6615645938449436);73.8378219604;1.0;04:37:59:878;0;1;-1.5;170.5;1.17302052785924;0;0;0;1;1;1;1;4;0;0;;0;0;();();(-2000.0, -2000.0);
04:37:59:895;04:37:59:846;1448034837.89;(0.6036049842834472, 0.6615645938449436);73.8378219604;1.0;04:37:59:895;0;10;-1.5;170.5;1.17302052785924;0;0;0;1;1;1;1;4;0;0;;0;0;();();(-2000.0, -2000.0);
04:37:59:929;04:37:59:846;1448034837.89;(0.6036049842834472, 0.6615645938449436);73.8378219604;1.0;04:37:59:929;0;15;-1.5;1;0;0;0;0;1;1;1;1;4;0;0;;0;0;();();(-2000.0, -2000.0);
04:37:59:945;04:37:59:846;1448034837.89;(0.6036049842834472, 0.6615645938449436);73.8378219604;1.0;04:37:59:945;0;4;-1.5;1;0;0;0;0;1;1;1;1;4;0;0;;0;0;();();(-2000.0, -2000.0);
04:37:59:961;04:37:59:846;1448034837.89;(0.6036049842834472, 0.6615645938449436);73.8378219604;1.0;04:37:59:961;0;4;-1.5;1;0;0;0;0;1;1;1;1;4;0;0;;0;0;();();(-2000.0, -2000.0);
04:37:59:978;04:37:59:977;1448034838.04;(0.6085636138916015, 0.6594124476114909);75.4589614868;0.84153950101;04:37:59:978;0;5;-1.5;1;0;0;0;0;1;1;1;1;4;0;0;;0;0;();();(-2000.0, -2000.0);
04:37:59:995;04:37:59:977;1448034838.04;(0.6085636138916015, 0.6594124476114909);75.4589614868;0.84153950101;04:37:59:995;0;10;-1.5;1;0;0;0;0;1;1;1;1;4;0;0;;0;0;();();(-2000.0, -2000.0);
04:38:00:029;04:37:59:977;1448034838.04;(0.6085636138916015, 0.6594124476114909);75.4589614868;0.84153950101;04:38:00:029;0;9;-1.5;1;0;0;0;0;1;1;1;1;4;0;0;;0;0;();();(-2000.0, -2000.0);
04:38:00:044;04:37:59:977;1448034838.04;(0.6085636138916015, 0.6594124476114909);75.4589614868;0.84153950101;04:38:00:044;0;5;-1.5;1;0;0;0;0;1;1;1;1;4;0;0;;0;0;();();(-2000.0, -2000.0);
04:38:00:061;04:37:59:977;1448034838.04;(0.6085636138916015, 0.6594124476114909);75.4589614868;0.84153950101;04:38:00:061;0;10;-1.5;1;0;0;0;0;1;1;1;1;4;0;0;;0;0;();();(-2000.0, -2000.0);
04:38:00:079;04:37:59:977;1448034838.04;(0.6085636138916015, 0.6594124476114909);75.4589614868;0.84153950101;04:38:00:079;0;4;-1.5;1;0;0;0;0;1;1;1;1;4;0;0;;0;0;();();(-2000.0, -2000.0);
04:38:00:096;04:37:59:977;1448034838.04;(0.6085636138916015, 0.6594124476114909);75.4589614868;0.84153950101;04:38:00:096;0;9;-1.5;1;0;0;0;0;1;1;1;1;4;0;0;;0;0;();();(-2000.0, -2000.0);
04:38:00:128;04:38:00:110;1448034838.06;(0.6263353824615479, 0.6511349784003364);78.2185440063;0.807604164513;04:38:00:128;0;10;-1.5;170.5;1.17302052785924;0;0;0;1;1;1;1;4;0;0;;0;0;();();(-2000.0, -2000.0);
04:38:00:145;04:38:00:110;1448034838.06;(0.6263353824615479, 0.6511349784003364);78.2185440063;0.807604164513;04:38:00:145;0;15;-1.5;170.5;1.17302052785924;0;0;0;1;1;1;1;4;0;0;;0;0;();();(-2000.0, -2000.0);
04:38:00:161;04:38:00:110;1448034838.06;(0.6263353824615479, 0.6511349784003364);78.2185440063;0.807604164513;04:38:00:161;0;10;-1.5;146.142857142857;1.46627565982405;0;0;0;1;1;1;1;4;0;0;;0;0;();();(-2000.0, -2000.0);
04:38:00:179;04:38:00:177;1448034838.23;(0.6236553192138672, 0.655713399251302);75.0466461182;1.0;04:38:00:179;0;4;-1.5;85.2500000000001;1.85728250244379;0;0;0;1;1;1;1;4;0;0;;0;0;();();(-2000.0, -2000.0);
04:38:00:195;04:38:00:177;1448034838.23;(0.6236553192138672, 0.655713399251302);75.0466461182;1.0;04:38:00:195;0;9;-1.5;170.5;1.17302052785924;0;0;0;1;1;1;1;4;0;0;;0;0;();();(-2000.0, -2000.0);
04:38:00:229;04:38:00:177;1448034838.23;(0.6236553192138672, 0.655713399251302);75.0466461182;1.0;04:38:00:229;0;10;-1.5;1;0;0;0;0;1;1;1;1;4;0;0;;0;0;();();(-2000.0, -2000.0);
04:38:00:244;04:38:00:177;1448034838.23;(0.6236553192138672, 0.655713399251302);75.0466461182;1.0;04:38:00:244;0;15;-1.5;1;0;0;0;0;1;1;1;1;4;0;0;;0;0;();();(-2000.0, -2000.0);
04:38:00:262;04:38:00:177;1448034838.23;(0.6236553192138672, 0.655713399251302);75.0466461182;1.0;04:38:00:262;0;4;-1.5;1;0;0;0;0;1;1;1;1;4;0;0;;0;0;();();(-2000.0, -2000.0);
04:38:00:279;04:38:00:177;1448034838.23;(0.6236553192138672, 0.655713399251302);75.0466461182;1.0;04:38:00:279;0;0;-1.5;1;0;0;0;0;1;1;1;1;4;0;0;;0;0;();();(-2000.0, -2000.0);
04:38:00:296;04:38:00:177;1448034838.23;(0.6236553192138672, 0.655713399251302);75.0466461182;1.0;04:38:00:296;0;10;-1.5;1;0;0;0;0;1;1;1;1;4;0;0;;0;0;();();(-2000.0, -2000.0);
04:38:00:329;04:38:00:312;1448034838.35;(0.35144667625427245, 0.7941930135091146);25.6279201508;0.659941964792;04:38:00:329;0;4;-1.5;1;0;0;0;0;1;1;1;1;4;0;0;;0;0;();();(-2000.0, -2000.0);
04:38:00:345;04:38:00:312;1448034838.35;(0.35144667625427245, 0.7941930135091146);25.6279201508;0.659941964792;04:38:00:345;0;15;-1.5;1;0;0;0;0;1;1;1;1;4;0;0;;0;0;();();(-2000.0, -2000.0);
04:38:00:362;04:38:00:312;1448034838.35;(0.35144667625427245, 0.7941930135091146);25.6279201508;0.659941964792;04:38:00:362;0;5;-1.5;1;0;0;0;0;1;1;1;1;4;0;0;;0;0;();();(-2000.0, -2000.0);
04:38:00:378;04:38:00:378;1448034838.42;(0.6233094215393067, 0.6546589957343207);74.7636184692;0.941763350646;04:38:00:378;0;0;-1.5;1;0;0;0;0;1;1;1;1;4;0;0;;0;0;();();(-2000.0, -2000.0);
04:38:00:395;04:38:00:378;1448034838.42;(0.6233094215393067, 0.6546589957343207);74.7636184692;0.941763350646;04:38:00:395;0;4;-1.5;1;0;0;0;0;1;1;1;1;4;0;0;;0;0;();();(-2000.0, -2000.0);
04:38:00:428;04:38:00:378;1448034838.42;(0.6233094215393067, 0.6546589957343207);74.7636184692;0.941763350646;04:38:00:428;0;4;-1.5;1;0;0;0;0;1;1;1;1;4;0;0;;0;0;();();(-2000.0, -2000.0);
04:38:00:445;04:38:00:442;1448034838.49;(0.622124195098877, 0.6579363081190321);74.7036132812;1.0;04:38:00:445;0;15;-1.5;1;0;0;0;0;1;1;1;1;4;0;0;;0;0;();();(-2000.0, -2000.0);
04:38:00:461;04:38:00:442;1448034838.49;(0.622124195098877, 0.6579363081190321);74.7036132812;1.0;04:38:00:461;0;5;-1.5;1;0;0;0;0;1;1;1;1;4;0;0;;0;0;();();(-2000.0, -2000.0);
04:38:00:479;04:38:00:442;1448034838.49;(0.622124195098877, 0.6579363081190321);74.7036132812;1.0;04:38:00:479;0;9;-1.5;1;0;0;0;0;1;1;1;1;4;0;0;;0;0;();();(-2000.0, -2000.0);
04:38:00:495;04:38:00:442;1448034838.49;(0.622124195098877, 0.6579363081190321);74.7036132812;1.0;04:38:00:495;0;9;-1.5;1;0;0;0;0;1;1;1;1;4;0;0;;0;0;();();(-2000.0, -2000.0);
04:38:00:529;04:38:00:510;1448034838.56;(0.6265538692474365, 0.659848149617513);74.4769668579;1.0;04:38:00:529;0;5;-1.5;146.142857142857;1.46627565982405;0;0;0;1;1;1;1;4;0;0;;0;0;();();(-2000.0, -2000.0);
04:38:00:545;04:38:00:510;1448034838.56;(0.6265538692474365, 0.659848149617513);74.4769668579;1.0;04:38:00:545;0;10;-1.5;146.142857142857;1.46627565982405;0;0;0;1;1;1;1;4;0;0;;0;0;();();(-2000.0, -2000.0);
04:38:00:562;04:38:00:510;1448034838.56;(0.6265538692474365, 0.659848149617513);74.4769668579;1.0;04:38:00:562;0;4;-1.5;170.5;1.17302052785924;0;0;0;1;1;1;1;4;0;0;;0;0;();();(-2000.0, -2000.0);
04:38:00:580;04:38:00:573;1448034838.62;(0.6275042057037353, 0.6661792543199327);74.7319107056;1.0;04:38:00:580;0;9;-1.5;170.5;1.17302052785924;0;0;0;1;1;1;1;4;0;0;;0;0;();();(-2000.0, -2000.0);
04:38:00:595;04:38:00:573;1448034838.62;(0.6275042057037353, 0.6661792543199327);74.7319107056;1.0;04:38:00:595;0;0;-1.5;146.142857142857;1.46627565982405;0;0;0;1;1;1;1;4;0;0;;0;0;();();(-2000.0, -2000.0);
04:38:00:629;04:38:00:573;1448034838.62;(0.6275042057037353, 0.6661792543199327);74.7319107056;1.0;04:38:00:629;0;15;-1.5;146.142857142857;1.46627565982405;0;0;0;1;1;1;1;4;0;0;;0;0;();();(-2000.0, -2000.0);
04:38:00:646;04:38:00:573;1448034838.62;(0.6275042057037353, 0.6661792543199327);74.7319107056;1.0;04:38:00:646;0;9;-1.5;170.5;1.17302052785924;0;0;0;1;1;1;1;4;0;0;;0;0;();();(-2000.0, -2000.0);
04:38:00:662;04:38:00:653;1448034838.66;(0.3462100028991699, 0.8178893619113499);35.0630874634;0.702457733394;04:38:00:662;0;15;-1.5;170.5;1.17302052785924;0;0;0;1;1;1;1;4;0;0;;0;0;();();(-2000.0, -2000.0);
04:38:00:679;04:38:00:653;1448034838.66;(0.3462100028991699, 0.8178893619113499);35.0630874634;0.702457733394;04:38:00:679;0;9;-1.5;170.5;1.17302052785924;0;0;0;1;1;1;1;4;0;0;;0;0;();();(-2000.0, -2000.0);
04:38:00:695;04:38:00:653;1448034838.66;(0.3462100028991699, 0.8178893619113499);35.0630874634;0.702457733394;04:38:00:695;0;0;-1.5;1;0;0;0;0;1;1;1;1;4;0;0;;0;0;();();(-2000.0, -2000.0);
04:38:00:729;04:38:00:653;1448034838.66;(0.3462100028991699, 0.8178893619113499);35.0630874634;0.702457733394;04:38:00:729;0;9;-1.5;146.142857142857;1.46627565982405;0;0;0;1;1;1;1;4;0;0;;0;0;();();(-2000.0, -2000.0);
04:38:00:745;04:38:00:653;1448034838.66;(0.3462100028991699, 0.8178893619113499);35.0630874634;0.702457733394;04:38:00:745;0;4;-1.5;170.5;1.17302052785924;0;0;0;1;1;1;1;4;0;0;;0;0;();();(-2000.0, -2000.0);
04:38:00:762;04:38:00:653;1448034838.66;(0.3462100028991699, 0.8178893619113499);35.0630874634;0.702457733394;04:38:00:762;0;0;-1.5;170.5;1.17302052785924;0;0;0;1;1;1;1;4;0;0;;0;0;();();(-2000.0, -2000.0);
04:38:00:780;04:38:00:774;1448034838.8;(0.807865047454834, 0.4122097439236111);23.9589595795;0.670656114851;04:38:00:780;0;5;-1.5;146.142857142857;1.46627565982405;0;0;0;1;1;1;1;4;0;0;;0;0;();();(-2000.0, -2000.0);
04:38:00:795;04:38:00:774;1448034838.8;(0.807865047454834, 0.4122097439236111);23.9589595795;0.670656114851;04:38:00:795;0;9;-1.5;170.5;1.17302052785924;0;0;0;1;1;1;1;4;0;0;;0;0;();();(-2000.0, -2000.0);
04:38:00:829;04:38:00:774;1448034838.8;(0.807865047454834, 0.4122097439236111);23.9589595795;0.670656114851;04:38:00:829;0;9;-1.5;170.5;1.17302052785924;0;0;0;1;1;1;1;4;0;0;;0;0;();();(-2000.0, -2000.0);
04:38:00:845;04:38:00:844;1448034838.89;(0.7094196796417236, 0.4596836513943142);18.0099067688;0.653005626348;04:38:00:845;0;5;-1.5;170.5;1.17302052785924;0;0;0;1;1;1;1;4;0;0;;0;0;();();(-2000.0, -2000.0);
04:38:00:862;04:38:00:844;1448034838.89;(0.7094196796417236, 0.4596836513943142);18.0099067688;0.653005626348;04:38:00:862;0;5;-1.5;170.5;1.17302052785924;0;0;0;1;1;1;1;4;0;0;;0;0;();();(-2000.0, -2000.0);
04:38:00:879;04:38:00:844;1448034838.89;(0.7094196796417236, 0.4596836513943142);18.0099067688;0.653005626348;04:38:00:879;0;4;-1.5;85.2500000000001;1.85728250244379;0;0;0;1;1;1;1;4;0;0;;0;0;();();(-2000.0, -2000.0);
04:38:00:896;04:38:00:844;1448034838.89;(0.7094196796417236, 0.4596836513943142);18.0099067688;0.653005626348;04:38:00:896;0;9;-1.5;85.2500000000001;1.85728250244379;0;0;0;1;1;1;1;4;0;0;;0;0;();();(-2000.0, -2000.0);
04:38:00:929;04:38:00:906;1448034838.96;(0.4127166271209717, 0.538171852959527);28.6439380646;0.748976977992;04:38:00:929;0;10;-1.5;146.142857142857;1.46627565982405;0;0;0;1;1;1;1;4;0;0;;0;0;();();(-2000.0, -2000.0);
04:38:00:948;04:38:00:906;1448034838.96;(0.4127166271209717, 0.538171852959527);28.6439380646;0.748976977992;04:38:00:948;0;15;-1.5;85.2500000000001;1.85728250244379;0;0;0;1;1;1;1;6;0;0;;0;0;();();(-2000.0, -2000.0);
04:38:00:962;04:38:00:906;1448034838.96;(0.4127166271209717, 0.538171852959527);28.6439380646;0.748976977992;04:38:00:962;0;10;-1.5;170.5;1.17302052785924;0;0;0;1;1;1;1;6;0;0;;0;0;();();(-2000.0, -2000.0);
04:38:00:979;04:38:00:974;1448034838.99;(0.512928819656372, 0.6017068227132161);18.7611846924;0.704807232442;04:38:00:979;0;5;-1.5;146.142857142857;1.46627565982405;0;0;0;1;1;1;1;6;0;0;;0;0;();();(-2000.0, -2000.0);
04:38:00:995;04:38:00:974;1448034838.99;(0.512928819656372, 0.6017068227132161);18.7611846924;0.704807232442;04:38:00:995;0;9;-1.5;170.5;1.17302052785924;0;0;0;1;1;1;1;6;0;0;;0;0;();();(-2000.0, -2000.0);
04:38:01:029;04:38:00:974;1448034838.99;(0.512928819656372, 0.6017068227132161);18.7611846924;0.704807232442;04:38:01:029;0;4;-1.5;170.5;1.17302052785924;0;0;0;1;1;1;1;6;0;0;;0;0;();();(-2000.0, -2000.0);
04:38:01:046;04:38:01:042;1448034839.07;(0, 0);0;0;04:38:01:046;0;15;-1.5;170.5;1.17302052785924;0;0;0;1;1;1;1;6;0;0;;0;0;();();(-2000.0, -2000.0);
04:38:01:063;04:38:01:042;1448034839.07;(0, 0);0;0;04:38:01:063;0;4;-1.5;170.5;1.17302052785924;0;0;0;1;1;1;1;6;0;0;;0;0;();();(-2000.0, -2000.0);
04:38:01:079;04:38:01:042;1448034839.07;(0, 0);0;0;04:38:01:079;0;0;-1.5;170.5;1.17302052785924;0;0;0;1;1;1;1;6;0;0;;0;0;();();(-2000.0, -2000.0);
04:38:01:096;04:38:01:042;1448034839.07;(0, 0);0;0;04:38:01:096;0;10;-1.5;146.142857142857;1.46627565982405;0;0;0;1;1;1;1;6;0;0;;0;0;();();(-2000.0, -2000.0);
04:38:01:129;04:38:01:042;1448034839.07;(0, 0);0;0;04:38:01:129;0;10;-1.5;146.142857142857;1.46627565982405;0;0;0;1;1;1;1;6;0;0;;0;0;();();(-2000.0, -2000.0);
04:38:01:146;04:38:01:042;1448034839.07;(0, 0);0;0;04:38:01:146;0;15;-1.5;146.142857142857;1.46627565982405;0;0;0;1;1;1;1;6;0;0;;0;0;();();(-2000.0, -2000.0);
04:38:01:163;04:38:01:042;1448034839.07;(0, 0);0;0;04:38:01:163;0;5;-1.5;1;0;0;0;0;1;1;1;1;6;0;0;;0;0;();();(-2000.0, -2000.0);
04:38:01:179;04:38:01:173;1448034839.21;(0.5291848659515381, 0.6797502941555447);18.9121685028;1.0;04:38:01:179;0;10;-1.5;1;0;0;0;0;1;1;1;1;6;0;0;;0;0;();();(-2000.0, -2000.0);
04:38:01:196;04:38:01:173;1448034839.21;(0.5291848659515381, 0.6797502941555447);18.9121685028;1.0;04:38:01:196;0;4;-1.5;4.01176470588235;0.586510263929619;0;0;0;1;1;1;1;6;0;0;;0;0;();();(-2000.0, -2000.0);
04:38:01:229;04:38:01:173;1448034839.21;(0.5291848659515381, 0.6797502941555447);18.9121685028;1.0;04:38:01:229;0;4;-1.5;170.5;1.17302052785924;0;0;0;1;1;1;1;6;0;0;;0;0;();();(-2000.0, -2000.0);
04:38:01:246;04:38:01:238;1448034839.23;(0.5318726062774658, 0.6935070673624675);20.6265678406;1.0;04:38:01:246;0;9;-1.5;146.142857142857;1.46627565982405;0;0;0;1;1;1;1;6;0;0;;0;0;();();(-2000.0, -2000.0);
04:38:01:262;04:38:01:238;1448034839.23;(0.5318726062774658, 0.6935070673624675);20.6265678406;1.0;04:38:01:262;0;5;-1.5;170.5;1.17302052785924;0;0;0;1;1;1;1;6;0;0;;0;0;();();(-2000.0, -2000.0);
04:38:01:280;04:38:01:238;1448034839.23;(0.5318726062774658, 0.6935070673624675);20.6265678406;1.0;04:38:01:280;0;10;-1.5;170.5;1.17302052785924;0;0;0;1;1;1;1;6;0;0;;0;0;();();(-2000.0, -2000.0);
04:38:01:296;04:38:01:238;1448034839.23;(0.5318726062774658, 0.6935070673624675);20.6265678406;1.0;04:38:01:296;0;4;-1.5;170.5;1.17302052785924;0;0;0;1;1;1;1;6;0;0;;0;0;();();(-2000.0, -2000.0);
04:38:01:329;04:38:01:238;1448034839.23;(0.5318726062774658, 0.6935070673624675);20.6265678406;1.0;04:38:01:329;0;5;-1.5;1;0;0;0;0;1;1;1;1;6;0;0;;0;0;();();(-2000.0, -2000.0);
04:38:01:346;04:38:01:238;1448034839.23;(0.5318726062774658, 0.6935070673624675);20.6265678406;1.0;04:38:01:346;0;10;-1.5;1;0;0;0;0;1;1;1;1;6;0;0;;0;0;();();(-2000.0, -2000.0);
04:38:01:363;04:38:01:238;1448034839.23;(0.5318726062774658, 0.6935070673624675);20.6265678406;1.0;04:38:01:363;0;4;-1.5;1;0;0;0;0;1;1;1;1;6;0;0;;0;0;();();(-2000.0, -2000.0);
04:38:01:380;04:38:01:375;1448034839.42;(0.5752912044525147, 0.5727322048611111);73.4973449707;1.0;04:38:01:380;0;9;-1.5;1;0;0;0;0;1;1;1;1;6;0;0;;0;0;();();(-2000.0, -2000.0);
04:38:01:395;04:38:01:375;1448034839.42;(0.5752912044525147, 0.5727322048611111);73.4973449707;1.0;04:38:01:395;0;15;-1.5;1;0;0;0;0;1;1;1;1;6;0;0;;0;0;();();(-2000.0, -2000.0);
04:38:01:430;04:38:01:375;1448034839.42;(0.5752912044525147, 0.5727322048611111);73.4973449707;1.0;04:38:01:430;0;0;-1.5;1;0;0;0;0;1;1;1;1;6;0;0;;0;0;();();(-2000.0, -2000.0);
04:38:01:446;04:38:01:443;1448034839.49;(0.5778721809387207, 0.571011734008789);73.6370544434;1.0;04:38:01:446;0;4;-1.5;1;0;0;0;0;1;1;1;1;6;0;0;;0;0;();();(-2000.0, -2000.0);
04:38:01:463;04:38:01:443;1448034839.49;(0.5778721809387207, 0.571011734008789);73.6370544434;1.0;04:38:01:463;0;15;-1.5;1;0;0;0;0;1;1;1;1;6;0;0;;0;0;();();(-2000.0, -2000.0);
04:38:01:481;04:38:01:443;1448034839.49;(0.5778721809387207, 0.571011734008789);73.6370544434;1.0;04:38:01:481;0;5;-1.5;1;0;0;0;0;1;1;1;1;6;0;0;;0;0;();();(-2000.0, -2000.0);
04:38:01:496;04:38:01:443;1448034839.49;(0.5778721809387207, 0.571011734008789);73.6370544434;1.0;04:38:01:496;0;15;-1.5;1;0;0;0;0;1;1;1;1;6;0;0;;0;0;();();(-2000.0, -2000.0);
04:38:01:530;04:38:01:505;1448034839.52;(0.5771203517913819, 0.570592541164822);73.234588623;0.957494147337;04:38:01:530;0;9;-1.5;1;0;0;0;0;1;1;1;1;6;0;0;;0;0;();();(-2000.0, -2000.0);
04:38:01:546;04:38:01:505;1448034839.52;(0.5771203517913819, 0.570592541164822);73.234588623;0.957494147337;04:38:01:546;0;4;-1.5;1;0;0;0;0;1;1;1;1;6;0;0;;0;0;();();(-2000.0, -2000.0);
04:38:01:563;04:38:01:505;1448034839.52;(0.5771203517913819, 0.570592541164822);73.234588623;0.957494147337;04:38:01:563;0;10;-1.5;1;0;0;0;0;1;1;1;1;6;0;0;;0;0;();();(-2000.0, -2000.0);
04:38:01:579;04:38:01:505;1448034839.52;(0.5771203517913819, 0.570592541164822);73.234588623;0.957494147337;04:38:01:579;0;5;-1.5;1;0;0;0;0;1;1;1;1;6;0;0;;0;0;();();(-2000.0, -2000.0);
04:38:01:596;04:38:01:505;1448034839.52;(0.5771203517913819, 0.570592541164822);73.234588623;0.957494147337;04:38:01:596;0;10;-1.5;1;0;0;0;0;1;1;1;1;6;0;0;;0;0;();();(-2000.0, -2000.0);
04:38:01:630;04:38:01:505;1448034839.52;(0.5771203517913819, 0.570592541164822);73.234588623;0.957494147337;04:38:01:630;0;15;-1.5;1;0;0;0;0;1;1;1;1;6;0;0;;0;0;();();(-2000.0, -2000.0);
04:38:01:646;04:38:01:505;1448034839.52;(0.5771203517913819, 0.570592541164822);73.234588623;0.957494147337;04:38:01:646;0;5;-1.5;1;0;0;0;0;1;1;1;1;6;0;0;;0;0;();();(-2000.0, -2000.0);
04:38:01:663;04:38:01:505;1448034839.52;(0.5771203517913819, 0.570592541164822);73.234588623;0.957494147337;04:38:01:663;0;10;-1.5;146.142857142857;1.17302052785924;0;0;0;1;1;1;1;6;0;0;;0;0;();();(-2000.0, -2000.0);
04:38:01:680;04:38:01:505;1448034839.52;(0.5771203517913819, 0.570592541164822);73.234588623;0.957494147337;04:38:01:680;0;4;-1.5;170.5;1.17302052785924;0;0;0;1;1;1;1;6;0;0;;0;0;();();(-2000.0, -2000.0);
04:38:01:696;04:38:01:505;1448034839.52;(0.5771203517913819, 0.570592541164822);73.234588623;0.957494147337;04:38:01:696;0;9;-1.5;170.5;1.17302052785924;0;0;0;1;1;1;1;6;0;0;;0;0;();();(-2000.0, -2000.0);
04:38:01:730;04:38:01:706;1448034839.74;(0.5703310966491699, 0.5727133009168837);73.8361282349;1.0;04:38:01:730;0;9;-1.5;170.5;1.17302052785924;0;0;0;1;1;1;1;6;0;0;;0;0;();();(-2000.0, -2000.0);
04:38:01:746;04:38:01:706;1448034839.74;(0.5703310966491699, 0.5727133009168837);73.8361282349;1.0;04:38:01:746;0;15;-1.5;170.5;1.17302052785924;0;0;0;1;1;1;1;6;0;0;;0;0;();();(-2000.0, -2000.0);
04:38:01:763;04:38:01:706;1448034839.74;(0.5703310966491699, 0.5727133009168837);73.8361282349;1.0;04:38:01:763;0;9;-1.5;170.5;1.17302052785924;0;0;0;1;1;1;1;6;0;0;;0;0;();();(-2000.0, -2000.0);
04:38:01:781;04:38:01:770;1448034839.78;(0.5699418544769287, 0.5728405422634548);74.3283004761;0.924381690844;04:38:01:780;0;9;-1.5;170.5;1.17302052785924;0;0;0;1;1;1;1;6;0;0;;0;0;();();(-2000.0, -2000.0);
04:38:01:797;04:38:01:770;1448034839.78;(0.5699418544769287, 0.5728405422634548);74.3283004761;0.924381690844;04:38:01:797;0;9;-1.5;146.142857142857;1.46627565982405;0;0;0;1;1;1;1;6;0;0;;0;0;();();(-2000.0, -2000.0);
04:38:01:830;04:38:01:770;1448034839.78;(0.5699418544769287, 0.5728405422634548);74.3283004761;0.924381690844;04:38:01:830;0;4;-1.5;170.5;1.17302052785924;0;0;0;1;1;1;1;6;0;0;;0;0;();();(-2000.0, -2000.0);
04:38:01:847;04:38:01:770;1448034839.78;(0.5699418544769287, 0.5728405422634548);74.3283004761;0.924381690844;04:38:01:847;0;15;-1.5;170.5;1.17302052785924;0;0;0;1;1;1;1;6;0;0;;0;0;();();(-2000.0, -2000.0);
04:38:01:863;04:38:01:770;1448034839.78;(0.5699418544769287, 0.5728405422634548);74.3283004761;0.924381690844;04:38:01:863;0;9;-1.5;146.142857142857;1.46627565982405;0;0;0;1;1;1;1;6;0;0;;0;0;();();(-2000.0, -2000.0);
04:38:01:880;04:38:01:770;1448034839.78;(0.5699418544769287, 0.5728405422634548);74.3283004761;0.924381690844;04:38:01:880;0;0;-1.5;146.142857142857;1.46627565982405;0;0;0;1;1;1;1;6;0;0;;0;0;();();(-2000.0, -2000.0);
04:38:01:897;04:38:01:770;1448034839.78;(0.5699418544769287, 0.5728405422634548);74.3283004761;0.924381690844;04:38:01:897;0;10;-1.5;170.5;1.17302052785924;0;0;0;1;1;1;1;6;0;0;;0;0;();();(-2000.0, -2000.0);
04:38:01:930;04:38:01:902;1448034839.95;(0.5918780326843261, 0.5645451863606771);72.8150787354;0.954921329878;04:38:01:930;0;4;-1.5;146.142857142857;1.46627565982405;0;0;0;1;1;1;1;6;0;0;;0;0;();();(-2000.0, -2000.0);
04:38:01:946;04:38:01:902;1448034839.95;(0.5918780326843261, 0.5645451863606771);72.8150787354;0.954921329878;04:38:01:946;0;0;-1.5;85.2500000000001;1.85728250244379;0;0;0;1;1;1;1;6;0;0;;0;0;();();(-2000.0, -2000.0);
04:38:01:963;04:38:01:902;1448034839.95;(0.5918780326843261, 0.5645451863606771);72.8150787354;0.954921329878;04:38:01:963;0;5;-1.5;146.142857142857;1.46627565982405;0;0;0;1;1;1;1;6;0;0;;0;0;();();(-2000.0, -2000.0);
04:38:01:980;04:38:01:972;1448034839.99;(0.5888330936431885, 0.5678262074788412);73.0153274536;0.936867277911;04:38:01:980;0;10;-1.5;1;0;0;0;0;1;1;1;1;6;0;0;;0;0;();();(-2000.0, -2000.0);
04:38:01:996;04:38:01:972;1448034839.99;(0.5888330936431885, 0.5678262074788412);73.0153274536;0.936867277911;04:38:01:996;0;4;-1.5;1;0;0;0;0;1;1;1;1;6;0;0;;0;0;();();(-2000.0, -2000.0);
04:38:02:030;04:38:01:972;1448034839.99;(0.5888330936431885, 0.5678262074788412);73.0153274536;0.936867277911;04:38:02:030;0;4;-1.5;1;0;0;0;0;1;1;1;1;6;0;0;;0;0;();();(-2000.0, -2000.0);
04:38:02:048;04:38:02:037;1448034840.02;(0.5870033740997315, 0.5680328792995877);72.830619812;0.976738802916;04:38:02:048;0;10;-1.5;1;0;0;0;0;1;1;1;1;6;0;0;;0;0;();();(-2000.0, -2000.0);
04:38:02:064;04:38:02:037;1448034840.02;(0.5870033740997315, 0.5680328792995877);72.830619812;0.976738802916;04:38:02:064;0;5;-1.5;1;0;0;0;0;1;1;1;1;6;0;0;;0;0;();();(-2000.0, -2000.0);
04:38:02:080;04:38:02:037;1448034840.02;(0.5870033740997315, 0.5680328792995877);72.830619812;0.976738802916;04:38:02:080;0;9;-1.5;1;0;0;0;0;1;1;1;1;6;0;0;;0;0;();();(-2000.0, -2000.0);
04:38:02:097;04:38:02:037;1448034840.02;(0.5870033740997315, 0.5680328792995877);72.830619812;0.976738802916;04:38:02:097;0;10;-1.5;1;0;0;0;0;1;1;1;1;6;0;0;;0;0;();();(-2000.0, -2000.0);
04:38:02:130;04:38:02:102;1448034840.06;(0.5845970153808594, 0.5717019822862413);72.4148178101;0.874669639728;04:38:02:130;0;0;-1.5;170.5;1.17302052785924;0;0;0;1;1;1;1;6;0;0;;0;0;();();(-2000.0, -2000.0);
04:38:02:147;04:38:02:102;1448034840.06;(0.5845970153808594, 0.5717019822862413);72.4148178101;0.874669639728;04:38:02:147;0;10;-1.5;146.142857142857;1.46627565982405;0;0;0;1;1;1;1;6;0;0;;0;0;();();(-2000.0, -2000.0);
04:38:02:163;04:38:02:102;1448034840.06;(0.5845970153808594, 0.5717019822862413);72.4148178101;0.874669639728;04:38:02:163;0;4;-1.5;170.5;1.17302052785924;0;0;0;1;1;1;1;6;0;0;;0;0;();();(-2000.0, -2000.0);
04:38:02:180;04:38:02:102;1448034840.06;(0.5845970153808594, 0.5717019822862413);72.4148178101;0.874669639728;04:38:02:180;0;10;-1.5;170.5;1.17302052785924;0;0;0;1;1;1;1;6;0;0;;0;0;();();(-2000.0, -2000.0);
04:38:02:197;04:38:02:102;1448034840.06;(0.5845970153808594, 0.5717019822862413);72.4148178101;0.874669639728;04:38:02:197;0;0;-1.5;170.5;1.17302052785924;0;0;0;1;1;1;1;6;0;0;;0;0;();();(-2000.0, -2000.0);
04:38:02:214;04:38:02:102;1448034840.06;(0.5845970153808594, 0.5717019822862413);72.4148178101;0.874669639728;04:38:02:214;0;10;-1.5;146.142857142857;1.46627565982405;0;0;0;1;1;1;1;6;0;0;;0;0;();();(-2000.0, -2000.0);
04:38:02:247;04:38:02:234;1448034840.19;(0.5824699401855469, 0.5687076568603515);77.0222625732;0.749094178826;04:38:02:247;0;4;-1.5;170.5;1.17302052785924;0;0;0;1;1;1;1;6;0;0;;0;0;();();(-2000.0, -2000.0);
04:38:02:263;04:38:02:234;1448034840.19;(0.5824699401855469, 0.5687076568603515);77.0222625732;0.749094178826;04:38:02:263;0;3;-1.5;146.142857142857;1.46627565982405;0;0;0;1;1;1;1;6;0;0;;0;0;();();(-2000.0, -2000.0);
04:38:02:280;04:38:02:234;1448034840.19;(0.5824699401855469, 0.5687076568603515);77.0222625732;0.749094178826;04:38:02:280;0;9;-1.5;170.5;1.17302052785924;0;0;0;1;1;1;1;6;0;0;;0;0;();();(-2000.0, -2000.0);
04:38:02:296;04:38:02:234;1448034840.19;(0.5824699401855469, 0.5687076568603515);77.0222625732;0.749094178826;04:38:02:296;0;15;-1.5;170.5;1.17302052785924;0;0;0;1;1;1;1;6;0;0;;0;0;();();(-2000.0, -2000.0);
04:38:02:329;04:38:02:305;1448034840.36;(0.4647543430328369, 0.718102052476671);20.1868057251;0.922146101263;04:38:02:329;0;15;-1.5;170.5;1.17302052785924;0;0;0;1;1;1;1;6;0;0;;0;0;();();(-2000.0, -2000.0);
04:38:02:347;04:38:02:305;1448034840.36;(0.4647543430328369, 0.718102052476671);20.1868057251;0.922146101263;04:38:02:347;0;5;-1.5;146.142857142857;1.46627565982405;0;0;0;1;1;1;1;6;0;0;;0;0;();();(-2000.0, -2000.0);
04:38:02:364;04:38:02:305;1448034840.36;(0.4647543430328369, 0.718102052476671);20.1868057251;0.922146101263;04:38:02:364;0;0;-1.5;170.5;1.17302052785924;0;0;0;1;1;1;1;6;0;0;;0;0;();();(-2000.0, -2000.0);
04:38:02:380;04:38:02:305;1448034840.36;(0.4647543430328369, 0.718102052476671);20.1868057251;0.922146101263;04:38:02:380;0;5;-1.5;170.5;1.17302052785924;0;0;0;1;1;1;1;6;0;0;;0;0;();();(-2000.0, -2000.0);
