%Timestamp,timestamp_write;timestamp_gotpupil;eyetrackertime;norm_pos;diameter;confidence;timestamp_gotbitdata;CRC;SEQ;AnalogOutp1;AnalogOutp2;AnalogOutp3;AnalogOutp4;AnalogOutp5;AnalogOutp6;DigitalOutp1;DigitalOutp2;igitalOutp3;DigitalOutp4;nplanes;lastaction;lastactiondetails;lastactionairplanenumber;positivescore;negativescore;collidedairplanenumbers;targetpositions;collision_point
10:55:15:798;10:55:15:760;1448057473.2;(0.2703093528747559, 0.5084488338894314);36.9628448486;0.852720251804;;;;;;;;;;;;;;2;0;0;;0;0;();();(0.0, 0.0);
10:55:15:817;10:55:15:760;1448057473.2;(0.2703093528747559, 0.5084488338894314);36.9628448486;0.852720251804;;;;;;;;;;;;;;2;0;0;;0;0;();();(-2000.0, -2000.0);
10:55:15:820;10:55:15:760;1448057473.2;(0.2703093528747559, 0.5084488338894314);36.9628448486;0.852720251804;;;;;;;;;;;;;;2;0;0;;0;0;();();(-2000.0, -2000.0);
10:55:15:822;10:55:15:760;1448057473.2;(0.2703093528747559, 0.5084488338894314);36.9628448486;0.852720251804;;;;;;;;;;;;;;2;0;0;;0;0;();();(-2000.0, -2000.0);
10:55:15:824;10:55:15:760;1448057473.2;(0.2703093528747559, 0.5084488338894314);36.9628448486;0.852720251804;;;;;;;;;;;;;;2;0;0;;0;0;();();(-2000.0, -2000.0);
10:55:15:826;10:55:15:760;1448057473.2;(0.2703093528747559, 0.5084488338894314);36.9628448486;0.852720251804;;;;;;;;;;;;;;2;0;0;;0;0;();();(-2000.0, -2000.0);
10:55:15:827;10:55:15:760;1448057473.2;(0.2703093528747559, 0.5084488338894314);36.9628448486;0.852720251804;;;;;;;;;;;;;;2;0;0;;0;0;();();(-2000.0, -2000.0);
10:55:15:829;10:55:15:828;1448057473.26;(0.27846560478210447, 0.5135228474934896);36.8145027161;0.893331168069;;;;;;;;;;;;;;2;0;0;;0;0;();();(-2000.0, -2000.0);
10:55:15:831;10:55:15:828;1448057473.26;(0.27846560478210447, 0.5135228474934896);36.8145027161;0.893331168069;;;;;;;;;;;;;;2;0;0;;0;0;();();(-2000.0, -2000.0);
10:55:15:833;10:55:15:828;1448057473.26;(0.27846560478210447, 0.5135228474934896);36.8145027161;0.893331168069;;;;;;;;;;;;;;2;0;0;;0;0;();();(-2000.0, -2000.0);
10:55:15:835;10:55:15:828;1448057473.26;(0.27846560478210447, 0.5135228474934896);36.8145027161;0.893331168069;;;;;;;;;;;;;;2;0;0;;0;0;();();(-2000.0, -2000.0);
10:55:15:837;10:55:15:828;1448057473.26;(0.27846560478210447, 0.5135228474934896);36.8145027161;0.893331168069;;;;;;;;;;;;;;2;0;0;;0;0;();();(-2000.0, -2000.0);
10:55:15:839;10:55:15:828;1448057473.26;(0.27846560478210447, 0.5135228474934896);36.8145027161;0.893331168069;;;;;;;;;;;;;;2;0;0;;0;0;();();(-2000.0, -2000.0);
10:55:15:841;10:55:15:828;1448057473.26;(0.27846560478210447, 0.5135228474934896);36.8145027161;0.893331168069;;;;;;;;;;;;;;2;0;0;;0;0;();();(-2000.0, -2000.0);
10:55:15:843;10:55:15:828;1448057473.26;(0.27846560478210447, 0.5135228474934896);36.8145027161;0.893331168069;;;;;;;;;;;;;;2;0;0;;0;0;();();(-2000.0, -2000.0);
10:55:15:844;10:55:15:828;1448057473.26;(0.27846560478210447, 0.5135228474934896);36.8145027161;0.893331168069;;;;;;;;;;;;;;2;0;0;;0;0;();();(-2000.0, -2000.0);
10:55:15:882;10:55:15:828;1448057473.26;(0.27846560478210447, 0.5135228474934896);36.8145027161;0.893331168069;;;;;;;;;;;;;;2;0;0;;0;0;();();(-2000.0, -2000.0);
10:55:15:884;10:55:15:828;1448057473.26;(0.27846560478210447, 0.5135228474934896);36.8145027161;0.893331168069;;;;;;;;;;;;;;2;0;0;;0;0;();();(-2000.0, -2000.0);
10:55:15:886;10:55:15:828;1448057473.26;(0.27846560478210447, 0.5135228474934896);36.8145027161;0.893331168069;;;;;;;;;;;;;;2;0;0;;0;0;();();(-2000.0, -2000.0);
10:55:15:887;10:55:15:828;1448057473.26;(0.27846560478210447, 0.5135228474934896);36.8145027161;0.893331168069;;;;;;;;;;;;;;2;0;0;;0;0;();();(-2000.0, -2000.0);
10:55:15:889;10:55:15:828;1448057473.26;(0.27846560478210447, 0.5135228474934896);36.8145027161;0.893331168069;;;;;;;;;;;;;;2;0;0;;0;0;();();(-2000.0, -2000.0);
10:55:15:891;10:55:15:828;1448057473.26;(0.27846560478210447, 0.5135228474934896);36.8145027161;0.893331168069;;;;;;;;;;;;;;2;0;0;;0;0;();();(-2000.0, -2000.0);
10:55:15:892;10:55:15:828;1448057473.26;(0.27846560478210447, 0.5135228474934896);36.8145027161;0.893331168069;;;;;;;;;;;;;;2;0;0;;0;0;();();(-2000.0, -2000.0);
10:55:15:894;10:55:15:828;1448057473.26;(0.27846560478210447, 0.5135228474934896);36.8145027161;0.893331168069;;;;;;;;;;;;;;2;0;0;;0;0;();();(-2000.0, -2000.0);
10:55:15:896;10:55:15:896;1448057473.3;(0.27877304553985593, 0.5185821957058376);36.9327735901;0.959148579838;;;;;;;;;;;;;;2;0;0;;0;0;();();(-2000.0, -2000.0);
10:55:15:898;10:55:15:896;1448057473.35;(0.2818194627761841, 0.540528827243381);37.0116729736;0.884504172256;;;;;;;;;;;;;;2;0;0;;0;0;();();(-2000.0, -2000.0);
10:55:15:899;10:55:15:896;1448057473.35;(0.2818194627761841, 0.540528827243381);37.0116729736;0.884504172256;;;;;;;;;;;;;;2;0;0;;0;0;();();(-2000.0, -2000.0);
10:55:15:901;10:55:15:896;1448057473.35;(0.2818194627761841, 0.540528827243381);37.0116729736;0.884504172256;;;;;;;;;;;;;;2;0;0;;0;0;();();(-2000.0, -2000.0);
10:55:15:903;10:55:15:896;1448057473.35;(0.2818194627761841, 0.540528827243381);37.0116729736;0.884504172256;;;;;;;;;;;;;;2;0;0;;0;0;();();(-2000.0, -2000.0);
10:55:15:904;10:55:15:896;1448057473.35;(0.2818194627761841, 0.540528827243381);37.0116729736;0.884504172256;;;;;;;;;;;;;;2;0;0;;0;0;();();(-2000.0, -2000.0);
10:55:15:906;10:55:15:896;1448057473.35;(0.2818194627761841, 0.540528827243381);37.0116729736;0.884504172256;;;;;;;;;;;;;;2;0;0;;0;0;();();(-2000.0, -2000.0);
10:55:15:908;10:55:15:896;1448057473.35;(0.2818194627761841, 0.540528827243381);37.0116729736;0.884504172256;;;;;;;;;;;;;;2;0;0;;0;0;();();(-2000.0, -2000.0);
10:55:15:909;10:55:15:896;1448057473.35;(0.2818194627761841, 0.540528827243381);37.0116729736;0.884504172256;;;;;;;;;;;;;;2;0;0;;0;0;();();(-2000.0, -2000.0);
10:55:21:566;10:55:21:536;1448057479.01;(0.28531081676483155, 0.5932740105523003);35.4440383911;0.887802879426;;;;;;;;;;;;;;2;0;0;;0;0;();();(-2000.0, -2000.0);
10:55:21:570;10:55:21:536;1448057479.01;(0.28531081676483155, 0.5932740105523003);35.4440383911;0.887802879426;;;;;;;;;;;;;;2;0;0;;0;0;();();(-2000.0, -2000.0);
10:55:21:574;10:55:21:536;1448057479.01;(0.28531081676483155, 0.5932740105523003);35.4440383911;0.887802879426;;;;;;;;;;;;;;2;0;0;;0;0;();();(-2000.0, -2000.0);
10:55:21:576;10:55:21:536;1448057479.01;(0.28531081676483155, 0.5932740105523003);35.4440383911;0.887802879426;;;;;;;;;;;;;;2;0;0;;0;0;();();(-2000.0, -2000.0);
10:55:21:578;10:55:21:536;1448057479.01;(0.28531081676483155, 0.5932740105523003);35.4440383911;0.887802879426;;;;;;;;;;;;;;2;0;0;;0;0;();();(-2000.0, -2000.0);
10:55:21:581;10:55:21:536;1448057479.01;(0.28531081676483155, 0.5932740105523003);35.4440383911;0.887802879426;;;;;;;;;;;;;;2;0;0;;0;0;();();(-2000.0, -2000.0);
10:55:21:583;10:55:21:536;1448057479.01;(0.28531081676483155, 0.5932740105523003);35.4440383911;0.887802879426;;;;;;;;;;;;;;2;0;0;;0;0;();();(-2000.0, -2000.0);
10:55:21:586;10:55:21:536;1448057479.01;(0.28531081676483155, 0.5932740105523003);35.4440383911;0.887802879426;;;;;;;;;;;;;;2;0;0;;0;0;();();(-2000.0, -2000.0);
10:55:21:588;10:55:21:536;1448057479.01;(0.28531081676483155, 0.5932740105523003);35.4440383911;0.887802879426;;;;;;;;;;;;;;2;0;0;;0;0;();();(-2000.0, -2000.0);
10:55:21:590;10:55:21:536;1448057479.01;(0.28531081676483155, 0.5932740105523003);35.4440383911;0.887802879426;;;;;;;;;;;;;;2;0;0;;0;0;();();(-2000.0, -2000.0);
10:55:21:593;10:55:21:536;1448057479.01;(0.28531081676483155, 0.5932740105523003);35.4440383911;0.887802879426;;;;;;;;;;;;;;2;0;0;;0;0;();();(-2000.0, -2000.0);
10:55:21:595;10:55:21:536;1448057479.01;(0.28531081676483155, 0.5932740105523003);35.4440383911;0.887802879426;;;;;;;;;;;;;;2;0;0;;0;0;();();(-2000.0, -2000.0);
10:55:21:597;10:55:21:536;1448057479.01;(0.28531081676483155, 0.5932740105523003);35.4440383911;0.887802879426;;;;;;;;;;;;;;2;0;0;;0;0;();();(-2000.0, -2000.0);
10:55:21:599;10:55:21:536;1448057479.01;(0.28531081676483155, 0.5932740105523003);35.4440383911;0.887802879426;;;;;;;;;;;;;;2;0;0;;0;0;();();(-2000.0, -2000.0);
10:55:21:601;10:55:21:536;1448057479.01;(0.28531081676483155, 0.5932740105523003);35.4440383911;0.887802879426;;;;;;;;;;;;;;2;0;0;;0;0;();();(-2000.0, -2000.0);
10:55:21:603;10:55:21:536;1448057479.01;(0.28531081676483155, 0.5932740105523003);35.4440383911;0.887802879426;;;;;;;;;;;;;;2;0;0;;0;0;();();(-2000.0, -2000.0);
10:55:21:605;10:55:21:605;1448057479.07;(0.28495824337005615, 0.5936151716444227);35.7166671753;0.927838531521;;;;;;;;;;;;;;2;0;0;;0;0;();();(-2000.0, -2000.0);
10:55:21:609;10:55:21:605;1448057479.07;(0.28495824337005615, 0.5936151716444227);35.7166671753;0.927838531521;;;;;;;;;;;;;;2;0;0;;0;0;();();(-2000.0, -2000.0);
10:55:21:611;10:55:21:605;1448057479.07;(0.28495824337005615, 0.5936151716444227);35.7166671753;0.927838531521;;;;;;;;;;;;;;2;0;0;;0;0;();();(-2000.0, -2000.0);
10:55:21:643;10:55:21:605;1448057479.07;(0.28495824337005615, 0.5936151716444227);35.7166671753;0.927838531521;;;;;;;;;;;;;;2;0;0;;0;0;();();(-2000.0, -2000.0);
10:55:21:659;10:55:21:605;1448057479.07;(0.28495824337005615, 0.5936151716444227);35.7166671753;0.927838531521;;;;;;;;;;;;;;2;0;0;;0;0;();();(-2000.0, -2000.0);
10:55:21:676;10:55:21:668;1448057479.14;(0.28510026931762694, 0.5935781690809462);35.3145256042;0.885881599136;;;;;;;;;;;;;;2;0;0;;0;0;();();(-2000.0, -2000.0);
10:55:21:693;10:55:21:668;1448057479.14;(0.28510026931762694, 0.5935781690809462);35.3145256042;0.885881599136;;;;;;;;;;;;;;2;0;0;;0;0;();();(-2000.0, -2000.0);
10:55:21:709;10:55:21:668;1448057479.14;(0.28510026931762694, 0.5935781690809462);35.3145256042;0.885881599136;;;;;;;;;;;;;;2;0;0;;0;0;();();(-2000.0, -2000.0);
10:55:21:742;10:55:21:736;1448057479.21;(0.28497700691223143, 0.5939119974772136);35.5645484924;0.901244216215;;;;;;;;;;;;;;2;0;0;;0;0;();();(-2000.0, -2000.0);
10:55:21:758;10:55:21:736;1448057479.21;(0.28497700691223143, 0.5939119974772136);35.5645484924;0.901244216215;;;;;;;;;;;;;;2;0;0;;0;0;();();(-2000.0, -2000.0);
10:55:21:775;10:55:21:736;1448057479.21;(0.28497700691223143, 0.5939119974772136);35.5645484924;0.901244216215;;;;;;;;;;;;;;2;0;0;;0;0;();();(-2000.0, -2000.0);
10:55:21:791;10:55:21:736;1448057479.21;(0.28497700691223143, 0.5939119974772136);35.5645484924;0.901244216215;;;;;;;;;;;;;;2;0;0;;0;0;();();(-2000.0, -2000.0);
10:55:21:808;10:55:21:805;1448057479.27;(0.28493072986602785, 0.5937671661376953);35.7119407654;0.86459404447;;;;;;;;;;;;;;2;0;0;;0;0;();();(-2000.0, -2000.0);
10:55:21:841;10:55:21:805;1448057479.27;(0.28493072986602785, 0.5937671661376953);35.7119407654;0.86459404447;;;;;;;;;;;;;;2;0;0;;0;0;();();(-2000.0, -2000.0);
10:55:21:858;10:55:21:805;1448057479.27;(0.28493072986602785, 0.5937671661376953);35.7119407654;0.86459404447;;;;;;;;;;;;;;2;0;0;;0;0;();();(-2000.0, -2000.0);
10:55:21:874;10:55:21:869;1448057479.34;(0.28477137088775634, 0.5940417395697699);35.7719764709;0.874709505227;;;;;;;;;;;;;;2;0;0;;0;0;();();(-2000.0, -2000.0);
10:55:21:891;10:55:21:869;1448057479.34;(0.28477137088775634, 0.5940417395697699);35.7719764709;0.874709505227;;;;;;;;;;;;;;2;0;0;;0;0;();();(-2000.0, -2000.0);
10:55:21:908;10:55:21:869;1448057479.34;(0.28477137088775634, 0.5940417395697699);35.7719764709;0.874709505227;;;;;;;;;;;;;;2;0;0;;0;0;();();(-2000.0, -2000.0);
10:55:21:941;10:55:21:936;1448057479.41;(0.2849923610687256, 0.5936553955078125);35.9342918396;0.885492458629;;;;;;;;;;;;;;2;0;0;;0;0;();();(-2000.0, -2000.0);
10:55:21:957;10:55:21:936;1448057479.41;(0.2849923610687256, 0.5936553955078125);35.9342918396;0.885492458629;;;;;;;;;;;;;;2;0;0;;0;0;();();(-2000.0, -2000.0);
10:55:21:974;10:55:21:936;1448057479.41;(0.2849923610687256, 0.5936553955078125);35.9342918396;0.885492458629;;;;;;;;;;;;;;2;0;0;;0;0;();();(-2000.0, -2000.0);
10:55:21:990;10:55:21:936;1448057479.41;(0.2849923610687256, 0.5936553955078125);35.9342918396;0.885492458629;;;;;;;;;;;;;;2;0;0;;0;0;();();(-2000.0, -2000.0);
10:55:22:007;10:55:22:001;1448057479.47;(0.2849348783493042, 0.5939641316731771);35.6474342346;0.886233583417;;;;;;;;;;;;;;2;0;0;;0;0;();();(-2000.0, -2000.0);
10:55:22:040;10:55:22:001;1448057479.47;(0.2849348783493042, 0.5939641316731771);35.6474342346;0.886233583417;;;;;;;;;;;;;;2;0;0;;0;0;();();(-2000.0, -2000.0);
10:55:22:057;10:55:22:001;1448057479.47;(0.2849348783493042, 0.5939641316731771);35.6474342346;0.886233583417;;;;;;;;;;;;;;2;0;0;;0;0;();();(-2000.0, -2000.0);
10:55:22:074;10:55:22:001;1448057479.47;(0.2849348783493042, 0.5939641316731771);35.6474342346;0.886233583417;;;;;;;;;;;;;;2;0;0;;0;0;();();(-2000.0, -2000.0);
10:55:22:090;10:55:22:076;1448057479.54;(0.28485538959503176, 0.5936214870876736);35.7178268433;0.865583072297;;;;;;;;;;;;;;2;0;0;;0;0;();();(-2000.0, -2000.0);
10:55:22:107;10:55:22:076;1448057479.54;(0.28485538959503176, 0.5936214870876736);35.7178268433;0.865583072297;;;;;;;;;;;;;;2;0;0;;0;0;();();(-2000.0, -2000.0);
10:55:22:140;10:55:22:138;1448057479.61;(0.284906792640686, 0.5936342027452257);35.6587867737;0.917356151263;;;;;;;;;;;;;;2;0;0;;0;0;();();(-2000.0, -2000.0);
10:55:22:156;10:55:22:138;1448057479.61;(0.284906792640686, 0.5936342027452257);35.6587867737;0.917356151263;;;;;;;;;;;;;;2;0;0;;0;0;();();(-2000.0, -2000.0);
10:55:22:172;10:55:22:138;1448057479.61;(0.284906792640686, 0.5936342027452257);35.6587867737;0.917356151263;;;;;;;;;;;;;;2;0;0;;0;0;();();(-2000.0, -2000.0);
10:55:22:189;10:55:22:138;1448057479.61;(0.284906792640686, 0.5936342027452257);35.6587867737;0.917356151263;;;;;;;;;;;;;;2;0;0;;0;0;();();(-2000.0, -2000.0);
10:55:22:222;10:55:22:205;1448057479.67;(0.284855580329895, 0.5938075595431858);35.6434059143;0.895521744336;;;;;;;;;;;;;;2;0;0;;0;0;();();(-2000.0, -2000.0);
10:55:22:239;10:55:22:205;1448057479.67;(0.284855580329895, 0.5938075595431858);35.6434059143;0.895521744336;;;;;;;;;;;;;;2;0;0;;0;0;();();(-2000.0, -2000.0);
10:55:22:255;10:55:22:205;1448057479.67;(0.284855580329895, 0.5938075595431858);35.6434059143;0.895521744336;;;;;;;;;;;;;;2;0;0;;0;0;();();(-2000.0, -2000.0);
10:55:22:779;10:55:22:732;1448057480.21;(0.2846293687820435, 0.5942245483398437);35.8399238586;0.873552170625;10:55:22:776;0;10;-1.5;1;0.293255131964809;0;0;0;1;1;1;1;2;0;0;;0;0;();();(-2000.0, -2000.0);
10:55:22:783;10:55:22:732;1448057480.21;(0.2846293687820435, 0.5942245483398437);35.8399238586;0.873552170625;10:55:22:783;0;10;-1.5;1;0.293255131964809;0;0;0;1;1;1;1;2;0;0;;0;0;();();(-2000.0, -2000.0);
10:55:22:787;10:55:22:732;1448057480.21;(0.2846293687820435, 0.5942245483398437);35.8399238586;0.873552170625;10:55:22:787;0;4;-1.5;1;0.293255131964809;0;0;0;1;1;1;1;2;0;0;;0;0;();();(-2000.0, -2000.0);
10:55:22:791;10:55:22:732;1448057480.21;(0.2846293687820435, 0.5942245483398437);35.8399238586;0.873552170625;10:55:22:791;0;4;-1.5;1;0.293255131964809;0;0;0;1;1;1;1;2;0;0;;0;0;();();(-2000.0, -2000.0);
10:55:22:796;10:55:22:732;1448057480.21;(0.2846293687820435, 0.5942245483398437);35.8399238586;0.873552170625;10:55:22:796;0;4;-1.5;1;0.293255131964809;0;0;0;1;1;1;1;2;0;0;;0;0;();();(-2000.0, -2000.0);
10:55:22:800;10:55:22:797;1448057480.27;(0.2850430727005005, 0.5934973822699653);35.5586700439;0.85298877619;10:55:22:800;0;8;-1.5;1;0.293255131964809;0;0;0;1;1;1;1;2;0;0;;0;0;();();(-2000.0, -2000.0);
10:55:22:804;10:55:22:797;1448057480.27;(0.2850430727005005, 0.5934973822699653);35.5586700439;0.85298877619;10:55:22:804;0;10;-1.5;1;0.293255131964809;0;0;0;1;1;1;1;2;0;0;;0;0;();();(-2000.0, -2000.0);
10:55:22:806;10:55:22:797;1448057480.27;(0.2850430727005005, 0.5934973822699653);35.5586700439;0.85298877619;10:55:22:806;0;10;-1.5;1;0.293255131964809;0;0;0;1;1;1;1;2;0;0;;0;0;();();(-2000.0, -2000.0);
10:55:22:808;10:55:22:797;1448057480.27;(0.2850430727005005, 0.5934973822699653);35.5586700439;0.85298877619;10:55:22:808;0;10;-1.5;1;0.293255131964809;0;0;0;1;1;1;1;2;0;0;;0;0;();();(-2000.0, -2000.0);
10:55:22:810;10:55:22:797;1448057480.27;(0.2850430727005005, 0.5934973822699653);35.5586700439;0.85298877619;10:55:22:810;0;10;-1.5;1;0.293255131964809;0;0;0;1;1;1;1;2;0;0;;0;0;();();(-2000.0, -2000.0);
10:55:22:811;10:55:22:797;1448057480.27;(0.2850430727005005, 0.5934973822699653);35.5586700439;0.85298877619;10:55:22:811;0;10;-1.5;1;0.293255131964809;0;0;0;1;1;1;1;2;0;0;;0;0;();();(-2000.0, -2000.0);
10:55:22:813;10:55:22:797;1448057480.27;(0.2850430727005005, 0.5934973822699653);35.5586700439;0.85298877619;10:55:22:813;0;10;-1.5;1;0.293255131964809;0;0;0;1;1;1;1;2;0;0;;0;0;();();(-2000.0, -2000.0);
10:55:22:815;10:55:22:797;1448057480.27;(0.2850430727005005, 0.5934973822699653);35.5586700439;0.85298877619;10:55:22:815;0;10;-1.5;1;0.293255131964809;0;0;0;1;1;1;1;2;0;0;;0;0;();();(-2000.0, -2000.0);
10:55:22:817;10:55:22:797;1448057480.27;(0.2850430727005005, 0.5934973822699653);35.5586700439;0.85298877619;10:55:22:817;0;13;-1.5;1;0.293255131964809;0;0;0;1;1;1;1;2;0;0;;0;0;();();(-2000.0, -2000.0);
10:55:22:819;10:55:22:797;1448057480.27;(0.2850430727005005, 0.5934973822699653);35.5586700439;0.85298877619;10:55:22:819;0;5;-1.5;1;0.293255131964809;0;0;0;1;1;1;1;2;0;0;;0;0;();();(-2000.0, -2000.0);
10:55:22:821;10:55:22:797;1448057480.27;(0.2850430727005005, 0.5934973822699653);35.5586700439;0.85298877619;10:55:22:821;0;5;-1.5;1;0.293255131964809;0;0;0;1;1;1;1;2;0;0;;0;0;();();(-2000.0, -2000.0);
10:55:22:823;10:55:22:797;1448057480.27;(0.2850430727005005, 0.5934973822699653);35.5586700439;0.85298877619;10:55:22:823;0;5;-1.5;1;0.293255131964809;0;0;0;1;1;1;1;2;0;0;;0;0;();();(-2000.0, -2000.0);
10:55:22:826;10:55:22:797;1448057480.27;(0.2850430727005005, 0.5934973822699653);35.5586700439;0.85298877619;10:55:22:826;0;5;-1.5;1;0.293255131964809;0;0;0;1;1;1;1;2;0;0;;0;0;();();(-2000.0, -2000.0);
10:55:22:828;10:55:22:797;1448057480.27;(0.2850430727005005, 0.5934973822699653);35.5586700439;0.85298877619;10:55:22:828;0;5;-1.5;1;0.293255131964809;0;0;0;1;1;1;1;2;0;0;;0;0;();();(-2000.0, -2000.0);
10:55:22:842;10:55:22:797;1448057480.27;(0.2850430727005005, 0.5934973822699653);35.5586700439;0.85298877619;10:55:22:842;0;10;-1.5;1;0.293255131964809;0;0;0;1;1;1;1;2;0;0;;0;0;();();(-2000.0, -2000.0);
10:55:22:860;10:55:22:797;1448057480.27;(0.2850430727005005, 0.5934973822699653);35.5586700439;0.85298877619;10:55:22:860;0;5;-1.5;1;0.293255131964809;0;0;0;1;1;1;1;2;0;0;;0;0;();();(-2000.0, -2000.0);
10:55:22:877;10:55:22:864;1448057480.34;(0.2850353240966797, 0.5933723025851779);35.6068496704;0.906860967771;10:55:22:877;0;9;-1.5;1;0.293255131964809;0;0;0;1;1;1;1;2;0;0;;0;0;();();(-2000.0, -2000.0);
10:55:22:909;10:55:22:864;1448057480.34;(0.2850353240966797, 0.5933723025851779);35.6068496704;0.906860967771;10:55:22:909;0;5;-1.5;1;0.293255131964809;0;0;0;1;1;1;1;2;0;0;;0;0;();();(-2000.0, -2000.0);
10:55:22:925;10:55:22:864;1448057480.34;(0.2850353240966797, 0.5933723025851779);35.6068496704;0.906860967771;10:55:22:925;0;5;-1.5;1;0.293255131964809;0;0;0;1;1;1;1;2;0;0;;0;0;();();(-2000.0, -2000.0);
10:55:22:942;10:55:22:932;1448057480.41;(0.2849313735961914, 0.5938093821207682);35.8016586304;0.902141239899;10:55:22:942;0;10;-1.5;1;0.293255131964809;0;0;0;1;1;1;1;2;0;0;;0;0;();();(-2000.0, -2000.0);
10:55:22:959;10:55:22:932;1448057480.41;(0.2849313735961914, 0.5938093821207682);35.8016586304;0.902141239899;10:55:22:959;0;15;-1.5;1;0.293255131964809;0;0;0;1;1;1;1;2;0;0;;0;0;();();(-2000.0, -2000.0);
10:55:22:979;10:55:22:932;1448057480.41;(0.2849313735961914, 0.5938093821207682);35.8016586304;0.902141239899;10:55:22:979;0;4;-1.5;1;0.293255131964809;0;0;0;1;1;1;1;4;0;0;;0;0;();();(-2000.0, -2000.0);
10:55:23:009;10:55:22:996;1448057480.47;(0.2847169876098633, 0.5940654754638672);35.8923377991;0.855017889801;10:55:23:009;0;10;-1.5;1;0.293255131964809;0;0;0;1;1;1;1;4;0;0;;0;0;();();(-2000.0, -2000.0);
10:55:23:025;10:55:22:996;1448057480.47;(0.2847169876098633, 0.5940654754638672);35.8923377991;0.855017889801;10:55:23:025;0;15;-1.5;1;0.293255131964809;0;0;0;1;1;1;1;4;0;0;;0;0;();();(-2000.0, -2000.0);
10:55:23:042;10:55:22:996;1448057480.47;(0.2847169876098633, 0.5940654754638672);35.8923377991;0.855017889801;10:55:23:042;0;9;-1.5;1;0.586510263929619;0;0;0;1;1;1;1;4;0;0;;0;0;();();(-2000.0, -2000.0);
10:55:23:058;10:55:22:996;1448057480.47;(0.2847169876098633, 0.5940654754638672);35.8923377991;0.855017889801;10:55:23:058;0;0;-1.5;1;0.293255131964809;0;0;0;1;1;1;1;4;0;0;;0;0;();();(-2000.0, -2000.0);
10:55:23:075;10:55:23:064;1448057480.54;(0.2851707458496094, 0.5934575822618273);35.6134757996;0.887826932792;10:55:23:075;0;0;-1.5;1;0.293255131964809;0;0;0;1;1;1;1;4;0;0;;0;0;();();(-2000.0, -2000.0);
10:55:23:108;10:55:23:064;1448057480.54;(0.2851707458496094, 0.5934575822618273);35.6134757996;0.887826932792;10:55:23:108;0;9;-1.5;1;0.293255131964809;0;0;0;1;1;1;1;4;0;0;;0;0;();();(-2000.0, -2000.0);
10:55:23:125;10:55:23:064;1448057480.54;(0.2851707458496094, 0.5934575822618273);35.6134757996;0.887826932792;10:55:23:125;0;15;-1.5;1;0.293255131964809;0;0;0;1;1;1;1;4;0;0;;0;0;();();(-2000.0, -2000.0);
10:55:23:142;10:55:23:128;1448057480.61;(0.28520379066467283, 0.5934049394395616);35.5564308167;0.896015153667;10:55:23:142;0;5;-1.5;1;0.684261974584555;0;0;0;1;1;1;1;4;0;0;;0;0;();();(-2000.0, -2000.0);
10:55:23:158;10:55:23:128;1448057480.61;(0.28520379066467283, 0.5934049394395616);35.5564308167;0.896015153667;10:55:23:158;0;10;-1.5;1;0.293255131964809;0;0;0;1;1;1;1;4;0;0;;0;0;();();(-2000.0, -2000.0);
10:55:23:174;10:55:23:128;1448057480.61;(0.28520379066467283, 0.5934049394395616);35.5564308167;0.896015153667;10:55:23:174;0;5;-1.5;1;0.293255131964809;0;0;0;1;1;1;1;4;0;0;;0;0;();();(-2000.0, -2000.0);
10:55:23:207;10:55:23:197;1448057480.67;(0.2852515935897827, 0.593213144938151);35.3385543823;0.888934224459;10:55:23:207;0;4;-0.419354838709677;1;0.293255131964809;0;0;0;1;1;1;1;4;0;0;;0;0;();();(-2000.0, -2000.0);
10:55:23:224;10:55:23:197;1448057480.67;(0.2852515935897827, 0.593213144938151);35.3385543823;0.888934224459;10:55:23:224;0;10;-1.5;1;0.293255131964809;0;0;0;1;1;1;1;4;0;0;;0;0;();();(-2000.0, -2000.0);
10:55:23:241;10:55:23:197;1448057480.67;(0.2852515935897827, 0.593213144938151);35.3385543823;0.888934224459;10:55:23:241;0;5;1.34838709677419;1;0.293255131964809;0;0;0;1;1;1;1;4;0;0;;0;0;();();(-2000.0, -2000.0);
10:55:23:258;10:55:23:197;1448057480.67;(0.2852515935897827, 0.593213144938151);35.3385543823;0.888934224459;10:55:23:258;0;10;1.55483870967742;1;0.684261974584555;0;0;0;1;1;1;1;4;0;0;;0;0;();();(-2000.0, -2000.0);
10:55:23:274;10:55:23:264;1448057480.74;(0.2851952791213989, 0.5936801910400391);35.4330177307;0.899152726583;10:55:23:274;0;4;-1.5;1;0.293255131964809;0;0;0;1;1;1;1;4;0;0;;0;0;();();(-2000.0, -2000.0);
10:55:23:308;10:55:23:264;1448057480.74;(0.2851952791213989, 0.5936801910400391);35.4330177307;0.899152726583;10:55:23:308;0;0;-1.5;1;0.293255131964809;0;0;0;1;1;1;1;4;0;0;;0;0;();();(-2000.0, -2000.0);
10:55:23:323;10:55:23:264;1448057480.74;(0.2851952791213989, 0.5936801910400391);35.4330177307;0.899152726583;10:55:23:323;0;10;1.77741935483871;1;0.293255131964809;0;0;0;1;1;1;1;4;0;0;;0;0;();();(-2000.0, -2000.0);
10:55:23:340;10:55:23:328;1448057480.81;(0.28528926372528074, 0.5934090932210286);35.4702835083;0.892066793108;10:55:23:340;0;4;1.78064516129032;1;0.293255131964809;0;0;0;1;1;1;1;4;0;0;;0;0;();();(-2000.0, -2000.0);
10:55:23:357;10:55:23:328;1448057480.81;(0.28528926372528074, 0.5934090932210286);35.4702835083;0.892066793108;10:55:23:357;0;9;-1.13548387096774;1;0.293255131964809;0;0;0;1;1;1;1;4;0;0;;0;0;();();(-2000.0, -2000.0);
10:55:23:374;10:55:23:328;1448057480.81;(0.28528926372528074, 0.5934090932210286);35.4702835083;0.892066793108;10:55:23:374;0;0;-0.790322580645161;1;0.293255131964809;0;0;0;1;1;1;1;4;0;0;;0;0;();();(-2000.0, -2000.0);
10:55:23:407;10:55:23:397;1448057480.87;(0.2848970890045166, 0.5938055250379775);35.6861381531;0.892994666552;10:55:23:407;0;5;-1.5;1;0.293255131964809;0;0;0;1;1;1;1;4;0;0;;0;0;();();(-2000.0, -2000.0);
10:55:23:423;10:55:23:397;1448057480.87;(0.2848970890045166, 0.5938055250379775);35.6861381531;0.892994666552;10:55:23:423;0;9;-1.5;1;0.293255131964809;0;0;0;1;1;1;1;4;0;0;;0;0;();();(-2000.0, -2000.0);
10:55:23:439;10:55:23:397;1448057480.87;(0.2848970890045166, 0.5938055250379775);35.6861381531;0.892994666552;10:55:23:439;0;15;-1.5;1;0.293255131964809;0;0;0;1;1;1;1;4;0;0;;0;0;();();(-2000.0, -2000.0);
10:55:23:456;10:55:23:397;1448057480.87;(0.2848970890045166, 0.5938055250379775);35.6861381531;0.892994666552;10:55:23:456;0;13;-1.5;1;0.293255131964809;0;0;0;1;1;1;1;4;0;0;;0;0;();();(-2000.0, -2000.0);
10:55:23:490;10:55:23:460;1448057480.94;(0.28505477905273435, 0.5934205373128255);35.6372642517;0.878706750529;10:55:23:490;0;10;-1.5;1;0.293255131964809;0;0;0;1;1;1;1;4;0;0;;0;0;();();(-2000.0, -2000.0);
10:55:23:506;10:55:23:460;1448057480.94;(0.28505477905273435, 0.5934205373128255);35.6372642517;0.878706750529;10:55:23:506;0;15;-1.5;1;0.293255131964809;0;0;0;1;1;1;1;4;0;0;;0;0;();();(-2000.0, -2000.0);
10:55:23:522;10:55:23:460;1448057480.94;(0.28505477905273435, 0.5934205373128255);35.6372642517;0.878706750529;10:55:23:522;0;15;-1.5;1;0.293255131964809;0;0;0;1;1;1;1;4;0;0;;0;0;();();(-2000.0, -2000.0);
10:55:23:539;10:55:23:528;1448057481.01;(0.2848444700241089, 0.5937813652886285);35.6708641052;0.913037576855;10:55:23:539;0;9;-1.5;1;0.293255131964809;0;0;0;1;1;1;1;4;0;0;;0;0;();();(-2000.0, -2000.0);
10:55:23:555;10:55:23:528;1448057481.01;(0.2848444700241089, 0.5937813652886285);35.6708641052;0.913037576855;10:55:23:555;0;4;-1.5;1;0.293255131964809;0;0;0;1;1;1;1;4;0;0;;0;0;();();(-2000.0, -2000.0);
10:55:23:589;10:55:23:528;1448057481.01;(0.2848444700241089, 0.5937813652886285);35.6708641052;0.913037576855;10:55:23:589;0;10;-1.5;1;0.293255131964809;0;0;0;1;1;1;1;4;0;0;;0;0;();();(-2000.0, -2000.0);
10:55:23:605;10:55:23:597;1448057481.07;(0.28467302322387694, 0.5941005282931857);35.8681221008;0.854433672158;10:55:23:605;0;10;-1.5;1;0.293255131964809;0;0;0;1;1;1;1;4;0;0;;0;0;();();(-2000.0, -2000.0);
10:55:23:622;10:55:23:597;1448057481.07;(0.28467302322387694, 0.5941005282931857);35.8681221008;0.854433672158;10:55:23:622;0;5;-1.5;1;0.293255131964809;0;0;0;1;1;1;1;4;0;0;;0;0;();();(-2000.0, -2000.0);
10:55:23:638;10:55:23:597;1448057481.07;(0.28467302322387694, 0.5941005282931857);35.8681221008;0.854433672158;10:55:23:638;0;15;-0.37741935483871;1;0.293255131964809;0;0;0;1;1;1;1;4;0;0;;0;0;();();(-2000.0, -2000.0);
10:55:23:655;10:55:23:597;1448057481.07;(0.28467302322387694, 0.5941005282931857);35.8681221008;0.854433672158;10:55:23:655;0;5;0.206451612903226;1;0.293255131964809;0;0;0;1;1;1;1;4;0;0;;0;0;();();(-2000.0, -2000.0);
10:55:23:688;10:55:23:660;1448057481.14;(0.28509347438812255, 0.5936768001980252);35.2920684814;0.866377888102;10:55:23:688;0;4;-1.5;1;0.293255131964809;0;0;0;1;1;1;1;4;0;0;;0;0;();();(-2000.0, -2000.0);
10:55:23:705;10:55:23:660;1448057481.14;(0.28509347438812255, 0.5936768001980252);35.2920684814;0.866377888102;10:55:23:705;0;15;-1.5;1;0.293255131964809;0;0;0;1;1;1;1;4;0;0;;0;0;();();(-2000.0, -2000.0);
10:55:23:722;10:55:23:660;1448057481.14;(0.28509347438812255, 0.5936768001980252);35.2920684814;0.866377888102;10:55:23:722;0;5;-1.5;1;0.586510263929619;0;0;0;1;1;1;1;4;0;0;;0;0;();();(-2000.0, -2000.0);
10:55:23:738;10:55:23:729;1448057481.21;(0.28508577346801756, 0.5937131245930989);35.5558929443;0.887153451095;10:55:23:738;0;10;-1.5;1;0.293255131964809;0;0;0;1;1;1;1;4;0;0;;0;0;();();(-2000.0, -2000.0);
10:55:23:835;10:55:23:792;1448057481.27;(0.28487966060638426, 0.5937418619791667);35.7529067993;0.906813228937;10:55:23:835;0;9;1.78064516129032;1;0.586510263929619;0;0;0;1;1;1;1;4;0;0;;0;0;();();(-2000.0, -2000.0);
10:55:23:840;10:55:23:792;1448057481.27;(0.28487966060638426, 0.5937418619791667);35.7529067993;0.906813228937;10:55:23:840;0;9;1.78064516129032;1;0.586510263929619;0;0;0;1;1;1;1;4;0;0;;0;0;();();(-2000.0, -2000.0);
10:55:23:844;10:55:23:792;1448057481.27;(0.28487966060638426, 0.5937418619791667);35.7529067993;0.906813228937;10:55:23:844;0;9;1.78064516129032;1;0.586510263929619;0;0;0;1;1;1;1;4;0;0;;0;0;();();(-2000.0, -2000.0);
10:55:23:848;10:55:23:792;1448057481.27;(0.28487966060638426, 0.5937418619791667);35.7529067993;0.906813228937;10:55:23:848;0;5;1.18064516129032;1;0.293255131964809;0;0;0;1;1;1;1;4;0;0;;0;0;();();(-2000.0, -2000.0);
10:55:23:853;10:55:23:792;1448057481.27;(0.28487966060638426, 0.5937418619791667);35.7529067993;0.906813228937;10:55:23:853;0;0;-1.5;1;0.293255131964809;0;0;0;1;1;1;1;4;0;0;;0;0;();();(-2000.0, -2000.0);
10:55:23:857;10:55:23:792;1448057481.27;(0.28487966060638426, 0.5937418619791667);35.7529067993;0.906813228937;10:55:23:857;0;0;-1.5;1;0.293255131964809;0;0;0;1;1;1;1;4;0;0;;0;0;();();(-2000.0, -2000.0);
10:55:23:875;10:55:23:860;1448057481.34;(0.284874415397644, 0.5937652587890625);35.650844574;0.884063560764;10:55:23:875;0;4;-1.5;1;0.293255131964809;0;0;0;1;1;1;1;4;0;0;;0;0;();();(-2000.0, -2000.0);
10:55:23:908;10:55:23:860;1448057481.34;(0.284874415397644, 0.5937652587890625);35.650844574;0.884063560764;10:55:23:908;0;9;1.78064516129032;1;0.293255131964809;0;0;0;1;1;1;1;4;0;0;;0;0;();();(-2000.0, -2000.0);
10:55:23:924;10:55:23:860;1448057481.34;(0.284874415397644, 0.5937652587890625);35.650844574;0.884063560764;10:55:23:924;0;15;1.77741935483871;1;0.293255131964809;0;0;0;1;1;1;1;4;0;0;;0;0;();();(-2000.0, -2000.0);
10:55:23:940;10:55:23:932;1448057481.41;(0.28492934703826905, 0.5937918768988715);35.4232292175;0.868686841519;10:55:23:940;0;5;1.76129032258065;1;0.293255131964809;0;0;0;1;1;1;1;4;0;0;;0;0;();();(-2000.0, -2000.0);
10:55:23:957;10:55:23:932;1448057481.41;(0.28492934703826905, 0.5937918768988715);35.4232292175;0.868686841519;10:55:23:957;0;0;1.77741935483871;1;0.293255131964809;0;0;0;1;1;1;1;4;0;0;;0;0;();();(-2000.0, -2000.0);
10:55:23:974;10:55:23:932;1448057481.41;(0.28492934703826905, 0.5937918768988715);35.4232292175;0.868686841519;10:55:23:974;0;4;1.78064516129032;1;0.293255131964809;0;0;0;1;1;1;1;4;0;0;;0;0;();();(-2000.0, -2000.0);
10:55:24:007;10:55:23:992;1448057481.47;(0.2848763942718506, 0.5938109079996745);35.6927108765;0.88809011136;10:55:24:007;0;4;1.78064516129032;1;0.293255131964809;0;0;0;1;1;1;1;4;0;0;;0;0;();();(-2000.0, -2000.0);
10:55:24:023;10:55:23:992;1448057481.47;(0.2848763942718506, 0.5938109079996745);35.6927108765;0.88809011136;10:55:24:023;0;15;1.78064516129032;1;0.293255131964809;0;0;0;1;1;1;1;4;0;0;;0;0;();();(-2000.0, -2000.0);
10:55:24:040;10:55:23:992;1448057481.47;(0.2848763942718506, 0.5938109079996745);35.6927108765;0.88809011136;10:55:24:040;0;5;1.78064516129032;1;0.293255131964809;0;0;0;1;1;1;1;4;0;0;;0;0;();();(-2000.0, -2000.0);
10:55:24:056;10:55:23:992;1448057481.47;(0.2848763942718506, 0.5938109079996745);35.6927108765;0.88809011136;10:55:24:056;0;9;1.78064516129032;1;0.293255131964809;0;0;0;1;1;1;1;4;0;0;;0;0;();();(-2000.0, -2000.0);
10:55:24:073;10:55:24:060;1448057481.54;(0.28510165214538574, 0.5938617282443577);35.3506202698;0.85066013563;10:55:24:073;0;4;1.78064516129032;1;0.293255131964809;0;0;0;1;1;1;1;4;0;0;;0;0;();();(-2000.0, -2000.0);
10:55:24:106;10:55:24:060;1448057481.54;(0.28510165214538574, 0.5938617282443577);35.3506202698;0.85066013563;10:55:24:106;0;5;1.78064516129032;1;0.293255131964809;0;0;0;1;1;1;1;4;0;0;;0;0;();();(-2000.0, -2000.0);
10:55:24:123;10:55:24:060;1448057481.54;(0.28510165214538574, 0.5938617282443577);35.3506202698;0.85066013563;10:55:24:123;0;10;1.76129032258065;1;0.293255131964809;0;0;0;1;1;1;1;4;0;0;;0;0;();();(-2000.0, -2000.0);
10:55:24:139;10:55:24:124;1448057481.61;(0.2849134922027588, 0.593568378024631);35.8174858093;0.904255176534;10:55:24:139;0;4;-1.5;1;0.293255131964809;0;0;0;1;1;1;1;4;0;0;;0;0;();();(-2000.0, -2000.0);
10:55:24:157;10:55:24:124;1448057481.61;(0.2849134922027588, 0.593568378024631);35.8174858093;0.904255176534;10:55:24:157;0;9;-1.5;1;0.293255131964809;0;0;0;1;1;1;1;4;0;0;;0;0;();();(-2000.0, -2000.0);
10:55:24:189;10:55:24:124;1448057481.61;(0.2849134922027588, 0.593568378024631);35.8174858093;0.904255176534;10:55:24:189;0;4;-1.5;1;0.293255131964809;0;0;0;1;1;1;1;4;0;0;;0;0;();();(-2000.0, -2000.0);
10:55:24:206;10:55:24:193;1448057481.67;(0.28492395877838134, 0.5935805850558811);35.7556648254;0.884349551645;10:55:24:206;0;15;-1.5;1;0.293255131964809;0;0;0;1;1;1;1;4;0;0;;0;0;();();(-2000.0, -2000.0);
10:55:24:222;10:55:24:193;1448057481.67;(0.28492395877838134, 0.5935805850558811);35.7556648254;0.884349551645;10:55:24:222;0;10;-1.5;1;0.293255131964809;0;0;0;1;1;1;1;4;0;0;;0;0;();();(-2000.0, -2000.0);
10:55:24:239;10:55:24:193;1448057481.67;(0.28492395877838134, 0.5935805850558811);35.7556648254;0.884349551645;10:55:24:239;0;4;-1.5;1;0.293255131964809;0;0;0;1;1;1;1;4;0;0;;0;0;();();(-2000.0, -2000.0);
10:55:24:256;10:55:24:193;1448057481.67;(0.28492395877838134, 0.5935805850558811);35.7556648254;0.884349551645;10:55:24:256;0;9;-1.5;1;0.293255131964809;0;0;0;1;1;1;1;4;0;0;;0;0;();();(-2000.0, -2000.0);
10:55:24:288;10:55:24:261;1448057481.74;(0.2851002931594849, 0.5934654235839844);35.7986412048;0.909901365337;10:55:24:288;0;5;-1.5;1;0.293255131964809;0;0;0;1;1;1;1;4;0;0;;0;0;();();(-2000.0, -2000.0);
10:55:24:306;10:55:24:261;1448057481.74;(0.2851002931594849, 0.5934654235839844);35.7986412048;0.909901365337;10:55:24:306;0;15;-1.5;1;0.293255131964809;0;0;0;1;1;1;1;4;0;0;;0;0;();();(-2000.0, -2000.0);
10:55:24:322;10:55:24:261;1448057481.74;(0.2851002931594849, 0.5934654235839844);35.7986412048;0.909901365337;10:55:24:322;0;4;1.76129032258065;1;0.293255131964809;0;0;0;1;1;1;1;4;0;0;;0;0;();();(-2000.0, -2000.0);
10:55:24:338;10:55:24:324;1448057481.81;(0.2850410223007202, 0.5935678270128038);35.6079177856;0.889899123161;10:55:24:338;0;4;1.76129032258065;1;0.293255131964809;0;0;0;1;1;1;1;4;0;0;;0;0;();();(-2000.0, -2000.0);
10:55:24:355;10:55:24:324;1448057481.81;(0.2850410223007202, 0.5935678270128038);35.6079177856;0.889899123161;10:55:24:355;0;9;1.77741935483871;1;0.293255131964809;0;0;0;1;1;1;1;4;0;0;;0;0;();();(-2000.0, -2000.0);
10:55:24:388;10:55:24:324;1448057481.81;(0.2850410223007202, 0.5935678270128038);35.6079177856;0.889899123161;10:55:24:388;0;4;-0.548387096774194;1;0.293255131964809;0;0;0;1;1;1;1;4;0;0;;0;0;();();(-2000.0, -2000.0);
10:55:24:405;10:55:24:324;1448057481.81;(0.2850410223007202, 0.5935678270128038);35.6079177856;0.889899123161;10:55:24:405;0;10;-1.5;1;0.293255131964809;0;0;0;1;1;1;1;4;0;0;;0;0;();();(-2000.0, -2000.0);
10:55:24:422;10:55:24:324;1448057481.81;(0.2850410223007202, 0.5935678270128038);35.6079177856;0.889899123161;10:55:24:422;0;5;-1.5;1;0.293255131964809;0;0;0;1;1;1;1;4;0;0;;0;0;();();(-2000.0, -2000.0);
10:55:24:437;10:55:24:324;1448057481.81;(0.2850410223007202, 0.5935678270128038);35.6079177856;0.889899123161;10:55:24:437;0;15;-1.5;1;0.293255131964809;0;0;0;1;1;1;1;4;0;0;;0;0;();();(-2000.0, -2000.0);
10:55:24:454;10:55:24:448;1448057481.91;(0.2848062038421631, 0.5938132392035591);35.8853302002;0.894429723921;10:55:24:454;0;4;0.770967741935484;1;0.293255131964809;0;0;0;1;1;1;1;4;0;0;;0;0;();();(-2000.0, -2000.0);
10:55:24:487;10:55:24:460;1448057481.94;(0.2846828937530518, 0.5940359751383464);35.8317947388;0.891118711522;10:55:24:487;0;4;1.77741935483871;1;0.684261974584555;0;0;0;1;1;1;1;4;0;0;;0;0;();();(-2000.0, -2000.0);
10:55:24:504;10:55:24:460;1448057481.94;(0.2846828937530518, 0.5940359751383464);35.8317947388;0.891118711522;10:55:24:504;0;10;1.78064516129032;1;0.293255131964809;0;0;0;1;1;1;1;4;0;0;;0;0;();();(-2000.0, -2000.0);
10:55:24:521;10:55:24:460;1448057481.94;(0.2846828937530518, 0.5940359751383464);35.8317947388;0.891118711522;10:55:24:521;0;5;1.42903225806452;1;0.684261974584555;0;0;0;1;1;1;1;4;0;0;;0;0;();();(-2000.0, -2000.0);
10:55:24:537;10:55:24:525;1448057482.01;(0.28505699634552, 0.5939098782009549);35.6622695923;0.887024810077;10:55:24:537;0;10;1.25483870967742;1;0.293255131964809;0;0;0;1;1;1;1;4;0;0;;0;0;();();(-2000.0, -2000.0);
10:55:24:554;10:55:24:525;1448057482.01;(0.28505699634552, 0.5939098782009549);35.6622695923;0.887024810077;10:55:24:554;0;4;-0.851612903225807;1;0.293255131964809;0;0;0;1;1;1;1;4;0;0;;0;0;();();(-2000.0, -2000.0);
10:55:24:587;10:55:24:525;1448057482.01;(0.28505699634552, 0.5939098782009549);35.6622695923;0.887024810077;10:55:24:587;0;5;-1.33548387096774;1;0.293255131964809;0;0;0;1;1;1;1;4;0;0;;0;0;();();(-2000.0, -2000.0);
10:55:24:602;10:55:24:593;1448057482.07;(0.28511624336242675, 0.5933457268608942);35.6307945251;0.872127397361;10:55:24:602;0;10;1.78064516129032;1;0.293255131964809;0;0;0;1;1;1;1;4;0;0;;0;0;();();(-2000.0, -2000.0);
10:55:24:620;10:55:24:593;1448057482.07;(0.28511624336242675, 0.5933457268608942);35.6307945251;0.872127397361;10:55:24:620;0;4;-1.5;1;0.293255131964809;0;0;0;1;1;1;1;4;0;0;;0;0;();();(-2000.0, -2000.0);
10:55:24:637;10:55:24:593;1448057482.07;(0.28511624336242675, 0.5933457268608942);35.6307945251;0.872127397361;10:55:24:637;0;9;-1.5;1;0.293255131964809;0;0;0;1;1;1;1;4;0;0;;0;0;();();(-2000.0, -2000.0);
10:55:24:670;10:55:24:657;1448057482.14;(0.28506457805633545, 0.5934396955702039);35.4650650024;0.894945280081;10:55:24:670;0;9;1.78064516129032;1;0.293255131964809;0;0;0;1;1;1;1;4;0;0;;0;0;();();(-2000.0, -2000.0);
10:55:24:686;10:55:24:657;1448057482.14;(0.28506457805633545, 0.5934396955702039);35.4650650024;0.894945280081;10:55:24:686;0;7;1.78064516129032;1;0.293255131964809;0;0;0;1;1;1;1;4;0;0;;0;0;();();(-2000.0, -2000.0);
10:55:24:703;10:55:24:657;1448057482.14;(0.28506457805633545, 0.5934396955702039);35.4650650024;0.894945280081;10:55:24:703;0;9;1.78064516129032;1;0.293255131964809;0;0;0;1;1;1;1;4;0;0;;0;0;();();(-2000.0, -2000.0);
10:55:24:719;10:55:24:657;1448057482.14;(0.28506457805633545, 0.5934396955702039);35.4650650024;0.894945280081;10:55:24:719;0;4;1.78064516129032;1;0.293255131964809;0;0;0;1;1;1;1;4;0;0;;0;0;();();(-2000.0, -2000.0);
10:55:24:736;10:55:24:724;1448057482.21;(0.28517396450042726, 0.5932201385498047);35.7149467468;0.920133533455;10:55:24:736;0;10;1.78064516129032;1;0.293255131964809;0;0;0;1;1;1;1;4;0;0;;0;0;();();(-2000.0, -2000.0);
10:55:24:753;10:55:24:724;1448057482.21;(0.28517396450042726, 0.5932201385498047);35.7149467468;0.920133533455;10:55:24:753;0;0;1.78064516129032;1;0.293255131964809;0;0;0;1;1;1;1;4;0;0;;0;0;();();(-2000.0, -2000.0);
10:55:24:785;10:55:24:724;1448057482.21;(0.28517396450042726, 0.5932201385498047);35.7149467468;0.920133533455;10:55:24:785;0;15;1.78064516129032;1;0.293255131964809;0;0;0;1;1;1;1;4;0;0;;0;0;();();(-2000.0, -2000.0);
10:55:24:802;10:55:24:788;1448057482.27;(0.28519446849823, 0.5935530768500434);35.7341003418;0.905980744277;10:55:24:802;0;15;1.78064516129032;1;0.293255131964809;0;0;0;1;1;1;1;4;0;0;;0;0;();();(-2000.0, -2000.0);
10:55:24:818;10:55:24:788;1448057482.27;(0.28519446849823, 0.5935530768500434);35.7341003418;0.905980744277;10:55:24:818;0;15;1.78064516129032;1;0.293255131964809;0;0;0;1;1;1;1;4;0;0;;0;0;();();(-2000.0, -2000.0);
10:55:24:835;10:55:24:788;1448057482.27;(0.28519446849823, 0.5935530768500434);35.7341003418;0.905980744277;10:55:24:835;0;1;-1.0258064516129;1;0.586510263929619;0;0;0;1;1;1;1;4;0;0;;0;0;();();(-2000.0, -2000.0);
10:55:24:868;10:55:24:857;1448057482.34;(0.2853441953659058, 0.5931440989176433);35.5428619385;0.896983694632;10:55:24:868;0;4;1.15806451612903;1;0.293255131964809;0;0;0;1;1;1;1;4;0;0;;0;0;();();(-2000.0, -2000.0);
10:55:24:884;10:55:24:857;1448057482.34;(0.2853441953659058, 0.5931440989176433);35.5428619385;0.896983694632;10:55:24:884;0;15;-1.5;1;0.293255131964809;0;0;0;1;1;1;1;4;0;0;;0;0;();();(-2000.0, -2000.0);
10:55:24:901;10:55:24:857;1448057482.34;(0.2853441953659058, 0.5931440989176433);35.5428619385;0.896983694632;10:55:24:901;0;5;-1.36774193548387;1;0.684261974584555;0;0;0;1;1;1;1;4;0;0;;0;0;();();(-2000.0, -2000.0);
10:55:24:918;10:55:24:857;1448057482.34;(0.2853441953659058, 0.5931440989176433);35.5428619385;0.896983694632;10:55:24:918;0;10;1.79032258064516;1;0.293255131964809;0;0;0;1;1;1;1;4;0;0;;0;0;();();(-2000.0, -2000.0);
10:55:24:935;10:55:24:926;1448057482.41;(0.2850272417068481, 0.5938435448540582);35.8125;0.89989542089;10:55:24:934;0;5;1.77741935483871;1;0.293255131964809;0;0;0;1;1;1;1;4;0;0;;0;0;();();(-2000.0, -2000.0);
10:55:24:968;10:55:24:926;1448057482.41;(0.2850272417068481, 0.5938435448540582);35.8125;0.89989542089;10:55:24:968;0;5;-1.5;1;0.293255131964809;0;0;0;1;1;1;1;4;0;0;;0;0;();();(-2000.0, -2000.0);
10:55:24:984;10:55:24:926;1448057482.41;(0.2850272417068481, 0.5938435448540582);35.8125;0.89989542089;10:55:24:983;0;9;0.138709677419355;1;0.293255131964809;0;0;0;1;1;1;1;4;0;0;;0;0;();();(-2000.0, -2000.0);
10:55:25:002;10:55:24:988;1448057482.47;(0.2849235773086548, 0.5939059787326388);35.8396911621;0.911408616759;10:55:25:002;0;5;-1.5;1;0.293255131964809;0;0;0;1;1;1;1;4;0;0;;0;0;();();(-2000.0, -2000.0);
10:55:25:017;10:55:24:988;1448057482.47;(0.2849235773086548, 0.5939059787326388);35.8396911621;0.911408616759;10:55:25:017;0;1;-1.5;1;0.586510263929619;0;0;0;1;1;1;1;4;0;0;;0;0;();();(-2000.0, -2000.0);
10:55:25:034;10:55:24:988;1448057482.47;(0.2849235773086548, 0.5939059787326388);35.8396911621;0.911408616759;10:55:25:034;0;13;-0.732258064516129;1;0.293255131964809;0;0;0;1;1;1;1;4;0;0;;0;0;();();(-2000.0, -2000.0);
10:55:25:067;10:55:25:057;1448057482.54;(0.28489980697631834, 0.5940069834391276);35.6678962708;0.861593714732;10:55:25:067;0;5;1.78064516129032;1;0.293255131964809;0;0;0;1;1;1;1;4;0;0;;0;0;();();(-2000.0, -2000.0);
10:55:25:084;10:55:25:057;1448057482.54;(0.28489980697631834, 0.5940069834391276);35.6678962708;0.861593714732;10:55:25:084;0;10;1.77741935483871;1;0.293255131964809;0;0;0;1;1;1;1;4;0;0;;0;0;();();(-2000.0, -2000.0);
10:55:25:100;10:55:25:057;1448057482.54;(0.28489980697631834, 0.5940069834391276);35.6678962708;0.861593714732;10:55:25:100;0;5;-0.92258064516129;1;0.586510263929619;0;0;0;1;1;1;1;4;0;0;;0;0;();();(-2000.0, -2000.0);
10:55:25:117;10:55:25:057;1448057482.54;(0.28489980697631834, 0.5940069834391276);35.6678962708;0.861593714732;10:55:25:117;0;9;1.77741935483871;1;0.293255131964809;0;0;0;1;1;1;1;4;0;0;;0;0;();();(-2000.0, -2000.0);
10:55:25:133;10:55:25:120;1448057482.61;(0.28504998683929444, 0.5941476609971788);35.6168899536;0.870651528869;10:55:25:133;0;4;1.77741935483871;1;0.293255131964809;0;0;0;1;1;1;1;4;0;0;;0;0;();();(-2000.0, -2000.0);
10:55:25:167;10:55:25:120;1448057482.61;(0.28504998683929444, 0.5941476609971788);35.6168899536;0.870651528869;10:55:25:167;0;5;1.76129032258065;1;0.293255131964809;0;0;0;1;1;1;1;4;0;0;;0;0;();();(-2000.0, -2000.0);
10:55:25:182;10:55:25:120;1448057482.61;(0.28504998683929444, 0.5941476609971788);35.6168899536;0.870651528869;10:55:25:182;0;10;1.78064516129032;1;0.293255131964809;0;0;0;1;1;1;1;4;0;0;;0;0;();();(-2000.0, -2000.0);
10:55:25:200;10:55:25:188;1448057482.67;(0.28475122451782225, 0.5940321180555556);35.7584381104;0.888715766846;10:55:25:200;0;15;-0.880645161290323;1;0.293255131964809;0;0;0;1;1;1;1;4;0;0;;0;0;();();(-2000.0, -2000.0);
10:55:25:215;10:55:25:188;1448057482.67;(0.28475122451782225, 0.5940321180555556);35.7584381104;0.888715766846;10:55:25:215;0;11;0.912903225806452;1;0.293255131964809;0;0;0;1;1;1;1;4;0;0;;0;0;();();(-2000.0, -2000.0);
10:55:25:249;10:55:25:188;1448057482.67;(0.28475122451782225, 0.5940321180555556);35.7584381104;0.888715766846;10:55:25:249;0;10;-1.09032258064516;1;0.293255131964809;0;0;0;1;1;1;1;4;0;0;;0;0;();();(-2000.0, -2000.0);
10:55:25:267;10:55:25:257;1448057482.74;(0.2849618434906006, 0.5936173756917318);35.6244010925;0.883254420786;10:55:25:267;0;15;-1.5;1;0.293255131964809;0;0;0;1;1;1;1;4;0;0;;0;0;();();(-2000.0, -2000.0);
10:55:25:283;10:55:25:257;1448057482.74;(0.2849618434906006, 0.5936173756917318);35.6244010925;0.883254420786;10:55:25:283;0;4;-1.5;1;0.293255131964809;0;0;0;1;1;1;1;4;0;0;;0;0;();();(-2000.0, -2000.0);
10:55:25:299;10:55:25:257;1448057482.74;(0.2849618434906006, 0.5936173756917318);35.6244010925;0.883254420786;10:55:25:299;0;10;-1.5;1;0.293255131964809;0;0;0;1;1;1;1;4;0;0;;0;0;();();(-2000.0, -2000.0);
10:55:25:316;10:55:25:257;1448057482.74;(0.2849618434906006, 0.5936173756917318);35.6244010925;0.883254420786;10:55:25:316;0;5;-1.5;1;0.293255131964809;0;0;0;1;1;1;1;4;0;0;;0;0;();();(-2000.0, -2000.0);
10:55:25:348;10:55:25:320;1448057482.81;(0.2851261615753174, 0.5938064999050564);35.4836654663;0.876785992642;10:55:25:348;0;10;-1.5;1;0.293255131964809;0;0;0;1;1;1;1;4;0;0;;0;0;();();(-2000.0, -2000.0);
10:55:25:365;10:55:25:320;1448057482.81;(0.2851261615753174, 0.5938064999050564);35.4836654663;0.876785992642;10:55:25:365;0;15;-1.5;1;0.293255131964809;0;0;0;1;1;1;1;4;0;0;;0;0;();();(-2000.0, -2000.0);
10:55:25:382;10:55:25:320;1448057482.81;(0.2851261615753174, 0.5938064999050564);35.4836654663;0.876785992642;10:55:25:382;0;5;-1.5;1;0.293255131964809;0;0;0;1;1;1;1;4;0;0;;0;0;();();(-2000.0, -2000.0);
10:55:25:398;10:55:25:388;1448057482.87;(0.2850968837738037, 0.5937810262044271);35.9749794006;0.914928117798;10:55:25:398;0;10;-1.5;1;0.293255131964809;0;0;0;1;1;1;1;4;0;0;;0;0;();();(-2000.0, -2000.0);
10:55:25:415;10:55:25:388;1448057482.87;(0.2850968837738037, 0.5937810262044271);35.9749794006;0.914928117798;10:55:25:415;0;5;-1.5;1;0.293255131964809;0;0;0;1;1;1;1;4;0;0;;0;0;();();(-2000.0, -2000.0);
10:55:25:448;10:55:25:388;1448057482.87;(0.2850968837738037, 0.5937810262044271);35.9749794006;0.914928117798;10:55:25:448;0;4;-1.5;1;0.293255131964809;0;0;0;1;1;1;1;4;0;0;;0;0;();();(-2000.0, -2000.0);
10:55:25:466;10:55:25:452;1448057482.94;(0.28513479232788086, 0.5936180962456596);35.474319458;0.857093534882;10:55:25:466;0;4;-1.5;1;0.293255131964809;0;0;0;1;1;1;1;4;0;0;;0;0;();();(-2000.0, -2000.0);
10:55:25:482;10:55:25:452;1448057482.94;(0.28513479232788086, 0.5936180962456596);35.474319458;0.857093534882;10:55:25:482;0;5;-1.5;1;0.293255131964809;0;0;0;1;1;1;1;4;0;0;;0;0;();();(-2000.0, -2000.0);
10:55:25:497;10:55:25:452;1448057482.94;(0.28513479232788086, 0.5936180962456596);35.474319458;0.857093534882;10:55:25:497;0;9;-1.5;1;0.293255131964809;0;0;0;1;1;1;1;4;0;0;;0;0;();();(-2000.0, -2000.0);
10:55:25:514;10:55:25:452;1448057482.94;(0.28513479232788086, 0.5936180962456596);35.474319458;0.857093534882;10:55:25:514;0;4;-1.5;1;0.293255131964809;0;0;0;1;1;1;1;4;0;0;;0;0;();();(-2000.0, -2000.0);
10:55:25:548;10:55:25:520;1448057483.01;(0.28491744995117185, 0.5937174055311415);35.7057876587;0.896513208669;10:55:25:548;0;5;-1.5;1;0.293255131964809;0;0;0;1;1;1;1;4;0;0;;0;0;();();(-2000.0, -2000.0);
10:55:25:564;10:55:25:520;1448057483.01;(0.28491744995117185, 0.5937174055311415);35.7057876587;0.896513208669;10:55:25:564;0;10;0.264516129032258;1;0.293255131964809;0;0;0;1;1;1;1;4;0;0;;0;0;();();(-2000.0, -2000.0);
10:55:25:581;10:55:25:520;1448057483.01;(0.28491744995117185, 0.5937174055311415);35.7057876587;0.896513208669;10:55:25:581;0;15;-1.5;1;0.293255131964809;0;0;0;1;1;1;1;4;0;0;;0;0;();();(-2000.0, -2000.0);
10:55:25:598;10:55:25:585;1448057483.07;(0.2849102973937988, 0.5935774909125434);35.7569694519;0.914451746867;10:55:25:598;0;9;-1.5;1;0.684261974584555;0;0;0;1;1;1;1;4;0;0;;0;0;();();(-2000.0, -2000.0);
10:55:25:614;10:55:25:585;1448057483.07;(0.2849102973937988, 0.5935774909125434);35.7569694519;0.914451746867;10:55:25:614;0;4;-1.5;1;0.293255131964809;0;0;0;1;1;1;1;4;0;0;;0;0;();();(-2000.0, -2000.0);
10:55:25:647;10:55:25:585;1448057483.07;(0.2849102973937988, 0.5935774909125434);35.7569694519;0.914451746867;10:55:25:647;0;15;-1.5;1;0.293255131964809;0;0;0;1;1;1;1;4;0;0;;0;0;();();(-2000.0, -2000.0);
10:55:25:663;10:55:25:652;1448057483.14;(0.2846991539001465, 0.5942051781548394);36.0024032593;0.863840842156;10:55:25:663;0;10;-1.5;1;0.293255131964809;0;0;0;1;1;1;1;4;0;0;;0;0;();();(-2000.0, -2000.0);
10:55:25:681;10:55:25:652;1448057483.14;(0.2846991539001465, 0.5942051781548394);36.0024032593;0.863840842156;10:55:25:681;0;4;-1.5;1;0.684261974584555;0;0;0;1;1;1;1;4;0;0;;0;0;();();(-2000.0, -2000.0);
10:55:25:697;10:55:25:652;1448057483.14;(0.2846991539001465, 0.5942051781548394);36.0024032593;0.863840842156;10:55:25:697;0;10;-1.49032258064516;1;0.293255131964809;0;0;0;1;1;1;1;4;0;0;;0;0;();();(-2000.0, -2000.0);
10:55:25:713;10:55:25:652;1448057483.14;(0.2846991539001465, 0.5942051781548394);36.0024032593;0.863840842156;10:55:25:713;0;0;0.719354838709677;1;0.293255131964809;0;0;0;1;1;1;1;4;0;0;;0;0;();();(-2000.0, -2000.0);
10:55:25:747;10:55:25:720;1448057483.21;(0.28482038974761964, 0.5941563076443143);35.7674560547;0.872129236882;10:55:25:747;0;15;-1.5;1;0.684261974584555;0;0;0;1;1;1;1;4;0;0;;0;0;();();(-2000.0, -2000.0);
10:55:25:763;10:55:25:720;1448057483.21;(0.28482038974761964, 0.5941563076443143);35.7674560547;0.872129236882;10:55:25:763;0;4;-1.46129032258065;1;0.293255131964809;0;0;0;1;1;1;1;4;0;0;;0;0;();();(-2000.0, -2000.0);
10:55:25:779;10:55:25:720;1448057483.21;(0.28482038974761964, 0.5941563076443143);35.7674560547;0.872129236882;10:55:25:779;0;0;-1.5;1;0.293255131964809;0;0;0;1;1;1;1;4;0;0;;0;0;();();(-2000.0, -2000.0);
10:55:25:797;10:55:25:784;1448057483.27;(0.2847846508026123, 0.5944606357150608);35.8861045837;0.877343955189;10:55:25:797;0;10;-1.5;1;0.293255131964809;0;0;0;1;1;1;1;4;0;0;;0;0;();();(-2000.0, -2000.0);
10:55:25:813;10:55:25:784;1448057483.27;(0.2847846508026123, 0.5944606357150608);35.8861045837;0.877343955189;10:55:25:813;0;15;-1.5;1;0.293255131964809;0;0;0;1;1;1;1;4;0;0;;0;0;();();(-2000.0, -2000.0);
10:55:25:846;10:55:25:784;1448057483.27;(0.2847846508026123, 0.5944606357150608);35.8861045837;0.877343955189;10:55:25:846;0;15;0.977419354838709;1;0.293255131964809;0;0;0;1;1;1;1;4;0;0;;0;0;();();(-2000.0, -2000.0);
10:55:25:862;10:55:25:852;1448057483.34;(0.2846803903579712, 0.5942901187472873);36.0483093262;0.865166441927;10:55:25:862;0;4;-1.45161290322581;1;0.684261974584555;0;0;0;1;1;1;1;4;0;0;;0;0;();();(-2000.0, -2000.0);
10:55:25:879;10:55:25:852;1448057483.34;(0.2846803903579712, 0.5942901187472873);36.0483093262;0.865166441927;10:55:25:879;0;10;0.251612903225806;1;0.293255131964809;0;0;0;1;1;1;1;4;0;0;;0;0;();();(-2000.0, -2000.0);
10:55:25:896;10:55:25:852;1448057483.34;(0.2846803903579712, 0.5942901187472873);36.0483093262;0.865166441927;10:55:25:896;0;4;1.61935483870968;1;0.293255131964809;0;0;0;1;1;1;1;4;0;0;;0;0;();();(-2000.0, -2000.0);
10:55:25:929;10:55:25:917;1448057483.41;(0.2850072145462036, 0.5937659793429905);35.812122345;0.915642731292;10:55:25:929;0;4;0.612903225806452;1;0.293255131964809;0;0;0;1;1;1;1;4;0;0;;0;0;();();(-2000.0, -2000.0);
10:55:25:945;10:55:25:917;1448057483.41;(0.2850072145462036, 0.5937659793429905);35.812122345;0.915642731292;10:55:25:945;0;0;1.5741935483871;1;0.293255131964809;0;0;0;1;1;1;1;4;0;0;;0;0;();();(-2000.0, -2000.0);
10:55:25:962;10:55:25:917;1448057483.41;(0.2850072145462036, 0.5937659793429905);35.812122345;0.915642731292;10:55:25:962;0;5;1.78064516129032;1;0.293255131964809;0;0;0;1;1;1;1;4;0;0;;0;0;();();(-2000.0, -2000.0);
10:55:25:978;10:55:25:917;1448057483.41;(0.2850072145462036, 0.5937659793429905);35.812122345;0.915642731292;10:55:25:978;0;15;1.76129032258065;1;0.293255131964809;0;0;0;1;1;1;1;4;0;0;;0;0;();();(-2000.0, -2000.0);
10:55:25:995;10:55:25:988;1448057483.47;(0.2850597143173218, 0.5939949459499783);35.6854248047;0.88836928419;10:55:25:995;0;4;-1.46129032258065;1;0.293255131964809;0;0;0;1;1;1;1;4;0;0;;0;0;();();(-2000.0, -2000.0);
10:55:26:028;10:55:25:988;1448057483.47;(0.2850597143173218, 0.5939949459499783);35.6854248047;0.88836928419;10:55:26:028;0;0;0.396774193548387;1;0.293255131964809;0;0;0;1;1;1;1;4;0;0;;0;0;();();(-2000.0, -2000.0);
10:55:26:044;10:55:25:988;1448057483.47;(0.2850597143173218, 0.5939949459499783);35.6854248047;0.88836928419;10:55:26:044;0;10;1.37741935483871;1;0.293255131964809;0;0;0;1;1;1;1;4;0;0;;0;0;();();(-2000.0, -2000.0);
10:55:26:061;10:55:26:052;1448057483.54;(0.28504760265350343, 0.5936574300130208);35.8242225647;0.913867343087;10:55:26:061;0;15;1.77741935483871;1;0.293255131964809;0;0;0;1;1;1;1;4;0;0;;0;0;();();(-2000.0, -2000.0);
10:55:26:078;10:55:26:052;1448057483.54;(0.28504760265350343, 0.5936574300130208);35.8242225647;0.913867343087;10:55:26:078;0;15;1.77741935483871;1;0.293255131964809;0;0;0;1;1;1;1;4;0;0;;0;0;();();(-2000.0, -2000.0);
10:55:26:094;10:55:26:052;1448057483.54;(0.28504760265350343, 0.5936574300130208);35.8242225647;0.913867343087;10:55:26:094;0;9;-0.445161290322581;1;0.293255131964809;0;0;0;1;1;1;1;4;0;0;;0;0;();();(-2000.0, -2000.0);
10:55:26:127;10:55:26:122;1448057483.61;(0.28512091636657716, 0.5937212202284071);35.5138893127;0.883867372545;10:55:26:127;0;15;1.77741935483871;1;0.586510263929619;0;0;0;1;1;1;1;4;0;0;;0;0;();();(-2000.0, -2000.0);
10:55:26:144;10:55:26:122;1448057483.61;(0.28512091636657716, 0.5937212202284071);35.5138893127;0.883867372545;10:55:26:144;0;3;1.78064516129032;1;0.293255131964809;0;0;0;1;1;1;1;4;0;0;;0;0;();();(-2000.0, -2000.0);
10:55:26:161;10:55:26:122;1448057483.61;(0.28512091636657716, 0.5937212202284071);35.5138893127;0.883867372545;10:55:26:161;0;15;1.78064516129032;1;0.293255131964809;0;0;0;1;1;1;1;4;0;0;;0;0;();();(-2000.0, -2000.0);
10:55:26:177;10:55:26:122;1448057483.61;(0.28512091636657716, 0.5937212202284071);35.5138893127;0.883867372545;10:55:26:177;0;10;1.76129032258065;1;0.293255131964809;0;0;0;1;1;1;1;4;0;0;;0;0;();();(-2000.0, -2000.0);
10:55:26:194;10:55:26:184;1448057483.67;(0.28503992557525637, 0.5933854844835069);35.8302078247;0.918324707743;10:55:26:194;0;15;1.78064516129032;1;0.293255131964809;0;0;0;1;1;1;1;4;0;0;;0;0;();();(-2000.0, -2000.0);
10:55:26:226;10:55:26:184;1448057483.67;(0.28503992557525637, 0.5933854844835069);35.8302078247;0.918324707743;10:55:26:226;0;0;1.78064516129032;1;0.293255131964809;0;0;0;1;1;1;1;4;0;0;;0;0;();();(-2000.0, -2000.0);
10:55:26:244;10:55:26:184;1448057483.67;(0.28503992557525637, 0.5933854844835069);35.8302078247;0.918324707743;10:55:26:244;0;0;1.78064516129032;1;0.293255131964809;0;0;0;1;1;1;1;4;0;0;;0;0;();();(-2000.0, -2000.0);
10:55:26:259;10:55:26:249;1448057483.71;(0.2853113889694214, 0.5934431711832682);35.3869972229;0.887920901509;10:55:26:259;0;6;1.78064516129032;1;0.293255131964809;0;0;0;1;1;1;1;4;0;0;;0;0;();();(-2000.0, -2000.0);
10:55:26:277;10:55:26:249;1448057483.71;(0.2853113889694214, 0.5934431711832682);35.3869972229;0.887920901509;10:55:26:277;0;10;1.77741935483871;1;0.293255131964809;0;0;0;1;1;1;1;4;0;0;;0;0;();();(-2000.0, -2000.0);
10:55:26:292;10:55:26:249;1448057483.71;(0.2853113889694214, 0.5934431711832682);35.3869972229;0.887920901509;10:55:26:292;0;15;1.77741935483871;1;0.293255131964809;0;0;0;1;1;1;1;4;0;0;;0;0;();();(-2000.0, -2000.0);
10:55:26:326;10:55:26:316;1448057483.81;(0.2853062868118286, 0.593530739678277);35.6890792847;0.898344518232;10:55:26:326;0;10;1.76129032258065;1;0.293255131964809;0;0;0;1;1;1;1;4;0;0;;0;0;();();(-2000.0, -2000.0);
10:55:26:343;10:55:26:316;1448057483.81;(0.2853062868118286, 0.593530739678277);35.6890792847;0.898344518232;10:55:26:343;0;5;1.77741935483871;1;0.293255131964809;0;0;0;1;1;1;1;4;0;0;;0;0;();();(-2000.0, -2000.0);
10:55:26:360;10:55:26:316;1448057483.81;(0.2853062868118286, 0.593530739678277);35.6890792847;0.898344518232;10:55:26:360;0;10;1.78064516129032;1;0.293255131964809;0;0;0;1;1;1;1;4;0;0;;0;0;();();(-2000.0, -2000.0);
10:55:26:376;10:55:26:316;1448057483.81;(0.2853062868118286, 0.593530739678277);35.6890792847;0.898344518232;10:55:26:376;0;4;1.78064516129032;1;0.293255131964809;0;0;0;1;1;1;1;4;0;0;;0;0;();();(-2000.0, -2000.0);
10:55:26:414;10:55:26:384;1448057483.87;(0.28507122993469236, 0.5938518524169922);35.6952972412;0.905760605055;10:55:26:414;0;4;1.78064516129032;1;0.293255131964809;0;0;0;1;1;1;1;6;0;0;;0;0;();();(-2000.0, -2000.0);
10:55:26:425;10:55:26:384;1448057483.87;(0.28507122993469236, 0.5938518524169922);35.6952972412;0.905760605055;10:55:26:425;0;9;1.77741935483871;1;0.293255131964809;0;0;0;1;1;1;1;6;0;0;;0;0;();();(-2000.0, -2000.0);
10:55:26:441;10:55:26:384;1448057483.87;(0.28507122993469236, 0.5938518524169922);35.6952972412;0.905760605055;10:55:26:441;0;5;1.77741935483871;1;0.293255131964809;0;0;0;1;1;1;1;6;0;0;;0;0;();();(-2000.0, -2000.0);
10:55:26:459;10:55:26:448;1448057483.94;(0.28500583171844485, 0.5940610673692491);35.7821235657;0.882589311655;10:55:26:459;0;10;1.78064516129032;1;0.293255131964809;0;0;0;1;1;1;1;6;0;0;;0;0;();();(-2000.0, -2000.0);
10:55:26:475;10:55:26:448;1448057483.94;(0.28500583171844485, 0.5940610673692491);35.7821235657;0.882589311655;10:55:26:475;0;15;1.78064516129032;1;0.293255131964809;0;0;0;1;1;1;1;6;0;0;;0;0;();();(-2000.0, -2000.0);
10:55:26:509;10:55:26:448;1448057483.94;(0.28500583171844485, 0.5940610673692491);35.7821235657;0.882589311655;10:55:26:509;0;13;1.77741935483871;1;0.293255131964809;0;0;0;1;1;1;1;6;0;0;;0;0;();();(-2000.0, -2000.0);
10:55:26:525;10:55:26:516;1448057484.01;(0.2849534511566162, 0.5939322577582465);35.7462234497;0.877554987517;10:55:26:525;0;10;1.76129032258065;1;0.293255131964809;0;0;0;1;1;1;1;6;0;0;;0;0;();();(-2000.0, -2000.0);
10:55:26:542;10:55:26:516;1448057484.01;(0.2849534511566162, 0.5939322577582465);35.7462234497;0.877554987517;10:55:26:542;0;4;1.78064516129032;1;0.293255131964809;0;0;0;1;1;1;1;6;0;0;;0;0;();();(-2000.0, -2000.0);
10:55:26:557;10:55:26:516;1448057484.01;(0.2849534511566162, 0.5939322577582465);35.7462234497;0.877554987517;10:55:26:557;0;9;1.78064516129032;1;0.293255131964809;0;0;0;1;1;1;1;6;0;0;;0;0;();();(-2000.0, -2000.0);
10:55:26:574;10:55:26:516;1448057484.01;(0.2849534511566162, 0.5939322577582465);35.7462234497;0.877554987517;10:55:26:574;0;4;1.77741935483871;1;0.293255131964809;0;0;0;1;1;1;1;6;0;0;;0;0;();();(-2000.0, -2000.0);
10:55:26:608;10:55:26:581;1448057484.07;(0.2851221799850464, 0.5938184102376303);35.4012794495;0.866805320432;10:55:26:608;0;15;1.78064516129032;1;0.293255131964809;0;0;0;1;1;1;1;6;0;0;;0;0;();();(-2000.0, -2000.0);
10:55:26:624;10:55:26:581;1448057484.07;(0.2851221799850464, 0.5938184102376303);35.4012794495;0.866805320432;10:55:26:624;0;10;1.78064516129032;1;0.293255131964809;0;0;0;1;1;1;1;6;0;0;;0;0;();();(-2000.0, -2000.0);
10:55:26:641;10:55:26:581;1448057484.07;(0.2851221799850464, 0.5938184102376303);35.4012794495;0.866805320432;10:55:26:641;0;4;1.77741935483871;1;0.293255131964809;0;0;0;1;1;1;1;6;0;0;;0;0;();();(-2000.0, -2000.0);
10:55:26:657;10:55:26:648;1448057484.14;(0.2850430965423584, 0.5936231825086806);35.5019798279;0.874952476846;10:55:26:657;0;9;1.77741935483871;1;0.293255131964809;0;0;0;1;1;1;1;6;0;0;;0;0;();();(-2000.0, -2000.0);
10:55:26:673;10:55:26:648;1448057484.14;(0.2850430965423584, 0.5936231825086806);35.5019798279;0.874952476846;10:55:26:673;0;0;1.78064516129032;1;0.293255131964809;0;0;0;1;1;1;1;6;0;0;;0;0;();();(-2000.0, -2000.0);
10:55:26:707;10:55:26:648;1448057484.14;(0.2850430965423584, 0.5936231825086806);35.5019798279;0.874952476846;10:55:26:707;0;15;-1.5;1;0.293255131964809;0;0;0;1;1;1;1;6;0;0;;0;0;();();(-2000.0, -2000.0);
10:55:26:724;10:55:26:716;1448057484.21;(0.2848158359527588, 0.594424819946289);35.9292984009;0.867752438143;10:55:26:724;0;9;-1.5;1;0.293255131964809;0;0;0;1;1;1;1;6;0;0;;0;0;();();(-2000.0, -2000.0);
10:55:26:740;10:55:26:716;1448057484.21;(0.2848158359527588, 0.594424819946289);35.9292984009;0.867752438143;10:55:26:740;0;5;-1.5;1;0.293255131964809;0;0;0;1;1;1;1;6;0;0;;0;0;();();(-2000.0, -2000.0);
10:55:26:757;10:55:26:716;1448057484.21;(0.2848158359527588, 0.594424819946289);35.9292984009;0.867752438143;10:55:26:757;0;0;-1.5;1;0.586510263929619;0;0;0;1;1;1;1;6;0;0;;0;0;();();(-2000.0, -2000.0);
10:55:26:774;10:55:26:716;1448057484.21;(0.2848158359527588, 0.594424819946289);35.9292984009;0.867752438143;10:55:26:774;0;15;-1.5;1;0.293255131964809;0;0;0;1;1;1;1;6;0;0;;0;0;();();(-2000.0, -2000.0);
10:55:26:807;10:55:26:781;1448057484.27;(0.28525915145874026, 0.5934964497884114);35.4065551758;0.890345747069;10:55:26:807;0;15;-1.5;1;0.293255131964809;0;0;0;1;1;1;1;6;0;0;;0;0;();();(-2000.0, -2000.0);
10:55:26:823;10:55:26:781;1448057484.27;(0.28525915145874026, 0.5934964497884114);35.4065551758;0.890345747069;10:55:26:823;0;5;-1.5;1;0.293255131964809;0;0;0;1;1;1;1;6;0;0;;0;0;();();(-2000.0, -2000.0);
10:55:26:840;10:55:26:781;1448057484.27;(0.28525915145874026, 0.5934964497884114);35.4065551758;0.890345747069;10:55:26:839;0;0;-1.5;1;0.293255131964809;0;0;0;1;1;1;1;6;0;0;;0;0;();();(-2000.0, -2000.0);
10:55:26:856;10:55:26:848;1448057484.34;(0.2849255561828613, 0.5939342498779296);36.0809593201;0.884509506665;10:55:26:856;0;4;-1.5;1;0.586510263929619;0;0;0;1;1;1;1;6;0;0;;0;0;();();(-2000.0, -2000.0);
10:55:26:873;10:55:26:848;1448057484.34;(0.2849255561828613, 0.5939342498779296);36.0809593201;0.884509506665;10:55:26:873;0;9;-1.5;1;0.293255131964809;0;0;0;1;1;1;1;6;0;0;;0;0;();();(-2000.0, -2000.0);
10:55:26:906;10:55:26:848;1448057484.34;(0.2849255561828613, 0.5939342498779296);36.0809593201;0.884509506665;10:55:26:906;0;0;-1.5;1;0.293255131964809;0;0;0;1;1;1;1;6;0;0;;0;0;();();(-2000.0, -2000.0);
10:55:26:923;10:55:26:912;1448057484.41;(0.285160231590271, 0.5936282687717014);35.7064476013;0.90078598955;10:55:26:923;0;4;-1.5;1;0.293255131964809;0;0;0;1;1;1;1;6;0;0;;0;0;();();(-2000.0, -2000.0);
10:55:26:939;10:55:26:912;1448057484.41;(0.285160231590271, 0.5936282687717014);35.7064476013;0.90078598955;10:55:26:939;0;8;-1.5;1;0.586510263929619;0;0;0;1;1;1;1;6;0;0;;0;0;();();(-2000.0, -2000.0);
10:55:26:956;10:55:26:912;1448057484.41;(0.285160231590271, 0.5936282687717014);35.7064476013;0.90078598955;10:55:26:956;0;4;-1.5;1;0.293255131964809;0;0;0;1;1;1;1;6;0;0;;0;0;();();(-2000.0, -2000.0);
10:55:26:988;10:55:26:980;1448057484.44;(0.28503272533416746, 0.5938239627414279);35.6564331055;0.89116614552;10:55:26:988;0;5;-1.5;1;0.293255131964809;0;0;0;1;1;1;1;6;0;0;;0;0;();();(-2000.0, -2000.0);
10:55:27:005;10:55:26:980;1448057484.44;(0.28503272533416746, 0.5938239627414279);35.6564331055;0.89116614552;10:55:27:005;0;10;-1.5;1;0.293255131964809;0;0;0;1;1;1;1;6;0;0;;0;0;();();(-2000.0, -2000.0);
10:55:27:022;10:55:26:980;1448057484.44;(0.28503272533416746, 0.5938239627414279);35.6564331055;0.89116614552;10:55:27:022;0;15;-1.5;1;0.293255131964809;0;0;0;1;1;1;1;6;0;0;;0;0;();();(-2000.0, -2000.0);
10:55:27:038;10:55:26:980;1448057484.44;(0.28503272533416746, 0.5938239627414279);35.6564331055;0.89116614552;10:55:27:038;0;9;-1.5;1;0.293255131964809;0;0;0;1;1;1;1;6;0;0;;0;0;();();(-2000.0, -2000.0);
10:55:27:054;10:55:27:049;1448057484.54;(0.2850263357162476, 0.5938398573133681);35.8345451355;0.908038406128;10:55:27:054;0;4;-1.5;1;0.684261974584555;0;0;0;1;1;1;1;6;0;0;;0;0;();();(-2000.0, -2000.0);
10:55:27:088;10:55:27:049;1448057484.54;(0.2850263357162476, 0.5938398573133681);35.8345451355;0.908038406128;10:55:27:088;0;15;-1.5;1;0.293255131964809;0;0;0;1;1;1;1;6;0;0;;0;0;();();(-2000.0, -2000.0);
10:55:27:105;10:55:27:049;1448057484.54;(0.2850263357162476, 0.5938398573133681);35.8345451355;0.908038406128;10:55:27:104;0;9;-1.5;1;0.293255131964809;0;0;0;1;1;1;1;6;0;0;;0;0;();();(-2000.0, -2000.0);
10:55:27:121;10:55:27:112;1448057484.57;(0.2851526975631714, 0.5936652289496528);35.4159584045;0.884757197977;10:55:27:121;0;15;-1.5;1;0.586510263929619;0;0;0;1;1;1;1;6;0;0;;0;0;();();(-2000.0, -2000.0);
10:55:27:138;10:55:27:112;1448057484.57;(0.2851526975631714, 0.5936652289496528);35.4159584045;0.884757197977;10:55:27:138;0;9;-1.5;1;0.293255131964809;0;0;0;1;1;1;1;6;0;0;;0;0;();();(-2000.0, -2000.0);
10:55:27:154;10:55:27:112;1448057484.57;(0.2851526975631714, 0.5936652289496528);35.4159584045;0.884757197977;10:55:27:154;0;0;-1.5;1;0.293255131964809;0;0;0;1;1;1;1;6;0;0;;0;0;();();(-2000.0, -2000.0);
10:55:27:188;10:55:27:181;1448057484.67;(0.28512887954711913, 0.5935590108235678);35.7775993347;0.908624311019;10:55:27:188;0;15;-1.5;1;0.293255131964809;0;0;0;1;1;1;1;6;0;0;;0;0;();();(-2000.0, -2000.0);
10:55:27:204;10:55:27:181;1448057484.67;(0.28512887954711913, 0.5935590108235678);35.7775993347;0.908624311019;10:55:27:204;0;4;-1.5;1;0.293255131964809;0;0;0;1;1;1;1;6;0;0;;0;0;();();(-2000.0, -2000.0);
10:55:27:220;10:55:27:181;1448057484.67;(0.28512887954711913, 0.5935590108235678);35.7775993347;0.908624311019;10:55:27:220;0;15;-1.5;1;0.293255131964809;0;0;0;1;1;1;1;6;0;0;;0;0;();();(-2000.0, -2000.0);
10:55:27:237;10:55:27:181;1448057484.67;(0.28512887954711913, 0.5935590108235678);35.7775993347;0.908624311019;10:55:27:237;0;9;-1.5;1;0.293255131964809;0;0;0;1;1;1;1;6;0;0;;0;0;();();(-2000.0, -2000.0);
10:55:27:253;10:55:27:244;1448057484.71;(0.2849936008453369, 0.5935841454399957);35.7890357971;0.916081281567;10:55:27:253;0;15;-1.5;1;0.293255131964809;0;0;0;1;1;1;1;6;0;0;;0;0;();();(-2000.0, -2000.0);
10:55:27:287;10:55:27:244;1448057484.71;(0.2849936008453369, 0.5935841454399957);35.7890357971;0.916081281567;10:55:27:287;0;15;-1.5;1;0.293255131964809;0;0;0;1;1;1;1;6;0;0;;0;0;();();(-2000.0, -2000.0);
10:55:27:303;10:55:27:244;1448057484.71;(0.2849936008453369, 0.5935841454399957);35.7890357971;0.916081281567;10:55:27:303;0;4;-1.5;1;0.293255131964809;0;0;0;1;1;1;1;6;0;0;;0;0;();();(-2000.0, -2000.0);
10:55:27:320;10:55:27:312;1448057484.81;(0.2849918842315674, 0.5935733795166016);35.6970062256;0.896504068007;10:55:27:320;0;0;-1.5;1;0.293255131964809;0;0;0;1;1;1;1;6;0;0;;0;0;();();(-2000.0, -2000.0);
10:55:27:337;10:55:27:312;1448057484.81;(0.2849918842315674, 0.5935733795166016);35.6970062256;0.896504068007;10:55:27:337;0;4;-1.5;1;0.293255131964809;0;0;0;1;1;1;1;6;0;0;;0;0;();();(-2000.0, -2000.0);
10:55:27:353;10:55:27:312;1448057484.81;(0.2849918842315674, 0.5935733795166016);35.6970062256;0.896504068007;10:55:27:353;0;15;-1.5;1;0.293255131964809;0;0;0;1;1;1;1;6;0;0;;0;0;();();(-2000.0, -2000.0);
10:55:27:387;10:55:27:380;1448057484.87;(0.28509857654571535, 0.593522432115343);35.764629364;0.899628395731;10:55:27:387;0;4;-1.5;1;0.293255131964809;0;0;0;1;1;1;1;6;0;0;;0;0;();();(-2000.0, -2000.0);
10:55:27:403;10:55:27:380;1448057484.87;(0.28509857654571535, 0.593522432115343);35.764629364;0.899628395731;10:55:27:403;0;15;-1.5;1;0.293255131964809;0;0;0;1;1;1;1;6;0;0;;0;0;();();(-2000.0, -2000.0);
10:55:27:419;10:55:27:380;1448057484.87;(0.28509857654571535, 0.593522432115343);35.764629364;0.899628395731;10:55:27:419;0;10;-1.5;1;0.293255131964809;0;0;0;1;1;1;1;6;0;0;;0;0;();();(-2000.0, -2000.0);
10:55:27:436;10:55:27:380;1448057484.87;(0.28509857654571535, 0.593522432115343);35.764629364;0.899628395731;10:55:27:436;0;4;-1.5;1;0.586510263929619;0;0;0;1;1;1;1;6;0;0;;0;0;();();(-2000.0, -2000.0);
10:55:27:469;10:55:27:445;1448057484.91;(0.2852794885635376, 0.5933970557318793);35.6135215759;0.897125296611;10:55:27:469;0;5;-1.5;1;0.684261974584555;0;0;0;1;1;1;1;6;0;0;;0;0;();();(-2000.0, -2000.0);
10:55:27:486;10:55:27:445;1448057484.91;(0.2852794885635376, 0.5933970557318793);35.6135215759;0.897125296611;10:55:27:486;0;10;-1.5;1;0.293255131964809;0;0;0;1;1;1;1;6;0;0;;0;0;();();(-2000.0, -2000.0);
10:55:27:502;10:55:27:445;1448057484.91;(0.2852794885635376, 0.5933970557318793);35.6135215759;0.897125296611;10:55:27:502;0;15;-1.5;1;0.684261974584555;0;0;0;1;1;1;1;6;0;0;;0;0;();();(-2000.0, -2000.0);
10:55:27:519;10:55:27:518;1448057485.01;(0.2851738452911377, 0.5935590955946181);35.7188568115;0.903822779513;10:55:27:519;0;9;-1.5;1;0.293255131964809;0;0;0;1;1;1;1;6;0;0;;0;0;();();(-2000.0, -2000.0);
10:55:27:536;10:55:27:518;1448057485.01;(0.2851738452911377, 0.5935590955946181);35.7188568115;0.903822779513;10:55:27:536;0;0;-1.5;1;0.684261974584555;0;0;0;1;1;1;1;6;0;0;;0;0;();();(-2000.0, -2000.0);
10:55:27:568;10:55:27:518;1448057485.01;(0.2851738452911377, 0.5935590955946181);35.7188568115;0.903822779513;10:55:27:568;0;15;-1.5;1;0.293255131964809;0;0;0;1;1;1;1;6;0;0;;0;0;();();(-2000.0, -2000.0);
10:55:27:585;10:55:27:577;1448057485.04;(0.28514530658721926, 0.5936645931667752);35.820526123;0.906391714656;10:55:27:585;0;4;-1.5;1;0.293255131964809;0;0;0;1;1;1;1;6;0;0;;0;0;();();(-2000.0, -2000.0);
10:55:27:601;10:55:27:577;1448057485.04;(0.28514530658721926, 0.5936645931667752);35.820526123;0.906391714656;10:55:27:601;0;15;-1.5;1;0.293255131964809;0;0;0;1;1;1;1;6;0;0;;0;0;();();(-2000.0, -2000.0);
10:55:27:618;10:55:27:577;1448057485.04;(0.28514530658721926, 0.5936645931667752);35.820526123;0.906391714656;10:55:27:618;0;5;-1.5;1;0.293255131964809;0;0;0;1;1;1;1;6;0;0;;0;0;();();(-2000.0, -2000.0);
10:55:27:634;10:55:27:577;1448057485.04;(0.28514530658721926, 0.5936645931667752);35.820526123;0.906391714656;10:55:27:634;0;0;-1.5;1;0.293255131964809;0;0;0;1;1;1;1;6;0;0;;0;0;();();(-2000.0, -2000.0);
10:55:27:667;10:55:27:644;1448057485.11;(0.28531978130340574, 0.5937447018093533);35.5542297363;0.889821980616;10:55:27:667;0;15;-1.5;1;0.293255131964809;0;0;0;1;1;1;1;6;0;0;;0;0;();();(-2000.0, -2000.0);
10:55:27:684;10:55:27:644;1448057485.11;(0.28531978130340574, 0.5937447018093533);35.5542297363;0.889821980616;10:55:27:684;0;4;-1.5;1;0.293255131964809;0;0;0;1;1;1;1;6;0;0;;0;0;();();(-2000.0, -2000.0);
10:55:27:701;10:55:27:644;1448057485.11;(0.28531978130340574, 0.5937447018093533);35.5542297363;0.889821980616;10:55:27:701;0;3;-1.5;1;0.293255131964809;0;0;0;1;1;1;1;6;0;0;;0;0;();();(-2000.0, -2000.0);
10:55:27:717;10:55:27:712;1448057485.21;(0.28480465412139894, 0.594324239095052);35.8674850464;0.901182897609;10:55:27:717;0;5;-1.5;1;0.293255131964809;0;0;0;1;1;1;1;6;0;0;;0;0;();();(-2000.0, -2000.0);
10:55:27:734;10:55:27:712;1448057485.21;(0.28480465412139894, 0.594324239095052);35.8674850464;0.901182897609;10:55:27:734;0;10;-1.5;1;0.293255131964809;0;0;0;1;1;1;1;6;0;0;;0;0;();();(-2000.0, -2000.0);
10:55:27:768;10:55:27:712;1448057485.21;(0.28480465412139894, 0.594324239095052);35.8674850464;0.901182897609;10:55:27:768;0;15;-1.5;1;0.293255131964809;0;0;0;1;1;1;1;6;0;0;;0;0;();();(-2000.0, -2000.0);
10:55:27:784;10:55:27:777;1448057485.27;(0.28469276428222656, 0.5943873087565104);35.8077774048;0.884775601813;10:55:27:784;0;5;-1.5;1;0.293255131964809;0;0;0;1;1;1;1;6;0;0;;0;0;();();(-2000.0, -2000.0);
10:55:27:800;10:55:27:777;1448057485.27;(0.28469276428222656, 0.5943873087565104);35.8077774048;0.884775601813;10:55:27:800;0;0;-1.5;1;0.293255131964809;0;0;0;1;1;1;1;6;0;0;;0;0;();();(-2000.0, -2000.0);
10:55:27:817;10:55:27:777;1448057485.27;(0.28469276428222656, 0.5943873087565104);35.8077774048;0.884775601813;10:55:27:817;0;4;-1.5;1;0.293255131964809;0;0;0;1;1;1;1;6;0;0;;0;0;();();(-2000.0, -2000.0);
10:55:27:833;10:55:27:777;1448057485.27;(0.28469276428222656, 0.5943873087565104);35.8077774048;0.884775601813;10:55:27:833;0;9;-1.5;1;0.293255131964809;0;0;0;1;1;1;1;6;0;0;;0;0;();();(-2000.0, -2000.0);
10:55:27:867;10:55:27:845;1448057485.34;(0.28458328247070314, 0.5943482716878254);35.9617156982;0.891503373349;10:55:27:867;0;15;-1.5;1;0.293255131964809;0;0;0;1;1;1;1;6;0;0;;0;0;();();(-2000.0, -2000.0);
10:55:27:883;10:55:27:845;1448057485.34;(0.28458328247070314, 0.5943482716878254);35.9617156982;0.891503373349;10:55:27:883;0;5;-1.5;1;0.293255131964809;0;0;0;1;1;1;1;6;0;0;;0;0;();();(-2000.0, -2000.0);
10:55:27:900;10:55:27:845;1448057485.34;(0.28458328247070314, 0.5943482716878254);35.9617156982;0.891503373349;10:55:27:900;0;10;-1.5;1;0.293255131964809;0;0;0;1;1;1;1;6;0;0;;0;0;();();(-2000.0, -2000.0);
10:55:27:917;10:55:27:908;1448057485.41;(0.28538496494293214, 0.5933724721272786);35.4773750305;0.879451995614;10:55:27:917;0;4;-1.5;1;0.293255131964809;0;0;0;1;1;1;1;6;0;0;;0;0;();();(-2000.0, -2000.0);
10:55:27:932;10:55:27:908;1448057485.41;(0.28538496494293214, 0.5933724721272786);35.4773750305;0.879451995614;10:55:27:932;0;9;-1.5;1;0.293255131964809;0;0;0;1;1;1;1;6;0;0;;0;0;();();(-2000.0, -2000.0);
10:55:27:966;10:55:27:908;1448057485.41;(0.28538496494293214, 0.5933724721272786);35.4773750305;0.879451995614;10:55:27:966;0;10;-1.47741935483871;1;0.293255131964809;0;0;0;1;1;1;1;6;0;0;;0;0;();();(-2000.0, -2000.0);
10:55:27:983;10:55:27:977;1448057485.47;(0.2850874185562134, 0.5937871297200521);35.3998413086;0.878602615301;10:55:27:983;0;15;0.161290322580645;1;0.293255131964809;0;0;0;1;1;1;1;6;0;0;;0;0;();();(-2000.0, -2000.0);
10:55:27:999;10:55:27:977;1448057485.47;(0.2850874185562134, 0.5937871297200521);35.3998413086;0.878602615301;10:55:27:999;0;4;0.603225806451613;1;0.293255131964809;0;0;0;1;1;1;1;6;0;0;;0;0;();();(-2000.0, -2000.0);
10:55:28:015;10:55:27:977;1448057485.47;(0.2850874185562134, 0.5937871297200521);35.3998413086;0.878602615301;10:55:28:015;0;4;0.603225806451613;1;0.293255131964809;0;0;0;1;1;1;1;6;0;0;;0;0;();();(-2000.0, -2000.0);
10:55:28:049;10:55:28:044;1448057485.54;(0.28501789569854735, 0.5937720828586155);35.4413566589;0.889860058674;10:55:28:049;0;15;-1.5;1;0.293255131964809;0;0;0;1;1;1;1;6;0;0;;0;0;();();(-2000.0, -2000.0);
10:55:28:066;10:55:28:044;1448057485.54;(0.28501789569854735, 0.5937720828586155);35.4413566589;0.889860058674;10:55:28:066;0;9;-1.5;1;0.293255131964809;0;0;0;1;1;1;1;6;0;0;;0;0;();();(-2000.0, -2000.0);
10:55:28:083;10:55:28:044;1448057485.54;(0.28501789569854735, 0.5937720828586155);35.4413566589;0.889860058674;10:55:28:083;0;14;1.78064516129032;1;0.586510263929619;0;0;0;1;1;1;1;6;0;0;;0;0;();();(-2000.0, -2000.0);
10:55:28:098;10:55:28:044;1448057485.54;(0.28501789569854735, 0.5937720828586155);35.4413566589;0.889860058674;10:55:28:098;0;9;1.77741935483871;1;0.293255131964809;0;0;0;1;1;1;1;6;0;0;;0;0;();();(-2000.0, -2000.0);
10:55:28:115;10:55:28:108;1448057485.57;(0.2849861145019531, 0.5937048594156902);35.8635215759;0.904737098585;10:55:28:115;0;0;1.77741935483871;1;0.586510263929619;0;0;0;1;1;1;1;6;0;0;;0;0;();();(-2000.0, -2000.0);
10:55:28:149;10:55:28:108;1448057485.57;(0.2849861145019531, 0.5937048594156902);35.8635215759;0.904737098585;10:55:28:149;0;15;1.77741935483871;1;0.293255131964809;0;0;0;1;1;1;1;6;0;0;;0;0;();();(-2000.0, -2000.0);
10:55:28:165;10:55:28:108;1448057485.57;(0.2849861145019531, 0.5937048594156902);35.8635215759;0.904737098585;10:55:28:165;0;11;1.78064516129032;1;0.293255131964809;0;0;0;1;1;1;1;6;0;0;;0;0;();();(-2000.0, -2000.0);
10:55:28:181;10:55:28:177;1448057485.64;(0.28500611782073976, 0.5939612070719401);35.6951751709;0.905455109778;10:55:28:181;0;0;1.76129032258065;1;0.293255131964809;0;0;0;1;1;1;1;6;0;0;;0;0;();();(-2000.0, -2000.0);
10:55:28:198;10:55:28:177;1448057485.64;(0.28500611782073976, 0.5939612070719401);35.6951751709;0.905455109778;10:55:28:198;0;4;1.79032258064516;1;0.293255131964809;0;0;0;1;1;1;1;6;0;0;;0;0;();();(-2000.0, -2000.0);
10:55:28:214;10:55:28:177;1448057485.64;(0.28500611782073976, 0.5939612070719401);35.6951751709;0.905455109778;10:55:28:214;0;10;1.78064516129032;1;0.293255131964809;0;0;0;1;1;1;1;6;0;0;;0;0;();();(-2000.0, -2000.0);
10:55:28:248;10:55:28:241;1448057485.71;(0.2851834774017334, 0.5939295026991103);35.647064209;0.892503465161;10:55:28:248;0;9;1.79032258064516;1;0.293255131964809;0;0;0;1;1;1;1;6;0;0;;0;0;();();(-2000.0, -2000.0);
10:55:28:264;10:55:28:241;1448057485.71;(0.2851834774017334, 0.5939295026991103);35.647064209;0.892503465161;10:55:28:264;0;5;1.78064516129032;1;0.293255131964809;0;0;0;1;1;1;1;6;0;0;;0;0;();();(-2000.0, -2000.0);
10:55:28:281;10:55:28:241;1448057485.71;(0.2851834774017334, 0.5939295026991103);35.647064209;0.892503465161;10:55:28:281;0;15;1.78064516129032;1;0.293255131964809;0;0;0;1;1;1;1;6;0;0;;0;0;();();(-2000.0, -2000.0);
10:55:28:297;10:55:28:241;1448057485.71;(0.2851834774017334, 0.5939295026991103);35.647064209;0.892503465161;10:55:28:297;0;4;-1.5;1;0.293255131964809;0;0;0;1;1;1;1;6;0;0;;0;0;();();(-2000.0, -2000.0);
10:55:28:314;10:55:28:309;1448057485.77;(0.2852924823760986, 0.5934041341145833);35.4847755432;0.885791826407;10:55:28:314;0;9;-1.5;1;0.293255131964809;0;0;0;1;1;1;1;6;0;0;;0;0;();();(-2000.0, -2000.0);
10:55:28:347;10:55:28:309;1448057485.77;(0.2852924823760986, 0.5934041341145833);35.4847755432;0.885791826407;10:55:28:347;0;10;1.77741935483871;1;0.293255131964809;0;0;0;1;1;1;1;6;0;0;;0;0;();();(-2000.0, -2000.0);
10:55:28:364;10:55:28:309;1448057485.77;(0.2852924823760986, 0.5934041341145833);35.4847755432;0.885791826407;10:55:28:364;0;15;1.77741935483871;1;0.293255131964809;0;0;0;1;1;1;1;6;0;0;;0;0;();();(-2000.0, -2000.0);
10:55:28:381;10:55:28:372;1448057485.84;(0.28512213230133054, 0.5935152689615886);35.796421051;0.907884967973;10:55:28:381;0;10;1.78064516129032;1;0.293255131964809;0;0;0;1;1;1;1;6;0;0;;0;0;();();(-2000.0, -2000.0);
10:55:28:397;10:55:28:372;1448057485.84;(0.28512213230133054, 0.5935152689615886);35.796421051;0.907884967973;10:55:28:397;0;4;1.78064516129032;1;0.293255131964809;0;0;0;1;1;1;1;6;0;0;;0;0;();();(-2000.0, -2000.0);
10:55:28:413;10:55:28:372;1448057485.84;(0.28512213230133054, 0.5935152689615886);35.796421051;0.907884967973;10:55:28:413;0;9;1.78064516129032;1;0.293255131964809;0;0;0;1;1;1;1;6;0;0;;0;0;();();(-2000.0, -2000.0);
10:55:28:447;10:55:28:441;1448057485.91;(0.28537845611572266, 0.5934075249565972);35.5478744507;0.893390365693;10:55:28:447;0;10;-1.5;1;0.293255131964809;0;0;0;1;1;1;1;6;0;0;;0;0;();();(-2000.0, -2000.0);
10:55:28:463;10:55:28:441;1448057485.91;(0.28537845611572266, 0.5934075249565972);35.5478744507;0.893390365693;10:55:28:463;0;4;-1.5;1;0.293255131964809;0;0;0;1;1;1;1;6;0;0;;0;0;();();(-2000.0, -2000.0);
10:55:28:480;10:55:28:441;1448057485.91;(0.28537845611572266, 0.5934075249565972);35.5478744507;0.893390365693;10:55:28:480;0;9;1.78064516129032;1;0.293255131964809;0;0;0;1;1;1;1;6;0;0;;0;0;();();(-2000.0, -2000.0);
10:55:28:497;10:55:28:441;1448057485.91;(0.28537845611572266, 0.5934075249565972);35.5478744507;0.893390365693;10:55:28:497;0;15;1.78064516129032;1;0.586510263929619;0;0;0;1;1;1;1;6;0;0;;0;0;();();(-2000.0, -2000.0);
10:55:28:513;10:55:28:508;1448057485.97;(0.2850673675537109, 0.5937617407904732);35.4499397278;0.85451338868;10:55:28:513;0;5;1.78064516129032;1;0.293255131964809;0;0;0;1;1;1;1;6;0;0;;0;0;();();(-2000.0, -2000.0);
10:55:28:546;10:55:28:508;1448057485.97;(0.2850673675537109, 0.5937617407904732);35.4499397278;0.85451338868;10:55:28:546;0;9;1.78064516129032;1;0.684261974584555;0;0;0;1;1;1;1;6;0;0;;0;0;();();(-2000.0, -2000.0);
10:55:28:562;10:55:28:508;1448057485.97;(0.2850673675537109, 0.5937617407904732);35.4499397278;0.85451338868;10:55:28:562;0;15;1.78064516129032;1;0.293255131964809;0;0;0;1;1;1;1;6;0;0;;0;0;();();(-2000.0, -2000.0);
10:55:28:579;10:55:28:573;1448057486.07;(0.2850115537643433, 0.5936631096733941);35.5431594849;0.897092952372;10:55:28:579;0;9;1.78064516129032;1;0.293255131964809;0;0;0;1;1;1;1;6;0;0;;0;0;();();(-2000.0, -2000.0);
10:55:28:595;10:55:28:573;1448057486.07;(0.2850115537643433, 0.5936631096733941);35.5431594849;0.897092952372;10:55:28:595;0;0;1.77741935483871;1;0.293255131964809;0;0;0;1;1;1;1;6;0;0;;0;0;();();(-2000.0, -2000.0);
10:55:28:629;10:55:28:573;1448057486.07;(0.2850115537643433, 0.5936631096733941);35.5431594849;0.897092952372;10:55:28:629;0;15;1.77741935483871;1;0.293255131964809;0;0;0;1;1;1;1;6;0;0;;0;0;();();(-2000.0, -2000.0);
10:55:28:645;10:55:28:573;1448057486.07;(0.2850115537643433, 0.5936631096733941);35.5431594849;0.897092952372;10:55:28:645;0;15;1.77741935483871;1;0.293255131964809;0;0;0;1;1;1;1;6;0;0;;0;0;();();(-2000.0, -2000.0);
10:55:28:662;10:55:28:654;1448057486.14;(0.2851447582244873, 0.5935024685329862);35.4249992371;0.891032683411;10:55:28:662;0;4;1.78064516129032;1;0.293255131964809;0;0;0;1;1;1;1;6;0;0;;0;0;();();(-2000.0, -2000.0);
10:55:28:678;10:55:28:654;1448057486.14;(0.2851447582244873, 0.5935024685329862);35.4249992371;0.891032683411;10:55:28:678;0;2;1.78064516129032;1;0.293255131964809;0;0;0;1;1;1;1;6;0;0;;0;0;();();(-2000.0, -2000.0);
10:55:28:695;10:55:28:654;1448057486.14;(0.2851447582244873, 0.5935024685329862);35.4249992371;0.891032683411;10:55:28:695;0;10;-1.5;1;0.293255131964809;0;0;0;1;1;1;1;6;0;0;;0;0;();();(-2000.0, -2000.0);
10:55:28:729;10:55:28:704;1448057486.21;(0.28523180484771726, 0.5936534033881293);35.6691246033;0.888723966449;10:55:28:729;0;9;-1.5;1;0.684261974584555;0;0;0;1;1;1;1;6;0;0;;0;0;();();(-2000.0, -2000.0);
10:55:28:745;10:55:28:704;1448057486.21;(0.28523180484771726, 0.5936534033881293);35.6691246033;0.888723966449;10:55:28:745;0;5;-1.5;1;0.293255131964809;0;0;0;1;1;1;1;6;0;0;;0;0;();();(-2000.0, -2000.0);
10:55:28:761;10:55:28:704;1448057486.21;(0.28523180484771726, 0.5936534033881293);35.6691246033;0.888723966449;10:55:28:761;0;10;-1.5;1;0.684261974584555;0;0;0;1;1;1;1;6;0;0;;0;0;();();(-2000.0, -2000.0);
10:55:28:778;10:55:28:777;1448057486.24;(0.2852879762649536, 0.5936424679226345);35.6204032898;0.899227408873;10:55:28:778;0;4;-1.5;1;0.293255131964809;0;0;0;1;1;1;1;6;0;0;;0;0;();();(-2000.0, -2000.0);
10:55:28:794;10:55:28:777;1448057486.24;(0.2852879762649536, 0.5936424679226345);35.6204032898;0.899227408873;10:55:28:794;0;9;-1.5;1;0.293255131964809;0;0;0;1;1;1;1;6;0;0;;0;0;();();(-2000.0, -2000.0);
10:55:28:827;10:55:28:777;1448057486.24;(0.2852879762649536, 0.5936424679226345);35.6204032898;0.899227408873;10:55:28:827;0;0;-1.5;1;0.293255131964809;0;0;0;1;1;1;1;6;0;0;;0;0;();();(-2000.0, -2000.0);
10:55:28:844;10:55:28:841;1448057486.34;(0.28521151542663575, 0.5935576544867622);35.6153717041;0.903874732155;10:55:28:844;0;5;-1.5;1;0.684261974584555;0;0;0;1;1;1;1;6;0;0;;0;0;();();(-2000.0, -2000.0);
10:55:28:861;10:55:28:841;1448057486.34;(0.28521151542663575, 0.5935576544867622);35.6153717041;0.903874732155;10:55:28:861;0;10;-1.5;1;0.293255131964809;0;0;0;1;1;1;1;6;0;0;;0;0;();();(-2000.0, -2000.0);
10:55:28:878;10:55:28:841;1448057486.34;(0.28521151542663575, 0.5935576544867622);35.6153717041;0.903874732155;10:55:28:878;0;15;-1.5;1;0.684261974584555;0;0;0;1;1;1;1;6;0;0;;0;0;();();(-2000.0, -2000.0);
10:55:28:894;10:55:28:841;1448057486.34;(0.28521151542663575, 0.5935576544867622);35.6153717041;0.903874732155;10:55:28:894;0;9;-1.5;1;0.293255131964809;0;0;0;1;1;1;1;6;0;0;;0;0;();();(-2000.0, -2000.0);
10:55:28:927;10:55:28:905;1448057486.37;(0.285039496421814, 0.5937434302435981);35.495677948;0.899630831093;10:55:28:927;0;10;-1.5;1;0.293255131964809;0;0;0;1;1;1;1;6;0;0;;0;0;();();(-2000.0, -2000.0);
10:55:28:943;10:55:28:905;1448057486.37;(0.285039496421814, 0.5937434302435981);35.495677948;0.899630831093;10:55:28:943;0;15;-1.5;1;0.293255131964809;0;0;0;1;1;1;1;6;0;0;;0;0;();();(-2000.0, -2000.0);
10:55:28:960;10:55:28:905;1448057486.37;(0.285039496421814, 0.5937434302435981);35.495677948;0.899630831093;10:55:28:960;0;9;-1.5;1;0.293255131964809;0;0;0;1;1;1;1;6;0;0;;0;0;();();(-2000.0, -2000.0);
10:55:28:977;10:55:28:972;1448057486.44;(0.2850279092788696, 0.5936911688910591);35.5908470154;0.897764787533;10:55:28:977;0;15;-1.5;1;0.293255131964809;0;0;0;1;1;1;1;6;0;0;;0;0;();();(-2000.0, -2000.0);
10:55:28:993;10:55:28:972;1448057486.44;(0.2850279092788696, 0.5936911688910591);35.5908470154;0.897764787533;10:55:28:993;0;9;-1.5;1;0.293255131964809;0;0;0;1;1;1;1;6;0;0;;0;0;();();(-2000.0, -2000.0);
10:55:29:027;10:55:28:972;1448057486.44;(0.2850279092788696, 0.5936911688910591);35.5908470154;0.897764787533;10:55:29:027;0;4;-1.5;1;0.293255131964809;0;0;0;1;1;1;1;6;0;0;;0;0;();();(-2000.0, -2000.0);
10:55:29:043;10:55:29:037;1448057486.51;(0.2849071741104126, 0.5933764139811197);35.7106056213;0.909062124602;10:55:29:043;0;15;-1.5;1;0.293255131964809;0;0;0;1;1;1;1;6;0;0;;0;0;();();(-2000.0, -2000.0);
10:55:29:059;10:55:29:037;1448057486.51;(0.2849071741104126, 0.5933764139811197);35.7106056213;0.909062124602;10:55:29:059;0;9;-1.5;1;0.293255131964809;0;0;0;1;1;1;1;6;0;0;;0;0;();();(-2000.0, -2000.0);
10:55:29:076;10:55:29:037;1448057486.51;(0.2849071741104126, 0.5933764139811197);35.7106056213;0.909062124602;10:55:29:076;0;15;-1.5;1;0.586510263929619;0;0;0;1;1;1;1;6;0;0;;0;0;();();(-2000.0, -2000.0);
10:55:29:110;10:55:29:104;1448057486.61;(0.28510613441467286, 0.5938530815972223);35.6137695312;0.886538656665;10:55:29:110;0;15;-1.5;1;0.293255131964809;0;0;0;1;1;1;1;6;0;0;;0;0;();();(-2000.0, -2000.0);
10:55:29:126;10:55:29:104;1448057486.61;(0.28510613441467286, 0.5938530815972223);35.6137695312;0.886538656665;10:55:29:126;0;5;-1.5;1;0.293255131964809;0;0;0;1;1;1;1;6;0;0;;0;0;();();(-2000.0, -2000.0);
10:55:29:142;10:55:29:104;1448057486.61;(0.28510613441467286, 0.5938530815972223);35.6137695312;0.886538656665;10:55:29:142;0;0;-1.5;1;0.293255131964809;0;0;0;1;1;1;1;6;0;0;;0;0;();();(-2000.0, -2000.0);
10:55:29:159;10:55:29:104;1448057486.61;(0.28510613441467286, 0.5938530815972223);35.6137695312;0.886538656665;10:55:29:159;0;4;-1.5;1;0.293255131964809;0;0;0;1;1;1;1;6;0;0;;0;0;();();(-2000.0, -2000.0);
10:55:29:175;10:55:29:173;1448057486.64;(0.2850720643997192, 0.5937587738037109);35.8420372009;0.922687890177;10:55:29:175;0;10;-1.5;1;0.293255131964809;0;0;0;1;1;1;1;6;0;0;;0;0;();();(-2000.0, -2000.0);
10:55:29:209;10:55:29:173;1448057486.64;(0.2850720643997192, 0.5937587738037109);35.8420372009;0.922687890177;10:55:29:209;0;9;-1.5;1;0.293255131964809;0;0;0;1;1;1;1;6;0;0;;0;0;();();(-2000.0, -2000.0);
10:55:29:225;10:55:29:173;1448057486.64;(0.2850720643997192, 0.5937587738037109);35.8420372009;0.922687890177;10:55:29:225;0;4;-1.5;1;0.293255131964809;0;0;0;1;1;1;1;6;0;0;;0;0;();();(-2000.0, -2000.0);
10:55:29:241;10:55:29:237;1448057486.71;(0.2851199388504028, 0.5933306799994575);35.6168823242;0.902674711312;10:55:29:241;0;10;-1.5;1;0.293255131964809;0;0;0;1;1;1;1;6;0;0;;0;0;();();(-2000.0, -2000.0);
10:55:29:258;10:55:29:237;1448057486.71;(0.2851199388504028, 0.5933306799994575);35.6168823242;0.902674711312;10:55:29:258;0;5;-1.5;1;0.293255131964809;0;0;0;1;1;1;1;6;0;0;;0;0;();();(-2000.0, -2000.0);
10:55:29:275;10:55:29:237;1448057486.71;(0.2851199388504028, 0.5933306799994575);35.6168823242;0.902674711312;10:55:29:275;0;15;-1.5;1;0.293255131964809;0;0;0;1;1;1;1;6;0;0;;0;0;();();(-2000.0, -2000.0);
10:55:29:308;10:55:29:304;1448057486.81;(0.28532090187072756, 0.593807856241862);35.575302124;0.899033282577;10:55:29:308;0;4;-1.5;1;0.293255131964809;0;0;0;1;1;1;1;6;0;0;;0;0;();();(-2000.0, -2000.0);
10:55:29:324;10:55:29:304;1448057486.81;(0.28532090187072756, 0.593807856241862);35.575302124;0.899033282577;10:55:29:324;0;15;-1.5;1;0.293255131964809;0;0;0;1;1;1;1;6;0;0;;0;0;();();(-2000.0, -2000.0);
10:55:29:341;10:55:29:304;1448057486.81;(0.28532090187072756, 0.593807856241862);35.575302124;0.899033282577;10:55:29:341;0;10;-1.5;1;0.586510263929619;0;0;0;1;1;1;1;6;0;0;;0;0;();();(-2000.0, -2000.0);
10:55:29:357;10:55:29:304;1448057486.81;(0.28532090187072756, 0.593807856241862);35.575302124;0.899033282577;10:55:29:357;0;15;-1.5;1;0.293255131964809;0;0;0;1;1;1;1;6;0;0;;0;0;();();(-2000.0, -2000.0);
10:55:29:374;10:55:29:368;1448057486.84;(0.28529322147369385, 0.5935661315917968);35.3923797607;0.879366926872;10:55:29:374;0;9;-1.5;1;0.293255131964809;0;0;0;1;1;1;1;6;0;0;;0;0;();();(-2000.0, -2000.0);
10:55:29:408;10:55:29:368;1448057486.84;(0.28529322147369385, 0.5935661315917968);35.3923797607;0.879366926872;10:55:29:408;0;10;-1.5;1;0.293255131964809;0;0;0;1;1;1;1;6;0;0;;0;0;();();(-2000.0, -2000.0);
10:55:29:424;10:55:29:368;1448057486.84;(0.28529322147369385, 0.5935661315917968);35.3923797607;0.879366926872;10:55:29:424;0;15;-1.5;1;0.293255131964809;0;0;0;1;1;1;1;6;0;0;;0;0;();();(-2000.0, -2000.0);
10:55:29:440;10:55:29:436;1448057486.91;(0.2848970413208008, 0.593959214952257);35.661190033;0.875481963505;10:55:29:440;0;9;-1.5;1;0.293255131964809;0;0;0;1;1;1;1;6;0;0;;0;0;();();(-2000.0, -2000.0);
10:55:29:457;10:55:29:436;1448057486.91;(0.2848970413208008, 0.593959214952257);35.661190033;0.875481963505;10:55:29:457;0;0;-1.5;1;0.293255131964809;0;0;0;1;1;1;1;6;0;0;;0;0;();();(-2000.0, -2000.0);
10:55:29:474;10:55:29:436;1448057486.91;(0.2848970413208008, 0.593959214952257);35.661190033;0.875481963505;10:55:29:474;0;9;-1.5;1;0.293255131964809;0;0;0;1;1;1;1;6;0;0;;0;0;();();(-2000.0, -2000.0);
10:55:29:512;10:55:29:506;1448057486.97;(0.28516032695770266, 0.5937884012858072);35.6413917542;0.888698982598;10:55:29:512;0;10;-1.5;1;0.293255131964809;0;0;0;1;1;1;1;6;0;0;;0;0;();();(-2000.0, -2000.0);
10:55:29:523;10:55:29:506;1448057486.97;(0.28516032695770266, 0.5937884012858072);35.6413917542;0.888698982598;10:55:29:523;0;15;-0.583870967741936;1;0.293255131964809;0;0;0;1;1;1;1;6;0;0;;0;0;();();(-2000.0, -2000.0);
10:55:29:540;10:55:29:506;1448057486.97;(0.28516032695770266, 0.5937884012858072);35.6413917542;0.888698982598;10:55:29:540;0;4;1.78064516129032;1;0.293255131964809;0;0;0;1;1;1;1;6;0;0;;0;0;();();(-2000.0, -2000.0);
10:55:29:557;10:55:29:506;1448057486.97;(0.28516032695770266, 0.5937884012858072);35.6413917542;0.888698982598;10:55:29:557;0;0;1.78064516129032;1;0.293255131964809;0;0;0;1;1;1;1;6;0;0;;0;0;();();(-2000.0, -2000.0);
10:55:29:573;10:55:29:568;1448057487.04;(0.28495943546295166, 0.5940512339274089);35.5511703491;0.921263851344;10:55:29:573;0;4;1.78064516129032;1;0.293255131964809;0;0;0;1;1;1;1;6;0;0;;0;0;();();(-2000.0, -2000.0);
10:55:29:607;10:55:29:568;1448057487.04;(0.28495943546295166, 0.5940512339274089);35.5511703491;0.921263851344;10:55:29:607;0;4;0.558064516129032;1;0.293255131964809;0;0;0;1;1;1;1;6;0;0;;0;0;();();(-2000.0, -2000.0);
10:55:29:622;10:55:29:568;1448057487.04;(0.28495943546295166, 0.5940512339274089);35.5511703491;0.921263851344;10:55:29:622;0;4;0.558064516129032;1;0.293255131964809;0;0;0;1;1;1;1;6;0;0;;0;0;();();(-2000.0, -2000.0);
10:55:29:639;10:55:29:637;1448057487.11;(0.2854041576385498, 0.5932440863715278);35.7705802917;0.888415844531;10:55:29:639;0;5;1.77741935483871;1;0.293255131964809;0;0;0;1;1;1;1;6;0;0;;0;0;();();(-2000.0, -2000.0);
10:55:29:656;10:55:29:637;1448057487.11;(0.2854041576385498, 0.5932440863715278);35.7705802917;0.888415844531;10:55:29:656;0;10;1.78064516129032;1;0.293255131964809;0;0;0;1;1;1;1;6;0;0;;0;0;();();(-2000.0, -2000.0);
10:55:29:689;10:55:29:637;1448057487.11;(0.2854041576385498, 0.5932440863715278);35.7705802917;0.888415844531;10:55:29:689;0;15;1.76129032258065;1;0.293255131964809;0;0;0;1;1;1;1;6;0;0;;0;0;();();(-2000.0, -2000.0);
10:55:29:705;10:55:29:700;1448057487.17;(0.2851239204406738, 0.5935139973958333);35.7293777466;0.909276813484;10:55:29:705;0;5;1.76129032258065;1;0.293255131964809;0;0;0;1;1;1;1;6;0;0;;0;0;();();(-2000.0, -2000.0);
10:55:29:722;10:55:29:700;1448057487.17;(0.2851239204406738, 0.5935139973958333);35.7293777466;0.909276813484;10:55:29:722;0;10;1.77741935483871;1;0.293255131964809;0;0;0;1;1;1;1;6;0;0;;0;0;();();(-2000.0, -2000.0);
10:55:29:738;10:55:29:700;1448057487.17;(0.2851239204406738, 0.5935139973958333);35.7293777466;0.909276813484;10:55:29:738;0;10;1.77741935483871;1;0.293255131964809;0;0;0;1;1;1;1;6;0;0;;0;0;();();(-2000.0, -2000.0);
10:55:29:755;10:55:29:700;1448057487.17;(0.2851239204406738, 0.5935139973958333);35.7293777466;0.909276813484;10:55:29:755;0;9;-1.5;1;0.293255131964809;0;0;0;1;1;1;1;6;0;0;;0;0;();();(-2000.0, -2000.0);
10:55:29:789;10:55:29:769;1448057487.24;(0.28502449989318845, 0.5933486090766059);35.5857276917;0.929100702531;10:55:29:789;0;10;-1.5;1;0.293255131964809;0;0;0;1;1;1;1;6;0;0;;0;0;();();(-2000.0, -2000.0);
10:55:29:805;10:55:29:769;1448057487.24;(0.28502449989318845, 0.5933486090766059);35.5857276917;0.929100702531;10:55:29:805;0;4;-1.5;1;0.586510263929619;0;0;0;1;1;1;1;6;0;0;;0;0;();();(-2000.0, -2000.0);
10:55:29:822;10:55:29:769;1448057487.24;(0.28502449989318845, 0.5933486090766059);35.5857276917;0.929100702531;10:55:29:821;0;10;-1.5;1;0.293255131964809;0;0;0;1;1;1;1;6;0;0;;0;0;();();(-2000.0, -2000.0);
10:55:29:838;10:55:29:836;1448057487.31;(0.28538827896118163, 0.5935232374403212);35.6441040039;0.904066052754;10:55:29:838;0;4;-1.5;1;0.293255131964809;0;0;0;1;1;1;1;6;0;0;;0;0;();();(-2000.0, -2000.0);
10:55:29:855;10:55:29:836;1448057487.31;(0.28538827896118163, 0.5935232374403212);35.6441040039;0.904066052754;10:55:29:855;0;9;-1.5;1;0.293255131964809;0;0;0;1;1;1;1;6;0;0;;0;0;();();(-2000.0, -2000.0);
10:55:29:888;10:55:29:836;1448057487.31;(0.28538827896118163, 0.5935232374403212);35.6441040039;0.904066052754;10:55:29:888;0;10;-1.5;1;0.293255131964809;0;0;0;1;1;1;1;6;0;0;;0;0;();();(-2000.0, -2000.0);
10:55:29:904;10:55:29:901;1448057487.34;(0.2937532901763916, 0.5922742631700304);36.9360389709;0.899238782829;10:55:29:904;0;15;1.77741935483871;1;0.293255131964809;0;0;0;1;1;1;1;6;0;0;;0;0;();();(-2000.0, -2000.0);
10:55:29:921;10:55:29:901;1448057487.34;(0.2937532901763916, 0.5922742631700304);36.9360389709;0.899238782829;10:55:29:921;0;15;1.77741935483871;1;0.293255131964809;0;0;0;1;1;1;1;6;0;0;;0;0;();();(-2000.0, -2000.0);
10:55:29:937;10:55:29:901;1448057487.34;(0.2937532901763916, 0.5922742631700304);36.9360389709;0.899238782829;10:55:29:937;0;4;-1.21612903225806;1;0.293255131964809;0;0;0;1;1;1;1;6;0;0;;0;0;();();(-2000.0, -2000.0);
10:55:29:955;10:55:29:901;1448057487.34;(0.2937532901763916, 0.5922742631700304);36.9360389709;0.899238782829;10:55:29:955;0;15;-1.5;1;0.293255131964809;0;0;0;1;1;1;1;6;0;0;;0;0;();();(-2000.0, -2000.0);
10:55:29:988;10:55:29:968;1448057487.4;(0.30264666080474856, 0.5934001922607421);37.3961753845;0.861013360583;10:55:29:988;0;4;-1.5;1;0.684261974584555;0;0;0;1;1;1;1;6;0;0;;0;0;();();(-2000.0, -2000.0);
10:55:30:003;10:55:29:968;1448057487.4;(0.30264666080474856, 0.5934001922607421);37.3961753845;0.861013360583;10:55:30:003;0;9;-0.67741935483871;1;0.293255131964809;0;0;0;1;1;1;1;6;0;0;;0;0;();();(-2000.0, -2000.0);
10:55:30:020;10:55:29:968;1448057487.4;(0.30264666080474856, 0.5934001922607421);37.3961753845;0.861013360583;10:55:30:020;0;5;-1.5;1;0.293255131964809;0;0;0;1;1;1;1;6;0;0;;0;0;();();(-2000.0, -2000.0);
10:55:30:037;10:55:30:032;1448057487.43;(0.3260352373123169, 0.5907432556152343);44.6626701355;0.745220906244;10:55:30:037;0;15;-0.548387096774194;1;0.293255131964809;0;0;0;1;1;1;1;6;0;0;;0;0;();();(-2000.0, -2000.0);
10:55:30:053;10:55:30:032;1448057487.43;(0.3260352373123169, 0.5907432556152343);44.6626701355;0.745220906244;10:55:30:053;0;4;-1.5;1;0.293255131964809;0;0;0;1;1;1;1;6;0;0;;0;0;();();(-2000.0, -2000.0);
10:55:30:087;10:55:30:032;1448057487.43;(0.3260352373123169, 0.5907432556152343);44.6626701355;0.745220906244;10:55:30:087;0;5;-1.5;1;0.293255131964809;0;0;0;1;1;1;1;6;0;0;;0;0;();();(-2000.0, -2000.0);
10:55:30:103;10:55:30:101;1448057487.56;(0, 0);0;0;10:55:30:103;0;10;0.251612903225806;1;0.293255131964809;0;0;0;1;1;1;1;6;0;0;;0;0;();();(-2000.0, -2000.0);
10:55:30:119;10:55:30:101;1448057487.56;(0, 0);0;0;10:55:30:119;0;5;0.148387096774194;1;0.293255131964809;0;0;0;1;1;1;1;6;0;0;;0;0;();();(-2000.0, -2000.0);
10:55:30:137;10:55:30:101;1448057487.56;(0, 0);0;0;10:55:30:137;0;15;-1.5;1;0.293255131964809;0;0;0;1;1;1;1;6;0;0;;0;0;();();(-2000.0, -2000.0);
10:55:30:152;10:55:30:101;1448057487.56;(0, 0);0;0;10:55:30:152;0;4;-1.5;1;0.293255131964809;0;0;0;1;1;1;1;6;0;0;;0;0;();();(-2000.0, -2000.0);
10:55:30:187;10:55:30:101;1448057487.56;(0, 0);0;0;10:55:30:187;0;4;-1.5;1;0.684261974584555;0;0;0;1;1;1;1;6;0;0;;0;0;();();(-2000.0, -2000.0);
10:55:30:203;10:55:30:101;1448057487.56;(0, 0);0;0;10:55:30:203;0;10;-1.5;1;0.293255131964809;0;0;0;1;1;1;1;6;0;0;;0;0;();();(-2000.0, -2000.0);
10:55:30:220;10:55:30:101;1448057487.56;(0, 0);0;0;10:55:30:220;0;4;-1.5;1;0.293255131964809;0;0;0;1;1;1;1;6;0;0;;0;0;();();(-2000.0, -2000.0);
10:55:30:237;10:55:30:233;1448057487.69;(0.941960620880127, 0.6859803941514757);33.7464523315;0.652244091706;10:55:30:237;0;9;-1.5;1;0.293255131964809;0;0;0;1;1;1;1;6;0;0;;0;0;();();(-2000.0, -2000.0);
10:55:30:253;10:55:30:233;1448057487.69;(0.941960620880127, 0.6859803941514757);33.7464523315;0.652244091706;10:55:30:253;0;0;-1.01612903225806;1;0.293255131964809;0;0;0;1;1;1;1;6;0;0;;0;0;();();(-2000.0, -2000.0);
10:55:30:285;10:55:30:233;1448057487.69;(0.941960620880127, 0.6859803941514757);33.7464523315;0.652244091706;10:55:30:285;0;4;-1.5;1;0.293255131964809;0;0;0;1;1;1;1;6;0;0;;0;0;();();(-2000.0, -2000.0);
10:55:30:302;10:55:30:300;1448057487.77;(0, 0);0;0;10:55:30:302;0;9;-1.5;1;0.586510263929619;0;0;0;1;1;1;1;6;0;0;;0;0;();();(-2000.0, -2000.0);
10:55:30:319;10:55:30:300;1448057487.77;(0, 0);0;0;10:55:30:319;0;4;-1.5;1;0.293255131964809;0;0;0;1;1;1;1;6;0;0;;0;0;();();(-2000.0, -2000.0);
10:55:30:335;10:55:30:300;1448057487.77;(0, 0);0;0;10:55:30:335;0;9;-1.5;1;0.293255131964809;0;0;0;1;1;1;1;6;0;0;;0;0;();();(-2000.0, -2000.0);
10:55:30:369;10:55:30:365;1448057487.84;(0.733305549621582, 0.9002824836307102);27.6399612427;0.800149823365;10:55:30:369;0;10;-1.5;1;0.293255131964809;0;0;0;1;1;1;1;6;0;0;;0;0;();();(-2000.0, -2000.0);
10:55:30:385;10:55:30:365;1448057487.84;(0.733305549621582, 0.9002824836307102);27.6399612427;0.800149823365;10:55:30:385;0;8;-1.5;1;0.293255131964809;0;0;0;1;1;1;1;6;0;0;;0;0;();();(-2000.0, -2000.0);
10:55:30:401;10:55:30:365;1448057487.84;(0.733305549621582, 0.9002824836307102);27.6399612427;0.800149823365;10:55:30:401;0;2;-1.5;1;0.293255131964809;0;0;0;1;1;1;1;6;0;0;;0;0;();();(-2000.0, -2000.0);
10:55:30:418;10:55:30:365;1448057487.84;(0.733305549621582, 0.9002824836307102);27.6399612427;0.800149823365;10:55:30:418;0;0;-1.5;1;0.293255131964809;0;0;0;1;1;1;1;6;0;0;;0;0;();();(-2000.0, -2000.0);
10:55:30:434;10:55:30:432;1448057487.91;(0.7370206832885742, 0.9011534955766466);22.4207172394;0.711809339182;10:55:30:434;0;5;-1.5;1;0.293255131964809;0;0;0;1;1;1;1;6;0;0;;0;0;();();(-2000.0, -2000.0);
10:55:30:467;10:55:30:432;1448057487.91;(0.7370206832885742, 0.9011534955766466);22.4207172394;0.711809339182;10:55:30:467;0;4;-1.5;1;0.293255131964809;0;0;0;1;1;1;1;6;0;0;;0;0;();();(-2000.0, -2000.0);
10:55:30:484;10:55:30:432;1448057487.91;(0.7370206832885742, 0.9011534955766466);22.4207172394;0.711809339182;10:55:30:484;0;15;-1.5;1;0.293255131964809;0;0;0;1;1;1;1;6;0;0;;0;0;();();(-2000.0, -2000.0);
10:55:30:500;10:55:30:432;1448057487.91;(0.7370206832885742, 0.9011534955766466);22.4207172394;0.711809339182;10:55:30:500;0;9;-1.5;1;0.293255131964809;0;0;0;1;1;1;1;6;0;0;;0;0;();();(-2000.0, -2000.0);
10:55:30:518;10:55:30:503;1448057487.97;(0.7365103244781495, 0.8955506324768067);22.062084198;0.634585571969;10:55:30:518;0;0;-1.5;1;0.293255131964809;0;0;0;1;1;1;1;6;0;0;;0;0;();();(-2000.0, -2000.0);
10:55:30:534;10:55:30:503;1448057487.97;(0.7365103244781495, 0.8955506324768067);22.062084198;0.634585571969;10:55:30:534;0;4;-1.5;1;0.293255131964809;0;0;0;1;1;1;1;6;0;0;;0;0;();();(-2000.0, -2000.0);
10:55:30:567;10:55:30:564;1448057488.05;(0, 0);0;0;10:55:30:567;0;4;-1.5;1;0.293255131964809;0;0;0;1;1;1;1;6;0;0;;0;0;();();(-2000.0, -2000.0);
10:55:30:583;10:55:30:564;1448057488.05;(0, 0);0;0;10:55:30:583;0;4;-1.5;1;0.293255131964809;0;0;0;1;1;1;1;6;0;0;;0;0;();();(-2000.0, -2000.0);
10:55:30:600;10:55:30:564;1448057488.05;(0, 0);0;0;10:55:30:600;0;10;-1.5;1;0.293255131964809;0;0;0;1;1;1;1;6;0;0;;0;0;();();(-2000.0, -2000.0);
10:55:30:617;10:55:30:564;1448057488.05;(0, 0);0;0;10:55:30:617;0;15;-0.767741935483871;1;0.293255131964809;0;0;0;1;1;1;1;6;0;0;;0;0;();();(-2000.0, -2000.0);
10:55:30:633;10:55:30:633;1448057488.12;(0, 0);0;0;10:55:30:633;0;4;-1.5;1;0.293255131964809;0;0;0;1;1;1;1;6;0;0;;0;0;();();(-2000.0, -2000.0);
10:55:30:667;10:55:30:633;1448057488.12;(0, 0);0;0;10:55:30:667;0;5;-1.5;1;0.293255131964809;0;0;0;1;1;1;1;6;0;0;;0;0;();();(-2000.0, -2000.0);
10:55:30:683;10:55:30:633;1448057488.12;(0, 0);0;0;10:55:30:683;0;10;-1.5;1;0.293255131964809;0;0;0;1;1;1;1;6;0;0;;0;0;();();(-2000.0, -2000.0);
10:55:30:700;10:55:30:697;1448057488.19;(0, 0);0;0;10:55:30:700;0;15;1.78064516129032;1;0.293255131964809;0;0;0;1;1;1;1;6;0;0;;0;0;();();(-2000.0, -2000.0);
10:55:30:716;10:55:30:697;1448057488.19;(0, 0);0;0;10:55:30:716;0;9;1.78064516129032;1;0.293255131964809;0;0;0;1;1;1;1;6;0;0;;0;0;();();(-2000.0, -2000.0);
10:55:30:733;10:55:30:697;1448057488.19;(0, 0);0;0;10:55:30:733;0;4;1.76129032258065;1;0.293255131964809;0;0;0;1;1;1;1;6;0;0;;0;0;();();(-2000.0, -2000.0);
10:55:30:766;10:55:30:764;1448057488.25;(0, 0);0;0;10:55:30:766;0;15;1.77741935483871;1;0.293255131964809;0;0;0;1;1;1;1;6;0;0;;0;0;();();(-2000.0, -2000.0);
10:55:30:782;10:55:30:764;1448057488.25;(0, 0);0;0;10:55:30:782;0;14;1.77741935483871;1;0.293255131964809;0;0;0;1;1;1;1;6;0;0;;0;0;();();(-2000.0, -2000.0);
10:55:30:798;10:55:30:764;1448057488.25;(0, 0);0;0;10:55:30:798;0;15;1.78064516129032;1;0.293255131964809;0;0;0;1;1;1;1;6;0;0;;0;0;();();(-2000.0, -2000.0);
10:55:30:816;10:55:30:764;1448057488.25;(0, 0);0;0;10:55:30:816;0;9;0.896774193548387;1;0.293255131964809;0;0;0;1;1;1;1;6;0;0;;0;0;();();(-2000.0, -2000.0);
10:55:30:849;10:55:30:832;1448057488.32;(0, 0);0;0;10:55:30:849;0;10;-0.809677419354839;1;0.293255131964809;0;0;0;1;1;1;1;6;0;0;;0;0;();();(-2000.0, -2000.0);
10:55:30:865;10:55:30:832;1448057488.32;(0, 0);0;0;10:55:30:865;0;15;-1.5;1;0.293255131964809;0;0;0;1;1;1;1;6;0;0;;0;0;();();(-2000.0, -2000.0);
10:55:30:883;10:55:30:832;1448057488.32;(0, 0);0;0;10:55:30:883;0;9;0.412903225806452;1;0.293255131964809;0;0;0;1;1;1;1;6;0;0;;0;0;();();(-2000.0, -2000.0);
10:55:30:899;10:55:30:832;1448057488.32;(0, 0);0;0;10:55:30:899;0;15;-0.961290322580645;1;0.293255131964809;0;0;0;1;1;1;1;6;0;0;;0;0;();();(-2000.0, -2000.0);
10:55:30:915;10:55:30:832;1448057488.32;(0, 0);0;0;10:55:30:914;0;9;-0.774193548387097;1;0.293255131964809;0;0;0;1;1;1;1;6;0;0;;0;0;();();(-2000.0, -2000.0);
10:55:30:948;10:55:30:832;1448057488.32;(0, 0);0;0;10:55:30:948;0;4;-0.583870967741936;1;0.293255131964809;0;0;0;1;1;1;1;6;0;0;;0;0;();();(-2000.0, -2000.0);
10:55:30:965;10:55:30:964;1448057488.45;(0, 0);0;0;10:55:30:964;0;15;1.37741935483871;1;0.293255131964809;0;0;0;1;1;1;1;6;0;0;;0;0;();();(-2000.0, -2000.0);
10:55:30:982;10:55:30:964;1448057488.45;(0, 0);0;0;10:55:30:982;0;5;-1.5;1;0.293255131964809;0;0;0;1;1;1;1;6;0;0;;0;0;();();(-2000.0, -2000.0);
10:55:30:997;10:55:30:964;1448057488.45;(0, 0);0;0;10:55:30:997;0;15;-1.5;1;0.293255131964809;0;0;0;1;1;1;1;6;0;0;;0;0;();();(-2000.0, -2000.0);
10:55:31:014;10:55:30:964;1448057488.45;(0, 0);0;0;10:55:31:014;0;4;-1.5;1;0.293255131964809;0;0;0;1;1;1;1;6;0;0;;0;0;();();(-2000.0, -2000.0);
10:55:31:048;10:55:30:964;1448057488.45;(0, 0);0;0;10:55:31:048;0;4;-1.5;1;0.293255131964809;0;0;0;1;1;1;1;6;0;0;;0;0;();();(-2000.0, -2000.0);
10:55:31:064;10:55:30:964;1448057488.45;(0, 0);0;0;10:55:31:064;0;15;-1.5;1;0.293255131964809;0;0;0;1;1;1;1;6;0;0;;0;0;();();(-2000.0, -2000.0);
10:55:31:081;10:55:30:964;1448057488.45;(0, 0);0;0;10:55:31:081;0;4;-1.5;1;0.293255131964809;0;0;0;1;1;1;1;6;0;0;;0;0;();();(-2000.0, -2000.0);
10:55:31:098;10:55:31:097;1448057488.52;(0, 0);0;0;10:55:31:098;0;15;-1.5;1;0.293255131964809;0;0;0;1;1;1;1;6;0;0;;0;0;();();(-2000.0, -2000.0);
10:55:31:114;10:55:31:102;1448057488.59;(0, 0);0;0;10:55:31:114;0;4;-1.5;1;0.293255131964809;0;0;0;1;1;1;1;6;0;0;;0;0;();();(-2000.0, -2000.0);
10:55:31:147;10:55:31:102;1448057488.59;(0, 0);0;0;10:55:31:147;0;5;1.78064516129032;1;0.293255131964809;0;0;0;1;1;1;1;6;0;0;;0;0;();();(-2000.0, -2000.0);
10:55:31:164;10:55:31:102;1448057488.59;(0, 0);0;0;10:55:31:164;0;10;1.77741935483871;1;0.293255131964809;0;0;0;1;1;1;1;6;0;0;;0;0;();();(-2000.0, -2000.0);
10:55:31:180;10:55:31:102;1448057488.59;(0, 0);0;0;10:55:31:180;0;4;1.78064516129032;1;0.391006842619746;0;0;0;1;1;1;1;6;0;0;;0;0;();();(-2000.0, -2000.0);
10:55:31:197;10:55:31:102;1448057488.59;(0, 0);0;0;10:55:31:197;0;4;1.78064516129032;1;0.391006842619746;0;0;0;1;1;1;1;6;0;0;;0;0;();();(-2000.0, -2000.0);
10:55:31:214;10:55:31:102;1448057488.59;(0, 0);0;0;10:55:31:214;0;15;1.78064516129032;1;0.293255131964809;0;0;0;1;1;1;1;6;0;0;;0;0;();();(-2000.0, -2000.0);
10:55:31:247;10:55:31:228;1448057488.72;(0, 0);0;0;10:55:31:247;0;5;1.72903225806452;1;0.293255131964809;0;0;0;1;1;1;1;6;0;0;;0;0;();();(-2000.0, -2000.0);
10:55:31:263;10:55:31:228;1448057488.72;(0, 0);0;0;10:55:31:263;0;10;1.78064516129032;1;0.293255131964809;0;0;0;1;1;1;1;6;0;0;;0;0;();();(-2000.0, -2000.0);
10:55:31:280;10:55:31:228;1448057488.72;(0, 0);0;0;10:55:31:280;0;15;-1.5;1;0.293255131964809;0;0;0;1;1;1;1;6;0;0;;0;0;();();(-2000.0, -2000.0);
10:55:31:296;10:55:31:228;1448057488.72;(0, 0);0;0;10:55:31:296;0;9;-1.5;1;0.684261974584555;0;0;0;1;1;1;1;6;0;0;;0;0;();();(-2000.0, -2000.0);
10:55:31:329;10:55:31:296;1448057488.79;(0, 0);0;0;10:55:31:329;0;10;-1.5;1;0.293255131964809;0;0;0;1;1;1;1;6;0;0;;0;0;();();(-2000.0, -2000.0);
10:55:31:345;10:55:31:296;1448057488.79;(0, 0);0;0;10:55:31:345;0;15;-1.5;1;0.293255131964809;0;0;0;1;1;1;1;6;0;0;;0;0;();();(-2000.0, -2000.0);
10:55:31:362;10:55:31:296;1448057488.79;(0, 0);0;0;10:55:31:362;0;9;1.77741935483871;1;0.293255131964809;0;0;0;1;1;1;1;6;0;0;;0;0;();();(-2000.0, -2000.0);
10:55:31:378;10:55:31:296;1448057488.79;(0, 0);0;0;10:55:31:378;0;0;-1.5;1;0.293255131964809;0;0;0;1;1;1;1;6;0;0;;0;0;();();(-2000.0, -2000.0);
10:55:31:395;10:55:31:296;1448057488.79;(0, 0);0;0;10:55:31:395;0;4;-1.5;1;0.293255131964809;0;0;0;1;1;1;1;6;0;0;;0;0;();();(-2000.0, -2000.0);
10:55:31:428;10:55:31:428;1448057488.85;(0, 0);0;0;10:55:31:428;0;4;1.79032258064516;1;0.293255131964809;0;0;0;1;1;1;1;6;0;0;;0;0;();();(-2000.0, -2000.0);
10:55:31:445;10:55:31:428;1448057488.92;(0, 0);0;0;10:55:31:445;0;15;1.78064516129032;1;0.586510263929619;0;0;0;1;1;1;1;6;0;0;;0;0;();();(-2000.0, -2000.0);
10:55:31:462;10:55:31:428;1448057488.92;(0, 0);0;0;10:55:31:462;0;5;1.79032258064516;1;0.293255131964809;0;0;0;1;1;1;1;6;0;0;;0;0;();();(-2000.0, -2000.0);
10:55:31:478;10:55:31:428;1448057488.92;(0, 0);0;0;10:55:31:478;0;0;1.78064516129032;1;0.293255131964809;0;0;0;1;1;1;1;6;0;0;;0;0;();();(-2000.0, -2000.0);
10:55:31:495;10:55:31:428;1448057488.92;(0, 0);0;0;10:55:31:495;0;12;-1.5;1;0.293255131964809;0;0;0;1;1;1;1;6;0;0;;0;0;();();(-2000.0, -2000.0);
10:55:31:527;10:55:31:428;1448057488.92;(0, 0);0;0;10:55:31:527;0;5;1.78064516129032;1;0.293255131964809;0;0;0;1;1;1;1;6;0;0;;0;0;();();(-2000.0, -2000.0);
10:55:31:545;10:55:31:428;1448057488.92;(0, 0);0;0;10:55:31:545;0;3;1.78064516129032;1;0.586510263929619;0;0;0;1;1;1;1;6;0;0;;0;0;();();(-2000.0, -2000.0);
10:55:31:561;10:55:31:561;1448057489.05;(0, 0);0;0;10:55:31:561;0;4;1.79032258064516;1;0.684261974584555;0;0;0;1;1;1;1;6;0;0;;0;0;();();(-2000.0, -2000.0);
10:55:31:578;10:55:31:561;1448057489.05;(0, 0);0;0;10:55:31:578;0;9;1.79032258064516;1;0.293255131964809;0;0;0;1;1;1;1;6;0;0;;0;0;();();(-2000.0, -2000.0);
10:55:31:594;10:55:31:561;1448057489.05;(0, 0);0;0;10:55:31:594;0;4;1.78064516129032;1;0.293255131964809;0;0;0;1;1;1;1;6;0;0;;0;0;();();(-2000.0, -2000.0);
10:55:31:628;10:55:31:561;1448057489.05;(0, 0);0;0;10:55:31:628;0;5;1.78064516129032;1;0.293255131964809;0;0;0;1;1;1;1;6;0;0;;0;0;();();(-2000.0, -2000.0);
10:55:31:644;10:55:31:628;1448057489.12;(0, 0);0;0;10:55:31:644;0;10;1.78064516129032;1;0.293255131964809;0;0;0;1;1;1;1;6;0;0;;0;0;();();(-2000.0, -2000.0);
10:55:31:660;10:55:31:628;1448057489.12;(0, 0);0;0;10:55:31:660;0;4;1.78064516129032;1;0.293255131964809;0;0;0;1;1;1;1;6;0;0;;0;0;();();(-2000.0, -2000.0);
10:55:31:677;10:55:31:628;1448057489.12;(0, 0);0;0;10:55:31:677;0;9;1.78064516129032;1;0.586510263929619;0;0;0;1;1;1;1;6;0;0;;0;0;();();(-2000.0, -2000.0);
10:55:31:693;10:55:31:692;1448057489.19;(0, 0);0;0;10:55:31:693;0;4;1.77741935483871;1;0.293255131964809;0;0;0;1;1;1;1;6;0;0;;0;0;();();(-2000.0, -2000.0);
10:55:31:727;10:55:31:692;1448057489.19;(0, 0);0;0;10:55:31:727;0;15;-1.5;1;0.293255131964809;0;0;0;1;1;1;1;6;0;0;;0;0;();();(-2000.0, -2000.0);
10:55:31:743;10:55:31:692;1448057489.19;(0, 0);0;0;10:55:31:743;0;4;-1.5;1;0.684261974584555;0;0;0;1;1;1;1;6;0;0;;0;0;();();(-2000.0, -2000.0);
10:55:31:760;10:55:31:692;1448057489.19;(0, 0);0;0;10:55:31:760;0;5;-1.5;1;0.293255131964809;0;0;0;1;1;1;1;6;0;0;;0;0;();();(-2000.0, -2000.0);
10:55:31:777;10:55:31:760;1448057489.25;(0.498223876953125, 0.6362081527709961);31.7498245239;0.806969853643;10:55:31:777;0;9;-1.5;1;0.293255131964809;0;0;0;1;1;1;1;6;0;0;;0;0;();();(-2000.0, -2000.0);
10:55:31:801;10:55:31:760;1448057489.25;(0.498223876953125, 0.6362081527709961);31.7498245239;0.806969853643;10:55:31:801;0;10;-1.5;1;0.293255131964809;0;0;0;1;1;1;1;8;0;0;;0;0;();();(-2000.0, -2000.0);
10:55:31:814;10:55:31:760;1448057489.25;(0.498223876953125, 0.6362081527709961);31.7498245239;0.806969853643;10:55:31:814;0;4;-1.5;1;0.293255131964809;0;0;0;1;1;1;1;8;0;0;;0;0;();();(-2000.0, -2000.0);
10:55:31:847;10:55:31:824;1448057489.32;(0.6859321594238281, 0.8867237408955893);26.278673172;0.724978184834;10:55:31:847;0;4;-1.5;1;0.293255131964809;0;0;0;1;1;1;1;8;0;0;;0;0;();();(-2000.0, -2000.0);
10:55:31:864;10:55:31:824;1448057489.32;(0.6859321594238281, 0.8867237408955893);26.278673172;0.724978184834;10:55:31:864;0;4;-1.5;1;0.293255131964809;0;0;0;1;1;1;1;8;0;0;;0;0;();();(-2000.0, -2000.0);
10:55:31:880;10:55:31:824;1448057489.32;(0.6859321594238281, 0.8867237408955893);26.278673172;0.724978184834;10:55:31:880;0;5;-1.5;1;0.293255131964809;0;0;0;1;1;1;1;8;0;0;;0;0;();();(-2000.0, -2000.0);
10:55:31:897;10:55:31:824;1448057489.32;(0.6859321594238281, 0.8867237408955893);26.278673172;0.724978184834;10:55:31:897;0;10;-1.5;1;0.684261974584555;0;0;0;1;1;1;1;8;0;0;;0;0;();();(-2000.0, -2000.0);
10:55:31:914;10:55:31:824;1448057489.32;(0.6859321594238281, 0.8867237408955893);26.278673172;0.724978184834;10:55:31:914;0;4;-1.5;1;0.293255131964809;0;0;0;1;1;1;1;8;0;0;;0;0;();();(-2000.0, -2000.0);
10:55:31:948;10:55:31:824;1448057489.32;(0.6859321594238281, 0.8867237408955893);26.278673172;0.724978184834;10:55:31:948;0;5;-1.5;1;0.293255131964809;0;0;0;1;1;1;1;8;0;0;;0;0;();();(-2000.0, -2000.0);
10:55:31:963;10:55:31:960;1448057489.45;(0, 0);0;0;10:55:31:963;0;10;-1.5;1;0.293255131964809;0;0;0;1;1;1;1;8;0;0;;0;0;();();(-2000.0, -2000.0);
10:55:31:980;10:55:31:960;1448057489.45;(0, 0);0;0;10:55:31:980;0;15;-1.5;1;0.293255131964809;0;0;0;1;1;1;1;8;0;0;;0;0;();();(-2000.0, -2000.0);
10:55:31:996;10:55:31:960;1448057489.45;(0, 0);0;0;10:55:31:996;0;9;-1.5;1;0.293255131964809;0;0;0;1;1;1;1;8;0;0;;0;0;();();(-2000.0, -2000.0);
10:55:32:012;10:55:31:960;1448057489.45;(0, 0);0;0;10:55:32:012;0;0;-1.5;1;0.293255131964809;0;0;0;1;1;1;1;8;0;0;;0;0;();();(-2000.0, -2000.0);
10:55:32:047;10:55:31:960;1448057489.45;(0, 0);0;0;10:55:32:047;0;5;-1.5;1;0.293255131964809;0;0;0;1;1;1;1;8;0;0;;0;0;();();(-2000.0, -2000.0);
10:55:32:063;10:55:31:960;1448057489.45;(0, 0);0;0;10:55:32:063;0;4;-1.5;1;0.293255131964809;0;0;0;1;1;1;1;8;0;0;;0;0;();();(-2000.0, -2000.0);
10:55:32:080;10:55:31:960;1448057489.45;(0, 0);0;0;10:55:32:080;0;15;-1.5;1;0.293255131964809;0;0;0;1;1;1;1;8;0;0;;0;0;();();(-2000.0, -2000.0);
10:55:32:095;10:55:32:092;1448057489.52;(0, 0);0;0;10:55:32:095;0;9;-1.5;1;0.293255131964809;0;0;0;1;1;1;1;8;0;0;;0;0;();();(-2000.0, -2000.0);
10:55:32:129;10:55:32:092;1448057489.52;(0, 0);0;0;10:55:32:129;0;10;-1.5;1;0.293255131964809;0;0;0;1;1;1;1;8;0;0;;0;0;();();(-2000.0, -2000.0);
10:55:32:145;10:55:32:092;1448057489.52;(0, 0);0;0;10:55:32:145;0;15;-1.5;1;0.293255131964809;0;0;0;1;1;1;1;8;0;0;;0;0;();();(-2000.0, -2000.0);
10:55:32:162;10:55:32:156;1448057489.59;(0, 0);0;0;10:55:32:162;0;9;-1.5;1;0.293255131964809;0;0;0;1;1;1;1;8;0;0;;0;0;();();(-2000.0, -2000.0);
10:55:32:178;10:55:32:156;1448057489.59;(0, 0);0;0;10:55:32:178;0;15;-1.5;1;0.293255131964809;0;0;0;1;1;1;1;8;0;0;;0;0;();();(-2000.0, -2000.0);
10:55:32:195;10:55:32:156;1448057489.59;(0, 0);0;0;10:55:32:195;0;10;-1.5;1;0.293255131964809;0;0;0;1;1;1;1;8;0;0;;0;0;();();(-2000.0, -2000.0);
10:55:32:228;10:55:32:224;1448057489.65;(0.6859862327575683, 0.8886268456776937);18.1917686462;0.849660065663;10:55:32:228;0;4;1.54516129032258;1;0.293255131964809;0;0;0;1;1;1;1;8;0;0;;0;0;();();(-2000.0, -2000.0);
10:55:32:245;10:55:32:224;1448057489.65;(0.6859862327575683, 0.8886268456776937);18.1917686462;0.849660065663;10:55:32:245;0;9;1.78064516129032;1;0.293255131964809;0;0;0;1;1;1;1;8;0;0;;0;0;();();(-2000.0, -2000.0);
10:55:32:261;10:55:32:224;1448057489.65;(0.6859862327575683, 0.8886268456776937);18.1917686462;0.849660065663;10:55:32:261;0;5;1.78064516129032;1;0.293255131964809;0;0;0;1;1;1;1;8;0;0;;0;0;();();(-2000.0, -2000.0);
10:55:32:278;10:55:32:224;1448057489.65;(0.6859862327575683, 0.8886268456776937);18.1917686462;0.849660065663;10:55:32:278;0;10;1.77741935483871;1;0.293255131964809;0;0;0;1;1;1;1;8;0;0;;0;0;();();(-2000.0, -2000.0);
10:55:32:302;10:55:32:292;1448057489.79;(0, 0);0;0;10:55:32:302;0;11;1.78064516129032;1;0.293255131964809;0;0;0;1;1;1;1;8;0;0;;0;0;();();(-2000.0, -2000.0);
10:55:32:328;10:55:32:292;1448057489.79;(0, 0);0;0;10:55:32:328;0;4;1.77741935483871;1;0.293255131964809;0;0;0;1;1;1;1;8;0;0;;0;0;();();(-2000.0, -2000.0);
10:55:32:344;10:55:32:292;1448057489.79;(0, 0);0;0;10:55:32:344;0;10;0.109677419354838;1;0.293255131964809;0;0;0;1;1;1;1;8;0;0;;0;0;();();(-2000.0, -2000.0);
10:55:32:361;10:55:32:292;1448057489.79;(0, 0);0;0;10:55:32:361;0;5;-0.135483870967742;1;0.586510263929619;0;0;0;1;1;1;1;8;0;0;;0;0;();();(-2000.0, -2000.0);
10:55:32:377;10:55:32:292;1448057489.79;(0, 0);0;0;10:55:32:377;0;10;-1.5;1;0.293255131964809;0;0;0;1;1;1;1;8;0;0;;0;0;();();(-2000.0, -2000.0);
10:55:32:394;10:55:32:292;1448057489.79;(0, 0);0;0;10:55:32:394;0;4;1.77741935483871;1;0.293255131964809;0;0;0;1;1;1;1;8;0;0;;0;0;();();(-2000.0, -2000.0);
10:55:32:428;10:55:32:424;1448057489.92;(0, 0);0;0;10:55:32:428;0;0;-1.5;1;0.586510263929619;0;0;0;1;1;1;1;8;0;0;;0;0;();();(-2000.0, -2000.0);
10:55:32:443;10:55:32:424;1448057489.92;(0, 0);0;0;10:55:32:443;0;4;-1.5;1;0.293255131964809;0;0;0;1;1;1;1;8;0;0;;0;0;();();(-2000.0, -2000.0);
10:55:32:460;10:55:32:424;1448057489.92;(0, 0);0;0;10:55:32:460;0;4;-1.5;1;0.293255131964809;0;0;0;1;1;1;1;8;0;0;;0;0;();();(-2000.0, -2000.0);
10:55:32:477;10:55:32:424;1448057489.92;(0, 0);0;0;10:55:32:477;0;15;-1.5;1;0.293255131964809;0;0;0;1;1;1;1;8;0;0;;0;0;();();(-2000.0, -2000.0);
10:55:32:494;10:55:32:424;1448057489.92;(0, 0);0;0;10:55:32:494;0;9;-1.5;1;0.391006842619746;0;0;0;1;1;1;1;8;0;0;;0;0;();();(-2000.0, -2000.0);
10:55:32:527;10:55:32:424;1448057489.92;(0, 0);0;0;10:55:32:527;0;5;0.283870967741935;1;0.293255131964809;0;0;0;1;1;1;1;8;0;0;;0;0;();();(-2000.0, -2000.0);
10:55:32:543;10:55:32:424;1448057489.92;(0, 0);0;0;10:55:32:543;0;9;-0.509677419354839;1;0.293255131964809;0;0;0;1;1;1;1;8;0;0;;0;0;();();(-2000.0, -2000.0);
10:55:32:560;10:55:32:557;1448057489.99;(0, 0);0;0;10:55:32:560;0;15;-1.5;1;0.293255131964809;0;0;0;1;1;1;1;8;0;0;;0;0;();();(-2000.0, -2000.0);
10:55:32:576;10:55:32:557;1448057489.99;(0, 0);0;0;10:55:32:576;0;5;-0.687096774193548;1;0.293255131964809;0;0;0;1;1;1;1;8;0;0;;0;0;();();(-2000.0, -2000.0);
10:55:32:593;10:55:32:557;1448057489.99;(0, 0);0;0;10:55:32:593;0;0;1.09032258064516;1;0.293255131964809;0;0;0;1;1;1;1;8;0;0;;0;0;();();(-2000.0, -2000.0);
10:55:32:626;10:55:32:624;1448057490.05;(0, 0);0;0;10:55:32:626;0;15;-1.5;1;0.293255131964809;0;0;0;1;1;1;1;8;0;0;;0;0;();();(-2000.0, -2000.0);
10:55:32:642;10:55:32:624;1448057490.05;(0, 0);0;0;10:55:32:642;0;13;-1.5;1;0.293255131964809;0;0;0;1;1;1;1;8;0;0;;0;0;();();(-2000.0, -2000.0);
10:55:32:659;10:55:32:624;1448057490.05;(0, 0);0;0;10:55:32:659;0;5;-1.5;1;0.293255131964809;0;0;0;1;1;1;1;8;0;0;;0;0;();();(-2000.0, -2000.0);
10:55:32:676;10:55:32:624;1448057490.05;(0, 0);0;0;10:55:32:676;0;10;-1.5;1;0.293255131964809;0;0;0;1;1;1;1;8;0;0;;0;0;();();(-2000.0, -2000.0);
10:55:32:709;10:55:32:688;1448057490.12;(0, 0);0;0;10:55:32:709;0;14;-1.5;1;0.293255131964809;0;0;0;1;1;1;1;8;0;0;;0;0;();();(-2000.0, -2000.0);
10:55:32:726;10:55:32:688;1448057490.12;(0, 0);0;0;10:55:32:726;0;15;-1.5;1;0.293255131964809;0;0;0;1;1;1;1;8;0;0;;0;0;();();(-2000.0, -2000.0);
10:55:32:742;10:55:32:688;1448057490.12;(0, 0);0;0;10:55:32:741;0;5;-1.5;1;0.293255131964809;0;0;0;1;1;1;1;8;0;0;;0;0;();();(-2000.0, -2000.0);
10:55:32:758;10:55:32:756;1448057490.25;(0, 0);0;0;10:55:32:758;0;15;1.77741935483871;1;0.293255131964809;0;0;0;1;1;1;1;8;0;0;;0;0;();();(-2000.0, -2000.0);
10:55:32:775;10:55:32:756;1448057490.25;(0, 0);0;0;10:55:32:775;0;4;1.78064516129032;1;0.293255131964809;0;0;0;1;1;1;1;8;0;0;;0;0;();();(-2000.0, -2000.0);
10:55:32:808;10:55:32:756;1448057490.25;(0, 0);0;0;10:55:32:808;0;5;1.78064516129032;1;0.293255131964809;0;0;0;1;1;1;1;8;0;0;;0;0;();();(-2000.0, -2000.0);
10:55:32:824;10:55:32:756;1448057490.25;(0, 0);0;0;10:55:32:824;0;2;1.78064516129032;1;0.293255131964809;0;0;0;1;1;1;1;8;0;0;;0;0;();();(-2000.0, -2000.0);
10:55:32:842;10:55:32:756;1448057490.25;(0, 0);0;0;10:55:32:842;0;4;1.79032258064516;1;0.293255131964809;0;0;0;1;1;1;1;8;0;0;;0;0;();();(-2000.0, -2000.0);
10:55:32:858;10:55:32:756;1448057490.25;(0, 0);0;0;10:55:32:858;0;0;1.78064516129032;1;0.293255131964809;0;0;0;1;1;1;1;8;0;0;;0;0;();();(-2000.0, -2000.0);
10:55:32:874;10:55:32:756;1448057490.25;(0, 0);0;0;10:55:32:874;0;4;1.78064516129032;1;0.293255131964809;0;0;0;1;1;1;1;8;0;0;;0;0;();();(-2000.0, -2000.0);
10:55:32:908;10:55:32:888;1448057490.39;(0.27778327465057373, 0.11058188544379344);28.3772850037;0.650457532804;10:55:32:908;0;5;1.77741935483871;1;0.293255131964809;0;0;0;1;1;1;1;8;0;0;;0;0;();();(-2000.0, -2000.0);
10:55:32:924;10:55:32:888;1448057490.39;(0.27778327465057373, 0.11058188544379344);28.3772850037;0.650457532804;10:55:32:924;0;10;1.78064516129032;1;0.293255131964809;0;0;0;1;1;1;1;8;0;0;;0;0;();();(-2000.0, -2000.0);
10:55:32:940;10:55:32:888;1448057490.39;(0.27778327465057373, 0.11058188544379344);28.3772850037;0.650457532804;10:55:32:940;0;15;1.79032258064516;1;0.293255131964809;0;0;0;1;1;1;1;8;0;0;;0;0;();();(-2000.0, -2000.0);
10:55:32:958;10:55:32:956;1448057490.45;(0, 0);0;0;10:55:32:958;0;9;1.78064516129032;1;0.293255131964809;0;0;0;1;1;1;1;8;0;0;;0;0;();();(-2000.0, -2000.0);
10:55:32:974;10:55:32:956;1448057490.45;(0, 0);0;0;10:55:32:974;0;8;1.78064516129032;1;0.293255131964809;0;0;0;1;1;1;1;8;0;0;;0;0;();();(-2000.0, -2000.0);
10:55:33:008;10:55:32:956;1448057490.45;(0, 0);0;0;10:55:33:008;0;11;1.78064516129032;1;0.293255131964809;0;0;0;1;1;1;1;8;0;0;;0;0;();();(-2000.0, -2000.0);
10:55:33:024;10:55:33:020;1448057490.52;(0, 0);0;0;10:55:33:024;0;10;1.78064516129032;1;0.293255131964809;0;0;0;1;1;1;1;8;0;0;;0;0;();();(-2000.0, -2000.0);
10:55:33:040;10:55:33:020;1448057490.52;(0, 0);0;0;10:55:33:040;0;15;1.78064516129032;1;0.293255131964809;0;0;0;1;1;1;1;8;0;0;;0;0;();();(-2000.0, -2000.0);
10:55:33:057;10:55:33:020;1448057490.52;(0, 0);0;0;10:55:33:057;0;11;1.78064516129032;1;0.293255131964809;0;0;0;1;1;1;1;8;0;0;;0;0;();();(-2000.0, -2000.0);
10:55:33:074;10:55:33:020;1448057490.52;(0, 0);0;0;10:55:33:073;0;15;1.77741935483871;1;0.293255131964809;0;0;0;1;1;1;1;8;0;0;;0;0;();();(-2000.0, -2000.0);
10:55:33:107;10:55:33:020;1448057490.52;(0, 0);0;0;10:55:33:107;0;15;1.78064516129032;1;0.293255131964809;0;0;0;1;1;1;1;8;0;0;;0;0;();();(-2000.0, -2000.0);
10:55:33:123;10:55:33:020;1448057490.52;(0, 0);0;0;10:55:33:123;0;9;1.77741935483871;1;0.293255131964809;0;0;0;1;1;1;1;8;0;0;;0;0;();();(-2000.0, -2000.0);
10:55:33:140;10:55:33:020;1448057490.52;(0, 0);0;0;10:55:33:139;0;4;1.77741935483871;1;0.684261974584555;0;0;0;1;1;1;1;8;0;0;;0;0;();();(-2000.0, -2000.0);
10:55:33:157;10:55:33:152;1448057490.59;(0, 0);0;0;10:55:33:157;0;15;1.78064516129032;1;0.293255131964809;0;0;0;1;1;1;1;8;0;0;;0;0;();();(-2000.0, -2000.0);
10:55:33:190;10:55:33:152;1448057490.59;(0, 0);0;0;10:55:33:190;0;4;1.78064516129032;1;0.293255131964809;0;0;0;1;1;1;1;8;0;0;;0;0;();();(-2000.0, -2000.0);
10:55:33:206;10:55:33:152;1448057490.59;(0, 0);0;0;10:55:33:206;0;15;1.76129032258065;1;0.684261974584555;0;0;0;1;1;1;1;8;0;0;;0;0;();();(-2000.0, -2000.0);
10:55:33:223;10:55:33:220;1448057490.65;(0, 0);0;0;10:55:33:223;0;5;1.54838709677419;1;0.293255131964809;0;0;0;1;1;1;1;8;0;0;;0;0;();();(-2000.0, -2000.0);
10:55:33:239;10:55:33:220;1448057490.65;(0, 0);0;0;10:55:33:238;0;15;0.690322580645161;1;0.293255131964809;0;0;0;1;1;1;1;8;0;0;;0;0;();();(-2000.0, -2000.0);
10:55:33:256;10:55:33:220;1448057490.65;(0, 0);0;0;10:55:33:256;0;4;1.60645161290323;1;0.293255131964809;0;0;0;1;1;1;1;8;0;0;;0;0;();();(-2000.0, -2000.0);
10:55:33:289;10:55:33:289;1448057490.72;(0, 0);0;0;10:55:33:289;0;4;-1.5;1;0.293255131964809;0;0;0;1;1;1;1;8;0;0;;0;0;();();(-2000.0, -2000.0);
10:55:33:306;10:55:33:289;1448057490.72;(0, 0);0;0;10:55:33:306;0;10;-1.49032258064516;1;0.293255131964809;0;0;0;1;1;1;1;8;0;0;;0;0;();();(-2000.0, -2000.0);
10:55:33:323;10:55:33:289;1448057490.72;(0, 0);0;0;10:55:33:323;0;5;-0.754838709677419;1;0.293255131964809;0;0;0;1;1;1;1;8;0;0;;0;0;();();(-2000.0, -2000.0);
10:55:33:338;10:55:33:289;1448057490.72;(0, 0);0;0;10:55:33:338;0;10;0.483870967741936;1;0.293255131964809;0;0;0;1;1;1;1;8;0;0;;0;0;();();(-2000.0, -2000.0);
10:55:33:356;10:55:33:344;1448057490.79;(0, 0);0;0;10:55:33:355;0;4;-0.832258064516129;1;0.293255131964809;0;0;0;1;1;1;1;8;0;0;;0;0;();();(-2000.0, -2000.0);
