%Timestamp,timestamp_write;timestamp_gotpupil;eyetrackertime;norm_pos;diameter;confidence;timestamp_gotbitdata;CRC;SEQ;AnalogOutp1;AnalogOutp2;AnalogOutp3;AnalogOutp4;AnalogOutp5;AnalogOutp6;DigitalOutp1;DigitalOutp2;igitalOutp3;DigitalOutp4;nplanes;lastaction;lastactiondetails;lastactionairplanenumber;positivescore;negativescore;collidedairplanenumbers;targetpositions;collision_point
12:14:14:836;1448062212.22;(0.372310471534729, 0.6392592748006185);62.2346496582;1.0;;;;;;;;;;;;;;0;0;0;;0;0;();();(0.0, 0.0);
12:14:14:843;12:14:14:827;1448062212.3;(0.13157768845558165, 0.607374021742079);21.3168182373;0.817917318648;;;;;;;;;;;;;;0;0;0;;0;0;();();(-2000.0, -2000.0);
12:14:14:847;12:14:14:827;1448062212.3;(0.13157768845558165, 0.607374021742079);21.3168182373;0.817917318648;;;;;;;;;;;;;;0;0;0;;0;0;();();(-2000.0, -2000.0);
12:14:14:849;12:14:14:827;1448062212.3;(0.13157768845558165, 0.607374021742079);21.3168182373;0.817917318648;;;;;;;;;;;;;;0;0;0;;0;0;();();(-2000.0, -2000.0);
12:14:14:852;12:14:14:827;1448062212.3;(0.13157768845558165, 0.607374021742079);21.3168182373;0.817917318648;;;;;;;;;;;;;;0;0;0;;0;0;();();(-2000.0, -2000.0);
12:14:14:854;12:14:14:827;1448062212.3;(0.13157768845558165, 0.607374021742079);21.3168182373;0.817917318648;;;;;;;;;;;;;;0;0;0;;0;0;();();(-2000.0, -2000.0);
12:14:14:857;12:14:14:827;1448062212.3;(0.13157768845558165, 0.607374021742079);21.3168182373;0.817917318648;;;;;;;;;;;;;;0;0;0;;0;0;();();(-2000.0, -2000.0);
12:14:14:859;12:14:14:827;1448062212.3;(0.13157768845558165, 0.607374021742079);21.3168182373;0.817917318648;;;;;;;;;;;;;;0;0;0;;0;0;();();(-2000.0, -2000.0);
12:14:14:862;12:14:14:827;1448062212.3;(0.13157768845558165, 0.607374021742079);21.3168182373;0.817917318648;;;;;;;;;;;;;;0;0;0;;0;0;();();(-2000.0, -2000.0);
12:14:14:864;12:14:14:827;1448062212.3;(0.13157768845558165, 0.607374021742079);21.3168182373;0.817917318648;;;;;;;;;;;;;;0;0;0;;0;0;();();(-2000.0, -2000.0);
12:14:14:866;12:14:14:827;1448062212.3;(0.13157768845558165, 0.607374021742079);21.3168182373;0.817917318648;;;;;;;;;;;;;;0;0;0;;0;0;();();(-2000.0, -2000.0);
12:14:14:869;12:14:14:827;1448062212.3;(0.13157768845558165, 0.607374021742079);21.3168182373;0.817917318648;;;;;;;;;;;;;;0;0;0;;0;0;();();(-2000.0, -2000.0);
12:14:14:871;12:14:14:827;1448062212.3;(0.13157768845558165, 0.607374021742079);21.3168182373;0.817917318648;;;;;;;;;;;;;;0;0;0;;0;0;();();(-2000.0, -2000.0);
12:14:14:873;12:14:14:827;1448062212.3;(0.13157768845558165, 0.607374021742079);21.3168182373;0.817917318648;;;;;;;;;;;;;;0;0;0;;0;0;();();(-2000.0, -2000.0);
12:14:14:874;12:14:14:827;1448062212.3;(0.13157768845558165, 0.607374021742079);21.3168182373;0.817917318648;;;;;;;;;;;;;;0;0;0;;0;0;();();(-2000.0, -2000.0);
12:14:14:875;12:14:14:827;1448062212.3;(0.13157768845558165, 0.607374021742079);21.3168182373;0.817917318648;;;;;;;;;;;;;;0;0;0;;0;0;();();(-2000.0, -2000.0);
12:14:14:877;12:14:14:827;1448062212.3;(0.13157768845558165, 0.607374021742079);21.3168182373;0.817917318648;;;;;;;;;;;;;;0;0;0;;0;0;();();(-2000.0, -2000.0);
12:14:14:878;12:14:14:827;1448062212.3;(0.13157768845558165, 0.607374021742079);21.3168182373;0.817917318648;;;;;;;;;;;;;;0;0;0;;0;0;();();(-2000.0, -2000.0);
12:14:14:879;12:14:14:827;1448062212.3;(0.13157768845558165, 0.607374021742079);21.3168182373;0.817917318648;;;;;;;;;;;;;;0;0;0;;0;0;();();(-2000.0, -2000.0);
12:14:14:892;12:14:14:891;1448062212.32;(0.3649804353713989, 0.6401860343085395);64.6008224487;0.993541838465;;;;;;;;;;;;;;0;0;0;;0;0;();();(-2000.0, -2000.0);
12:14:14:924;12:14:14:891;1448062212.32;(0.3649804353713989, 0.6401860343085395);64.6008224487;0.993541838465;;;;;;;;;;;;;;0;0;0;;0;0;();();(-2000.0, -2000.0);
12:14:14:941;12:14:14:891;1448062212.32;(0.3649804353713989, 0.6401860343085395);64.6008224487;0.993541838465;;;;;;;;;;;;;;0;0;0;;0;0;();();(-2000.0, -2000.0);
12:14:14:957;12:14:14:955;1448062212.36;(0, 0);0;0;;;;;;;;;;;;;;0;0;0;;0;0;();();(-2000.0, -2000.0);
12:14:14:974;12:14:14:955;1448062212.36;(0, 0);0;0;;;;;;;;;;;;;;0;0;0;;0;0;();();(-2000.0, -2000.0);
12:14:17:180;12:14:17:147;1448062214.59;(0.40234100818634033, 0.6795810699462891);59.2817344666;0.998364710817;;;;;;;;;;;;;;0;0;0;;0;0;();();(-2000.0, -2000.0);
12:14:17:183;12:14:17:147;1448062214.59;(0.40234100818634033, 0.6795810699462891);59.2817344666;0.998364710817;;;;;;;;;;;;;;0;0;0;;0;0;();();(-2000.0, -2000.0);
12:14:17:185;12:14:17:147;1448062214.59;(0.40234100818634033, 0.6795810699462891);59.2817344666;0.998364710817;;;;;;;;;;;;;;0;0;0;;0;0;();();(-2000.0, -2000.0);
12:14:17:188;12:14:17:147;1448062214.59;(0.40234100818634033, 0.6795810699462891);59.2817344666;0.998364710817;;;;;;;;;;;;;;0;0;0;;0;0;();();(-2000.0, -2000.0);
12:14:17:190;12:14:17:147;1448062214.59;(0.40234100818634033, 0.6795810699462891);59.2817344666;0.998364710817;;;;;;;;;;;;;;0;0;0;;0;0;();();(-2000.0, -2000.0);
12:14:17:193;12:14:17:147;1448062214.59;(0.40234100818634033, 0.6795810699462891);59.2817344666;0.998364710817;;;;;;;;;;;;;;0;0;0;;0;0;();();(-2000.0, -2000.0);
12:14:17:195;12:14:17:147;1448062214.59;(0.40234100818634033, 0.6795810699462891);59.2817344666;0.998364710817;;;;;;;;;;;;;;0;0;0;;0;0;();();(-2000.0, -2000.0);
12:14:17:197;12:14:17:147;1448062214.59;(0.40234100818634033, 0.6795810699462891);59.2817344666;0.998364710817;;;;;;;;;;;;;;0;0;0;;0;0;();();(-2000.0, -2000.0);
12:14:17:200;12:14:17:147;1448062214.59;(0.40234100818634033, 0.6795810699462891);59.2817344666;0.998364710817;;;;;;;;;;;;;;0;0;0;;0;0;();();(-2000.0, -2000.0);
12:14:17:202;12:14:17:147;1448062214.59;(0.40234100818634033, 0.6795810699462891);59.2817344666;0.998364710817;;;;;;;;;;;;;;0;0;0;;0;0;();();(-2000.0, -2000.0);
12:14:17:205;12:14:17:147;1448062214.59;(0.40234100818634033, 0.6795810699462891);59.2817344666;0.998364710817;;;;;;;;;;;;;;0;0;0;;0;0;();();(-2000.0, -2000.0);
12:14:17:207;12:14:17:147;1448062214.59;(0.40234100818634033, 0.6795810699462891);59.2817344666;0.998364710817;;;;;;;;;;;;;;0;0;0;;0;0;();();(-2000.0, -2000.0);
12:14:17:209;12:14:17:147;1448062214.59;(0.40234100818634033, 0.6795810699462891);59.2817344666;0.998364710817;;;;;;;;;;;;;;0;0;0;;0;0;();();(-2000.0, -2000.0);
12:14:17:212;12:14:17:212;1448062214.65;(0.4035235643386841, 0.683810657925076);60.7754859924;0.965369265968;;;;;;;;;;;;;;0;0;0;;0;0;();();(-2000.0, -2000.0);
12:14:17:213;12:14:17:212;1448062214.65;(0.4035235643386841, 0.683810657925076);60.7754859924;0.965369265968;;;;;;;;;;;;;;0;0;0;;0;0;();();(-2000.0, -2000.0);
12:14:17:214;12:14:17:212;1448062214.65;(0.4035235643386841, 0.683810657925076);60.7754859924;0.965369265968;;;;;;;;;;;;;;0;0;0;;0;0;();();(-2000.0, -2000.0);
12:14:17:216;12:14:17:212;1448062214.65;(0.4035235643386841, 0.683810657925076);60.7754859924;0.965369265968;;;;;;;;;;;;;;0;0;0;;0;0;();();(-2000.0, -2000.0);
12:14:17:217;12:14:17:212;1448062214.65;(0.4035235643386841, 0.683810657925076);60.7754859924;0.965369265968;;;;;;;;;;;;;;0;0;0;;0;0;();();(-2000.0, -2000.0);
12:14:17:227;12:14:17:212;1448062214.65;(0.4035235643386841, 0.683810657925076);60.7754859924;0.965369265968;;;;;;;;;;;;;;0;0;0;;0;0;();();(-2000.0, -2000.0);
12:14:17:260;12:14:17:212;1448062214.65;(0.4035235643386841, 0.683810657925076);60.7754859924;0.965369265968;;;;;;;;;;;;;;0;0;0;;0;0;();();(-2000.0, -2000.0);
12:14:17:276;12:14:17:212;1448062214.65;(0.4035235643386841, 0.683810657925076);60.7754859924;0.965369265968;;;;;;;;;;;;;;0;0;0;;0;0;();();(-2000.0, -2000.0);
12:14:17:294;12:14:17:280;1448062214.72;(0.4055522918701172, 0.6860651863945855);60.9431152344;1.0;;;;;;;;;;;;;;0;0;0;;0;0;();();(-2000.0, -2000.0);
12:14:17:310;12:14:17:280;1448062214.72;(0.4055522918701172, 0.6860651863945855);60.9431152344;1.0;;;;;;;;;;;;;;0;0;0;;0;0;();();(-2000.0, -2000.0);
12:14:17:326;12:14:17:280;1448062214.72;(0.4055522918701172, 0.6860651863945855);60.9431152344;1.0;;;;;;;;;;;;;;0;0;0;;0;0;();();(-2000.0, -2000.0);
12:14:17:360;12:14:17:347;1448062214.82;(0.406503701210022, 0.687866571214464);61.3042411804;1.0;;;;;;;;;;;;;;0;0;0;;0;0;();();(-2000.0, -2000.0);
12:14:17:376;12:14:17:347;1448062214.82;(0.406503701210022, 0.687866571214464);61.3042411804;1.0;;;;;;;;;;;;;;0;0;0;;0;0;();();(-2000.0, -2000.0);
12:14:17:393;12:14:17:347;1448062214.82;(0.406503701210022, 0.687866571214464);61.3042411804;1.0;;;;;;;;;;;;;;0;0;0;;0;0;();();(-2000.0, -2000.0);
12:14:17:409;12:14:17:347;1448062214.82;(0.406503701210022, 0.687866571214464);61.3042411804;1.0;;;;;;;;;;;;;;0;0;0;;0;0;();();(-2000.0, -2000.0);
12:14:17:427;12:14:17:411;1448062214.85;(0.40680131912231443, 0.6878676308525933);61.4492111206;1.0;;;;;;;;;;;;;;0;0;0;;0;0;();();(-2000.0, -2000.0);
12:14:17:460;12:14:17:411;1448062214.85;(0.40680131912231443, 0.6878676308525933);61.4492111206;1.0;;;;;;;;;;;;;;0;0;0;;0;0;();();(-2000.0, -2000.0);
12:14:17:477;12:14:17:411;1448062214.85;(0.40680131912231443, 0.6878676308525933);61.4492111206;1.0;;;;;;;;;;;;;;0;0;0;;0;0;();();(-2000.0, -2000.0);
12:14:17:494;12:14:17:482;1448062214.92;(0.40738365650177, 0.6881115595499674);62.8795967102;1.0;;;;;;;;;;;;;;0;0;0;;0;0;();();(-2000.0, -2000.0);
12:14:17:510;12:14:17:482;1448062214.92;(0.40738365650177, 0.6881115595499674);62.8795967102;1.0;;;;;;;;;;;;;;0;0;0;;0;0;();();(-2000.0, -2000.0);
12:14:17:527;12:14:17:482;1448062214.92;(0.40738365650177, 0.6881115595499674);62.8795967102;1.0;;;;;;;;;;;;;;0;0;0;;0;0;();();(-2000.0, -2000.0);
12:14:17:560;12:14:17:543;1448062214.99;(0.4340003490447998, 0.6737771352132161);63.2261505127;1.0;;;;;;;;;;;;;;0;0;0;;0;0;();();(-2000.0, -2000.0);
12:14:17:577;12:14:17:543;1448062214.99;(0.4340003490447998, 0.6737771352132161);63.2261505127;1.0;;;;;;;;;;;;;;0;0;0;;0;0;();();(-2000.0, -2000.0);
12:14:17:593;12:14:17:543;1448062214.99;(0.4340003490447998, 0.6737771352132161);63.2261505127;1.0;;;;;;;;;;;;;;0;0;0;;0;0;();();(-2000.0, -2000.0);
12:14:17:611;12:14:17:543;1448062214.99;(0.4340003490447998, 0.6737771352132161);63.2261505127;1.0;;;;;;;;;;;;;;0;0;0;;0;0;();();(-2000.0, -2000.0);
12:14:17:626;12:14:17:615;1448062215.05;(0.43486995697021485, 0.6749640782674153);62.9773635864;1.0;;;;;;;;;;;;;;0;0;0;;0;0;();();(-2000.0, -2000.0);
12:14:17:660;12:14:17:615;1448062215.05;(0.43486995697021485, 0.6749640782674153);62.9773635864;1.0;;;;;;;;;;;;;;0;0;0;;0;0;();();(-2000.0, -2000.0);
12:14:17:677;12:14:17:615;1448062215.05;(0.43486995697021485, 0.6749640782674153);62.9773635864;1.0;;;;;;;;;;;;;;0;0;0;;0;0;();();(-2000.0, -2000.0);
12:14:17:694;12:14:17:680;1448062215.15;(0.4360135555267334, 0.6765842013888889);62.7978019714;1.0;;;;;;;;;;;;;;0;0;0;;0;0;();();(-2000.0, -2000.0);
12:14:17:710;12:14:17:680;1448062215.15;(0.4360135555267334, 0.6765842013888889);62.7978019714;1.0;;;;;;;;;;;;;;0;0;0;;0;0;();();(-2000.0, -2000.0);
12:14:17:727;12:14:17:680;1448062215.15;(0.4360135555267334, 0.6765842013888889);62.7978019714;1.0;;;;;;;;;;;;;;0;0;0;;0;0;();();(-2000.0, -2000.0);
12:14:17:761;12:14:17:747;1448062215.22;(0.4364620208740234, 0.6770548926459419);62.3657951355;1.0;;;;;;;;;;;;;;0;0;0;;0;0;();();(-2000.0, -2000.0);
12:14:17:777;12:14:17:747;1448062215.22;(0.4364620208740234, 0.6770548926459419);62.3657951355;1.0;;;;;;;;;;;;;;0;0;0;;0;0;();();(-2000.0, -2000.0);
12:14:17:794;12:14:17:747;1448062215.22;(0.4364620208740234, 0.6770548926459419);62.3657951355;1.0;;;;;;;;;;;;;;0;0;0;;0;0;();();(-2000.0, -2000.0);
12:14:17:810;12:14:17:747;1448062215.22;(0.4364620208740234, 0.6770548926459419);62.3657951355;1.0;;;;;;;;;;;;;;0;0;0;;0;0;();();(-2000.0, -2000.0);
12:14:17:827;12:14:17:811;1448062215.29;(0.4367701053619385, 0.6779174380832248);61.264881134;1.0;;;;;;;;;;;;;;0;0;0;;0;0;();();(-2000.0, -2000.0);
12:14:17:861;12:14:17:811;1448062215.29;(0.4367701053619385, 0.6779174380832248);61.264881134;1.0;;;;;;;;;;;;;;0;0;0;;0;0;();();(-2000.0, -2000.0);
12:14:18:402;12:14:18:340;1448062215.79;(0.35343008041381835, 0.6747563468085396);61.1904754639;1.0;12:14:18:400;0;10;1.39032258064516;1;0;0;0;0;1;1;1;1;0;0;0;;0;0;();();(-2000.0, -2000.0);
12:14:18:405;12:14:18:340;1448062215.79;(0.35343008041381835, 0.6747563468085396);61.1904754639;1.0;12:14:18:405;0;10;1.39032258064516;1;0;0;0;0;1;1;1;1;0;0;0;;0;0;();();(-2000.0, -2000.0);
12:14:18:408;12:14:18:340;1448062215.79;(0.35343008041381835, 0.6747563468085396);61.1904754639;1.0;12:14:18:408;0;10;1.39032258064516;1;0;0;0;0;1;1;1;1;0;0;0;;0;0;();();(-2000.0, -2000.0);
12:14:18:410;12:14:18:408;1448062215.85;(0.35958304405212405, 0.6779825422498915);61.5455131531;1.0;12:14:18:410;0;4;1.21290322580645;1;0;0;0;0;1;1;1;1;0;0;0;;0;0;();();(-2000.0, -2000.0);
12:14:18:413;12:14:18:408;1448062215.85;(0.35958304405212405, 0.6779825422498915);61.5455131531;1.0;12:14:18:413;0;4;1.21290322580645;1;0;0;0;0;1;1;1;1;0;0;0;;0;0;();();(-2000.0, -2000.0);
12:14:18:416;12:14:18:408;1448062215.85;(0.35958304405212405, 0.6779825422498915);61.5455131531;1.0;12:14:18:416;0;4;1.21290322580645;1;0;0;0;0;1;1;1;1;0;0;0;;0;0;();();(-2000.0, -2000.0);
12:14:18:419;12:14:18:408;1448062215.85;(0.35958304405212405, 0.6779825422498915);61.5455131531;1.0;12:14:18:419;0;15;1.39354838709677;1;0;0;0;0;1;1;1;1;0;0;0;;0;0;();();(-2000.0, -2000.0);
12:14:18:422;12:14:18:408;1448062215.85;(0.35958304405212405, 0.6779825422498915);61.5455131531;1.0;12:14:18:422;0;15;1.39354838709677;1;0;0;0;0;1;1;1;1;0;0;0;;0;0;();();(-2000.0, -2000.0);
12:14:18:425;12:14:18:408;1448062215.85;(0.35958304405212405, 0.6779825422498915);61.5455131531;1.0;12:14:18:425;0;15;1.39354838709677;1;0;0;0;0;1;1;1;1;0;0;0;;0;0;();();(-2000.0, -2000.0);
12:14:18:427;12:14:18:408;1448062215.85;(0.35958304405212405, 0.6779825422498915);61.5455131531;1.0;12:14:18:427;0;9;0.770967741935484;1;0;0;0;0;1;1;1;1;0;0;0;;0;0;();();(-2000.0, -2000.0);
12:14:18:430;12:14:18:408;1448062215.85;(0.35958304405212405, 0.6779825422498915);61.5455131531;1.0;12:14:18:430;0;9;0.770967741935484;1;0;0;0;0;1;1;1;1;0;0;0;;0;0;();();(-2000.0, -2000.0);
12:14:18:433;12:14:18:408;1448062215.85;(0.35958304405212405, 0.6779825422498915);61.5455131531;1.0;12:14:18:433;0;9;0.770967741935484;1;0;0;0;0;1;1;1;1;0;0;0;;0;0;();();(-2000.0, -2000.0);
12:14:18:435;12:14:18:408;1448062215.85;(0.35958304405212405, 0.6779825422498915);61.5455131531;1.0;12:14:18:435;0;9;0.770967741935484;1;0;0;0;0;1;1;1;1;0;0;0;;0;0;();();(-2000.0, -2000.0);
12:14:18:438;12:14:18:408;1448062215.85;(0.35958304405212405, 0.6779825422498915);61.5455131531;1.0;12:14:18:438;0;9;0.770967741935484;1;0;0;0;0;1;1;1;1;0;0;0;;0;0;();();(-2000.0, -2000.0);
12:14:18:441;12:14:18:408;1448062215.85;(0.35958304405212405, 0.6779825422498915);61.5455131531;1.0;12:14:18:441;0;9;0.770967741935484;1;0;0;0;0;1;1;1;1;0;0;0;;0;0;();();(-2000.0, -2000.0);
12:14:18:442;12:14:18:408;1448062215.85;(0.35958304405212405, 0.6779825422498915);61.5455131531;1.0;12:14:18:442;0;9;0.770967741935484;1;0;0;0;0;1;1;1;1;0;0;0;;0;0;();();(-2000.0, -2000.0);
12:14:18:444;12:14:18:408;1448062215.85;(0.35958304405212405, 0.6779825422498915);61.5455131531;1.0;12:14:18:444;0;9;0.770967741935484;1;0;0;0;0;1;1;1;1;0;0;0;;0;0;();();(-2000.0, -2000.0);
12:14:18:445;12:14:18:408;1448062215.85;(0.35958304405212405, 0.6779825422498915);61.5455131531;1.0;12:14:18:445;0;4;0.293548387096774;1;0;0;0;0;1;1;1;1;0;0;0;;0;0;();();(-2000.0, -2000.0);
12:14:18:446;12:14:18:408;1448062215.85;(0.35958304405212405, 0.6779825422498915);61.5455131531;1.0;12:14:18:446;0;4;0.293548387096774;1;0;0;0;0;1;1;1;1;0;0;0;;0;0;();();(-2000.0, -2000.0);
12:14:18:461;12:14:18:408;1448062215.85;(0.35958304405212405, 0.6779825422498915);61.5455131531;1.0;12:14:18:461;0;4;-0.238709677419355;1;0;0;0;0;1;1;1;1;0;0;0;;0;0;();();(-2000.0, -2000.0);
12:14:18:477;12:14:18:475;1448062215.93;(0.3655365228652954, 0.6811460918850369);61.7365036011;1.0;12:14:18:477;0;5;0.483870967741936;1;0;0;0;0;1;1;1;1;0;0;0;;0;0;();();(-2000.0, -2000.0);
12:14:18:495;12:14:18:475;1448062215.93;(0.3655365228652954, 0.6811460918850369);61.7365036011;1.0;12:14:18:495;0;10;0.316129032258064;1;0;0;0;0;1;1;1;1;0;0;0;;0;0;();();(-2000.0, -2000.0);
12:14:18:511;12:14:18:475;1448062215.93;(0.3655365228652954, 0.6811460918850369);61.7365036011;1.0;12:14:18:511;0;4;0.332258064516129;1;0;0;0;0;1;1;1;1;0;0;0;;0;0;();();(-2000.0, -2000.0);
12:14:18:545;12:14:18:539;1448062215.99;(0.3699831247329712, 0.6824919170803494);62.0875816345;1.0;12:14:18:545;0;15;0.380645161290323;1;0;0;0;0;1;1;1;1;0;0;0;;0;0;();();(-2000.0, -2000.0);
12:14:18:562;12:14:18:539;1448062215.99;(0.3699831247329712, 0.6824919170803494);62.0875816345;1.0;12:14:18:562;0;11;0.2;1;0;0;0;0;1;1;1;1;0;0;0;;0;0;();();(-2000.0, -2000.0);
12:14:18:578;12:14:18:539;1448062215.99;(0.3699831247329712, 0.6824919170803494);62.0875816345;1.0;12:14:18:578;0;5;0.0225806451612902;1;0;0;0;0;1;1;1;1;0;0;0;;0;0;();();(-2000.0, -2000.0);
12:14:18:594;12:14:18:539;1448062215.99;(0.3699831247329712, 0.6824919170803494);62.0875816345;1.0;12:14:18:594;0;9;-0.232258064516129;1;0;0;0;0;1;1;1;1;0;0;0;;0;0;();();(-2000.0, -2000.0);
12:14:18:611;12:14:18:608;1448062216.05;(0.37282190322875974, 0.6835777918497721);62.5892677307;0.905451409102;12:14:18:611;0;4;-0.861290322580645;1;0;0;0;0;1;1;1;1;0;0;0;;0;0;();();(-2000.0, -2000.0);
12:14:18:645;12:14:18:608;1448062216.05;(0.37282190322875974, 0.6835777918497721);62.5892677307;0.905451409102;12:14:18:645;0;15;0.0483870967741935;1;0;0;0;0;1;1;1;1;0;0;0;;0;0;();();(-2000.0, -2000.0);
12:14:18:662;12:14:18:608;1448062216.05;(0.37282190322875974, 0.6835777918497721);62.5892677307;0.905451409102;12:14:18:662;0;10;-1.5;1;0;0;0;0;1;1;1;1;0;0;0;;0;0;();();(-2000.0, -2000.0);
12:14:18:679;12:14:18:671;1448062216.12;(0.3771129369735718, 0.6839185078938802);62.6730461121;1.0;12:14:18:679;0;15;0.625806451612903;1;0;0;0;0;1;1;1;1;0;0;0;;0;0;();();(-2000.0, -2000.0);
12:14:18:694;12:14:18:671;1448062216.12;(0.3771129369735718, 0.6839185078938802);62.6730461121;1.0;12:14:18:694;0;4;-0.364516129032258;1;0;0;0;0;1;1;1;1;0;0;0;;0;0;();();(-2000.0, -2000.0);
12:14:18:711;12:14:18:671;1448062216.12;(0.3771129369735718, 0.6839185078938802);62.6730461121;1.0;12:14:18:711;0;0;-1.5;1;0;0;0;0;1;1;1;1;0;0;0;;0;0;();();(-2000.0, -2000.0);
12:14:18:745;12:14:18:741;1448062216.19;(0.37982730865478515, 0.6840032789442274);63.8669815063;0.868650364108;12:14:18:745;0;15;-1.29677419354839;1;0;0;0;0;1;1;1;1;0;0;0;;0;0;();();(-2000.0, -2000.0);
12:14:18:761;12:14:18:741;1448062216.19;(0.37982730865478515, 0.6840032789442274);63.8669815063;0.868650364108;12:14:18:761;0;4;-1.04838709677419;1;0;0;0;0;1;1;1;1;0;0;0;;0;0;();();(-2000.0, -2000.0);
12:14:18:779;12:14:18:741;1448062216.19;(0.37982730865478515, 0.6840032789442274);63.8669815063;0.868650364108;12:14:18:779;0;10;-0.651612903225806;1;0;0;0;0;1;1;1;1;0;0;0;;0;0;();();(-2000.0, -2000.0);
12:14:18:794;12:14:18:741;1448062216.19;(0.37982730865478515, 0.6840032789442274);63.8669815063;0.868650364108;12:14:18:794;0;5;-0.493548387096774;1;0;0;0;0;1;1;1;1;0;0;0;;0;0;();();(-2000.0, -2000.0);
12:14:18:812;12:14:18:808;1448062216.26;(0.3859936475753784, 0.6834540473090278);62.1709594727;1.0;12:14:18:812;0;15;-0.490322580645161;1;0;0;0;0;1;1;1;1;0;0;0;;0;0;();();(-2000.0, -2000.0);
12:14:18:845;12:14:18:808;1448062216.26;(0.3859936475753784, 0.6834540473090278);62.1709594727;1.0;12:14:18:845;0;15;-0.354838709677419;1;0;0;0;0;1;1;1;1;0;0;0;;0;0;();();(-2000.0, -2000.0);
12:14:18:861;12:14:18:808;1448062216.26;(0.3859936475753784, 0.6834540473090278);62.1709594727;1.0;12:14:18:861;0;4;-0.238709677419355;1;0;0;0;0;1;1;1;1;0;0;0;;0;0;();();(-2000.0, -2000.0);
12:14:18:879;12:14:18:872;1448062216.32;(0.3594919443130493, 0.6788497924804687);63.6276397705;1.0;12:14:18:879;0;5;-0.480645161290323;1;0;0;0;0;1;1;1;1;0;0;0;;0;0;();();(-2000.0, -2000.0);
12:14:18:895;12:14:18:872;1448062216.32;(0.3594919443130493, 0.6788497924804687);63.6276397705;1.0;12:14:18:895;0;5;-0.190322580645161;1;0;0;0;0;1;1;1;1;0;0;0;;0;0;();();(-2000.0, -2000.0);
12:14:18:912;12:14:18:872;1448062216.32;(0.3594919443130493, 0.6788497924804687);63.6276397705;1.0;12:14:18:912;0;9;-0.261290322580645;1;0;0;0;0;1;1;1;1;0;0;0;;0;0;();();(-2000.0, -2000.0);
12:14:18:945;12:14:18:939;1448062216.39;(0.3533355474472046, 0.6779485914442274);61.1747817993;1.0;12:14:18:945;0;9;0.380645161290323;1;0;0;0;0;1;1;1;1;0;0;0;;0;0;();();(-2000.0, -2000.0);
12:14:18:961;12:14:18:939;1448062216.39;(0.3533355474472046, 0.6779485914442274);61.1747817993;1.0;12:14:18:961;0;5;0.351612903225806;1;0;0;0;0;1;1;1;1;0;0;0;;0;0;();();(-2000.0, -2000.0);
12:14:18:979;12:14:18:939;1448062216.39;(0.3533355474472046, 0.6779485914442274);61.1747817993;1.0;12:14:18:979;0;15;0.641935483870967;1;0;0;0;0;1;1;1;1;0;0;0;;0;0;();();(-2000.0, -2000.0);
12:14:18:995;12:14:18:939;1448062216.39;(0.3533355474472046, 0.6779485914442274);61.1747817993;1.0;12:14:18:995;0;15;0.641935483870967;1;0;0;0;0;1;1;1;1;0;0;0;;0;0;();();(-2000.0, -2000.0);
12:14:19:012;12:14:19:003;1448062216.42;(0.35566837787628175, 0.678445922003852);61.1959533691;1.0;12:14:19:012;0;15;0.396774193548387;1;0;0;0;0;1;1;1;1;0;0;0;;0;0;();();(-2000.0, -2000.0);
12:14:19:045;12:14:19:003;1448062216.42;(0.35566837787628175, 0.678445922003852);61.1959533691;1.0;12:14:19:045;0;10;0.719354838709677;1;0;0;0;0;1;1;1;1;0;0;0;;0;0;();();(-2000.0, -2000.0);
12:14:19:062;12:14:19:003;1448062216.42;(0.35566837787628175, 0.678445922003852);61.1959533691;1.0;12:14:19:062;0;5;1.26129032258065;1;0;0;0;0;1;1;1;1;0;0;0;;0;0;();();(-2000.0, -2000.0);
12:14:19:078;12:14:19:075;1448062216.52;(0.13299550414085387, 0.6358890109592014);20.4343166351;0.935501680538;12:14:19:078;0;9;1.76129032258065;1;0;0;0;0;1;1;1;1;0;0;0;;0;0;();();(-2000.0, -2000.0);
12:14:19:095;12:14:19:075;1448062216.52;(0.13299550414085387, 0.6358890109592014);20.4343166351;0.935501680538;12:14:19:095;0;15;1.77741935483871;1;0;0;0;0;1;1;1;1;0;0;0;;0;0;();();(-2000.0, -2000.0);
12:14:19:112;12:14:19:075;1448062216.52;(0.13299550414085387, 0.6358890109592014);20.4343166351;0.935501680538;12:14:19:112;0;5;1.78064516129032;1;0;0;0;0;1;1;1;1;0;0;0;;0;0;();();(-2000.0, -2000.0);
12:14:19:146;12:14:19:140;1448062216.59;(0.3708853006362915, 0.6804918713039823);59.0845031738;1.0;12:14:19:146;0;4;1.78064516129032;1;0;0;0;0;1;1;1;1;0;0;0;;0;0;();();(-2000.0, -2000.0);
12:14:19:161;12:14:19:140;1448062216.59;(0.3708853006362915, 0.6804918713039823);59.0845031738;1.0;12:14:19:161;0;15;1.76129032258065;1;0;0;0;0;1;1;1;1;0;0;0;;0;0;();();(-2000.0, -2000.0);
12:14:19:179;12:14:19:140;1448062216.59;(0.3708853006362915, 0.6804918713039823);59.0845031738;1.0;12:14:19:179;0;5;1.77741935483871;1;0;0;0;0;1;1;1;1;0;0;0;;0;0;();();(-2000.0, -2000.0);
12:14:19:195;12:14:19:140;1448062216.59;(0.3708853006362915, 0.6804918713039823);59.0845031738;1.0;12:14:19:195;0;15;1.77741935483871;1;0;0;0;0;1;1;1;1;0;0;0;;0;0;();();(-2000.0, -2000.0);
12:14:19:212;12:14:19:140;1448062216.59;(0.3708853006362915, 0.6804918713039823);59.0845031738;1.0;12:14:19:212;0;10;1.77741935483871;1;0;0;0;0;1;1;1;1;0;0;0;;0;0;();();(-2000.0, -2000.0);
12:14:19:245;12:14:19:212;1448062216.62;(0.3753478765487671, 0.6803184085422092);57.3773231506;1.0;12:14:19:245;0;4;1.78064516129032;1;0;0;0;0;1;1;1;1;0;0;0;;0;0;();();(-2000.0, -2000.0);
12:14:19:262;12:14:19:212;1448062216.62;(0.3753478765487671, 0.6803184085422092);57.3773231506;1.0;12:14:19:262;0;10;1.77741935483871;1;0;0;0;0;1;1;1;1;0;0;0;;0;0;();();(-2000.0, -2000.0);
12:14:19:278;12:14:19:271;1448062216.72;(0.3330493927001953, 0.6726327472262912);57.8720359802;1.0;12:14:19:278;0;5;1.78064516129032;1;0;0;0;0;1;1;1;1;0;0;0;;0;0;();();(-2000.0, -2000.0);
12:14:19:295;12:14:19:271;1448062216.72;(0.3330493927001953, 0.6726327472262912);57.8720359802;1.0;12:14:19:295;0;15;1.78064516129032;1;0;0;0;0;1;1;1;1;0;0;0;;0;0;();();(-2000.0, -2000.0);
12:14:19:312;12:14:19:271;1448062216.72;(0.3330493927001953, 0.6726327472262912);57.8720359802;1.0;12:14:19:312;0;4;1.78064516129032;1;0;0;0;0;1;1;1;1;0;0;0;;0;0;();();(-2000.0, -2000.0);
12:14:19:345;12:14:19:335;1448062216.79;(0.31406054496765134, 0.6681857003106011);55.8997764587;1.0;12:14:19:345;0;4;-1.5;1;0;0;0;0;1;1;1;1;0;0;0;;0;0;();();(-2000.0, -2000.0);
12:14:19:362;12:14:19:335;1448062216.79;(0.31406054496765134, 0.6681857003106011);55.8997764587;1.0;12:14:19:362;0;10;-1.5;1;0;0;0;0;1;1;1;1;0;0;0;;0;0;();();(-2000.0, -2000.0);
12:14:19:379;12:14:19:335;1448062216.79;(0.31406054496765134, 0.6681857003106011);55.8997764587;1.0;12:14:19:379;0;15;-1.5;1;0;0;0;0;1;1;1;1;0;0;0;;0;0;();();(-2000.0, -2000.0);
12:14:19:395;12:14:19:335;1448062216.79;(0.31406054496765134, 0.6681857003106011);55.8997764587;1.0;12:14:19:395;0;9;-1.5;1;0;0;0;0;1;1;1;1;0;0;0;;0;0;();();(-2000.0, -2000.0);
12:14:19:412;12:14:19:403;1448062216.82;(0.3235745429992676, 0.6717628055148654);54.6935348511;1.0;12:14:19:412;0;4;-1.5;1;0;0;0;0;1;1;1;1;0;0;0;;0;0;();();(-2000.0, -2000.0);
12:14:19:445;12:14:19:403;1448062216.82;(0.3235745429992676, 0.6717628055148654);54.6935348511;1.0;12:14:19:445;0;15;-1.5;1;0;0;0;0;1;1;1;1;0;0;0;;0;0;();();(-2000.0, -2000.0);
12:14:19:462;12:14:19:403;1448062216.82;(0.3235745429992676, 0.6717628055148654);54.6935348511;1.0;12:14:19:462;0;4;-1.5;1;0;0;0;0;1;1;1;1;0;0;0;;0;0;();();(-2000.0, -2000.0);
12:14:19:479;12:14:19:471;1448062216.89;(0.3443173885345459, 0.6761498133341471);53.5711860657;1.0;12:14:19:479;0;15;-1.31935483870968;1;0;0;0;0;1;1;1;1;0;0;0;;0;0;();();(-2000.0, -2000.0);
12:14:19:495;12:14:19:471;1448062216.89;(0.3443173885345459, 0.6761498133341471);53.5711860657;1.0;12:14:19:495;0;10;1.78064516129032;1;0;0;0;0;1;1;1;1;0;0;0;;0;0;();();(-2000.0, -2000.0);
12:14:19:512;12:14:19:471;1448062216.89;(0.3443173885345459, 0.6761498133341471);53.5711860657;1.0;12:14:19:512;0;0;1.78064516129032;1;0;0;0;0;1;1;1;1;0;0;0;;0;0;();();(-2000.0, -2000.0);
12:14:19:545;12:14:19:535;1448062216.99;(0.12076573371887207, 0.7035158157348633);41.1726150513;0.651009383606;12:14:19:545;0;15;1.78064516129032;1;0;0;0;0;1;1;1;1;0;0;0;;0;0;();();(-2000.0, -2000.0);
12:14:19:562;12:14:19:535;1448062216.99;(0.12076573371887207, 0.7035158157348633);41.1726150513;0.651009383606;12:14:19:562;0;4;1.78064516129032;1;0;0;0;0;1;1;1;1;0;0;0;;0;0;();();(-2000.0, -2000.0);
12:14:19:578;12:14:19:535;1448062216.99;(0.12076573371887207, 0.7035158157348633);41.1726150513;0.651009383606;12:14:19:578;0;10;1.77741935483871;1;0;0;0;0;1;1;1;1;0;0;0;;0;0;();();(-2000.0, -2000.0);
12:14:19:595;12:14:19:535;1448062216.99;(0.12076573371887207, 0.7035158157348633);41.1726150513;0.651009383606;12:14:19:595;0;10;1.77741935483871;1;0;0;0;0;1;1;1;1;0;0;0;;0;0;();();(-2000.0, -2000.0);
12:14:19:612;12:14:19:603;1448062217.05;(0.30888144969940184, 0.6583976533677842);50.7576675415;1.0;12:14:19:612;0;10;1.77741935483871;1;0;0;0;0;1;1;1;1;0;0;0;;0;0;();();(-2000.0, -2000.0);
12:14:19:646;12:14:19:603;1448062217.05;(0.30888144969940184, 0.6583976533677842);50.7576675415;1.0;12:14:19:646;0;4;1.77741935483871;1;0;0;0;0;1;1;1;1;0;0;0;;0;0;();();(-2000.0, -2000.0);
12:14:19:663;12:14:19:603;1448062217.05;(0.30888144969940184, 0.6583976533677842);50.7576675415;1.0;12:14:19:663;0;5;-1.5;1;0;0;0;0;1;1;1;1;0;0;0;;0;0;();();(-2000.0, -2000.0);
12:14:19:679;12:14:19:668;1448062217.13;(0.32881507873535154, 0.6648009194268121);49.526008606;1.0;12:14:19:679;0;10;-1.5;1;0;0;0;0;1;1;1;1;0;0;0;;0;0;();();(-2000.0, -2000.0);
12:14:19:695;12:14:19:668;1448062217.13;(0.32881507873535154, 0.6648009194268121);49.526008606;1.0;12:14:19:695;0;4;-1.5;1;0;0;0;0;1;1;1;1;0;0;0;;0;0;();();(-2000.0, -2000.0);
12:14:19:712;12:14:19:668;1448062217.13;(0.32881507873535154, 0.6648009194268121);49.526008606;1.0;12:14:19:712;0;9;-1.5;1;0;0;0;0;1;1;1;1;0;0;0;;0;0;();();(-2000.0, -2000.0);
12:14:19:730;12:14:19:668;1448062217.13;(0.32881507873535154, 0.6648009194268121);49.526008606;1.0;12:14:19:730;0;0;-1.5;1;0;0;0;0;1;1;1;1;0;0;0;;0;0;();();(-2000.0, -2000.0);
12:14:19:763;12:14:19:735;1448062217.19;(0.345351505279541, 0.6678338368733724);48.701259613;1.0;12:14:19:763;0;5;-1.5;1;0;0;0;0;1;1;1;1;0;0;0;;0;0;();();(-2000.0, -2000.0);
12:14:19:779;12:14:19:735;1448062217.19;(0.345351505279541, 0.6678338368733724);48.701259613;1.0;12:14:19:779;0;10;-1.5;1;0;0;0;0;1;1;1;1;0;0;0;;0;0;();();(-2000.0, -2000.0);
12:14:19:795;12:14:19:735;1448062217.19;(0.345351505279541, 0.6678338368733724);48.701259613;1.0;12:14:19:795;0;5;-1.5;1;0;0;0;0;1;1;1;1;0;0;0;;0;0;();();(-2000.0, -2000.0);
12:14:19:812;12:14:19:803;1448062217.25;(0.332404637336731, 0.6647687700059679);49.6915092468;0.905053304151;12:14:19:812;0;9;-1.5;1;0;0;0;0;1;1;1;1;0;0;0;;0;0;();();(-2000.0, -2000.0);
12:14:19:846;12:14:19:803;1448062217.25;(0.332404637336731, 0.6647687700059679);49.6915092468;0.905053304151;12:14:19:846;0;15;-1.20322580645161;1;0;0;0;0;1;1;1;1;0;0;0;;0;0;();();(-2000.0, -2000.0);
12:14:19:863;12:14:19:803;1448062217.25;(0.332404637336731, 0.6647687700059679);49.6915092468;0.905053304151;12:14:19:863;0;15;-1.5;1;0;0;0;0;1;1;1;1;0;0;0;;0;0;();();(-2000.0, -2000.0);
12:14:19:879;12:14:19:869;1448062217.29;(0.32687087059020997, 0.6662939283582899);47.2494430542;1.0;12:14:19:879;0;4;-1.5;1;0;0;0;0;1;1;1;1;0;0;0;;0;0;();();(-2000.0, -2000.0);
12:14:19:896;12:14:19:869;1448062217.29;(0.32687087059020997, 0.6662939283582899);47.2494430542;1.0;12:14:19:896;0;15;-1.5;1;0;0;0;0;1;1;1;1;0;0;0;;0;0;();();(-2000.0, -2000.0);
12:14:19:913;12:14:19:869;1448062217.29;(0.32687087059020997, 0.6662939283582899);47.2494430542;1.0;12:14:19:913;0;4;-1.5;1;0;0;0;0;1;1;1;1;0;0;0;;0;0;();();(-2000.0, -2000.0);
12:14:19:946;12:14:19:937;1448062217.39;(0.33830506801605226, 0.6680288526746962);46.3537101746;1.0;12:14:19:946;0;9;1.77741935483871;1;0;0;0;0;1;1;1;1;0;0;0;;0;0;();();(-2000.0, -2000.0);
12:14:19:963;12:14:19:937;1448062217.39;(0.33830506801605226, 0.6680288526746962);46.3537101746;1.0;12:14:19:963;0;15;-1.5;1;0;0;0;0;1;1;1;1;0;0;0;;0;0;();();(-2000.0, -2000.0);
12:14:19:979;12:14:19:937;1448062217.39;(0.33830506801605226, 0.6680288526746962);46.3537101746;1.0;12:14:19:979;0;4;-1.5;1;0;0;0;0;1;1;1;1;0;0;0;;0;0;();();(-2000.0, -2000.0);
12:14:19:996;12:14:19:937;1448062217.39;(0.33830506801605226, 0.6680288526746962);46.3537101746;1.0;12:14:19:996;0;10;-1.5;1;0;0;0;0;1;1;1;1;0;0;0;;0;0;();();(-2000.0, -2000.0);
12:14:20:013;12:14:19:999;1448062217.45;(0.34428870677948, 0.6690023846096462);45.5382843018;1.0;12:14:20:013;0;13;-1.5;1;0;0;0;0;1;1;1;1;0;0;0;;0;0;();();(-2000.0, -2000.0);
12:14:20:030;12:14:19:999;1448062217.45;(0.34428870677948, 0.6690023846096462);45.5382843018;1.0;12:14:20:030;0;9;-1.5;1;0;0;0;0;1;1;1;1;0;0;0;;0;0;();();(-2000.0, -2000.0);
12:14:20:063;12:14:19:999;1448062217.45;(0.34428870677948, 0.6690023846096462);45.5382843018;1.0;12:14:20:063;0;15;-1.5;1;0;0;0;0;1;1;1;1;0;0;0;;0;0;();();(-2000.0, -2000.0);
12:14:20:079;12:14:20:067;1448062217.52;(0.3484795570373535, 0.6694026099310981);45.4033470154;1.0;12:14:20:079;0;4;0.587096774193548;1;0;0;0;0;1;1;1;1;0;0;0;;0;0;();();(-2000.0, -2000.0);
12:14:20:096;12:14:20:067;1448062217.52;(0.3484795570373535, 0.6694026099310981);45.4033470154;1.0;12:14:20:096;0;15;1.60645161290323;1;0;0;0;0;1;1;1;1;0;0;0;;0;0;();();(-2000.0, -2000.0);
12:14:20:113;12:14:20:067;1448062217.52;(0.3484795570373535, 0.6694026099310981);45.4033470154;1.0;12:14:20:113;0;4;1.15806451612903;1;0;0;0;0;1;1;1;1;0;0;0;;0;0;();();(-2000.0, -2000.0);
12:14:20:130;12:14:20:067;1448062217.52;(0.3484795570373535, 0.6694026099310981);45.4033470154;1.0;12:14:20:130;0;10;-1.5;1;0;0;0;0;1;1;1;1;0;0;0;;0;0;();();(-2000.0, -2000.0);
12:14:20:162;12:14:20:135;1448062217.59;(0.18600168228149414, 0.5241935306125217);25.4368782043;0.626316365826;12:14:20:162;0;10;-1.5;1;0;0;0;0;1;1;1;1;0;0;0;;0;0;();();(-2000.0, -2000.0);
12:14:20:180;12:14:20:135;1448062217.59;(0.18600168228149414, 0.5241935306125217);25.4368782043;0.626316365826;12:14:20:180;0;4;-1.5;1;0;0;0;0;1;1;1;1;0;0;0;;0;0;();();(-2000.0, -2000.0);
12:14:20:196;12:14:20:135;1448062217.59;(0.18600168228149414, 0.5241935306125217);25.4368782043;0.626316365826;12:14:20:196;0;9;-1.5;1;0;0;0;0;1;1;1;1;0;0;0;;0;0;();();(-2000.0, -2000.0);
12:14:20:213;12:14:20:199;1448062217.66;(0.33693947792053225, 0.6744166692097981);45.0890884399;1.0;12:14:20:213;0;9;-1.5;1;0;0;0;0;1;1;1;1;0;0;0;;0;0;();();(-2000.0, -2000.0);
12:14:20:230;12:14:20:199;1448062217.66;(0.33693947792053225, 0.6744166692097981);45.0890884399;1.0;12:14:20:230;0;9;-1.5;1;0;0;0;0;1;1;1;1;0;0;0;;0;0;();();(-2000.0, -2000.0);
12:14:20:263;12:14:20:199;1448062217.66;(0.33693947792053225, 0.6744166692097981);45.0890884399;1.0;12:14:20:263;0;10;-0.77741935483871;1;0;0;0;0;1;1;1;1;0;0;0;;0;0;();();(-2000.0, -2000.0);
12:14:20:279;12:14:20:267;1448062217.72;(0.3410677671432495, 0.6751475016276042);45.4579925537;1.0;12:14:20:279;0;10;-0.77741935483871;1;0;0;0;0;1;1;1;1;0;0;0;;0;0;();();(-2000.0, -2000.0);
12:14:20:296;12:14:20:267;1448062217.72;(0.3410677671432495, 0.6751475016276042);45.4579925537;1.0;12:14:20:296;0;10;-0.687096774193548;1;0;0;0;0;1;1;1;1;0;0;0;;0;0;();();(-2000.0, -2000.0);
12:14:20:313;12:14:20:267;1448062217.72;(0.3410677671432495, 0.6751475016276042);45.4579925537;1.0;12:14:20:313;0;0;-0.893548387096774;1;0;0;0;0;1;1;1;1;0;0;0;;0;0;();();(-2000.0, -2000.0);
12:14:20:346;12:14:20:332;1448062217.79;(0.3424288511276245, 0.6760220209757487);46.4038848877;1.0;12:14:20:346;0;15;-0.390322580645161;1;0;0;0;0;1;1;1;1;0;0;0;;0;0;();();(-2000.0, -2000.0);
12:14:20:362;12:14:20:332;1448062217.79;(0.3424288511276245, 0.6760220209757487);46.4038848877;1.0;12:14:20:362;0;15;-0.390322580645161;1;0;0;0;0;1;1;1;1;0;0;0;;0;0;();();(-2000.0, -2000.0);
12:14:20:379;12:14:20:332;1448062217.79;(0.3424288511276245, 0.6760220209757487);46.4038848877;1.0;12:14:20:379;0;15;-0.309677419354839;1;0;0;0;0;1;1;1;1;0;0;0;;0;0;();();(-2000.0, -2000.0);
12:14:20:397;12:14:20:332;1448062217.79;(0.3424288511276245, 0.6760220209757487);46.4038848877;1.0;12:14:20:397;0;5;-0.445161290322581;1;0;0;0;0;1;1;1;1;0;0;0;;0;0;();();(-2000.0, -2000.0);
12:14:20:413;12:14:20:401;1448062217.85;(0.342658543586731, 0.6761805004543728);47.1806297302;1.0;12:14:20:413;0;10;-0.716129032258065;1;0;0;0;0;1;1;1;1;0;0;0;;0;0;();();(-2000.0, -2000.0);
12:14:20:430;12:14:20:401;1448062217.85;(0.342658543586731, 0.6761805004543728);47.1806297302;1.0;12:14:20:430;0;4;-0.429032258064516;1;0;0;0;0;1;1;1;1;0;0;0;;0;0;();();(-2000.0, -2000.0);
12:14:20:463;12:14:20:401;1448062217.85;(0.342658543586731, 0.6761805004543728);47.1806297302;1.0;12:14:20:463;0;9;-0.106451612903226;1;0;0;0;0;1;1;1;1;0;0;0;;0;0;();();(-2000.0, -2000.0);
12:14:20:480;12:14:20:468;1448062217.92;(0.3427433490753174, 0.6757749981350369);48.2525901794;1.0;12:14:20:480;0;10;0.00645161290322571;1;0;0;0;0;1;1;1;1;0;0;0;;0;0;();();(-2000.0, -2000.0);
12:14:20:497;12:14:20:468;1448062217.92;(0.3427433490753174, 0.6757749981350369);48.2525901794;1.0;12:14:20:497;0;4;0.0483870967741935;1;0;0;0;0;1;1;1;1;0;0;0;;0;0;();();(-2000.0, -2000.0);
12:14:20:513;12:14:20:468;1448062217.92;(0.3427433490753174, 0.6757749981350369);48.2525901794;1.0;12:14:20:513;0;9;-0.0806451612903225;1;0;0;0;0;1;1;1;1;0;0;0;;0;0;();();(-2000.0, -2000.0);
12:14:20:529;12:14:20:468;1448062217.92;(0.3427433490753174, 0.6757749981350369);48.2525901794;1.0;12:14:20:529;0;5;-0.0677419354838711;1;0;0;0;0;1;1;1;1;0;0;0;;0;0;();();(-2000.0, -2000.0);
12:14:20:563;12:14:20:531;1448062217.99;(0.3427295207977295, 0.6749726401435004);49.1251068115;1.0;12:14:20:563;0;15;-0.032258064516129;1;0;0;0;0;1;1;1;1;0;0;0;;0;0;();();(-2000.0, -2000.0);
12:14:20:580;12:14:20:531;1448062217.99;(0.3427295207977295, 0.6749726401435004);49.1251068115;1.0;12:14:20:580;0;10;-0.0870967741935484;1;0;0;0;0;1;1;1;1;0;0;0;;0;0;();();(-2000.0, -2000.0);
12:14:20:596;12:14:20:531;1448062217.99;(0.3427295207977295, 0.6749726401435004);49.1251068115;1.0;12:14:20:596;0;15;-0.00967741935483879;1;0;0;0;0;1;1;1;1;0;0;0;;0;0;();();(-2000.0, -2000.0);
12:14:20:613;12:14:20:599;1448062218.05;(0.3425976514816284, 0.673885366651747);49.6275215149;1.0;12:14:20:613;0;10;-0.106451612903226;1;0;0;0;0;1;1;1;1;0;0;0;;0;0;();();(-2000.0, -2000.0);
12:14:20:630;12:14:20:599;1448062218.05;(0.3425976514816284, 0.673885366651747);49.6275215149;1.0;12:14:20:630;0;0;-0.112903225806452;1;0;0;0;0;1;1;1;1;0;0;0;;0;0;();();(-2000.0, -2000.0);
12:14:20:663;12:14:20:663;1448062218.09;(0.34226126670837403, 0.6739452362060547);50.3106307983;1.0;12:14:20:663;0;4;-0.119354838709677;1;0;0;0;0;1;1;1;1;0;0;0;;0;0;();();(-2000.0, -2000.0);
12:14:20:680;12:14:20:663;1448062218.12;(0.34225969314575194, 0.6736912621392144);50.7972068787;1.0;12:14:20:680;0;9;-0.0548387096774194;1;0;0;0;0;1;1;1;1;0;0;0;;0;0;();();(-2000.0, -2000.0);
12:14:20:697;12:14:20:663;1448062218.12;(0.34225969314575194, 0.6736912621392144);50.7972068787;1.0;12:14:20:697;0;15;-0.0548387096774194;1;0;0;0;0;1;1;1;1;0;0;0;;0;0;();();(-2000.0, -2000.0);
12:14:20:713;12:14:20:663;1448062218.12;(0.34225969314575194, 0.6736912621392144);50.7972068787;1.0;12:14:20:713;0;5;0.154838709677419;1;0;0;0;0;1;1;1;1;0;0;0;;0;0;();();(-2000.0, -2000.0);
12:14:20:731;12:14:20:663;1448062218.12;(0.34225969314575194, 0.6736912621392144);50.7972068787;1.0;12:14:20:731;0;15;0.248387096774193;1;0;0;0;0;1;1;1;1;0;0;0;;0;0;();();(-2000.0, -2000.0);
12:14:20:763;12:14:20:732;1448062218.19;(0.3419691324234009, 0.6736501057942708);51.6890602112;1.0;12:14:20:763;0;15;0.406451612903226;1;0;0;0;0;1;1;1;1;0;0;0;;0;0;();();(-2000.0, -2000.0);
12:14:20:780;12:14:20:732;1448062218.19;(0.3419691324234009, 0.6736501057942708);51.6890602112;1.0;12:14:20:780;0;4;0.435483870967742;1;0;0;0;0;1;1;1;1;0;0;0;;0;0;();();(-2000.0, -2000.0);
12:14:20:796;12:14:20:732;1448062218.19;(0.3419691324234009, 0.6736501057942708);51.6890602112;1.0;12:14:20:796;0;15;0.470967741935484;1;0;0;0;0;1;1;1;1;0;0;0;;0;0;();();(-2000.0, -2000.0);
12:14:20:814;12:14:20:799;1448062218.25;(0.3579192876815796, 0.6844964345296224);52.2562217712;1.0;12:14:20:814;0;4;0.541935483870968;1;0;0;0;0;1;1;1;1;0;0;0;;0;0;();();(-2000.0, -2000.0);
12:14:20:830;12:14:20:799;1448062218.25;(0.3579192876815796, 0.6844964345296224);52.2562217712;1.0;12:14:20:830;0;9;0.52258064516129;1;0;0;0;0;1;1;1;1;0;0;0;;0;0;();();(-2000.0, -2000.0);
12:14:20:863;12:14:20:799;1448062218.25;(0.3579192876815796, 0.6844964345296224);52.2562217712;1.0;12:14:20:863;0;10;1.77741935483871;1;0;0;0;0;1;1;1;1;0;0;0;;0;0;();();(-2000.0, -2000.0);
12:14:20:880;12:14:20:864;1448062218.32;(0.3587893009185791, 0.687578985426161);52.8332557678;1.0;12:14:20:880;0;4;1.78064516129032;1;0;0;0;0;1;1;1;1;0;0;0;;0;0;();();(-2000.0, -2000.0);
12:14:20:896;12:14:20:864;1448062218.32;(0.3587893009185791, 0.687578985426161);52.8332557678;1.0;12:14:20:896;0;4;1.78064516129032;1;0;0;0;0;1;1;1;1;0;0;0;;0;0;();();(-2000.0, -2000.0);
12:14:20:913;12:14:20:864;1448062218.32;(0.3587893009185791, 0.687578985426161);52.8332557678;1.0;12:14:20:913;0;15;1.78064516129032;1;0;0;0;0;1;1;1;1;0;0;0;;0;0;();();(-2000.0, -2000.0);
12:14:20:930;12:14:20:864;1448062218.32;(0.3587893009185791, 0.687578985426161);52.8332557678;1.0;12:14:20:930;0;10;1.78064516129032;1;0;0;0;0;1;1;1;1;0;0;0;;0;0;();();(-2000.0, -2000.0);
12:14:20:963;12:14:20:931;1448062218.39;(0.35780909061431887, 0.6858986324734158);54.0788002014;1.0;12:14:20:963;0;10;1.78064516129032;1;0;0;0;0;1;1;1;1;0;0;0;;0;0;();();(-2000.0, -2000.0);
12:14:20:980;12:14:20:931;1448062218.39;(0.35780909061431887, 0.6858986324734158);54.0788002014;1.0;12:14:20:980;0;14;1.77741935483871;1;0;0;0;0;1;1;1;1;0;0;0;;0;0;();();(-2000.0, -2000.0);
12:14:20:997;12:14:20:995;1448062218.45;(0.3553891897201538, 0.6838688956366645);54.4588127136;0.904692561477;12:14:20:997;0;9;1.78064516129032;1;0;0;0;0;1;1;1;1;0;0;0;;0;0;();();(-2000.0, -2000.0);
12:14:21:013;12:14:20:995;1448062218.45;(0.3553891897201538, 0.6838688956366645);54.4588127136;0.904692561477;12:14:21:013;0;15;1.78064516129032;1;0;0;0;0;1;1;1;1;0;0;0;;0;0;();();(-2000.0, -2000.0);
12:14:21:031;12:14:20:995;1448062218.45;(0.3553891897201538, 0.6838688956366645);54.4588127136;0.904692561477;12:14:21:031;0;9;1.78064516129032;1;0;0;0;0;1;1;1;1;0;0;0;;0;0;();();(-2000.0, -2000.0);
12:14:21:064;12:14:21:063;1448062218.52;(0.34864799976348876, 0.6748906241522895);54.5005073547;1.0;12:14:21:064;0;10;1.78064516129032;1;0;0;0;0;1;1;1;1;0;0;0;;0;0;();();(-2000.0, -2000.0);
12:14:21:080;12:14:21:063;1448062218.52;(0.34864799976348876, 0.6748906241522895);54.5005073547;1.0;12:14:21:080;0;10;1.78064516129032;1;0;0;0;0;1;1;1;1;0;0;0;;0;0;();();(-2000.0, -2000.0);
12:14:21:108;12:14:21:063;1448062218.52;(0.34864799976348876, 0.6748906241522895);54.5005073547;1.0;12:14:21:108;0;0;1.78064516129032;1;0;0;0;0;1;1;1;1;2;0;0;;0;0;();();(-2000.0, -2000.0);
12:14:21:139;12:14:21:128;1448062218.59;(0.3469048500061035, 0.6824095196194119);54.0951538086;1.0;12:14:21:139;0;15;1.77741935483871;1;0;0;0;0;1;1;1;1;2;0;0;;0;0;();();(-2000.0, -2000.0);
12:14:21:143;12:14:21:128;1448062218.59;(0.3469048500061035, 0.6824095196194119);54.0951538086;1.0;12:14:21:143;0;15;1.77741935483871;1;0;0;0;0;1;1;1;1;2;0;0;;0;0;();();(-2000.0, -2000.0);
12:14:21:163;12:14:21:128;1448062218.59;(0.3469048500061035, 0.6824095196194119);54.0951538086;1.0;12:14:21:163;0;4;1.78064516129032;1;0;0;0;0;1;1;1;1;2;0;0;;0;0;();();(-2000.0, -2000.0);
12:14:21:180;12:14:21:128;1448062218.59;(0.3469048500061035, 0.6824095196194119);54.0951538086;1.0;12:14:21:180;0;10;1.78064516129032;1;0;0;0;0;1;1;1;1;2;0;0;;0;0;();();(-2000.0, -2000.0);
12:14:21:196;12:14:21:128;1448062218.59;(0.3469048500061035, 0.6824095196194119);54.0951538086;1.0;12:14:21:196;0;5;1.78064516129032;1;0;0;0;0;1;1;1;1;2;0;0;;0;0;();();(-2000.0, -2000.0);
12:14:21:213;12:14:21:201;1448062218.65;(0.3471043109893799, 0.6799648072984483);54.1781196594;1.0;12:14:21:213;0;15;1.76129032258065;1;0;0;0;0;1;1;1;1;2;0;0;;0;0;();();(-2000.0, -2000.0);
12:14:21:230;12:14:21:201;1448062218.65;(0.3471043109893799, 0.6799648072984483);54.1781196594;1.0;12:14:21:230;0;4;1.77741935483871;1;0;0;0;0;1;1;1;1;2;0;0;;0;0;();();(-2000.0, -2000.0);
12:14:21:263;12:14:21:263;1448062218.69;(0.34611384868621825, 0.6802861319647895);54.3971710205;1.0;12:14:21:263;0;5;-1.5;1;0;0;0;0;1;1;1;1;2;0;0;;0;0;();();(-2000.0, -2000.0);
12:14:21:281;12:14:21:263;1448062218.72;(0.34425427913665774, 0.6793246163262261);54.0672569275;0.833794354111;12:14:21:280;0;10;-1.5;1;0;0;0;0;1;1;1;1;2;0;0;;0;0;();();(-2000.0, -2000.0);
12:14:21:297;12:14:21:263;1448062218.72;(0.34425427913665774, 0.6793246163262261);54.0672569275;0.833794354111;12:14:21:297;0;5;-1.5;1;0;0;0;0;1;1;1;1;2;0;0;;0;0;();();(-2000.0, -2000.0);
12:14:21:313;12:14:21:263;1448062218.72;(0.34425427913665774, 0.6793246163262261);54.0672569275;0.833794354111;12:14:21:313;0;9;1.20645161290323;1;0;0;0;0;1;1;1;1;2;0;0;;0;0;();();(-2000.0, -2000.0);
12:14:21:331;12:14:21:328;1448062218.79;(0.340932297706604, 0.6778468873765733);54.4056663513;0.943126724953;12:14:21:331;0;15;1.78064516129032;1;0;0;0;0;1;1;1;1;2;0;0;;0;0;();();(-2000.0, -2000.0);
12:14:21:364;12:14:21:328;1448062218.79;(0.340932297706604, 0.6778468873765733);54.4056663513;0.943126724953;12:14:21:364;0;15;-1.49677419354839;1;0;0;0;0;1;1;1;1;2;0;0;;0;0;();();(-2000.0, -2000.0);
12:14:21:380;12:14:21:328;1448062218.79;(0.340932297706604, 0.6778468873765733);54.4056663513;0.943126724953;12:14:21:380;0;10;-1.5;1;0;0;0;0;1;1;1;1;2;0;0;;0;0;();();(-2000.0, -2000.0);
12:14:21:395;12:14:21:395;1448062218.82;(0.339459753036499, 0.676991695827908);54.4298667908;0.966846032915;12:14:21:395;0;4;1.78064516129032;1;0;0;0;0;1;1;1;1;2;0;0;;0;0;();();(-2000.0, -2000.0);
12:14:21:414;12:14:21:396;1448062218.85;(0.3384302854537964, 0.676154285007053);54.6824989319;1.0;12:14:21:414;0;9;1.78064516129032;1;0;0;0;0;1;1;1;1;2;0;0;;0;0;();();(-2000.0, -2000.0);
12:14:21:430;12:14:21:396;1448062218.85;(0.3384302854537964, 0.676154285007053);54.6824989319;1.0;12:14:21:430;0;0;-1.5;1;0;0;0;0;1;1;1;1;2;0;0;;0;0;();();(-2000.0, -2000.0);
12:14:21:464;12:14:21:460;1448062218.92;(0.336992883682251, 0.6755184173583985);55.500202179;1.0;12:14:21:464;0;4;-1.5;1;0;0;0;0;1;1;1;1;2;0;0;;0;0;();();(-2000.0, -2000.0);
12:14:21:481;12:14:21:460;1448062218.92;(0.336992883682251, 0.6755184173583985);55.500202179;1.0;12:14:21:481;0;4;1.77741935483871;1;0;0;0;0;1;1;1;1;2;0;0;;0;0;();();(-2000.0, -2000.0);
12:14:21:497;12:14:21:460;1448062218.92;(0.336992883682251, 0.6755184173583985);55.500202179;1.0;12:14:21:497;0;0;1.78064516129032;1;0;0;0;0;1;1;1;1;2;0;0;;0;0;();();(-2000.0, -2000.0);
12:14:21:514;12:14:21:460;1448062218.92;(0.336992883682251, 0.6755184173583985);55.500202179;1.0;12:14:21:514;0;5;1.77741935483871;1;0;0;0;0;1;1;1;1;2;0;0;;0;0;();();(-2000.0, -2000.0);
12:14:21:531;12:14:21:460;1448062218.92;(0.336992883682251, 0.6755184173583985);55.500202179;1.0;12:14:21:531;0;10;1.78064516129032;1;0;0;0;0;1;1;1;1;2;0;0;;0;0;();();(-2000.0, -2000.0);
12:14:21:563;12:14:21:536;1448062218.99;(0.3357052803039551, 0.6753046459621853);56.0761299133;1.0;12:14:21:563;0;4;1.78064516129032;1;0;0;0;0;1;1;1;1;2;0;0;;0;0;();();(-2000.0, -2000.0);
12:14:21:581;12:14:21:536;1448062218.99;(0.3357052803039551, 0.6753046459621853);56.0761299133;1.0;12:14:21:581;0;5;1.78064516129032;1;0;0;0;0;1;1;1;1;2;0;0;;0;0;();();(-2000.0, -2000.0);
12:14:21:598;12:14:21:596;1448062219.05;(0.33493361473083494, 0.675317276848687);56.5639228821;1.0;12:14:21:598;0;10;1.77741935483871;1;0;0;0;0;1;1;1;1;2;0;0;;0;0;();();(-2000.0, -2000.0);
12:14:21:615;12:14:21:596;1448062219.05;(0.33493361473083494, 0.675317276848687);56.5639228821;1.0;12:14:21:615;0;5;1.79032258064516;1;0;0;0;0;1;1;1;1;2;0;0;;0;0;();();(-2000.0, -2000.0);
12:14:21:631;12:14:21:596;1448062219.05;(0.33493361473083494, 0.675317276848687);56.5639228821;1.0;12:14:21:631;0;9;-1.5;1;0;0;0;0;1;1;1;1;2;0;0;;0;0;();();(-2000.0, -2000.0);
12:14:21:664;12:14:21:659;1448062219.12;(0.33432228565216066, 0.6749943415323894);57.7654304504;1.0;12:14:21:664;0;10;1.79032258064516;1;0;0;0;0;1;1;1;1;2;0;0;;0;0;();();(-2000.0, -2000.0);
12:14:21:681;12:14:21:659;1448062219.12;(0.33432228565216066, 0.6749943415323894);57.7654304504;1.0;12:14:21:681;0;15;1.77741935483871;1;0;0;0;0;1;1;1;1;2;0;0;;0;0;();();(-2000.0, -2000.0);
12:14:21:698;12:14:21:659;1448062219.12;(0.33432228565216066, 0.6749943415323894);57.7654304504;1.0;12:14:21:698;0;10;1.78064516129032;1;0;0;0;0;1;1;1;1;2;0;0;;0;0;();();(-2000.0, -2000.0);
12:14:21:713;12:14:21:659;1448062219.12;(0.33432228565216066, 0.6749943415323894);57.7654304504;1.0;12:14:21:713;0;4;1.77741935483871;1;0;0;0;0;1;1;1;1;2;0;0;;0;0;();();(-2000.0, -2000.0);
12:14:21:731;12:14:21:728;1448062219.19;(0.33414783477783205, 0.6755669487847222);59.0568885803;1.0;12:14:21:731;0;9;1.78064516129032;1;0;0;0;0;1;1;1;1;2;0;0;;0;0;();();(-2000.0, -2000.0);
12:14:21:764;12:14:21:728;1448062219.19;(0.33414783477783205, 0.6755669487847222);59.0568885803;1.0;12:14:21:764;0;10;-1.5;1;0;0;0;0;1;1;1;1;2;0;0;;0;0;();();(-2000.0, -2000.0);
12:14:21:780;12:14:21:728;1448062219.19;(0.33414783477783205, 0.6755669487847222);59.0568885803;1.0;12:14:21:780;0;15;-1.5;1;0;0;0;0;1;1;1;1;2;0;0;;0;0;();();(-2000.0, -2000.0);
12:14:21:797;12:14:21:791;1448062219.25;(0.33544650077819826, 0.6771571477254232);59.7105674744;1.0;12:14:21:797;0;9;-1.5;1;0;0;0;0;1;1;1;1;2;0;0;;0;0;();();(-2000.0, -2000.0);
12:14:21:814;12:14:21:791;1448062219.25;(0.33544650077819826, 0.6771571477254232);59.7105674744;1.0;12:14:21:814;0;0;-1.5;1;0;0;0;0;1;1;1;1;2;0;0;;0;0;();();(-2000.0, -2000.0);
12:14:21:830;12:14:21:791;1448062219.25;(0.33544650077819826, 0.6771571477254232);59.7105674744;1.0;12:14:21:830;0;5;-1.5;1;0;0;0;0;1;1;1;1;2;0;0;;0;0;();();(-2000.0, -2000.0);
12:14:21:866;12:14:21:860;1448062219.32;(0.3368301630020142, 0.67742797003852);60.5682907104;1.0;12:14:21:866;0;4;-1.5;1;0;0;0;0;1;1;1;1;2;0;0;;0;0;();();(-2000.0, -2000.0);
12:14:21:881;12:14:21:860;1448062219.32;(0.3368301630020142, 0.67742797003852);60.5682907104;1.0;12:14:21:881;0;9;-1.5;1;0;0;0;0;1;1;1;1;2;0;0;;0;0;();();(-2000.0, -2000.0);
12:14:21:897;12:14:21:860;1448062219.32;(0.3368301630020142, 0.67742797003852);60.5682907104;1.0;12:14:21:897;0;4;-1.5;1;0;0;0;0;1;1;1;1;2;0;0;;0;0;();();(-2000.0, -2000.0);
12:14:21:914;12:14:21:860;1448062219.32;(0.3368301630020142, 0.67742797003852);60.5682907104;1.0;12:14:21:914;0;0;1.78064516129032;1;0;0;0;0;1;1;1;1;2;0;0;;0;0;();();(-2000.0, -2000.0);
12:14:21:931;12:14:21:928;1448062219.39;(0.3630796194076538, 0.6776682747734917);60.7208747864;1.0;12:14:21:931;0;4;1.78064516129032;1;0;0;0;0;1;1;1;1;2;0;0;;0;0;();();(-2000.0, -2000.0);
12:14:21:965;12:14:21:928;1448062219.39;(0.3630796194076538, 0.6776682747734917);60.7208747864;1.0;12:14:21:965;0;4;1.78064516129032;1;0;0;0;0;1;1;1;1;2;0;0;;0;0;();();(-2000.0, -2000.0);
12:14:21:981;12:14:21:928;1448062219.39;(0.3630796194076538, 0.6776682747734917);60.7208747864;1.0;12:14:21:981;0;10;1.78064516129032;1;0;0;0;0;1;1;1;1;2;0;0;;0;0;();();(-2000.0, -2000.0);
12:14:21:998;12:14:21:991;1448062219.42;(0.23926217555999757, 0.7313411712646485);19.2250556946;0.807673937022;12:14:21:998;0;4;1.77741935483871;1;0;0;0;0;1;1;1;1;2;0;0;;0;0;();();(-2000.0, -2000.0);
12:14:22:015;12:14:21:991;1448062219.42;(0.23926217555999757, 0.7313411712646485);19.2250556946;0.807673937022;12:14:22:015;0;10;1.77741935483871;1;0;0;0;0;1;1;1;1;2;0;0;;0;0;();();(-2000.0, -2000.0);
12:14:22:031;12:14:21:991;1448062219.42;(0.23926217555999757, 0.7313411712646485);19.2250556946;0.807673937022;12:14:22:031;0;4;1.78064516129032;1;0;0;0;0;1;1;1;1;2;0;0;;0;0;();();(-2000.0, -2000.0);
12:14:22:065;12:14:21:991;1448062219.42;(0.23926217555999757, 0.7313411712646485);19.2250556946;0.807673937022;12:14:22:065;0;5;1.78064516129032;1;0;0;0;0;1;1;1;1;2;0;0;;0;0;();();(-2000.0, -2000.0);
12:14:22:081;12:14:21:991;1448062219.42;(0.23926217555999757, 0.7313411712646485);19.2250556946;0.807673937022;12:14:22:081;0;10;-1.5;1;0;0;0;0;1;1;1;1;2;0;0;;0;0;();();(-2000.0, -2000.0);
12:14:22:097;12:14:21:991;1448062219.42;(0.23926217555999757, 0.7313411712646485);19.2250556946;0.807673937022;12:14:22:097;0;4;-1.5;1;0;0;0;0;1;1;1;1;2;0;0;;0;0;();();(-2000.0, -2000.0);
12:14:22:114;12:14:21:991;1448062219.42;(0.23926217555999757, 0.7313411712646485);19.2250556946;0.807673937022;12:14:22:114;0;9;-1.5;1;0;0;0;0;1;1;1;1;2;0;0;;0;0;();();(-2000.0, -2000.0);
12:14:22:131;12:14:22:124;1448062219.59;(0.3577130794525146, 0.6774010340372721);62.4018516541;1.0;12:14:22:131;0;0;1.77741935483871;1;0;0;0;0;1;1;1;1;2;0;0;;0;0;();();(-2000.0, -2000.0);
12:14:22:164;12:14:22:124;1448062219.59;(0.3577130794525146, 0.6774010340372721);62.4018516541;1.0;12:14:22:164;0;0;1.77741935483871;1;0;0;0;0;1;1;1;1;2;0;0;;0;0;();();(-2000.0, -2000.0);
12:14:22:182;12:14:22:124;1448062219.59;(0.3577130794525146, 0.6774010340372721);62.4018516541;1.0;12:14:22:182;0;5;1.77741935483871;1;0;0;0;0;1;1;1;1;2;0;0;;0;0;();();(-2000.0, -2000.0);
12:14:22:198;12:14:22:191;1448062219.65;(0.35744075775146483, 0.6792779498630099);62.0797195435;1.0;12:14:22:198;0;5;1.77741935483871;1;0;0;0;0;1;1;1;1;2;0;0;;0;0;();();(-2000.0, -2000.0);
12:14:22:215;12:14:22:191;1448062219.65;(0.35744075775146483, 0.6792779498630099);62.0797195435;1.0;12:14:22:215;0;9;-1.5;1;0;0;0;0;1;1;1;1;2;0;0;;0;0;();();(-2000.0, -2000.0);
12:14:22:232;12:14:22:191;1448062219.65;(0.35744075775146483, 0.6792779498630099);62.0797195435;1.0;12:14:22:232;0;0;-1.5;1;0;0;0;0;1;1;1;1;2;0;0;;0;0;();();(-2000.0, -2000.0);
12:14:22:265;12:14:22:259;1448062219.72;(0.3564098596572876, 0.6787845823499892);61.7093696594;1.0;12:14:22:265;0;15;1.78064516129032;1;0;0;0;0;1;1;1;1;2;0;0;;0;0;();();(-2000.0, -2000.0);
12:14:22:281;12:14:22:259;1448062219.72;(0.3564098596572876, 0.6787845823499892);61.7093696594;1.0;12:14:22:281;0;0;-1.5;1;0;0;0;0;1;1;1;1;2;0;0;;0;0;();();(-2000.0, -2000.0);
12:14:22:298;12:14:22:259;1448062219.72;(0.3564098596572876, 0.6787845823499892);61.7093696594;1.0;12:14:22:298;0;0;-1.5;1;0;0;0;0;1;1;1;1;2;0;0;;0;0;();();(-2000.0, -2000.0);
12:14:22:315;12:14:22:259;1448062219.72;(0.3564098596572876, 0.6787845823499892);61.7093696594;1.0;12:14:22:315;0;15;-1.5;1;0;0;0;0;1;1;1;1;2;0;0;;0;0;();();(-2000.0, -2000.0);
12:14:22:332;12:14:22:323;1448062219.75;(0.35746872425079346, 0.6677200317382812);60.5706825256;0.782561563404;12:14:22:332;0;15;-1.5;1;0;0;0;0;1;1;1;1;2;0;0;;0;0;();();(-2000.0, -2000.0);
12:14:22:364;12:14:22:323;1448062219.75;(0.35746872425079346, 0.6677200317382812);60.5706825256;0.782561563404;12:14:22:364;0;9;1.78064516129032;1;0;0;0;0;1;1;1;1;2;0;0;;0;0;();();(-2000.0, -2000.0);
12:14:22:381;12:14:22:323;1448062219.75;(0.35746872425079346, 0.6677200317382812);60.5706825256;0.782561563404;12:14:22:381;0;5;0.512903225806451;1;0;0;0;0;1;1;1;1;2;0;0;;0;0;();();(-2000.0, -2000.0);
12:14:22:396;12:14:22:391;1448062219.79;(0.3767464876174927, 0.656336784362793);35.3946647644;0.606947715346;12:14:22:396;0;10;-1.5;1;0;0;0;0;1;1;1;1;2;0;0;;0;0;();();(-2000.0, -2000.0);
12:14:22:415;12:14:22:391;1448062219.79;(0.3767464876174927, 0.656336784362793);35.3946647644;0.606947715346;12:14:22:415;0;4;-1.5;1;0;0;0;0;1;1;1;1;2;0;0;;0;0;();();(-2000.0, -2000.0);
12:14:22:431;12:14:22:391;1448062219.79;(0.3767464876174927, 0.656336784362793);35.3946647644;0.606947715346;12:14:22:431;0;9;-1.5;1;0;0;0;0;1;1;1;1;2;0;0;;0;0;();();(-2000.0, -2000.0);
12:14:22:465;12:14:22:455;1448062219.9;(0.4213611364364624, 0.5964908599853516);61.1357879639;1.0;12:14:22:465;0;9;-1.5;1;0;0;0;0;1;1;1;1;2;0;0;;0;0;();();(-2000.0, -2000.0);
12:14:22:481;12:14:22:455;1448062219.9;(0.4213611364364624, 0.5964908599853516);61.1357879639;1.0;12:14:22:481;0;15;-1.5;1;0;0;0;0;1;1;1;1;2;0;0;;0;0;();();(-2000.0, -2000.0);
12:14:22:498;12:14:22:455;1448062219.9;(0.4213611364364624, 0.5964908599853516);61.1357879639;1.0;12:14:22:498;0;10;-1.42903225806452;1;0;0;0;0;1;1;1;1;2;0;0;;0;0;();();(-2000.0, -2000.0);
12:14:22:515;12:14:22:455;1448062219.9;(0.4213611364364624, 0.5964908599853516);61.1357879639;1.0;12:14:22:515;0;15;1.77741935483871;1;0;0;0;0;1;1;1;1;2;0;0;;0;0;();();(-2000.0, -2000.0);
12:14:22:531;12:14:22:524;1448062219.99;(0.4197719097137451, 0.5977454291449653);62.1040115356;1.0;12:14:22:531;0;9;-0.283870967741936;1;0;0;0;0;1;1;1;1;2;0;0;;0;0;();();(-2000.0, -2000.0);
12:14:22:565;12:14:22:524;1448062219.99;(0.4197719097137451, 0.5977454291449653);62.1040115356;1.0;12:14:22:565;0;10;-1.5;1;0;0;0;0;1;1;1;1;2;0;0;;0;0;();();(-2000.0, -2000.0);
12:14:22:582;12:14:22:524;1448062219.99;(0.4197719097137451, 0.5977454291449653);62.1040115356;1.0;12:14:22:582;0;15;-0.945161290322581;1;0;0;0;0;1;1;1;1;2;0;0;;0;0;();();(-2000.0, -2000.0);
12:14:22:598;12:14:22:592;1448062220.05;(0.418469762802124, 0.5987664540608724);62.9152946472;1.0;12:14:22:598;0;9;-1.5;1;0;0;0;0;1;1;1;1;2;0;0;;0;0;();();(-2000.0, -2000.0);
12:14:22:615;12:14:22:592;1448062220.05;(0.418469762802124, 0.5987664540608724);62.9152946472;1.0;12:14:22:615;0;0;1.78064516129032;1;0;0;0;0;1;1;1;1;2;0;0;;0;0;();();(-2000.0, -2000.0);
12:14:22:632;12:14:22:592;1448062220.05;(0.418469762802124, 0.5987664540608724);62.9152946472;1.0;12:14:22:632;0;4;1.78064516129032;1;0;0;0;0;1;1;1;1;2;0;0;;0;0;();();(-2000.0, -2000.0);
12:14:22:665;12:14:22:655;1448062220.12;(0.4176666021347046, 0.5995029449462891);63.597694397;1.0;12:14:22:665;0;4;-1.5;1;0;0;0;0;1;1;1;1;2;0;0;;0;0;();();(-2000.0, -2000.0);
12:14:22:682;12:14:22:655;1448062220.12;(0.4176666021347046, 0.5995029449462891);63.597694397;1.0;12:14:22:682;0;15;-0.096774193548387;1;0;0;0;0;1;1;1;1;2;0;0;;0;0;();();(-2000.0, -2000.0);
12:14:22:698;12:14:22:655;1448062220.12;(0.4176666021347046, 0.5995029449462891);63.597694397;1.0;12:14:22:698;0;5;1.78064516129032;1;0;0;0;0;1;1;1;1;2;0;0;;0;0;();();(-2000.0, -2000.0);
12:14:22:714;12:14:22:655;1448062220.12;(0.4176666021347046, 0.5995029449462891);63.597694397;1.0;12:14:22:714;0;0;1.78064516129032;1;0;0;0;0;1;1;1;1;2;0;0;;0;0;();();(-2000.0, -2000.0);
12:14:22:730;12:14:22:723;1448062220.19;(0.4166228771209717, 0.600480439927843);64.0121307373;1.0;12:14:22:730;0;4;1.77741935483871;1;0;0;0;0;1;1;1;1;2;0;0;;0;0;();();(-2000.0, -2000.0);
12:14:22:765;12:14:22:723;1448062220.19;(0.4166228771209717, 0.600480439927843);64.0121307373;1.0;12:14:22:765;0;4;1.78064516129032;1;0;0;0;0;1;1;1;1;2;0;0;;0;0;();();(-2000.0, -2000.0);
12:14:22:782;12:14:22:723;1448062220.19;(0.4166228771209717, 0.600480439927843);64.0121307373;1.0;12:14:22:782;0;15;-1.5;1;0;0;0;0;1;1;1;1;2;0;0;;0;0;();();(-2000.0, -2000.0);
12:14:22:799;12:14:22:788;1448062220.25;(0.4154904127120972, 0.601833724975586);64.3683166504;1.0;12:14:22:799;0;4;-1.5;1;0;0;0;0;1;1;1;1;2;0;0;;0;0;();();(-2000.0, -2000.0);
12:14:22:815;12:14:22:788;1448062220.25;(0.4154904127120972, 0.601833724975586);64.3683166504;1.0;12:14:22:815;0;10;1.78064516129032;1;0;0;0;0;1;1;1;1;2;0;0;;0;0;();();(-2000.0, -2000.0);
12:14:22:831;12:14:22:788;1448062220.25;(0.4154904127120972, 0.601833724975586);64.3683166504;1.0;12:14:22:831;0;10;1.78064516129032;1;0;0;0;0;1;1;1;1;2;0;0;;0;0;();();(-2000.0, -2000.0);
12:14:22:866;12:14:22:856;1448062220.32;(0.4146538496017456, 0.6026834275987414);64.0791244507;1.0;12:14:22:866;0;5;1.78064516129032;1;0;0;0;0;1;1;1;1;2;0;0;;0;0;();();(-2000.0, -2000.0);
12:14:22:881;12:14:22:856;1448062220.32;(0.4146538496017456, 0.6026834275987414);64.0791244507;1.0;12:14:22:881;0;10;1.78064516129032;1;0;0;0;0;1;1;1;1;2;0;0;;0;0;();();(-2000.0, -2000.0);
12:14:22:899;12:14:22:856;1448062220.32;(0.4146538496017456, 0.6026834275987414);64.0791244507;1.0;12:14:22:899;0;4;1.78064516129032;1;0;0;0;0;1;1;1;1;2;0;0;;0;0;();();(-2000.0, -2000.0);
12:14:22:915;12:14:22:856;1448062220.32;(0.4146538496017456, 0.6026834275987414);64.0791244507;1.0;12:14:22:915;0;9;1.78064516129032;1;0;0;0;0;1;1;1;1;2;0;0;;0;0;();();(-2000.0, -2000.0);
12:14:22:932;12:14:22:923;1448062220.39;(0.41343910694122316, 0.6036526997884115);63.7448654175;1.0;12:14:22:932;0;4;1.79032258064516;1;0;0;0;0;1;1;1;1;2;0;0;;0;0;();();(-2000.0, -2000.0);
12:14:22:965;12:14:22:923;1448062220.39;(0.41343910694122316, 0.6036526997884115);63.7448654175;1.0;12:14:22:965;0;15;1.78064516129032;1;0;0;0;0;1;1;1;1;2;0;0;;0;0;();();(-2000.0, -2000.0);
12:14:22:981;12:14:22:923;1448062220.39;(0.41343910694122316, 0.6036526997884115);63.7448654175;1.0;12:14:22:981;0;10;-1.5;1;0;0;0;0;1;1;1;1;2;0;0;;0;0;();();(-2000.0, -2000.0);
12:14:22:999;12:14:22:987;1448062220.42;(0.41238980293273925, 0.5991221110026042);63.6352920532;1.0;12:14:22:999;0;15;1.77741935483871;1;0;0;0;0;1;1;1;1;2;0;0;;0;0;();();(-2000.0, -2000.0);
12:14:23:015;12:14:22:987;1448062220.42;(0.41238980293273925, 0.5991221110026042);63.6352920532;1.0;12:14:23:015;0;9;1.76129032258065;1;0;0;0;0;1;1;1;1;2;0;0;;0;0;();();(-2000.0, -2000.0);
12:14:23:032;12:14:22:987;1448062220.42;(0.41238980293273925, 0.5991221110026042);63.6352920532;1.0;12:14:23:032;0;15;-1.5;1;0;0;0;0;1;1;1;1;2;0;0;;0;0;();();(-2000.0, -2000.0);
12:14:23:065;12:14:23:055;1448062220.52;(0.4109858274459839, 0.5908924526638455);63.3906288147;1.0;12:14:23:065;0;12;-1.5;1;0;0;0;0;1;1;1;1;2;0;0;;0;0;();();(-2000.0, -2000.0);
12:14:23:082;12:14:23:055;1448062220.52;(0.4109858274459839, 0.5908924526638455);63.3906288147;1.0;12:14:23:082;0;9;1.78064516129032;1;0;0;0;0;1;1;1;1;2;0;0;;0;0;();();(-2000.0, -2000.0);
12:14:23:099;12:14:23:055;1448062220.52;(0.4109858274459839, 0.5908924526638455);63.3906288147;1.0;12:14:23:099;0;0;-1.5;1;0;0;0;0;1;1;1;1;2;0;0;;0;0;();();(-2000.0, -2000.0);
12:14:23:115;12:14:23:055;1448062220.52;(0.4109858274459839, 0.5908924526638455);63.3906288147;1.0;12:14:23:115;0;5;-1.04838709677419;1;0;0;0;0;1;1;1;1;2;0;0;;0;0;();();(-2000.0, -2000.0);
12:14:23:132;12:14:23:119;1448062220.59;(0.41004080772399903, 0.5917669084337023);62.9591560364;1.0;12:14:23:132;0;5;-1.04838709677419;1;0;0;0;0;1;1;1;1;2;0;0;;0;0;();();(-2000.0, -2000.0);
12:14:23:165;12:14:23:119;1448062220.59;(0.41004080772399903, 0.5917669084337023);62.9591560364;1.0;12:14:23:165;0;9;0.819354838709677;1;0;0;0;0;1;1;1;1;2;0;0;;0;0;();();(-2000.0, -2000.0);
12:14:23:180;12:14:23:119;1448062220.59;(0.41004080772399903, 0.5917669084337023);62.9591560364;1.0;12:14:23:180;0;5;-1.5;1;0;0;0;0;1;1;1;1;2;0;0;;0;0;();();(-2000.0, -2000.0);
12:14:23:199;12:14:23:187;1448062220.65;(0.40896315574645997, 0.592702611287435);62.3013381958;1.0;12:14:23:199;0;10;-1.5;1;0;0;0;0;1;1;1;1;2;0;0;;0;0;();();(-2000.0, -2000.0);
12:14:23:215;12:14:23:187;1448062220.65;(0.40896315574645997, 0.592702611287435);62.3013381958;1.0;12:14:23:215;0;15;-1.5;1;0;0;0;0;1;1;1;1;2;0;0;;0;0;();();(-2000.0, -2000.0);
12:14:23:232;12:14:23:187;1448062220.65;(0.40896315574645997, 0.592702611287435);62.3013381958;1.0;12:14:23:232;0;15;-1.5;1;0;0;0;0;1;1;1;1;2;0;0;;0;0;();();(-2000.0, -2000.0);
12:14:23:266;12:14:23:256;1448062220.72;(0.4078989028930664, 0.5935587988959419);62.0480499268;1.0;12:14:23:266;0;9;-1.5;1;0;0;0;0;1;1;1;1;2;0;0;;0;0;();();(-2000.0, -2000.0);
12:14:23:282;12:14:23:256;1448062220.72;(0.4078989028930664, 0.5935587988959419);62.0480499268;1.0;12:14:23:282;0;7;-1.5;1;0;0;0;0;1;1;1;1;2;0;0;;0;0;();();(-2000.0, -2000.0);
12:14:23:299;12:14:23:256;1448062220.72;(0.4078989028930664, 0.5935587988959419);62.0480499268;1.0;12:14:23:299;0;9;-1.5;1;0;0;0;0;1;1;1;1;2;0;0;;0;0;();();(-2000.0, -2000.0);
12:14:23:315;12:14:23:256;1448062220.72;(0.4078989028930664, 0.5935587988959419);62.0480499268;1.0;12:14:23:315;0;15;-1.5;1;0;0;0;0;1;1;1;1;2;0;0;;0;0;();();(-2000.0, -2000.0);
12:14:23:332;12:14:23:319;1448062220.75;(0.4077447414398193, 0.5944226582845051);61.5177650452;1.0;12:14:23:332;0;9;-1.5;1;0;0;0;0;1;1;1;1;2;0;0;;0;0;();();(-2000.0, -2000.0);
12:14:23:350;12:14:23:319;1448062220.75;(0.4077447414398193, 0.5944226582845051);61.5177650452;1.0;12:14:23:350;0;15;-1.5;1;0;0;0;0;1;1;1;1;2;0;0;;0;0;();();(-2000.0, -2000.0);
12:14:23:382;12:14:23:319;1448062220.75;(0.4077447414398193, 0.5944226582845051);61.5177650452;1.0;12:14:23:382;0;15;-1.5;1;0;0;0;0;1;1;1;1;2;0;0;;0;0;();();(-2000.0, -2000.0);
12:14:23:399;12:14:23:389;1448062220.85;(0.40700368881225585, 0.596204121907552);59.8129005432;1.0;12:14:23:399;0;9;-1.5;1;0;0;0;0;1;1;1;1;2;0;0;;0;0;();();(-2000.0, -2000.0);
12:14:23:415;12:14:23:389;1448062220.85;(0.40700368881225585, 0.596204121907552);59.8129005432;1.0;12:14:23:415;0;15;-1.5;1;0;0;0;0;1;1;1;1;2;0;0;;0;0;();();(-2000.0, -2000.0);
12:14:23:432;12:14:23:389;1448062220.85;(0.40700368881225585, 0.596204121907552);59.8129005432;1.0;12:14:23:432;0;9;-1.5;1;0;0;0;0;1;1;1;1;2;0;0;;0;0;();();(-2000.0, -2000.0);
12:14:23:466;12:14:23:451;1448062220.89;(0.4061875343322754, 0.5973583645290799);59.2482681274;1.0;12:14:23:466;0;9;-1.5;1;0;0;0;0;1;1;1;1;2;0;0;;0;0;();();(-2000.0, -2000.0);
12:14:23:483;12:14:23:451;1448062220.89;(0.4061875343322754, 0.5973583645290799);59.2482681274;1.0;12:14:23:483;0;15;1.78064516129032;1;0;0;0;0;1;1;1;1;2;0;0;;0;0;();();(-2000.0, -2000.0);
12:14:23:499;12:14:23:451;1448062220.89;(0.4061875343322754, 0.5973583645290799);59.2482681274;1.0;12:14:23:499;0;5;1.78064516129032;1;0;0;0;0;1;1;1;1;2;0;0;;0;0;();();(-2000.0, -2000.0);
12:14:23:515;12:14:23:451;1448062220.89;(0.4061875343322754, 0.5973583645290799);59.2482681274;1.0;12:14:23:515;0;10;1.77741935483871;1;0;0;0;0;1;1;1;1;2;0;0;;0;0;();();(-2000.0, -2000.0);
12:14:23:532;12:14:23:520;1448062220.98;(0.4015606641769409, 0.6566653357611762);56.656463623;1.0;12:14:23:532;0;10;1.77741935483871;1;0;0;0;0;1;1;1;1;2;0;0;;0;0;();();(-2000.0, -2000.0);
12:14:23:549;12:14:23:520;1448062220.98;(0.4015606641769409, 0.6566653357611762);56.656463623;1.0;12:14:23:549;0;9;1.77741935483871;1;0;0;0;0;1;1;1;1;2;0;0;;0;0;();();(-2000.0, -2000.0);
12:14:23:582;12:14:23:520;1448062220.98;(0.4015606641769409, 0.6566653357611762);56.656463623;1.0;12:14:23:582;0;10;1.70967741935484;1;0;0;0;0;1;1;1;1;2;0;0;;0;0;();();(-2000.0, -2000.0);
12:14:23:600;12:14:23:588;1448062221.02;(0.4000821590423584, 0.6666166517469618);51.5937004089;0.735761023118;12:14:23:600;0;15;-1.5;1;0;0;0;0;1;1;1;1;2;0;0;;0;0;();();(-2000.0, -2000.0);
12:14:23:615;12:14:23:588;1448062221.02;(0.4000821590423584, 0.6666166517469618);51.5937004089;0.735761023118;12:14:23:615;0;10;1.78064516129032;1;0;0;0;0;1;1;1;1;2;0;0;;0;0;();();(-2000.0, -2000.0);
12:14:23:632;12:14:23:588;1448062221.02;(0.4000821590423584, 0.6666166517469618);51.5937004089;0.735761023118;12:14:23:632;0;15;1.78064516129032;1;0;0;0;0;1;1;1;1;2;0;0;;0;0;();();(-2000.0, -2000.0);
12:14:23:649;12:14:23:588;1448062221.02;(0.4000821590423584, 0.6666166517469618);51.5937004089;0.735761023118;12:14:23:649;0;9;1.78064516129032;1;0;0;0;0;1;1;1;1;2;0;0;;0;0;();();(-2000.0, -2000.0);
12:14:23:683;12:14:23:651;1448062221.09;(0.39724342823028563, 0.6728620105319553);56.5887374878;1.0;12:14:23:683;0;10;1.78064516129032;1;0;0;0;0;1;1;1;1;2;0;0;;0;0;();();(-2000.0, -2000.0);
12:14:23:699;12:14:23:651;1448062221.09;(0.39724342823028563, 0.6728620105319553);56.5887374878;1.0;12:14:23:699;0;5;1.78064516129032;1;0;0;0;0;1;1;1;1;2;0;0;;0;0;();();(-2000.0, -2000.0);
12:14:23:716;12:14:23:651;1448062221.09;(0.39724342823028563, 0.6728620105319553);56.5887374878;1.0;12:14:23:716;0;4;-1.5;1;0;0;0;0;1;1;1;1;2;0;0;;0;0;();();(-2000.0, -2000.0);
12:14:23:733;12:14:23:719;1448062221.15;(0.3925639629364014, 0.6773524814181857);56.2894287109;1.0;12:14:23:733;0;4;-1.5;1;0;0;0;0;1;1;1;1;2;0;0;;0;0;();();(-2000.0, -2000.0);
12:14:23:766;12:14:23:719;1448062221.15;(0.3925639629364014, 0.6773524814181857);56.2894287109;1.0;12:14:23:766;0;15;-1.5;1;0;0;0;0;1;1;1;1;2;0;0;;0;0;();();(-2000.0, -2000.0);
12:14:23:783;12:14:23:719;1448062221.15;(0.3925639629364014, 0.6773524814181857);56.2894287109;1.0;12:14:23:783;0;10;-1.5;1;0;0;0;0;1;1;1;1;2;0;0;;0;0;();();(-2000.0, -2000.0);
12:14:23:799;12:14:23:783;1448062221.22;(0.3880258321762085, 0.6794169743855794);56.5553359985;0.805896478802;12:14:23:799;0;15;-1.5;1;0;0;0;0;1;1;1;1;2;0;0;;0;0;();();(-2000.0, -2000.0);
12:14:23:816;12:14:23:783;1448062221.22;(0.3880258321762085, 0.6794169743855794);56.5553359985;0.805896478802;12:14:23:816;0;5;-1.5;1;0;0;0;0;1;1;1;1;2;0;0;;0;0;();();(-2000.0, -2000.0);
12:14:23:832;12:14:23:783;1448062221.22;(0.3880258321762085, 0.6794169743855794);56.5553359985;0.805896478802;12:14:23:832;0;0;-1.5;1;0;0;0;0;1;1;1;1;2;0;0;;0;0;();();(-2000.0, -2000.0);
12:14:23:850;12:14:23:783;1448062221.22;(0.3880258321762085, 0.6794169743855794);56.5553359985;0.805896478802;12:14:23:850;0;5;-1.5;1;0;0;0;0;1;1;1;1;2;0;0;;0;0;();();(-2000.0, -2000.0);
12:14:23:883;12:14:23:852;1448062221.32;(0.13958507776260376, 0.6974995507134332);40.1670951843;0.607418897591;12:14:23:883;0;4;-1.5;1;0;0;0;0;1;1;1;1;2;0;0;;0;0;();();(-2000.0, -2000.0);
12:14:23:899;12:14:23:852;1448062221.32;(0.13958507776260376, 0.6974995507134332);40.1670951843;0.607418897591;12:14:23:899;0;15;-1.5;1;0;0;0;0;1;1;1;1;2;0;0;;0;0;();();(-2000.0, -2000.0);
12:14:23:916;12:14:23:852;1448062221.32;(0.13958507776260376, 0.6974995507134332);40.1670951843;0.607418897591;12:14:23:916;0;9;-1.5;1;0;0;0;0;1;1;1;1;2;0;0;;0;0;();();(-2000.0, -2000.0);
12:14:23:933;12:14:23:916;1448062221.35;(0.41582589149475097, 0.6444390614827473);56.4978904724;0.943002932267;12:14:23:933;0;10;1.77741935483871;1;0;0;0;0;1;1;1;1;2;0;0;;0;0;();();(-2000.0, -2000.0);
12:14:23:950;12:14:23:916;1448062221.35;(0.41582589149475097, 0.6444390614827473);56.4978904724;0.943002932267;12:14:23:950;0;4;1.78064516129032;1;0;0;0;0;1;1;1;1;2;0;0;;0;0;();();(-2000.0, -2000.0);
12:14:23:982;12:14:23:916;1448062221.35;(0.41582589149475097, 0.6444390614827473);56.4978904724;0.943002932267;12:14:23:982;0;4;1.78064516129032;1;0;0;0;0;1;1;1;1;2;0;0;;0;0;();();(-2000.0, -2000.0);
12:14:23:999;12:14:23:983;1448062221.42;(0.4108644962310791, 0.6442859861585829);55.1973075867;1.0;12:14:23:999;0;0;1.78064516129032;1;0;0;0;0;1;1;1;1;2;0;0;;0;0;();();(-2000.0, -2000.0);
12:14:24:016;12:14:23:983;1448062221.42;(0.4108644962310791, 0.6442859861585829);55.1973075867;1.0;12:14:24:016;0;5;1.79032258064516;1;0;0;0;0;1;1;1;1;2;0;0;;0;0;();();(-2000.0, -2000.0);
12:14:24:032;12:14:23:983;1448062221.42;(0.4108644962310791, 0.6442859861585829);55.1973075867;1.0;12:14:24:032;0;9;1.78064516129032;1;0;0;0;0;1;1;1;1;2;0;0;;0;0;();();(-2000.0, -2000.0);
12:14:24:050;12:14:23:983;1448062221.42;(0.4108644962310791, 0.6442859861585829);55.1973075867;1.0;12:14:24:050;0;15;1.77741935483871;1;0;0;0;0;1;1;1;1;2;0;0;;0;0;();();(-2000.0, -2000.0);
12:14:24:083;12:14:24:052;1448062221.5;(0.40183262825012206, 0.6474347008599175);56.1201286316;1.0;12:14:24:083;0;15;1.76129032258065;1;0;0;0;0;1;1;1;1;2;0;0;;0;0;();();(-2000.0, -2000.0);
12:14:24:100;12:14:24:052;1448062221.5;(0.40183262825012206, 0.6474347008599175);56.1201286316;1.0;12:14:24:100;0;10;1.77741935483871;1;0;0;0;0;1;1;1;1;2;0;0;;0;0;();();(-2000.0, -2000.0);
12:14:24:117;12:14:24:116;1448062221.56;(0.3947899580001831, 0.649250857035319);56.8135948181;1.0;12:14:24:117;0;10;1.77741935483871;1;0;0;0;0;1;1;1;1;2;0;0;;0;0;();();(-2000.0, -2000.0);
12:14:24:133;12:14:24:116;1448062221.56;(0.3947899580001831, 0.649250857035319);56.8135948181;1.0;12:14:24:133;0;9;1.78064516129032;1;0;0;0;0;1;1;1;1;2;0;0;;0;0;();();(-2000.0, -2000.0);
12:14:24:150;12:14:24:116;1448062221.56;(0.3947899580001831, 0.649250857035319);56.8135948181;1.0;12:14:24:150;0;15;1.78064516129032;1;0;0;0;0;1;1;1;1;2;0;0;;0;0;();();(-2000.0, -2000.0);
12:14:24:183;12:14:24:183;1448062221.63;(0.3897151708602905, 0.6481903288099501);56.8478012085;1.0;12:14:24:183;0;15;1.78064516129032;1;0;0;0;0;1;1;1;1;2;0;0;;0;0;();();(-2000.0, -2000.0);
12:14:24:200;12:14:24:183;1448062221.63;(0.3897151708602905, 0.6481903288099501);56.8478012085;1.0;12:14:24:200;0;4;1.78064516129032;1;0;0;0;0;1;1;1;1;2;0;0;;0;0;();();(-2000.0, -2000.0);
12:14:24:217;12:14:24:183;1448062221.63;(0.3897151708602905, 0.6481903288099501);56.8478012085;1.0;12:14:24:217;0;9;-1.5;1;0;0;0;0;1;1;1;1;2;0;0;;0;0;();();(-2000.0, -2000.0);
12:14:24:233;12:14:24:183;1448062221.63;(0.3897151708602905, 0.6481903288099501);56.8478012085;1.0;12:14:24:233;0;5;-1.5;1;0;0;0;0;1;1;1;1;2;0;0;;0;0;();();(-2000.0, -2000.0);
12:14:24:250;12:14:24:183;1448062221.63;(0.3897151708602905, 0.6481903288099501);56.8478012085;1.0;12:14:24:250;0;15;-1.5;1;0;0;0;0;1;1;1;1;2;0;0;;0;0;();();(-2000.0, -2000.0);
12:14:24:283;12:14:24:183;1448062221.63;(0.3897151708602905, 0.6481903288099501);56.8478012085;1.0;12:14:24:283;0;9;-1.5;1;0;0;0;0;1;1;1;1;2;0;0;;0;0;();();(-2000.0, -2000.0);
12:14:24:300;12:14:24:183;1448062221.63;(0.3897151708602905, 0.6481903288099501);56.8478012085;1.0;12:14:24:300;0;5;1.77741935483871;1;0;0;0;0;1;1;1;1;2;0;0;;0;0;();();(-2000.0, -2000.0);
12:14:24:316;12:14:24:315;1448062221.76;(0.33173203468322754, 0.5999254438612196);57.0294914246;1.0;12:14:24:316;0;0;1.77741935483871;1;0;0;0;0;1;1;1;1;2;0;0;;0;0;();();(-2000.0, -2000.0);
12:14:24:333;12:14:24:315;1448062221.76;(0.33173203468322754, 0.5999254438612196);57.0294914246;1.0;12:14:24:333;0;4;1.78064516129032;1;0;0;0;0;1;1;1;1;2;0;0;;0;0;();();(-2000.0, -2000.0);
12:14:24:349;12:14:24:315;1448062221.76;(0.33173203468322754, 0.5999254438612196);57.0294914246;1.0;12:14:24:349;0;9;1.78064516129032;1;0;0;0;0;1;1;1;1;2;0;0;;0;0;();();(-2000.0, -2000.0);
12:14:24:382;12:14:24:315;1448062221.76;(0.33173203468322754, 0.5999254438612196);57.0294914246;1.0;12:14:24:382;0;10;1.79032258064516;1;0;0;0;0;1;1;1;1;2;0;0;;0;0;();();(-2000.0, -2000.0);
12:14:24:400;12:14:24:383;1448062221.85;(0.33081278800964353, 0.6036858452690972);56.7797164917;1.0;12:14:24:400;0;4;1.78064516129032;1;0;0;0;0;1;1;1;1;2;0;0;;0;0;();();(-2000.0, -2000.0);
12:14:24:417;12:14:24:383;1448062221.85;(0.33081278800964353, 0.6036858452690972);56.7797164917;1.0;12:14:24:417;0;10;1.77741935483871;1;0;0;0;0;1;1;1;1;2;0;0;;0;0;();();(-2000.0, -2000.0);
12:14:24:433;12:14:24:383;1448062221.85;(0.33081278800964353, 0.6036858452690972);56.7797164917;1.0;12:14:24:433;0;4;-1.5;1;0;0;0;0;1;1;1;1;2;0;0;;0;0;();();(-2000.0, -2000.0);
12:14:24:450;12:14:24:448;1448062221.92;(0.33221006393432617, 0.6062765333387587);56.3681182861;1.0;12:14:24:450;0;9;-1.5;1;0;0;0;0;1;1;1;1;2;0;0;;0;0;();();(-2000.0, -2000.0);
12:14:24:483;12:14:24:448;1448062221.92;(0.33221006393432617, 0.6062765333387587);56.3681182861;1.0;12:14:24:483;0;10;-1.5;1;0;0;0;0;1;1;1;1;2;0;0;;0;0;();();(-2000.0, -2000.0);
12:14:24:499;12:14:24:448;1448062221.92;(0.33221006393432617, 0.6062765333387587);56.3681182861;1.0;12:14:24:499;0;10;-1.5;1;0;0;0;0;1;1;1;1;2;0;0;;0;0;();();(-2000.0, -2000.0);
12:14:24:516;12:14:24:515;1448062221.99;(0.33347291946411134, 0.608432854546441);55.7352714539;1.0;12:14:24:516;0;9;-1.5;1;0;0;0;0;1;1;1;1;2;0;0;;0;0;();();(-2000.0, -2000.0);
12:14:24:534;12:14:24:515;1448062221.99;(0.33347291946411134, 0.608432854546441);55.7352714539;1.0;12:14:24:534;0;4;-1.5;1;0;0;0;0;1;1;1;1;2;0;0;;0;0;();();(-2000.0, -2000.0);
12:14:24:550;12:14:24:515;1448062221.99;(0.33347291946411134, 0.608432854546441);55.7352714539;1.0;12:14:24:550;0;5;-1.5;1;0;0;0;0;1;1;1;1;2;0;0;;0;0;();();(-2000.0, -2000.0);
12:14:24:583;12:14:24:580;1448062222.05;(0.3342142105102539, 0.6095571306016709);54.6066932678;1.0;12:14:24:583;0;4;-1.5;1;0;0;0;0;1;1;1;1;2;0;0;;0;0;();();(-2000.0, -2000.0);
12:14:24:600;12:14:24:580;1448062222.05;(0.3342142105102539, 0.6095571306016709);54.6066932678;1.0;12:14:24:600;0;15;-1.5;1;0;0;0;0;1;1;1;1;2;0;0;;0;0;();();(-2000.0, -2000.0);
12:14:24:616;12:14:24:580;1448062222.05;(0.3342142105102539, 0.6095571306016709);54.6066932678;1.0;12:14:24:616;0;5;1.79032258064516;1;0;0;0;0;1;1;1;1;2;0;0;;0;0;();();(-2000.0, -2000.0);
12:14:24:634;12:14:24:580;1448062222.05;(0.3342142105102539, 0.6095571306016709);54.6066932678;1.0;12:14:24:634;0;5;1.78064516129032;1;0;0;0;0;1;1;1;1;2;0;0;;0;0;();();(-2000.0, -2000.0);
12:14:24:650;12:14:24:647;1448062222.12;(0.3352560520172119, 0.6116601308186849);53.9814910889;1.0;12:14:24:650;0;5;1.78064516129032;1;0;0;0;0;1;1;1;1;2;0;0;;0;0;();();(-2000.0, -2000.0);
12:14:24:683;12:14:24:647;1448062222.12;(0.3352560520172119, 0.6116601308186849);53.9814910889;1.0;12:14:24:683;0;4;1.78064516129032;1;0;0;0;0;1;1;1;1;2;0;0;;0;0;();();(-2000.0, -2000.0);
12:14:24:700;12:14:24:647;1448062222.12;(0.3352560520172119, 0.6116601308186849);53.9814910889;1.0;12:14:24:700;0;10;1.78064516129032;1;0;0;0;0;1;1;1;1;2;0;0;;0;0;();();(-2000.0, -2000.0);
12:14:24:716;12:14:24:715;1448062222.19;(0.3366179227828979, 0.6129794650607638);53.6104125977;1.0;12:14:24:716;0;10;1.78064516129032;1;0;0;0;0;1;1;1;1;2;0;0;;0;0;();();(-2000.0, -2000.0);
12:14:24:734;12:14:24:715;1448062222.19;(0.3366179227828979, 0.6129794650607638);53.6104125977;1.0;12:14:24:734;0;1;1.76129032258065;1;0;0;0;0;1;1;1;1;2;0;0;;0;0;();();(-2000.0, -2000.0);
12:14:24:750;12:14:24:715;1448062222.19;(0.3366179227828979, 0.6129794650607638);53.6104125977;1.0;12:14:24:750;0;5;1.78064516129032;1;0;0;0;0;1;1;1;1;2;0;0;;0;0;();();(-2000.0, -2000.0);
12:14:24:783;12:14:24:780;1448062222.22;(0.33512985706329346, 0.6119698418511285);53.4176177979;0.897630997738;12:14:24:783;0;4;1.78064516129032;1;0;0;0;0;1;1;1;1;2;0;0;;0;0;();();(-2000.0, -2000.0);
12:14:24:800;12:14:24:780;1448062222.22;(0.33512985706329346, 0.6119698418511285);53.4176177979;0.897630997738;12:14:24:800;0;10;1.76129032258065;1;0;0;0;0;1;1;1;1;2;0;0;;0;0;();();(-2000.0, -2000.0);
12:14:24:816;12:14:24:780;1448062222.22;(0.33512985706329346, 0.6119698418511285);53.4176177979;0.897630997738;12:14:24:816;0;15;1.77741935483871;1;0;0;0;0;1;1;1;1;2;0;0;;0;0;();();(-2000.0, -2000.0);
12:14:24:833;12:14:24:780;1448062222.22;(0.33512985706329346, 0.6119698418511285);53.4176177979;0.897630997738;12:14:24:833;0;15;1.77741935483871;1;0;0;0;0;1;1;1;1;2;0;0;;0;0;();();(-2000.0, -2000.0);
12:14:24:851;12:14:24:849;1448062222.32;(0.33058910369873046, 0.6118372599283854);53.8468055725;1.0;12:14:24:851;0;15;1.77741935483871;1;0;0;0;0;1;1;1;1;2;0;0;;0;0;();();(-2000.0, -2000.0);
12:14:24:883;12:14:24:849;1448062222.32;(0.33058910369873046, 0.6118372599283854);53.8468055725;1.0;12:14:24:883;0;15;1.79032258064516;1;0;0;0;0;1;1;1;1;2;0;0;;0;0;();();(-2000.0, -2000.0);
12:14:24:900;12:14:24:849;1448062222.32;(0.33058910369873046, 0.6118372599283854);53.8468055725;1.0;12:14:24:900;0;10;1.77741935483871;1;0;0;0;0;1;1;1;1;2;0;0;;0;0;();();(-2000.0, -2000.0);
12:14:24:917;12:14:24:912;1448062222.35;(0.33077034950256345, 0.6128938039143881);53.8678131104;1.0;12:14:24:917;0;15;1.78064516129032;1;0;0;0;0;1;1;1;1;2;0;0;;0;0;();();(-2000.0, -2000.0);
12:14:24:934;12:14:24:912;1448062222.35;(0.33077034950256345, 0.6128938039143881);53.8678131104;1.0;12:14:24:934;0;9;1.78064516129032;1;0;0;0;0;1;1;1;1;2;0;0;;0;0;();();(-2000.0, -2000.0);
12:14:24:950;12:14:24:912;1448062222.35;(0.33077034950256345, 0.6128938039143881);53.8678131104;1.0;12:14:24:950;0;0;1.77741935483871;1;0;0;0;0;1;1;1;1;2;0;0;;0;0;();();(-2000.0, -2000.0);
12:14:24:983;12:14:24:979;1448062222.45;(0.3318972587585449, 0.6157012091742622);54.4541854858;1.0;12:14:24:983;0;15;1.78064516129032;1;0;0;0;0;1;1;1;1;2;0;0;;0;0;();();(-2000.0, -2000.0);
12:14:25:000;12:14:24:979;1448062222.45;(0.3318972587585449, 0.6157012091742622);54.4541854858;1.0;12:14:25:000;0;10;1.78064516129032;1;0;0;0;0;1;1;1;1;2;0;0;;0;0;();();(-2000.0, -2000.0);
12:14:25:017;12:14:24:979;1448062222.45;(0.3318972587585449, 0.6157012091742622);54.4541854858;1.0;12:14:25:017;0;0;1.78064516129032;1;0;0;0;0;1;1;1;1;2;0;0;;0;0;();();(-2000.0, -2000.0);
12:14:25:033;12:14:24:979;1448062222.45;(0.3318972587585449, 0.6157012091742622);54.4541854858;1.0;12:14:25:033;0;9;1.78064516129032;1;0;0;0;0;1;1;1;1;2;0;0;;0;0;();();(-2000.0, -2000.0);
12:14:25:050;12:14:25:049;1448062222.52;(0.33251276016235354, 0.6174662484063043);54.5158958435;1.0;12:14:25:050;0;15;1.78064516129032;1;0;0;0;0;1;1;1;1;2;0;0;;0;0;();();(-2000.0, -2000.0);
12:14:25:084;12:14:25:049;1448062222.52;(0.33251276016235354, 0.6174662484063043);54.5158958435;1.0;12:14:25:084;0;15;1.78064516129032;1;0;0;0;0;1;1;1;1;2;0;0;;0;0;();();(-2000.0, -2000.0);
12:14:25:100;12:14:25:049;1448062222.52;(0.33251276016235354, 0.6174662484063043);54.5158958435;1.0;12:14:25:100;0;9;1.78064516129032;1;0;0;0;0;1;1;1;1;2;0;0;;0;0;();();(-2000.0, -2000.0);
12:14:25:117;12:14:25:111;1448062222.59;(0.3330345630645752, 0.6187112596299913);54.5251197815;1.0;12:14:25:117;0;0;1.77741935483871;1;0;0;0;0;1;1;1;1;2;0;0;;0;0;();();(-2000.0, -2000.0);
12:14:25:134;12:14:25:111;1448062222.59;(0.3330345630645752, 0.6187112596299913);54.5251197815;1.0;12:14:25:134;0;5;1.78064516129032;1;0;0;0;0;1;1;1;1;2;0;0;;0;0;();();(-2000.0, -2000.0);
12:14:25:150;12:14:25:111;1448062222.59;(0.3330345630645752, 0.6187112596299913);54.5251197815;1.0;12:14:25:150;0;9;1.78064516129032;1;0;0;0;0;1;1;1;1;2;0;0;;0;0;();();(-2000.0, -2000.0);
12:14:25:183;12:14:25:179;1448062222.65;(0.33301339149475095, 0.6200878143310546);54.1128997803;1.0;12:14:25:183;0;9;1.78064516129032;1;0;0;0;0;1;1;1;1;2;0;0;;0;0;();();(-2000.0, -2000.0);
12:14:25:201;12:14:25:179;1448062222.65;(0.33301339149475095, 0.6200878143310546);54.1128997803;1.0;12:14:25:201;0;15;1.78064516129032;1;0;0;0;0;1;1;1;1;2;0;0;;0;0;();();(-2000.0, -2000.0);
12:14:25:217;12:14:25:179;1448062222.65;(0.33301339149475095, 0.6200878143310546);54.1128997803;1.0;12:14:25:217;0;10;0.793548387096774;1;0;0;0;0;1;1;1;1;2;0;0;;0;0;();();(-2000.0, -2000.0);
12:14:25:233;12:14:25:179;1448062222.65;(0.33301339149475095, 0.6200878143310546);54.1128997803;1.0;12:14:25:233;0;15;0.980645161290323;1;0;0;0;0;1;1;1;1;2;0;0;;0;0;();();(-2000.0, -2000.0);
12:14:25:250;12:14:25:243;1448062222.69;(0.3329263925552368, 0.6208709928724501);53.5794525146;1.0;12:14:25:250;0;9;1.78064516129032;1;0;0;0;0;1;1;1;1;2;0;0;;0;0;();();(-2000.0, -2000.0);
12:14:25:284;12:14:25:243;1448062222.69;(0.3329263925552368, 0.6208709928724501);53.5794525146;1.0;12:14:25:284;0;4;-0.932258064516129;1;0;0;0;0;1;1;1;1;2;0;0;;0;0;();();(-2000.0, -2000.0);
12:14:25:300;12:14:25:243;1448062222.69;(0.3329263925552368, 0.6208709928724501);53.5794525146;1.0;12:14:25:300;0;15;1.77741935483871;1;0;0;0;0;1;1;1;1;2;0;0;;0;0;();();(-2000.0, -2000.0);
12:14:25:317;12:14:25:243;1448062222.69;(0.3329263925552368, 0.6208709928724501);53.5794525146;1.0;12:14:25:317;0;9;1.76129032258065;1;0;0;0;0;1;1;1;1;2;0;0;;0;0;();();(-2000.0, -2000.0);
12:14:25:334;12:14:25:243;1448062222.69;(0.3329263925552368, 0.6208709928724501);53.5794525146;1.0;12:14:25:334;0;0;1.26129032258065;1;0;0;0;0;1;1;1;1;2;0;0;;0;0;();();(-2000.0, -2000.0);
12:14:25:350;12:14:25:243;1448062222.69;(0.3329263925552368, 0.6208709928724501);53.5794525146;1.0;12:14:25:350;0;10;1.36774193548387;1;0;0;0;0;1;1;1;1;2;0;0;;0;0;();();(-2000.0, -2000.0);
12:14:25:383;12:14:25:379;1448062222.72;(0.3384087085723877, 0.6245224422878689);54.5696296692;1.0;12:14:25:383;0;15;-1.5;1;0;0;0;0;1;1;1;1;2;0;0;;0;0;();();(-2000.0, -2000.0);
12:14:25:401;12:14:25:379;1448062222.72;(0.3384087085723877, 0.6245224422878689);54.5696296692;1.0;12:14:25:401;0;4;-1.5;1;0;0;0;0;1;1;1;1;2;0;0;;0;0;();();(-2000.0, -2000.0);
12:14:25:417;12:14:25:379;1448062222.72;(0.3384087085723877, 0.6245224422878689);54.5696296692;1.0;12:14:25:417;0;5;-1.5;1;0;0;0;0;1;1;1;1;2;0;0;;0;0;();();(-2000.0, -2000.0);
12:14:25:434;12:14:25:379;1448062222.72;(0.3384087085723877, 0.6245224422878689);54.5696296692;1.0;12:14:25:434;0;10;-1.5;1;0;0;0;0;1;1;1;1;2;0;0;;0;0;();();(-2000.0, -2000.0);
12:14:25:451;12:14:25:443;1448062222.89;(0.34542155265808105, 0.6295254601372613);53.5271263123;1.0;12:14:25:451;0;4;-1.5;1;0;0;0;0;1;1;1;1;2;0;0;;0;0;();();(-2000.0, -2000.0);
12:14:25:483;12:14:25:443;1448062222.89;(0.34542155265808105, 0.6295254601372613);53.5271263123;1.0;12:14:25:483;0;4;-1.5;1;0;0;0;0;1;1;1;1;2;0;0;;0;0;();();(-2000.0, -2000.0);
12:14:25:501;12:14:25:443;1448062222.89;(0.34542155265808105, 0.6295254601372613);53.5271263123;1.0;12:14:25:501;0;10;-1.5;1;0;0;0;0;1;1;1;1;2;0;0;;0;0;();();(-2000.0, -2000.0);
12:14:25:518;12:14:25:512;1448062222.95;(0.3451687335968018, 0.6310033162434896);53.9051780701;1.0;12:14:25:518;0;5;-1.5;1;0;0;0;0;1;1;1;1;2;0;0;;0;0;();();(-2000.0, -2000.0);
12:14:25:534;12:14:25:512;1448062222.95;(0.3451687335968018, 0.6310033162434896);53.9051780701;1.0;12:14:25:534;0;15;-1.5;1;0;0;0;0;1;1;1;1;2;0;0;;0;0;();();(-2000.0, -2000.0);
12:14:25:551;12:14:25:512;1448062222.95;(0.3451687335968018, 0.6310033162434896);53.9051780701;1.0;12:14:25:551;0;4;-1.5;1;0;0;0;0;1;1;1;1;2;0;0;;0;0;();();(-2000.0, -2000.0);
12:14:25:585;12:14:25:575;1448062223.02;(0.34541072845458987, 0.6324247148301867);53.704372406;1.0;12:14:25:585;0;5;-1.5;1;0;0;0;0;1;1;1;1;2;0;0;;0;0;();();(-2000.0, -2000.0);
12:14:25:601;12:14:25:575;1448062223.02;(0.34541072845458987, 0.6324247148301867);53.704372406;1.0;12:14:25:601;0;10;-1.5;1;0;0;0;0;1;1;1;1;2;0;0;;0;0;();();(-2000.0, -2000.0);
12:14:25:618;12:14:25:575;1448062223.02;(0.34541072845458987, 0.6324247148301867);53.704372406;1.0;12:14:25:618;0;4;-1.5;1;0;0;0;0;1;1;1;1;2;0;0;;0;0;();();(-2000.0, -2000.0);
12:14:25:635;12:14:25:575;1448062223.02;(0.34541072845458987, 0.6324247148301867);53.704372406;1.0;12:14:25:635;0;9;-1.5;1;0;0;0;0;1;1;1;1;2;0;0;;0;0;();();(-2000.0, -2000.0);
12:14:25:651;12:14:25:644;1448062223.09;(0.3457897663116455, 0.6331153869628906);53.4847564697;1.0;12:14:25:651;0;11;-1.5;1;0;0;0;0;1;1;1;1;2;0;0;;0;0;();();(-2000.0, -2000.0);
12:14:25:684;12:14:25:644;1448062223.09;(0.3457897663116455, 0.6331153869628906);53.4847564697;1.0;12:14:25:684;0;15;-1.5;1;0;0;0;0;1;1;1;1;2;0;0;;0;0;();();(-2000.0, -2000.0);
12:14:25:701;12:14:25:644;1448062223.09;(0.3457897663116455, 0.6331153869628906);53.4847564697;1.0;12:14:25:701;0;15;-1.5;1;0;0;0;0;1;1;1;1;2;0;0;;0;0;();();(-2000.0, -2000.0);
12:14:25:717;12:14:25:715;1448062223.15;(0.34589290618896484, 0.6335314856635199);53.7051620483;1.0;12:14:25:717;0;15;1.77741935483871;1;0;0;0;0;1;1;1;1;2;0;0;;0;0;();();(-2000.0, -2000.0);
12:14:25:735;12:14:25:715;1448062223.15;(0.34589290618896484, 0.6335314856635199);53.7051620483;1.0;12:14:25:735;0;9;1.78064516129032;1;0;0;0;0;1;1;1;1;2;0;0;;0;0;();();(-2000.0, -2000.0);
12:14:25:750;12:14:25:715;1448062223.15;(0.34589290618896484, 0.6335314856635199);53.7051620483;1.0;12:14:25:750;0;0;1.77741935483871;1;0;0;0;0;1;1;1;1;2;0;0;;0;0;();();(-2000.0, -2000.0);
12:14:25:785;12:14:25:776;1448062223.22;(0.34629437923431394, 0.6340415954589844);53.9763679504;1.0;12:14:25:785;0;0;1.78064516129032;1;0;0;0;0;1;1;1;1;2;0;0;;0;0;();();(-2000.0, -2000.0);
12:14:25:801;12:14:25:776;1448062223.22;(0.34629437923431394, 0.6340415954589844);53.9763679504;1.0;12:14:25:801;0;4;1.78064516129032;1;0;0;0;0;1;1;1;1;2;0;0;;0;0;();();(-2000.0, -2000.0);
12:14:25:818;12:14:25:776;1448062223.22;(0.34629437923431394, 0.6340415954589844);53.9763679504;1.0;12:14:25:818;0;4;1.78064516129032;1;0;0;0;0;1;1;1;1;2;0;0;;0;0;();();(-2000.0, -2000.0);
12:14:25:835;12:14:25:776;1448062223.22;(0.34629437923431394, 0.6340415954589844);53.9763679504;1.0;12:14:25:835;0;5;1.78064516129032;1;0;0;0;0;1;1;1;1;2;0;0;;0;0;();();(-2000.0, -2000.0);
12:14:25:850;12:14:25:844;1448062223.29;(0.36947903633117674, 0.6621227900187174);54.7701225281;0.977113653797;12:14:25:850;0;15;1.78064516129032;1;0;0;0;0;1;1;1;1;2;0;0;;0;0;();();(-2000.0, -2000.0);
12:14:25:885;12:14:25:844;1448062223.29;(0.36947903633117674, 0.6621227900187174);54.7701225281;0.977113653797;12:14:25:885;0;9;1.78064516129032;1;0;0;0;0;1;1;1;1;2;0;0;;0;0;();();(-2000.0, -2000.0);
12:14:25:901;12:14:25:844;1448062223.29;(0.36947903633117674, 0.6621227900187174);54.7701225281;0.977113653797;12:14:25:901;0;5;1.77741935483871;1;0;0;0;0;1;1;1;1;2;0;0;;0;0;();();(-2000.0, -2000.0);
12:14:25:918;12:14:25:907;1448062223.37;(0.3709104537963867, 0.6664208730061849);53.8857955933;0.919976289147;12:14:25:918;0;0;1.76129032258065;1;0;0;0;0;1;1;1;1;2;0;0;;0;0;();();(-2000.0, -2000.0);
12:14:25:934;12:14:25:907;1448062223.37;(0.3709104537963867, 0.6664208730061849);53.8857955933;0.919976289147;12:14:25:934;0;4;1.78064516129032;1;0;0;0;0;1;1;1;1;2;0;0;;0;0;();();(-2000.0, -2000.0);
12:14:25:951;12:14:25:907;1448062223.37;(0.3709104537963867, 0.6664208730061849);53.8857955933;0.919976289147;12:14:25:951;0;9;1.78064516129032;1;0;0;0;0;1;1;1;1;2;0;0;;0;0;();();(-2000.0, -2000.0);
12:14:25:985;12:14:25:976;1448062223.42;(0.3680577754974365, 0.6675639894273546);53.3351020813;1.0;12:14:25:985;0;9;1.78064516129032;1;0;0;0;0;1;1;1;1;2;0;0;;0;0;();();(-2000.0, -2000.0);
12:14:26:001;12:14:25:976;1448062223.42;(0.3680577754974365, 0.6675639894273546);53.3351020813;1.0;12:14:26:001;0;9;1.78064516129032;1;0;0;0;0;1;1;1;1;2;0;0;;0;0;();();(-2000.0, -2000.0);
12:14:26:018;12:14:25:976;1448062223.42;(0.3680577754974365, 0.6675639894273546);53.3351020813;1.0;12:14:26:018;0;5;1.77741935483871;1;0;0;0;0;1;1;1;1;2;0;0;;0;0;();();(-2000.0, -2000.0);
12:14:26:034;12:14:25:976;1448062223.42;(0.3680577754974365, 0.6675639894273546);53.3351020813;1.0;12:14:26:034;0;5;1.77741935483871;1;0;0;0;0;1;1;1;1;2;0;0;;0;0;();();(-2000.0, -2000.0);
12:14:26:051;12:14:26:043;1448062223.52;(0.36489062309265136, 0.6690193600124783);53.031578064;1.0;12:14:26:051;0;15;-0.2;1;0;0;0;0;1;1;1;1;2;0;0;;0;0;();();(-2000.0, -2000.0);
12:14:26:084;12:14:26:043;1448062223.52;(0.36489062309265136, 0.6690193600124783);53.031578064;1.0;12:14:26:084;0;10;1.78064516129032;1;0;0;0;0;1;1;1;1;2;0;0;;0;0;();();(-2000.0, -2000.0);
12:14:26:102;12:14:26:043;1448062223.52;(0.36489062309265136, 0.6690193600124783);53.031578064;1.0;12:14:26:102;0;15;1.79032258064516;1;0;0;0;0;1;1;1;1;2;0;0;;0;0;();();(-2000.0, -2000.0);
12:14:26:118;12:14:26:108;1448062223.55;(0.36502900123596194, 0.6690314398871529);53.3053703308;1.0;12:14:26:118;0;9;1.78064516129032;1;0;0;0;0;1;1;1;1;2;0;0;;0;0;();();(-2000.0, -2000.0);
12:14:26:135;12:14:26:108;1448062223.55;(0.36502900123596194, 0.6690314398871529);53.3053703308;1.0;12:14:26:135;0;0;-0.390322580645161;1;0;0;0;0;1;1;1;1;2;0;0;;0;0;();();(-2000.0, -2000.0);
12:14:26:152;12:14:26:108;1448062223.55;(0.36502900123596194, 0.6690314398871529);53.3053703308;1.0;12:14:26:152;0;5;-1.5;1;0;0;0;0;1;1;1;1;2;0;0;;0;0;();();(-2000.0, -2000.0);
12:14:26:185;12:14:26:175;1448062223.62;(0.41857328414916994, 0.6653223461574979);52.7237739563;1.0;12:14:26:185;0;10;-1.5;1;0;0;0;0;1;1;1;1;2;0;0;;0;0;();();(-2000.0, -2000.0);
12:14:26:201;12:14:26:175;1448062223.62;(0.41857328414916994, 0.6653223461574979);52.7237739563;1.0;12:14:26:201;0;15;-1.5;1;0;0;0;0;1;1;1;1;2;0;0;;0;0;();();(-2000.0, -2000.0);
12:14:26:222;12:14:26:175;1448062223.62;(0.41857328414916994, 0.6653223461574979);52.7237739563;1.0;12:14:26:222;0;5;1.78064516129032;1;0;0;0;0;1;1;1;1;4;0;0;;0;0;();();(-2000.0, -2000.0);
12:14:26:235;12:14:26:175;1448062223.62;(0.41857328414916994, 0.6653223461574979);52.7237739563;1.0;12:14:26:235;0;10;1.76129032258065;1;0;0;0;0;1;1;1;1;4;0;0;;0;0;();();(-2000.0, -2000.0);
12:14:26:252;12:14:26:175;1448062223.62;(0.41857328414916994, 0.6653223461574979);52.7237739563;1.0;12:14:26:252;0;4;-1.5;1;0;0;0;0;1;1;1;1;4;0;0;;0;0;();();(-2000.0, -2000.0);
12:14:26:285;12:14:26:255;1448062223.69;(0.41604087352752683, 0.6683943854437935);53.5843391418;1.0;12:14:26:285;0;4;-1.5;1;0;0;0;0;1;1;1;1;4;0;0;;0;0;();();(-2000.0, -2000.0);
12:14:26:301;12:14:26:255;1448062223.69;(0.41604087352752683, 0.6683943854437935);53.5843391418;1.0;12:14:26:301;0;0;-1.5;1;0;0;0;0;1;1;1;1;4;0;0;;0;0;();();(-2000.0, -2000.0);
12:14:26:318;12:14:26:307;1448062223.75;(0.41149818897247314, 0.6709417131212023);54.2686309814;1.0;12:14:26:318;0;4;1.78064516129032;1;0;0;0;0;1;1;1;1;4;0;0;;0;0;();();(-2000.0, -2000.0);
12:14:26:334;12:14:26:307;1448062223.75;(0.41149818897247314, 0.6709417131212023);54.2686309814;1.0;12:14:26:334;0;10;1.78064516129032;1;0;0;0;0;1;1;1;1;4;0;0;;0;0;();();(-2000.0, -2000.0);
12:14:26:351;12:14:26:307;1448062223.75;(0.41149818897247314, 0.6709417131212023);54.2686309814;1.0;12:14:26:351;0;4;1.78064516129032;1;0;0;0;0;1;1;1;1;4;0;0;;0;0;();();(-2000.0, -2000.0);
12:14:26:385;12:14:26:376;1448062223.82;(0, 0);0;0;12:14:26:385;0;5;-1.5;1;0;0;0;0;1;1;1;1;4;0;0;;0;0;();();(-2000.0, -2000.0);
12:14:26:400;12:14:26:376;1448062223.82;(0, 0);0;0;12:14:26:400;0;15;-1.5;1;0;0;0;0;1;1;1;1;4;0;0;;0;0;();();(-2000.0, -2000.0);
12:14:26:419;12:14:26:376;1448062223.82;(0, 0);0;0;12:14:26:419;0;6;-1.5;1;0;0;0;0;1;1;1;1;4;0;0;;0;0;();();(-2000.0, -2000.0);
12:14:26:436;12:14:26:376;1448062223.82;(0, 0);0;0;12:14:26:436;0;10;-1.5;1;0;0;0;0;1;1;1;1;4;0;0;;0;0;();();(-2000.0, -2000.0);
12:14:26:451;12:14:26:439;1448062223.9;(0.2494502544403076, 0.6878888660007053);66.9140930176;0.65627301735;12:14:26:451;0;4;-1.5;1;0;0;0;0;1;1;1;1;4;0;0;;0;0;();();(-2000.0, -2000.0);
12:14:26:485;12:14:26:439;1448062223.9;(0.2494502544403076, 0.6878888660007053);66.9140930176;0.65627301735;12:14:26:485;0;15;-1.5;1;0;0;0;0;1;1;1;1;4;0;0;;0;0;();();(-2000.0, -2000.0);
12:14:26:502;12:14:26:439;1448062223.9;(0.2494502544403076, 0.6878888660007053);66.9140930176;0.65627301735;12:14:26:502;0;10;-1.5;1;0;0;0;0;1;1;1;1;4;0;0;;0;0;();();(-2000.0, -2000.0);
12:14:26:518;12:14:26:508;1448062223.95;(0.4820755958557129, 0.6205025566948785);54.098690033;0.978909367412;12:14:26:518;0;15;-1.5;1;0;0;0;0;1;1;1;1;4;0;0;;0;0;();();(-2000.0, -2000.0);
12:14:26:534;12:14:26:508;1448062223.95;(0.4820755958557129, 0.6205025566948785);54.098690033;0.978909367412;12:14:26:534;0;5;1.78064516129032;1;0;0;0;0;1;1;1;1;4;0;0;;0;0;();();(-2000.0, -2000.0);
12:14:26:551;12:14:26:508;1448062223.95;(0.4820755958557129, 0.6205025566948785);54.098690033;0.978909367412;12:14:26:551;0;0;1.77741935483871;1;0;0;0;0;1;1;1;1;4;0;0;;0;0;();();(-2000.0, -2000.0);
12:14:26:713;12:14:26:708;1448062224.16;(0.45408129692077637, 0.642819341023763);55.2871551514;1.0;12:14:26:713;0;15;-1.5;1;0;0;0;0;1;1;1;1;4;0;0;;0;0;();();(-2000.0, -2000.0);
12:14:26:715;12:14:26:708;1448062224.16;(0.45408129692077637, 0.642819341023763);55.2871551514;1.0;12:14:26:715;0;15;-1.5;1;0;0;0;0;1;1;1;1;4;0;0;;0;0;();();(-2000.0, -2000.0);
12:14:26:718;12:14:26:708;1448062224.16;(0.45408129692077637, 0.642819341023763);55.2871551514;1.0;12:14:26:718;0;15;-1.5;1;0;0;0;0;1;1;1;1;4;0;0;;0;0;();();(-2000.0, -2000.0);
12:14:26:721;12:14:26:708;1448062224.16;(0.45408129692077637, 0.642819341023763);55.2871551514;1.0;12:14:26:721;0;10;-1.5;1;0;0;0;0;1;1;1;1;4;0;0;;0;0;();();(-2000.0, -2000.0);
12:14:26:724;12:14:26:708;1448062224.16;(0.45408129692077637, 0.642819341023763);55.2871551514;1.0;12:14:26:723;0;10;-1.5;1;0;0;0;0;1;1;1;1;4;0;0;;0;0;();();(-2000.0, -2000.0);
12:14:26:726;12:14:26:708;1448062224.16;(0.45408129692077637, 0.642819341023763);55.2871551514;1.0;12:14:26:726;0;4;-1.5;1;0;0;0;0;1;1;1;1;4;0;0;;0;0;();();(-2000.0, -2000.0);
12:14:26:729;12:14:26:708;1448062224.16;(0.45408129692077637, 0.642819341023763);55.2871551514;1.0;12:14:26:729;0;4;-1.5;1;0;0;0;0;1;1;1;1;4;0;0;;0;0;();();(-2000.0, -2000.0);
12:14:26:732;12:14:26:708;1448062224.16;(0.45408129692077637, 0.642819341023763);55.2871551514;1.0;12:14:26:732;0;4;-1.5;1;0;0;0;0;1;1;1;1;4;0;0;;0;0;();();(-2000.0, -2000.0);
12:14:26:735;12:14:26:708;1448062224.16;(0.45408129692077637, 0.642819341023763);55.2871551514;1.0;12:14:26:735;0;4;-1.5;1;0;0;0;0;1;1;1;1;4;0;0;;0;0;();();(-2000.0, -2000.0);
12:14:26:751;12:14:26:708;1448062224.16;(0.45408129692077637, 0.642819341023763);55.2871551514;1.0;12:14:26:751;0;9;-1.5;1;0;0;0;0;1;1;1;1;4;0;0;;0;0;();();(-2000.0, -2000.0);
12:14:26:786;12:14:26:771;1448062224.19;(0.45006742477416994, 0.6448146184285481);56.0401039124;1.0;12:14:26:786;0;10;-1.5;1;0;0;0;0;1;1;1;1;4;0;0;;0;0;();();(-2000.0, -2000.0);
12:14:26:802;12:14:26:771;1448062224.19;(0.45006742477416994, 0.6448146184285481);56.0401039124;1.0;12:14:26:802;0;15;-1.5;1;0;0;0;0;1;1;1;1;4;0;0;;0;0;();();(-2000.0, -2000.0);
12:14:26:819;12:14:26:771;1448062224.19;(0.45006742477416994, 0.6448146184285481);56.0401039124;1.0;12:14:26:819;0;10;-1.5;1;0;0;0;0;1;1;1;1;4;0;0;;0;0;();();(-2000.0, -2000.0);
12:14:26:835;12:14:26:771;1448062224.19;(0.45006742477416994, 0.6448146184285481);56.0401039124;1.0;12:14:26:835;0;4;-1.5;1;0;0;0;0;1;1;1;1;4;0;0;;0;0;();();(-2000.0, -2000.0);
12:14:26:852;12:14:26:840;1448062224.28;(0.4439991474151611, 0.6474835925632053);56.6472625732;1.0;12:14:26:852;0;9;-1.5;1;0;0;0;0;1;1;1;1;4;0;0;;0;0;();();(-2000.0, -2000.0);
12:14:26:869;12:14:26:840;1448062224.28;(0.4439991474151611, 0.6474835925632053);56.6472625732;1.0;12:14:26:869;0;0;-1.5;1;0;0;0;0;1;1;1;1;4;0;0;;0;0;();();(-2000.0, -2000.0);
12:14:26:902;12:14:26:840;1448062224.28;(0.4439991474151611, 0.6474835925632053);56.6472625732;1.0;12:14:26:902;0;15;-1.5;1;0;0;0;0;1;1;1;1;4;0;0;;0;0;();();(-2000.0, -2000.0);
12:14:26:918;12:14:26:903;1448062224.37;(0.45959858894348143, 0.6730329513549804);57.8148956299;0.943565268032;12:14:26:918;0;4;-1.5;1;0;0;0;0;1;1;1;1;4;0;0;;0;0;();();(-2000.0, -2000.0);
12:14:26:935;12:14:26:903;1448062224.37;(0.45959858894348143, 0.6730329513549804);57.8148956299;0.943565268032;12:14:26:935;0;0;-1.5;1;0;0;0;0;1;1;1;1;4;0;0;;0;0;();();(-2000.0, -2000.0);
12:14:26:951;12:14:26:903;1448062224.37;(0.45959858894348143, 0.6730329513549804);57.8148956299;0.943565268032;12:14:26:951;0;5;-1.5;1;0;0;0;0;1;1;1;1;4;0;0;;0;0;();();(-2000.0, -2000.0);
12:14:26:969;12:14:26:903;1448062224.37;(0.45959858894348143, 0.6730329513549804);57.8148956299;0.943565268032;12:14:26:969;0;15;-1.5;1;0;0;0;0;1;1;1;1;4;0;0;;0;0;();();(-2000.0, -2000.0);
12:14:27:002;12:14:26:971;1448062224.42;(0.4604943752288818, 0.681688478257921);58.372177124;0.937716742284;12:14:27:002;0;10;1.78064516129032;1;0;0;0;0;1;1;1;1;4;0;0;;0;0;();();(-2000.0, -2000.0);
12:14:27:019;12:14:26:971;1448062224.42;(0.4604943752288818, 0.681688478257921);58.372177124;0.937716742284;12:14:27:019;0;5;1.78064516129032;1;0;0;0;0;1;1;1;1;4;0;0;;0;0;();();(-2000.0, -2000.0);
12:14:27:035;12:14:26:971;1448062224.42;(0.4604943752288818, 0.681688478257921);58.372177124;0.937716742284;12:14:27:035;0;10;1.78064516129032;1;0;0;0;0;1;1;1;1;4;0;0;;0;0;();();(-2000.0, -2000.0);
12:14:27:052;12:14:27:036;1448062224.49;(0.4578585147857666, 0.68454958597819);57.9902534485;0.855546889822;12:14:27:052;0;4;1.77741935483871;1;0;0;0;0;1;1;1;1;4;0;0;;0;0;();();(-2000.0, -2000.0);
12:14:27:086;12:14:27:036;1448062224.49;(0.4578585147857666, 0.68454958597819);57.9902534485;0.855546889822;12:14:27:086;0;5;1.78064516129032;1;0;0;0;0;1;1;1;1;4;0;0;;0;0;();();(-2000.0, -2000.0);
12:14:27:102;12:14:27:036;1448062224.49;(0.4578585147857666, 0.68454958597819);57.9902534485;0.855546889822;12:14:27:102;0;3;1.78064516129032;1;0;0;0;0;1;1;1;1;4;0;0;;0;0;();();(-2000.0, -2000.0);
12:14:27:119;12:14:27:103;1448062224.52;(0.4537153720855713, 0.6869488398234049);60.3961257935;0.868443880907;12:14:27:119;0;5;1.78064516129032;1;0;0;0;0;1;1;1;1;4;0;0;;0;0;();();(-2000.0, -2000.0);
12:14:27:135;12:14:27:103;1448062224.52;(0.4537153720855713, 0.6869488398234049);60.3961257935;0.868443880907;12:14:27:135;0;9;1.78064516129032;1;0;0;0;0;1;1;1;1;4;0;0;;0;0;();();(-2000.0, -2000.0);
12:14:27:154;12:14:27:103;1448062224.52;(0.4537153720855713, 0.6869488398234049);60.3961257935;0.868443880907;12:14:27:154;0;4;1.78064516129032;1;0;0;0;0;1;1;1;1;4;0;0;;0;0;();();(-2000.0, -2000.0);
12:14:27:186;12:14:27:173;1448062224.63;(0.4474015712738037, 0.6884009891086155);60.5029220581;0.898269103081;12:14:27:186;0;4;1.77741935483871;1;0;0;0;0;1;1;1;1;4;0;0;;0;0;();();(-2000.0, -2000.0);
12:14:27:202;12:14:27:173;1448062224.63;(0.4474015712738037, 0.6884009891086155);60.5029220581;0.898269103081;12:14:27:202;0;10;1.77741935483871;1;0;0;0;0;1;1;1;1;4;0;0;;0;0;();();(-2000.0, -2000.0);
12:14:27:220;12:14:27:173;1448062224.63;(0.4474015712738037, 0.6884009891086155);60.5029220581;0.898269103081;12:14:27:220;0;15;1.78064516129032;1;0;0;0;0;1;1;1;1;4;0;0;;0;0;();();(-2000.0, -2000.0);
12:14:27:236;12:14:27:235;1448062224.65;(0.4443293571472168, 0.6890365176730686);58.2931518555;1.0;12:14:27:236;0;4;1.78064516129032;1;0;0;0;0;1;1;1;1;4;0;0;;0;0;();();(-2000.0, -2000.0);
12:14:27:252;12:14:27:235;1448062224.65;(0.4443293571472168, 0.6890365176730686);58.2931518555;1.0;12:14:27:252;0;0;1.77741935483871;1;0;0;0;0;1;1;1;1;4;0;0;;0;0;();();(-2000.0, -2000.0);
12:14:27:285;12:14:27:235;1448062224.65;(0.4443293571472168, 0.6890365176730686);58.2931518555;1.0;12:14:27:285;0;10;1.78064516129032;1;0;0;0;0;1;1;1;1;4;0;0;;0;0;();();(-2000.0, -2000.0);
12:14:27:302;12:14:27:235;1448062224.65;(0.4443293571472168, 0.6890365176730686);58.2931518555;1.0;12:14:27:302;0;10;1.78064516129032;1;0;0;0;0;1;1;1;1;4;0;0;;0;0;();();(-2000.0, -2000.0);
12:14:27:319;12:14:27:303;1448062224.75;(0.4412369251251221, 0.6890495300292969);57.9745178223;1.0;12:14:27:319;0;5;1.79032258064516;1;0;0;0;0;1;1;1;1;4;0;0;;0;0;();();(-2000.0, -2000.0);
12:14:27:335;12:14:27:303;1448062224.75;(0.4412369251251221, 0.6890495300292969);57.9745178223;1.0;12:14:27:335;0;4;1.78064516129032;1;0;0;0;0;1;1;1;1;4;0;0;;0;0;();();(-2000.0, -2000.0);
12:14:27:353;12:14:27:303;1448062224.75;(0.4412369251251221, 0.6890495300292969);57.9745178223;1.0;12:14:27:353;0;15;1.77741935483871;1;0;0;0;0;1;1;1;1;4;0;0;;0;0;();();(-2000.0, -2000.0);
12:14:27:369;12:14:27:367;1448062224.82;(0.43993144035339354, 0.6883836110432943);58.0903930664;1.0;12:14:27:369;0;4;1.77741935483871;1;0;0;0;0;1;1;1;1;4;0;0;;0;0;();();(-2000.0, -2000.0);
12:14:27:403;12:14:27:367;1448062224.82;(0.43993144035339354, 0.6883836110432943);58.0903930664;1.0;12:14:27:403;0;4;1.77741935483871;1;0;0;0;0;1;1;1;1;4;0;0;;0;0;();();(-2000.0, -2000.0);
12:14:27:419;12:14:27:367;1448062224.82;(0.43993144035339354, 0.6883836110432943);58.0903930664;1.0;12:14:27:419;0;15;1.78064516129032;1;0;0;0;0;1;1;1;1;4;0;0;;0;0;();();(-2000.0, -2000.0);
12:14:27:435;12:14:27:435;1448062224.89;(0.43950328826904295, 0.6875833087497287);58.9204177856;1.0;12:14:27:435;0;5;1.78064516129032;1;0;0;0;0;1;1;1;1;4;0;0;;0;0;();();(-2000.0, -2000.0);
12:14:27:452;12:14:27:435;1448062224.89;(0.43950328826904295, 0.6875833087497287);58.9204177856;1.0;12:14:27:452;0;10;1.78064516129032;1;0;0;0;0;1;1;1;1;4;0;0;;0;0;();();(-2000.0, -2000.0);
12:14:27:469;12:14:27:435;1448062224.89;(0.43950328826904295, 0.6875833087497287);58.9204177856;1.0;12:14:27:469;0;4;1.78064516129032;1;0;0;0;0;1;1;1;1;4;0;0;;0;0;();();(-2000.0, -2000.0);
12:14:27:503;12:14:27:435;1448062224.89;(0.43950328826904295, 0.6875833087497287);58.9204177856;1.0;12:14:27:503;0;5;1.78064516129032;1;0;0;0;0;1;1;1;1;4;0;0;;0;0;();();(-2000.0, -2000.0);
12:14:27:519;12:14:27:503;1448062224.95;(0.4587301731109619, 0.6628802193535699);58.8880729675;1.0;12:14:27:519;0;10;1.78064516129032;1;0;0;0;0;1;1;1;1;4;0;0;;0;0;();();(-2000.0, -2000.0);
12:14:27:538;12:14:27:503;1448062224.95;(0.4587301731109619, 0.6628802193535699);58.8880729675;1.0;12:14:27:538;0;15;1.78064516129032;1;0;0;0;0;1;1;1;1;4;0;0;;0;0;();();(-2000.0, -2000.0);
12:14:27:553;12:14:27:503;1448062224.95;(0.4587301731109619, 0.6628802193535699);58.8880729675;1.0;12:14:27:553;0;9;1.78064516129032;1;0;0;0;0;1;1;1;1;4;0;0;;0;0;();();(-2000.0, -2000.0);
12:14:27:586;12:14:27:568;1448062225.02;(0.45850038528442383, 0.6639636993408203);58.923374176;1.0;12:14:27:586;0;10;1.77741935483871;1;0;0;0;0;1;1;1;1;4;0;0;;0;0;();();(-2000.0, -2000.0);
12:14:27:603;12:14:27:568;1448062225.02;(0.45850038528442383, 0.6639636993408203);58.923374176;1.0;12:14:27:603;0;5;1.78064516129032;1;0;0;0;0;1;1;1;1;4;0;0;;0;0;();();(-2000.0, -2000.0);
12:14:27:619;12:14:27:568;1448062225.02;(0.45850038528442383, 0.6639636993408203);58.923374176;1.0;12:14:27:619;0;10;1.78064516129032;1;0;0;0;0;1;1;1;1;4;0;0;;0;0;();();(-2000.0, -2000.0);
12:14:27:636;12:14:27:636;1448062225.09;(0.4579473972320557, 0.6649616453382704);58.9003410339;1.0;12:14:27:636;0;15;1.77741935483871;1;0;0;0;0;1;1;1;1;4;0;0;;0;0;();();(-2000.0, -2000.0);
12:14:27:653;12:14:27:636;1448062225.09;(0.4579473972320557, 0.6649616453382704);58.9003410339;1.0;12:14:27:653;0;5;1.78064516129032;1;0;0;0;0;1;1;1;1;4;0;0;;0;0;();();(-2000.0, -2000.0);
12:14:27:670;12:14:27:636;1448062225.09;(0.4579473972320557, 0.6649616453382704);58.9003410339;1.0;12:14:27:670;0;0;-1.5;1;0;0;0;0;1;1;1;1;4;0;0;;0;0;();();(-2000.0, -2000.0);
12:14:27:703;12:14:27:700;1448062225.15;(0.4574451446533203, 0.6654385460747613);57.929977417;1.0;12:14:27:703;0;15;-1.5;1;0;0;0;0;1;1;1;1;4;0;0;;0;0;();();(-2000.0, -2000.0);
12:14:27:719;12:14:27:700;1448062225.15;(0.4574451446533203, 0.6654385460747613);57.929977417;1.0;12:14:27:719;0;4;-1.5;1;0;0;0;0;1;1;1;1;4;0;0;;0;0;();();(-2000.0, -2000.0);
12:14:27:736;12:14:27:700;1448062225.15;(0.4574451446533203, 0.6654385460747613);57.929977417;1.0;12:14:27:736;0;0;-1.5;1;0;0;0;0;1;1;1;1;4;0;0;;0;0;();();(-2000.0, -2000.0);
12:14:27:753;12:14:27:700;1448062225.15;(0.4574451446533203, 0.6654385460747613);57.929977417;1.0;12:14:27:753;0;5;-1.5;1;0;0;0;0;1;1;1;1;4;0;0;;0;0;();();(-2000.0, -2000.0);
12:14:27:770;12:14:27:767;1448062225.22;(0.4564825534820557, 0.6662627538045247);56.9323272705;1.0;12:14:27:770;0;15;-1.5;1;0;0;0;0;1;1;1;1;4;0;0;;0;0;();();(-2000.0, -2000.0);
12:14:27:802;12:14:27:767;1448062225.22;(0.4564825534820557, 0.6662627538045247);56.9323272705;1.0;12:14:27:802;0;15;-1.5;1;0;0;0;0;1;1;1;1;4;0;0;;0;0;();();(-2000.0, -2000.0);
12:14:27:820;12:14:27:767;1448062225.22;(0.4564825534820557, 0.6662627538045247);56.9323272705;1.0;12:14:27:820;0;5;-1.5;1;0;0;0;0;1;1;1;1;4;0;0;;0;0;();();(-2000.0, -2000.0);
12:14:27:836;12:14:27:835;1448062225.29;(0.4562169075012207, 0.6664693620469835);55.596118927;1.0;12:14:27:836;0;10;-1.5;1;0;0;0;0;1;1;1;1;4;0;0;;0;0;();();(-2000.0, -2000.0);
12:14:27:853;12:14:27:835;1448062225.29;(0.4562169075012207, 0.6664693620469835);55.596118927;1.0;12:14:27:853;0;4;-1.5;1;0;0;0;0;1;1;1;1;4;0;0;;0;0;();();(-2000.0, -2000.0);
12:14:27:870;12:14:27:835;1448062225.29;(0.4562169075012207, 0.6664693620469835);55.596118927;1.0;12:14:27:870;0;9;-1.5;1;0;0;0;0;1;1;1;1;4;0;0;;0;0;();();(-2000.0, -2000.0);
12:14:27:903;12:14:27:900;1448062225.32;(0.4444893360137939, 0.6836980819702149);55.3259429932;1.0;12:14:27:903;0;15;-1.5;1;0;0;0;0;1;1;1;1;4;0;0;;0;0;();();(-2000.0, -2000.0);
12:14:27:920;12:14:27:900;1448062225.32;(0.4444893360137939, 0.6836980819702149);55.3259429932;1.0;12:14:27:920;0;5;-1.5;1;0;0;0;0;1;1;1;1;4;0;0;;0;0;();();(-2000.0, -2000.0);
12:14:27:936;12:14:27:900;1448062225.32;(0.4444893360137939, 0.6836980819702149);55.3259429932;1.0;12:14:27:936;0;10;-1.5;1;0;0;0;0;1;1;1;1;4;0;0;;0;0;();();(-2000.0, -2000.0);
12:14:27:952;12:14:27:900;1448062225.32;(0.4444893360137939, 0.6836980819702149);55.3259429932;1.0;12:14:27:952;0;4;-1.5;1;0;0;0;0;1;1;1;1;4;0;0;;0;0;();();(-2000.0, -2000.0);
12:14:27:970;12:14:27:967;1448062225.42;(0.4429527759552002, 0.6878753026326497);54.7915763855;1.0;12:14:27:970;0;9;-1.5;1;0;0;0;0;1;1;1;1;4;0;0;;0;0;();();(-2000.0, -2000.0);
12:14:28:002;12:14:27:967;1448062225.42;(0.4429527759552002, 0.6878753026326497);54.7915763855;1.0;12:14:28:002;0;10;-1.5;1;0;0;0;0;1;1;1;1;4;0;0;;0;0;();();(-2000.0, -2000.0);
12:14:28:020;12:14:27:967;1448062225.42;(0.4429527759552002, 0.6878753026326497);54.7915763855;1.0;12:14:28:020;0;15;-1.5;1;0;0;0;0;1;1;1;1;4;0;0;;0;0;();();(-2000.0, -2000.0);
12:14:28:036;12:14:28:033;1448062225.49;(0.44274187088012695, 0.6877139409383137);54.5616149902;1.0;12:14:28:036;0;9;-1.5;1;0;0;0;0;1;1;1;1;4;0;0;;0;0;();();(-2000.0, -2000.0);
12:14:28:053;12:14:28:033;1448062225.49;(0.44274187088012695, 0.6877139409383137);54.5616149902;1.0;12:14:28:053;0;4;-1.5;1;0;0;0;0;1;1;1;1;4;0;0;;0;0;();();(-2000.0, -2000.0);
12:14:28:069;12:14:28:033;1448062225.49;(0.44274187088012695, 0.6877139409383137);54.5616149902;1.0;12:14:28:069;0;10;-1.5;1;0;0;0;0;1;1;1;1;4;0;0;;0;0;();();(-2000.0, -2000.0);
12:14:28:103;12:14:28:100;1448062225.55;(0.44304394721984863, 0.6873641543918185);54.0223579407;1.0;12:14:28:103;0;4;-1.5;1;0;0;0;0;1;1;1;1;4;0;0;;0;0;();();(-2000.0, -2000.0);
12:14:28:120;12:14:28:100;1448062225.55;(0.44304394721984863, 0.6873641543918185);54.0223579407;1.0;12:14:28:120;0;15;-1.5;1;0;0;0;0;1;1;1;1;4;0;0;;0;0;();();(-2000.0, -2000.0);
12:14:28:136;12:14:28:100;1448062225.55;(0.44304394721984863, 0.6873641543918185);54.0223579407;1.0;12:14:28:136;0;5;-1.5;1;0;0;0;0;1;1;1;1;4;0;0;;0;0;();();(-2000.0, -2000.0);
12:14:28:153;12:14:28:100;1448062225.55;(0.44304394721984863, 0.6873641543918185);54.0223579407;1.0;12:14:28:153;0;10;-1.5;1;0;0;0;0;1;1;1;1;4;0;0;;0;0;();();(-2000.0, -2000.0);
12:14:28:170;12:14:28:168;1448062225.62;(0.44323391914367677, 0.686721674601237);54.0328941345;1.0;12:14:28:170;0;4;-1.5;1;0;0;0;0;1;1;1;1;4;0;0;;0;0;();();(-2000.0, -2000.0);
12:14:28:204;12:14:28:168;1448062225.62;(0.44323391914367677, 0.686721674601237);54.0328941345;1.0;12:14:28:204;0;5;-1.5;1;0;0;0;0;1;1;1;1;4;0;0;;0;0;();();(-2000.0, -2000.0);
12:14:28:220;12:14:28:168;1448062225.62;(0.44323391914367677, 0.686721674601237);54.0328941345;1.0;12:14:28:220;0;10;-1.5;1;0;0;0;0;1;1;1;1;4;0;0;;0;0;();();(-2000.0, -2000.0);
12:14:28:236;12:14:28:231;1448062225.69;(0.4428070545196533, 0.686743524339464);54.3808021545;1.0;12:14:28:236;0;5;-1.5;1;0;0;0;0;1;1;1;1;4;0;0;;0;0;();();(-2000.0, -2000.0);
12:14:28:253;12:14:28:231;1448062225.69;(0.4428070545196533, 0.686743524339464);54.3808021545;1.0;12:14:28:253;0;9;-1.5;1;0;0;0;0;1;1;1;1;4;0;0;;0;0;();();(-2000.0, -2000.0);
12:14:28:269;12:14:28:231;1448062225.69;(0.4428070545196533, 0.686743524339464);54.3808021545;1.0;12:14:28:269;0;4;-1.5;1;0;0;0;0;1;1;1;1;4;0;0;;0;0;();();(-2000.0, -2000.0);
12:14:28:304;12:14:28:299;1448062225.72;(0.4342372179031372, 0.6880828009711372);54.4575843811;1.0;12:14:28:304;0;5;-1.5;1;0;0;0;0;1;1;1;1;4;0;0;;0;0;();();(-2000.0, -2000.0);
12:14:28:320;12:14:28:299;1448062225.72;(0.4342372179031372, 0.6880828009711372);54.4575843811;1.0;12:14:28:320;0;10;-1.5;1;0;0;0;0;1;1;1;1;4;0;0;;0;0;();();(-2000.0, -2000.0);
12:14:28:337;12:14:28:299;1448062225.72;(0.4342372179031372, 0.6880828009711372);54.4575843811;1.0;12:14:28:337;0;4;-1.5;1;0;0;0;0;1;1;1;1;4;0;0;;0;0;();();(-2000.0, -2000.0);
12:14:28:353;12:14:28:299;1448062225.72;(0.4342372179031372, 0.6880828009711372);54.4575843811;1.0;12:14:28:353;0;9;-1.5;1;0;0;0;0;1;1;1;1;4;0;0;;0;0;();();(-2000.0, -2000.0);
12:14:28:370;12:14:28:364;1448062225.82;(0.4352850914001465, 0.6882490793863932);54.846282959;1.0;12:14:28:370;0;4;-1.5;1;0;0;0;0;1;1;1;1;4;0;0;;0;0;();();(-2000.0, -2000.0);
12:14:28:403;12:14:28:364;1448062225.82;(0.4352850914001465, 0.6882490793863932);54.846282959;1.0;12:14:28:403;0;4;-1.5;1;0;0;0;0;1;1;1;1;4;0;0;;0;0;();();(-2000.0, -2000.0);
12:14:28:420;12:14:28:364;1448062225.82;(0.4352850914001465, 0.6882490793863932);54.846282959;1.0;12:14:28:420;0;10;-1.5;1;0;0;0;0;1;1;1;1;4;0;0;;0;0;();();(-2000.0, -2000.0);
12:14:28:437;12:14:28:431;1448062225.89;(0.43410167694091795, 0.6738965776231554);55.0191307068;0.894991749688;12:14:28:437;0;15;-1.5;1;0;0;0;0;1;1;1;1;4;0;0;;0;0;();();(-2000.0, -2000.0);
12:14:28:454;12:14:28:431;1448062225.89;(0.43410167694091795, 0.6738965776231554);55.0191307068;0.894991749688;12:14:28:454;0;1;-1.46129032258065;1;0;0;0;0;1;1;1;1;4;0;0;;0;0;();();(-2000.0, -2000.0);
12:14:28:470;12:14:28:431;1448062225.89;(0.43410167694091795, 0.6738965776231554);55.0191307068;0.894991749688;12:14:28:470;0;0;-1.09354838709677;1;0;0;0;0;1;1;1;1;4;0;0;;0;0;();();(-2000.0, -2000.0);
12:14:28:503;12:14:28:431;1448062225.89;(0.43410167694091795, 0.6738965776231554);55.0191307068;0.894991749688;12:14:28:503;0;15;-1.5;1;0;0;0;0;1;1;1;1;4;0;0;;0;0;();();(-2000.0, -2000.0);
12:14:28:520;12:14:28:431;1448062225.89;(0.43410167694091795, 0.6738965776231554);55.0191307068;0.894991749688;12:14:28:520;0;9;-1.5;1;0;0;0;0;1;1;1;1;4;0;0;;0;0;();();(-2000.0, -2000.0);
12:14:28:536;12:14:28:431;1448062225.89;(0.43410167694091795, 0.6738965776231554);55.0191307068;0.894991749688;12:14:28:536;0;0;-1.5;1;0;0;0;0;1;1;1;1;4;0;0;;0;0;();();(-2000.0, -2000.0);
12:14:28:554;12:14:28:431;1448062225.89;(0.43410167694091795, 0.6738965776231554);55.0191307068;0.894991749688;12:14:28:554;0;5;-1.5;1;0;0;0;0;1;1;1;1;4;0;0;;0;0;();();(-2000.0, -2000.0);
12:14:28:570;12:14:28:564;1448062226.02;(0, 0);0;0;12:14:28:570;0;5;-1.5;1;0;0;0;0;1;1;1;1;4;0;0;;0;0;();();(-2000.0, -2000.0);
12:14:28:603;12:14:28:564;1448062226.02;(0, 0);0;0;12:14:28:603;0;15;-0.832258064516129;1;0;0;0;0;1;1;1;1;4;0;0;;0;0;();();(-2000.0, -2000.0);
12:14:28:621;12:14:28:564;1448062226.02;(0, 0);0;0;12:14:28:621;0;5;-1.5;1;0;0;0;0;1;1;1;1;4;0;0;;0;0;();();(-2000.0, -2000.0);
12:14:28:637;12:14:28:634;1448062226.09;(0.4372582912445068, 0.6793613645765517);54.5993118286;0.827830288371;12:14:28:637;0;10;0.419354838709677;1;0;0;0;0;1;1;1;1;4;0;0;;0;0;();();(-2000.0, -2000.0);
12:14:28:654;12:14:28:634;1448062226.09;(0.4372582912445068, 0.6793613645765517);54.5993118286;0.827830288371;12:14:28:654;0;12;-0.0161290322580645;1;0;0;0;0;1;1;1;1;4;0;0;;0;0;();();(-2000.0, -2000.0);
12:14:28:670;12:14:28:634;1448062226.09;(0.4372582912445068, 0.6793613645765517);54.5993118286;0.827830288371;12:14:28:670;0;9;0.212903225806452;1;0;0;0;0;1;1;1;1;4;0;0;;0;0;();();(-2000.0, -2000.0);
12:14:28:703;12:14:28:703;1448062226.12;(0.43839778900146487, 0.6803216934204102);54.6560287476;1.0;12:14:28:703;0;0;0.367741935483871;1;0;0;0;0;1;1;1;1;4;0;0;;0;0;();();(-2000.0, -2000.0);
12:14:28:720;12:14:28:703;1448062226.15;(0.4389343738555908, 0.6813656700981987);54.8555831909;1.0;12:14:28:720;0;5;-0.0548387096774194;1;0;0;0;0;1;1;1;1;4;0;0;;0;0;();();(-2000.0, -2000.0);
12:14:28:736;12:14:28:703;1448062226.15;(0.4389343738555908, 0.6813656700981987);54.8555831909;1.0;12:14:28:736;0;9;0.190322580645161;1;0;0;0;0;1;1;1;1;4;0;0;;0;0;();();(-2000.0, -2000.0);
12:14:28:753;12:14:28:703;1448062226.15;(0.4389343738555908, 0.6813656700981987);54.8555831909;1.0;12:14:28:753;0;15;0.380645161290323;1;0;0;0;0;1;1;1;1;4;0;0;;0;0;();();(-2000.0, -2000.0);
12:14:28:771;12:14:28:763;1448062226.22;(0.4405072689056396, 0.6819994184705946);54.3761100769;1.0;12:14:28:771;0;9;0.483870967741936;1;0;0;0;0;1;1;1;1;4;0;0;;0;0;();();(-2000.0, -2000.0);
12:14:28:804;12:14:28:763;1448062226.22;(0.4405072689056396, 0.6819994184705946);54.3761100769;1.0;12:14:28:804;0;10;1.2741935483871;1;0;0;0;0;1;1;1;1;4;0;0;;0;0;();();(-2000.0, -2000.0);
12:14:28:820;12:14:28:763;1448062226.22;(0.4405072689056396, 0.6819994184705946);54.3761100769;1.0;12:14:28:820;0;4;0.490322580645161;1;0;0;0;0;1;1;1;1;4;0;0;;0;0;();();(-2000.0, -2000.0);
12:14:28:837;12:14:28:832;1448062226.29;(0.44231276512145995, 0.6827330695258247);55.1593933105;1.0;12:14:28:837;0;9;0.664516129032258;1;0;0;0;0;1;1;1;1;4;0;0;;0;0;();();(-2000.0, -2000.0);
12:14:28:854;12:14:28:832;1448062226.29;(0.44231276512145995, 0.6827330695258247);55.1593933105;1.0;12:14:28:854;0;0;0.790322580645161;1;0;0;0;0;1;1;1;1;4;0;0;;0;0;();();(-2000.0, -2000.0);
12:14:28:871;12:14:28:832;1448062226.29;(0.44231276512145995, 0.6827330695258247);55.1593933105;1.0;12:14:28:871;0;10;0.306451612903226;1;0;0;0;0;1;1;1;1;4;0;0;;0;0;();();(-2000.0, -2000.0);
12:14:28:904;12:14:28:896;1448062226.35;(0.14444488286972046, 0.7216475380791558);38.4252357483;0.638897902679;12:14:28:904;0;4;0.483870967741936;1;0;0;0;0;1;1;1;1;4;0;0;;0;0;();();(-2000.0, -2000.0);
12:14:28:920;12:14:28:896;1448062226.35;(0.14444488286972046, 0.7216475380791558);38.4252357483;0.638897902679;12:14:28:920;0;9;0.0580645161290321;1;0;0;0;0;1;1;1;1;4;0;0;;0;0;();();(-2000.0, -2000.0);
12:14:28:937;12:14:28:896;1448062226.35;(0.14444488286972046, 0.7216475380791558);38.4252357483;0.638897902679;12:14:28:937;0;9;0.0580645161290321;1;0;0;0;0;1;1;1;1;4;0;0;;0;0;();();(-2000.0, -2000.0);
12:14:28:954;12:14:28:896;1448062226.35;(0.14444488286972046, 0.7216475380791558);38.4252357483;0.638897902679;12:14:28:954;0;15;0.174193548387097;1;0;0;0;0;1;1;1;1;4;0;0;;0;0;();();(-2000.0, -2000.0);
12:14:28:972;12:14:28:963;1448062226.39;(0.4195222854614258, 0.6764703114827474);55.9143791199;1.0;12:14:28:971;0;4;-0.106451612903226;1;0;0;0;0;1;1;1;1;4;0;0;;0;0;();();(-2000.0, -2000.0);
12:14:29:004;12:14:28:963;1448062226.39;(0.4195222854614258, 0.6764703114827474);55.9143791199;1.0;12:14:29:004;0;4;0.27741935483871;1;0;0;0;0;1;1;1;1;4;0;0;;0;0;();();(-2000.0, -2000.0);
12:14:29:021;12:14:28:963;1448062226.39;(0.4195222854614258, 0.6764703114827474);55.9143791199;1.0;12:14:29:021;0;0;0.470967741935484;1;0;0;0;0;1;1;1;1;4;0;0;;0;0;();();(-2000.0, -2000.0);
12:14:29:038;12:14:29:027;1448062226.49;(0.4213829040527344, 0.6771970748901367);56.6222419739;1.0;12:14:29:038;0;5;0.27741935483871;1;0;0;0;0;1;1;1;1;4;0;0;;0;0;();();(-2000.0, -2000.0);
12:14:29:053;12:14:29:027;1448062226.49;(0.4213829040527344, 0.6771970748901367);56.6222419739;1.0;12:14:29:053;0;10;-0.032258064516129;1;0;0;0;0;1;1;1;1;4;0;0;;0;0;();();(-2000.0, -2000.0);
12:14:29:071;12:14:29:027;1448062226.49;(0.4213829040527344, 0.6771970748901367);56.6222419739;1.0;12:14:29:071;0;4;0.332258064516129;1;0;0;0;0;1;1;1;1;4;0;0;;0;0;();();(-2000.0, -2000.0);
12:14:29:104;12:14:29:096;1448062226.55;(0.42210869789123534, 0.6773505952623156);57.094039917;1.0;12:14:29:104;0;9;0.67741935483871;1;0;0;0;0;1;1;1;1;4;0;0;;0;0;();();(-2000.0, -2000.0);
12:14:29:120;12:14:29:096;1448062226.55;(0.42210869789123534, 0.6773505952623156);57.094039917;1.0;12:14:29:120;0;10;1.33870967741936;1;0;0;0;0;1;1;1;1;4;0;0;;0;0;();();(-2000.0, -2000.0);
12:14:29:137;12:14:29:096;1448062226.55;(0.42210869789123534, 0.6773505952623156);57.094039917;1.0;12:14:29:137;0;15;1.58387096774194;1;0;0;0;0;1;1;1;1;4;0;0;;0;0;();();(-2000.0, -2000.0);
12:14:29:154;12:14:29:096;1448062226.55;(0.42210869789123534, 0.6773505952623156);57.094039917;1.0;12:14:29:154;0;9;0.977419354838709;1;0;0;0;0;1;1;1;1;4;0;0;;0;0;();();(-2000.0, -2000.0);
12:14:29:171;12:14:29:163;1448062226.62;(0.4230546712875366, 0.6776142968071832);57.5594520569;1.0;12:14:29:171;0;0;1.14193548387097;1;0;0;0;0;1;1;1;1;4;0;0;;0;0;();();(-2000.0, -2000.0);
12:14:29:204;12:14:29:163;1448062226.62;(0.4230546712875366, 0.6776142968071832);57.5594520569;1.0;12:14:29:204;0;15;-0.858064516129032;1;0;0;0;0;1;1;1;1;4;0;0;;0;0;();();(-2000.0, -2000.0);
12:14:29:221;12:14:29:163;1448062226.62;(0.4230546712875366, 0.6776142968071832);57.5594520569;1.0;12:14:29:221;0;9;-1.5;1;0;0;0;0;1;1;1;1;4;0;0;;0;0;();();(-2000.0, -2000.0);
12:14:29:237;12:14:29:227;1448062226.65;(0.4230854034423828, 0.6764053556654188);57.383266449;1.0;12:14:29:237;0;9;-1.5;1;0;0;0;0;1;1;1;1;4;0;0;;0;0;();();(-2000.0, -2000.0);
12:14:29:254;12:14:29:227;1448062226.65;(0.4230854034423828, 0.6764053556654188);57.383266449;1.0;12:14:29:254;0;9;1.78064516129032;1;0;0;0;0;1;1;1;1;4;0;0;;0;0;();();(-2000.0, -2000.0);
12:14:29:271;12:14:29:227;1448062226.65;(0.4230854034423828, 0.6764053556654188);57.383266449;1.0;12:14:29:271;0;0;-1.5;1;0;0;0;0;1;1;1;1;4;0;0;;0;0;();();(-2000.0, -2000.0);
12:14:29:304;12:14:29:297;1448062226.72;(0.41797964572906493, 0.6542461819118923);57.5404586792;1.0;12:14:29:304;0;15;-1.5;1;0;0;0;0;1;1;1;1;4;0;0;;0;0;();();(-2000.0, -2000.0);
12:14:29:320;12:14:29:297;1448062226.72;(0.41797964572906493, 0.6542461819118923);57.5404586792;1.0;12:14:29:320;0;4;-1.5;1;0;0;0;0;1;1;1;1;4;0;0;;0;0;();();(-2000.0, -2000.0);
12:14:29:338;12:14:29:297;1448062226.72;(0.41797964572906493, 0.6542461819118923);57.5404586792;1.0;12:14:29:338;0;10;-1.5;1;0;0;0;0;1;1;1;1;4;0;0;;0;0;();();(-2000.0, -2000.0);
12:14:29:354;12:14:29:297;1448062226.72;(0.41797964572906493, 0.6542461819118923);57.5404586792;1.0;12:14:29:354;0;10;-1.5;1;0;0;0;0;1;1;1;1;4;0;0;;0;0;();();(-2000.0, -2000.0);
12:14:29:372;12:14:29:359;1448062226.82;(0.41756329536437986, 0.6550834019978842);57.3954162598;1.0;12:14:29:372;0;15;-1.5;1;0;0;0;0;1;1;1;1;4;0;0;;0;0;();();(-2000.0, -2000.0);
12:14:29:404;12:14:29:359;1448062226.82;(0.41756329536437986, 0.6550834019978842);57.3954162598;1.0;12:14:29:404;0;15;-1.5;1;0;0;0;0;1;1;1;1;4;0;0;;0;0;();();(-2000.0, -2000.0);
12:14:29:420;12:14:29:359;1448062226.82;(0.41756329536437986, 0.6550834019978842);57.3954162598;1.0;12:14:29:420;0;4;-1.5;1;0;0;0;0;1;1;1;1;4;0;0;;0;0;();();(-2000.0, -2000.0);
12:14:29:438;12:14:29:427;1448062226.89;(0.417366099357605, 0.6552926593356663);56.5196685791;1.0;12:14:29:438;0;0;-1.5;1;0;0;0;0;1;1;1;1;4;0;0;;0;0;();();(-2000.0, -2000.0);
12:14:29:454;12:14:29:427;1448062226.89;(0.417366099357605, 0.6552926593356663);56.5196685791;1.0;12:14:29:454;0;4;-1.5;1;0;0;0;0;1;1;1;1;4;0;0;;0;0;();();(-2000.0, -2000.0);
12:14:29:470;12:14:29:427;1448062226.89;(0.417366099357605, 0.6552926593356663);56.5196685791;1.0;12:14:29:470;0;9;-1.01612903225806;1;0;0;0;0;1;1;1;1;4;0;0;;0;0;();();(-2000.0, -2000.0);
12:14:29:504;12:14:29:495;1448062226.95;(0.4175289154052734, 0.6555504480997721);55.9285850525;1.0;12:14:29:504;0;9;-0.880645161290323;1;0;0;0;0;1;1;1;1;4;0;0;;0;0;();();(-2000.0, -2000.0);
12:14:29:521;12:14:29:495;1448062226.95;(0.4175289154052734, 0.6555504480997721);55.9285850525;1.0;12:14:29:521;0;5;-0.574193548387097;1;0;0;0;0;1;1;1;1;4;0;0;;0;0;();();(-2000.0, -2000.0);
12:14:29:537;12:14:29:495;1448062226.95;(0.4175289154052734, 0.6555504480997721);55.9285850525;1.0;12:14:29:537;0;9;-0.148387096774194;1;0;0;0;0;1;1;1;1;4;0;0;;0;0;();();(-2000.0, -2000.0);
12:14:29:555;12:14:29:495;1448062226.95;(0.4175289154052734, 0.6555504480997721);55.9285850525;1.0;12:14:29:555;0;4;-0.303225806451613;1;0;0;0;0;1;1;1;1;4;0;0;;0;0;();();(-2000.0, -2000.0);
12:14:29:573;12:14:29:559;1448062227.02;(0.41794767379760744, 0.6560479482014974);55.3092498779;1.0;12:14:29:573;0;9;0.612903225806452;1;0;0;0;0;1;1;1;1;4;0;0;;0;0;();();(-2000.0, -2000.0);
12:14:29:604;12:14:29:559;1448062227.02;(0.41794767379760744, 0.6560479482014974);55.3092498779;1.0;12:14:29:604;0;10;1.66774193548387;1;0;0;0;0;1;1;1;1;4;0;0;;0;0;();();(-2000.0, -2000.0);
12:14:29:621;12:14:29:559;1448062227.02;(0.41794767379760744, 0.6560479482014974);55.3092498779;1.0;12:14:29:621;0;4;1.77741935483871;1;0;0;0;0;1;1;1;1;4;0;0;;0;0;();();(-2000.0, -2000.0);
12:14:29:638;12:14:29:627;1448062227.09;(0.4186539649963379, 0.6565692265828451);54.5510940552;1.0;12:14:29:638;0;9;1.77741935483871;1;0;0;0;0;1;1;1;1;4;0;0;;0;0;();();(-2000.0, -2000.0);
12:14:29:654;12:14:29:627;1448062227.09;(0.4186539649963379, 0.6565692265828451);54.5510940552;1.0;12:14:29:654;0;0;1.77741935483871;1;0;0;0;0;1;1;1;1;4;0;0;;0;0;();();(-2000.0, -2000.0);
12:14:29:671;12:14:29:627;1448062227.09;(0.4186539649963379, 0.6565692265828451);54.5510940552;1.0;12:14:29:671;0;0;1.77741935483871;1;0;0;0;0;1;1;1;1;4;0;0;;0;0;();();(-2000.0, -2000.0);
12:14:29:704;12:14:29:693;1448062227.15;(0.4178978443145752, 0.6571047676934136);53.6037864685;1.0;12:14:29:704;0;2;1.78064516129032;1;0;0;0;0;1;1;1;1;4;0;0;;0;0;();();(-2000.0, -2000.0);
12:14:29:721;12:14:29:693;1448062227.15;(0.4178978443145752, 0.6571047676934136);53.6037864685;1.0;12:14:29:721;0;15;1.78064516129032;1;0;0;0;0;1;1;1;1;4;0;0;;0;0;();();(-2000.0, -2000.0);
