%Timestamp,timestamp_write;timestamp_gotpupil;eyeTrackerTime;normPos;diameter;confidence;nplanes;listofAirplanesonScreen;lastAction;lastActionDetails;lastActionAirplaneNumber;calculatedScore;positiveScore;negativeScore;collidedAirplaneNumbers;targetPositions;collisionPoint
03:32:07:352;1448290086.98;(0.6091786861419678, 0.720297368367513);80.0107040405;1.0;0;0;0;0;0;0;0;0;0;();(-2000.0, -2000.0);
03:32:07:365;1448290086.98;(0.6091786861419678, 0.720297368367513);80.0107040405;1.0;0;0;0;0;0;0;0;0;0;();(-2000.0, -2000.0);
03:32:07:373;1448290086.98;(0.6091786861419678, 0.720297368367513);80.0107040405;1.0;0;0;0;0;0;0;0;0;0;();(-2000.0, -2000.0);
03:32:07:381;1448290086.98;(0.6091786861419678, 0.720297368367513);80.0107040405;1.0;0;0;0;0;0;0;0;0;0;();(-2000.0, -2000.0);
03:32:07:389;1448290086.98;(0.6091786861419678, 0.720297368367513);80.0107040405;1.0;0;0;0;0;0;0;0;0;0;();(-2000.0, -2000.0);
03:32:07:394;1448290086.98;(0.6091786861419678, 0.720297368367513);80.0107040405;1.0;0;0;0;0;0;0;0;0;0;();(-2000.0, -2000.0);
03:32:07:398;1448290086.98;(0.6091786861419678, 0.720297368367513);80.0107040405;1.0;0;0;0;0;0;0;0;0;0;();(-2000.0, -2000.0);
03:32:07:402;03:32:07:398;1448290087.0;(0.6083492279052735, 0.7197633531358507);80.3112258911;0.957753145264;0;0;0;0;0;0;0;0;0;();(-2000.0, -2000.0);
03:32:07:408;03:32:07:404;1448290087.04;(0.6077443122863769, 0.7189167870415581);80.2805252075;0.966787093288;0;0;0;0;0;0;0;0;0;();(-2000.0, -2000.0);
03:32:07:413;03:32:07:406;1448290087.07;(0.6077411651611329, 0.7179681566026476);81.0240478516;0.973280461281;0;0;0;0;0;0;0;0;0;();(-2000.0, -2000.0);
03:32:07:417;03:32:07:406;1448290087.07;(0.6077411651611329, 0.7179681566026476);81.0240478516;0.973280461281;0;0;0;0;0;0;0;0;0;();(-2000.0, -2000.0);
03:32:07:420;03:32:07:406;1448290087.07;(0.6077411651611329, 0.7179681566026476);81.0240478516;0.973280461281;0;0;0;0;0;0;0;0;0;();(-2000.0, -2000.0);
03:32:07:424;03:32:07:406;1448290087.07;(0.6077411651611329, 0.7179681566026476);81.0240478516;0.973280461281;0;0;0;0;0;0;0;0;0;();(-2000.0, -2000.0);
03:32:07:428;03:32:07:406;1448290087.07;(0.6077411651611329, 0.7179681566026476);81.0240478516;0.973280461281;0;0;0;0;0;0;0;0;0;();(-2000.0, -2000.0);
03:32:07:431;03:32:07:406;1448290087.07;(0.6077411651611329, 0.7179681566026476);81.0240478516;0.973280461281;0;0;0;0;0;0;0;0;0;();(-2000.0, -2000.0);
03:32:07:435;03:32:07:406;1448290087.07;(0.6077411651611329, 0.7179681566026476);81.0240478516;0.973280461281;0;0;0;0;0;0;0;0;0;();(-2000.0, -2000.0);
03:32:07:440;03:32:07:406;1448290087.07;(0.6077411651611329, 0.7179681566026476);81.0240478516;0.973280461281;0;0;0;0;0;0;0;0;0;();(-2000.0, -2000.0);
03:32:07:444;03:32:07:406;1448290087.07;(0.6077411651611329, 0.7179681566026476);81.0240478516;0.973280461281;0;0;0;0;0;0;0;0;0;();(-2000.0, -2000.0);
03:32:07:448;03:32:07:406;1448290087.07;(0.6077411651611329, 0.7179681566026476);81.0240478516;0.973280461281;0;0;0;0;0;0;0;0;0;();(-2000.0, -2000.0);
03:32:07:451;03:32:07:406;1448290087.07;(0.6077411651611329, 0.7179681566026476);81.0240478516;0.973280461281;0;0;0;0;0;0;0;0;0;();(-2000.0, -2000.0);
03:32:07:455;03:32:07:406;1448290087.07;(0.6077411651611329, 0.7179681566026476);81.0240478516;0.973280461281;0;0;0;0;0;0;0;0;0;();(-2000.0, -2000.0);
03:32:07:460;03:32:07:406;1448290087.07;(0.6077411651611329, 0.7179681566026476);81.0240478516;0.973280461281;0;0;0;0;0;0;0;0;0;();(-2000.0, -2000.0);
03:32:07:465;03:32:07:406;1448290087.07;(0.6077411651611329, 0.7179681566026476);81.0240478516;0.973280461281;0;0;0;0;0;0;0;0;0;();(-2000.0, -2000.0);
03:32:07:486;03:32:07:466;1448290087.1;(0.6075095653533935, 0.7182512707180447);81.1987533569;1.0;0;0;0;0;0;0;0;0;0;();(-2000.0, -2000.0);
03:32:07:522;03:32:07:466;1448290087.1;(0.6075095653533935, 0.7182512707180447);81.1987533569;1.0;0;0;0;0;0;0;0;0;0;();(-2000.0, -2000.0);
03:32:07:540;03:32:07:533;1448290087.14;(0.6074625968933105, 0.7181483374701606);81.4551239014;1.0;0;0;0;0;0;0;0;0;0;();(-2000.0, -2000.0);
03:32:07:555;03:32:07:536;1448290087.17;(0.6072217941284179, 0.7178504519992405);81.2922744751;0.98373353699;0;0;0;0;0;0;0;0;0;();(-2000.0, -2000.0);
03:32:07:572;03:32:07:536;1448290087.17;(0.6072217941284179, 0.7178504519992405);81.2922744751;0.98373353699;0;0;0;0;0;0;0;0;0;();(-2000.0, -2000.0);
03:32:07:589;03:32:07:536;1448290087.17;(0.6072217941284179, 0.7178504519992405);81.2922744751;0.98373353699;0;0;0;0;0;0;0;0;0;();(-2000.0, -2000.0);
03:32:07:623;03:32:07:599;1448290087.24;(0.647451114654541, 0.7062611262003581);84.9724502563;0.786673231663;0;0;0;0;0;0;0;0;0;();(-2000.0, -2000.0);
03:32:07:639;03:32:07:599;1448290087.24;(0.647451114654541, 0.7062611262003581);84.9724502563;0.786673231663;0;0;0;0;0;0;0;0;0;();(-2000.0, -2000.0);
03:32:07:656;03:32:07:599;1448290087.24;(0.647451114654541, 0.7062611262003581);84.9724502563;0.786673231663;0;0;0;0;0;0;0;0;0;();(-2000.0, -2000.0);
03:32:07:669;03:32:07:666;1448290087.3;(0.648085641860962, 0.7020708719889324);81.8692703247;0.764205918867;0;0;0;0;0;0;0;0;0;();(-2000.0, -2000.0);
03:32:07:687;03:32:07:666;1448290087.3;(0.648085641860962, 0.7020708719889324);81.8692703247;0.764205918867;0;0;0;0;0;0;0;0;0;();(-2000.0, -2000.0);
03:32:07:720;03:32:07:666;1448290087.3;(0.648085641860962, 0.7020708719889324);81.8692703247;0.764205918867;0;0;0;0;0;0;0;0;0;();(-2000.0, -2000.0);
03:32:07:737;03:32:07:734;1448290087.34;(0.6474059104919434, 0.7017708036634658);82.5147171021;0.818348114306;0;0;0;0;0;0;0;0;0;();(-2000.0, -2000.0);
03:32:07:753;03:32:07:740;1448290087.4;(0.647441053390503, 0.7004627651638455);82.7304153442;0.958961867281;0;0;0;0;0;0;0;0;0;();(-2000.0, -2000.0);
03:32:07:770;03:32:07:740;1448290087.4;(0.647441053390503, 0.7004627651638455);82.7304153442;0.958961867281;0;0;0;0;0;0;0;0;0;();(-2000.0, -2000.0);
03:32:07:786;03:32:07:740;1448290087.4;(0.647441053390503, 0.7004627651638455);82.7304153442;0.958961867281;0;0;0;0;0;0;0;0;0;();(-2000.0, -2000.0);
03:32:07:820;03:32:07:799;1448290087.44;(0.6467130661010743, 0.7007676018608942);82.7018203735;0.957455900577;0;0;0;0;0;0;0;0;0;();(-2000.0, -2000.0);
03:32:07:836;03:32:07:799;1448290087.44;(0.6467130661010743, 0.7007676018608942);82.7018203735;0.957455900577;0;0;0;0;0;0;0;0;0;();(-2000.0, -2000.0);
03:32:07:854;03:32:07:799;1448290087.44;(0.6467130661010743, 0.7007676018608942);82.7018203735;0.957455900577;0;0;0;0;0;0;0;0;0;();(-2000.0, -2000.0);
03:32:07:870;03:32:07:867;1448290087.47;(0.6462209701538086, 0.7015847735934787);82.2570571899;0.923363183721;0;0;0;0;0;0;0;0;0;();(-2000.0, -2000.0);
03:32:07:885;03:32:07:868;1448290087.5;(0.6455703258514405, 0.7021607716878255);82.6458435059;0.990576357004;0;0;0;0;0;0;0;0;0;();(-2000.0, -2000.0);
03:32:07:920;03:32:07:868;1448290087.5;(0.6455703258514405, 0.7021607716878255);82.6458435059;0.990576357004;0;0;0;0;0;0;0;0;0;();(-2000.0, -2000.0);
03:32:07:939;03:32:07:932;1448290087.57;(0.6453811168670655, 0.7018446604410807);84.1203918457;0.855928485895;0;0;0;0;0;0;0;0;0;();(-2000.0, -2000.0);
03:32:07:956;03:32:07:932;1448290087.57;(0.6453811168670655, 0.7018446604410807);84.1203918457;0.855928485895;0;0;0;0;0;0;0;0;0;();(-2000.0, -2000.0);
03:32:07:970;03:32:07:932;1448290087.57;(0.6453811168670655, 0.7018446604410807);84.1203918457;0.855928485895;0;0;0;0;0;0;0;0;0;();(-2000.0, -2000.0);
03:32:07:987;03:32:07:932;1448290087.57;(0.6453811168670655, 0.7018446604410807);84.1203918457;0.855928485895;0;0;0;0;0;0;0;0;0;();(-2000.0, -2000.0);
03:32:08:020;03:32:08:009;1448290087.64;(0.6840493202209472, 0.6636119842529297);83.3896484375;0.871948604183;0;0;0;0;0;0;0;0;0;();(-2000.0, -2000.0);
03:32:08:037;03:32:08:009;1448290087.64;(0.6840493202209472, 0.6636119842529297);83.3896484375;0.871948604183;0;0;0;0;0;0;0;0;0;();(-2000.0, -2000.0);
03:32:08:053;03:32:08:009;1448290087.64;(0.6840493202209472, 0.6636119842529297);83.3896484375;0.871948604183;0;0;0;0;0;0;0;0;0;();(-2000.0, -2000.0);
03:32:08:070;03:32:08:065;1448290087.74;(0.6820408344268799, 0.6647191789415148);82.8544387817;0.94882653;0;0;0;0;0;0;0;0;0;();(-2000.0, -2000.0);
03:32:08:087;03:32:08:065;1448290087.74;(0.6820408344268799, 0.6647191789415148);82.8544387817;0.94882653;0;0;0;0;0;0;0;0;0;();(-2000.0, -2000.0);
03:32:08:120;03:32:08:065;1448290087.74;(0.6820408344268799, 0.6647191789415148);82.8544387817;0.94882653;0;0;0;0;0;0;0;0;0;();(-2000.0, -2000.0);
03:32:08:137;03:32:08:130;1448290087.77;(0.6812904357910157, 0.6655643039279514);82.7150650024;0.900155835511;0;0;0;0;0;0;0;0;0;();(-2000.0, -2000.0);
03:32:08:156;03:32:08:130;1448290087.77;(0.6812904357910157, 0.6655643039279514);82.7150650024;0.900155835511;0;0;0;0;0;0;0;0;0;();(-2000.0, -2000.0);
03:32:08:172;03:32:08:130;1448290087.77;(0.6812904357910157, 0.6655643039279514);82.7150650024;0.900155835511;0;0;0;0;0;0;0;0;0;();(-2000.0, -2000.0);
03:32:08:188;03:32:08:130;1448290087.77;(0.6812904357910157, 0.6655643039279514);82.7150650024;0.900155835511;0;0;0;0;0;0;0;0;0;();(-2000.0, -2000.0);
03:32:08:220;03:32:08:195;1448290087.84;(0.6793729782104492, 0.6669142617119683);82.5713500977;0.827859216316;0;0;0;0;0;0;0;0;0;();(-2000.0, -2000.0);
03:32:08:237;03:32:08:195;1448290087.84;(0.6793729782104492, 0.6669142617119683);82.5713500977;0.827859216316;0;0;0;0;0;0;0;0;0;();(-2000.0, -2000.0);
03:32:08:254;03:32:08:195;1448290087.84;(0.6793729782104492, 0.6669142617119683);82.5713500977;0.827859216316;0;0;0;0;0;0;0;0;0;();(-2000.0, -2000.0);
03:32:08:271;03:32:08:263;1448290087.9;(0.6764363765716552, 0.6682398902045357);82.1728591919;0.784670499674;0;0;0;0;0;0;0;0;0;();(-2000.0, -2000.0);
03:32:08:288;03:32:08:263;1448290087.9;(0.6764363765716552, 0.6682398902045357);82.1728591919;0.784670499674;0;0;0;0;0;0;0;0;0;();(-2000.0, -2000.0);
03:32:08:321;03:32:08:263;1448290087.9;(0.6764363765716552, 0.6682398902045357);82.1728591919;0.784670499674;0;0;0;0;0;0;0;0;0;();(-2000.0, -2000.0);
03:32:08:337;03:32:08:331;1448290087.97;(0.3991992950439453, 0.8946105586157904);45.9643936157;0.662534353274;0;0;0;0;0;0;0;0;0;();(-2000.0, -2000.0);
03:32:08:354;03:32:08:331;1448290087.97;(0.3991992950439453, 0.8946105586157904);45.9643936157;0.662534353274;0;0;0;0;0;0;0;0;0;();(-2000.0, -2000.0);
03:32:08:370;03:32:08:331;1448290087.97;(0.3991992950439453, 0.8946105586157904);45.9643936157;0.662534353274;0;0;0;0;0;0;0;0;0;();(-2000.0, -2000.0);
03:32:08:387;03:32:08:331;1448290087.97;(0.3991992950439453, 0.8946105586157904);45.9643936157;0.662534353274;0;0;0;0;0;0;0;0;0;();(-2000.0, -2000.0);
03:32:08:421;03:32:08:395;1448290088.06;(0.7085329055786133, 0.6629487779405382);81.2695236206;0.837662332472;0;0;0;0;0;0;0;0;0;();(-2000.0, -2000.0);
03:32:08:437;03:32:08:395;1448290088.06;(0.7085329055786133, 0.6629487779405382);81.2695236206;0.837662332472;0;0;0;0;0;0;0;0;0;();(-2000.0, -2000.0);
03:32:08:454;03:32:08:395;1448290088.06;(0.7085329055786133, 0.6629487779405382);81.2695236206;0.837662332472;0;0;0;0;0;0;0;0;0;();(-2000.0, -2000.0);
03:32:08:471;03:32:08:463;1448290088.1;(0.7059083461761475, 0.6629371219211154);79.4514923096;0.905935066394;0;0;0;0;0;0;0;0;0;();(-2000.0, -2000.0);
03:32:08:487;03:32:08:463;1448290088.1;(0.7059083461761475, 0.6629371219211154);79.4514923096;0.905935066394;0;0;0;0;0;0;0;0;0;();(-2000.0, -2000.0);
03:32:08:520;03:32:08:463;1448290088.1;(0.7059083461761475, 0.6629371219211154);79.4514923096;0.905935066394;0;0;0;0;0;0;0;0;0;();(-2000.0, -2000.0);
03:32:08:537;03:32:08:527;1448290088.17;(0.7014405250549316, 0.6636280059814453);78.8646392822;0.773332079511;0;0;0;0;0;0;0;0;0;();(-2000.0, -2000.0);
03:32:08:554;03:32:08:527;1448290088.17;(0.7014405250549316, 0.6636280059814453);78.8646392822;0.773332079511;0;0;0;0;0;0;0;0;0;();(-2000.0, -2000.0);
03:32:08:571;03:32:08:527;1448290088.17;(0.7014405250549316, 0.6636280059814453);78.8646392822;0.773332079511;0;0;0;0;0;0;0;0;0;();(-2000.0, -2000.0);
03:32:08:587;03:32:08:527;1448290088.17;(0.7014405250549316, 0.6636280059814453);78.8646392822;0.773332079511;0;0;0;0;0;0;0;0;0;();(-2000.0, -2000.0);
03:32:08:605;03:32:08:594;1448290088.24;(0, 0);0;0;0;0;0;0;0;0;0;0;0;();(-2000.0, -2000.0);
03:32:08:638;03:32:08:594;1448290088.24;(0, 0);0;0;0;0;0;0;0;0;0;0;0;();(-2000.0, -2000.0);
03:32:08:654;03:32:08:594;1448290088.24;(0, 0);0;0;0;0;0;0;0;0;0;0;0;();(-2000.0, -2000.0);
03:32:08:671;03:32:08:663;1448290088.3;(0.31833930015563966, 0.6205374399820964);20.201259613;1.0;0;0;0;0;0;0;0;0;0;();(-2000.0, -2000.0);
03:32:08:687;03:32:08:663;1448290088.3;(0.31833930015563966, 0.6205374399820964);20.201259613;1.0;0;0;0;0;0;0;0;0;0;();(-2000.0, -2000.0);
03:32:08:721;03:32:08:663;1448290088.3;(0.31833930015563966, 0.6205374399820964);20.201259613;1.0;0;0;0;0;0;0;0;0;0;();(-2000.0, -2000.0);
03:32:08:737;03:32:08:663;1448290088.3;(0.31833930015563966, 0.6205374399820964);20.201259613;1.0;0;0;0;0;0;0;0;0;0;();(-2000.0, -2000.0);
03:32:08:753;03:32:08:740;1448290088.38;(0.7087794303894043, 0.6717088699340821);76.6670150757;1.0;0;0;0;0;0;0;0;0;0;();(-2000.0, -2000.0);
03:32:08:770;03:32:08:740;1448290088.38;(0.7087794303894043, 0.6717088699340821);76.6670150757;1.0;0;0;0;0;0;0;0;0;0;();(-2000.0, -2000.0);
03:32:08:787;03:32:08:740;1448290088.38;(0.7087794303894043, 0.6717088699340821);76.6670150757;1.0;0;0;0;0;0;0;0;0;0;();(-2000.0, -2000.0);
03:32:08:803;03:32:08:793;1448290088.4;(0.7079803943634033, 0.673513921101888);76.4033050537;0.830961667039;0;0;0;0;0;0;0;0;0;();(-2000.0, -2000.0);
03:32:08:837;03:32:08:793;1448290088.4;(0.7079803943634033, 0.673513921101888);76.4033050537;0.830961667039;0;0;0;0;0;0;0;0;0;();(-2000.0, -2000.0);
03:32:08:854;03:32:08:793;1448290088.4;(0.7079803943634033, 0.673513921101888);76.4033050537;0.830961667039;0;0;0;0;0;0;0;0;0;();(-2000.0, -2000.0);
03:32:08:873;03:32:08:862;1448290088.49;(0.3432474136352539, 0.7998934745788574);44.0761604309;0.659200253888;0;0;0;0;0;0;0;0;0;();(-2000.0, -2000.0);
03:32:08:889;03:32:08:862;1448290088.49;(0.3432474136352539, 0.7998934745788574);44.0761604309;0.659200253888;0;0;0;0;0;0;0;0;0;();(-2000.0, -2000.0);
03:32:08:904;03:32:08:862;1448290088.49;(0.3432474136352539, 0.7998934745788574);44.0761604309;0.659200253888;0;0;0;0;0;0;0;0;0;();(-2000.0, -2000.0);
03:32:08:938;03:32:08:926;1448290088.55;(0.6990451335906982, 0.6831269794040256);77.4414291382;0.891555039859;0;0;0;0;0;0;0;0;0;();(-2000.0, -2000.0);
03:32:08:956;03:32:08:926;1448290088.55;(0.6990451335906982, 0.6831269794040256);77.4414291382;0.891555039859;0;0;0;0;0;0;0;0;0;();(-2000.0, -2000.0);
03:32:08:973;03:32:08:926;1448290088.55;(0.6990451335906982, 0.6831269794040256);77.4414291382;0.891555039859;0;0;0;0;0;0;0;0;0;();(-2000.0, -2000.0);
03:32:08:988;03:32:08:926;1448290088.55;(0.6990451335906982, 0.6831269794040256);77.4414291382;0.891555039859;0;0;0;0;0;0;0;0;0;();(-2000.0, -2000.0);
03:32:09:005;03:32:08:996;1448290088.64;(0, 0);0;0;0;0;0;0;0;0;0;0;0;();(-2000.0, -2000.0);
03:32:09:037;03:32:08:996;1448290088.64;(0, 0);0;0;0;0;0;0;0;0;0;0;0;();(-2000.0, -2000.0);
03:32:09:055;03:32:08:996;1448290088.64;(0, 0);0;0;0;0;0;0;0;0;0;0;0;();(-2000.0, -2000.0);
03:32:09:071;03:32:09:059;1448290088.7;(0.692294692993164, 0.6850246005588108);79.3984375;0.658993453949;0;0;0;0;0;0;0;0;0;();(-2000.0, -2000.0);
03:32:09:088;03:32:09:059;1448290088.7;(0.692294692993164, 0.6850246005588108);79.3984375;0.658993453949;0;0;0;0;0;0;0;0;0;();(-2000.0, -2000.0);
03:32:09:120;03:32:09:059;1448290088.7;(0.692294692993164, 0.6850246005588108);79.3984375;0.658993453949;0;0;0;0;0;0;0;0;0;();(-2000.0, -2000.0);
03:32:09:137;03:32:09:126;1448290088.74;(0.6951143741607666, 0.6819585800170899);78.8995285034;0.891042149086;0;0;0;0;0;0;0;0;0;();(-2000.0, -2000.0);
03:32:09:154;03:32:09:126;1448290088.74;(0.6951143741607666, 0.6819585800170899);78.8995285034;0.891042149086;0;0;0;0;0;0;0;0;0;();(-2000.0, -2000.0);
03:32:09:171;03:32:09:126;1448290088.74;(0.6951143741607666, 0.6819585800170899);78.8995285034;0.891042149086;0;0;0;0;0;0;0;0;0;();(-2000.0, -2000.0);
03:32:09:188;03:32:09:126;1448290088.74;(0.6951143741607666, 0.6819585800170899);78.8995285034;0.891042149086;0;0;0;0;0;0;0;0;0;();(-2000.0, -2000.0);
03:32:09:205;03:32:09:189;1448290088.77;(0.6952111721038818, 0.6774068408542209);79.0340652466;1.0;0;0;0;0;0;0;0;0;0;();(-2000.0, -2000.0);
03:32:09:238;03:32:09:189;1448290088.77;(0.6952111721038818, 0.6774068408542209);79.0340652466;1.0;0;0;0;0;0;0;0;0;0;();(-2000.0, -2000.0);
03:32:09:255;03:32:09:189;1448290088.77;(0.6952111721038818, 0.6774068408542209);79.0340652466;1.0;0;0;0;0;0;0;0;0;0;();(-2000.0, -2000.0);
03:32:09:272;03:32:09:266;1448290088.9;(0.6926533222198487, 0.6693920347425673);80.7674942017;0.830696771528;0;0;0;0;0;0;0;0;0;();(-2000.0, -2000.0);
03:32:09:287;03:32:09:266;1448290088.9;(0.6926533222198487, 0.6693920347425673);80.7674942017;0.830696771528;0;0;0;0;0;0;0;0;0;();(-2000.0, -2000.0);
03:32:09:305;03:32:09:266;1448290088.9;(0.6926533222198487, 0.6693920347425673);80.7674942017;0.830696771528;0;0;0;0;0;0;0;0;0;();(-2000.0, -2000.0);
03:32:09:338;03:32:09:326;1448290088.97;(0.69058256149292, 0.6656484391954209);81.0552520752;0.918079601466;0;0;0;0;0;0;0;0;0;();(-2000.0, -2000.0);
03:32:09:355;03:32:09:326;1448290088.97;(0.69058256149292, 0.6656484391954209);81.0552520752;0.918079601466;0;0;0;0;0;0;0;0;0;();(-2000.0, -2000.0);
03:32:09:372;03:32:09:326;1448290088.97;(0.69058256149292, 0.6656484391954209);81.0552520752;0.918079601466;0;0;0;0;0;0;0;0;0;();(-2000.0, -2000.0);
03:32:09:388;03:32:09:326;1448290088.97;(0.69058256149292, 0.6656484391954209);81.0552520752;0.918079601466;0;0;0;0;0;0;0;0;0;();(-2000.0, -2000.0);
03:32:09:405;03:32:09:391;1448290089.04;(0.6899680137634278, 0.6655303107367622);82.1751556396;0.92849393948;0;0;0;0;0;0;0;0;0;();(-2000.0, -2000.0);
03:32:09:438;03:32:09:391;1448290089.04;(0.6899680137634278, 0.6655303107367622);82.1751556396;0.92849393948;0;0;0;0;0;0;0;0;0;();(-2000.0, -2000.0);
03:32:09:455;03:32:09:391;1448290089.04;(0.6899680137634278, 0.6655303107367622);82.1751556396;0.92849393948;0;0;0;0;0;0;0;0;0;();(-2000.0, -2000.0);
03:32:09:471;03:32:09:461;1448290089.11;(0.6872889995574951, 0.6619344711303711);82.7605209351;0.951777697938;0;0;0;0;0;0;0;0;0;();(-2000.0, -2000.0);
03:32:09:488;03:32:09:461;1448290089.11;(0.6872889995574951, 0.6619344711303711);82.7605209351;0.951777697938;0;0;0;0;0;0;0;0;0;();(-2000.0, -2000.0);
03:32:09:505;03:32:09:461;1448290089.11;(0.6872889995574951, 0.6619344711303711);82.7605209351;0.951777697938;0;0;0;0;0;0;0;0;0;();(-2000.0, -2000.0);
03:32:09:539;03:32:09:523;1448290089.17;(0.6701777458190918, 0.657342169019911);82.5654678345;0.780213467204;0;0;0;0;0;0;0;0;0;();(-2000.0, -2000.0);
03:32:09:554;03:32:09:523;1448290089.17;(0.6701777458190918, 0.657342169019911);82.5654678345;0.780213467204;0;0;0;0;0;0;0;0;0;();(-2000.0, -2000.0);
03:32:09:572;03:32:09:523;1448290089.17;(0.6701777458190918, 0.657342169019911);82.5654678345;0.780213467204;0;0;0;0;0;0;0;0;0;();(-2000.0, -2000.0);
03:32:09:589;03:32:09:523;1448290089.17;(0.6701777458190918, 0.657342169019911);82.5654678345;0.780213467204;0;0;0;0;0;0;0;0;0;();(-2000.0, -2000.0);
03:32:09:605;03:32:09:592;1448290089.24;(0.664915132522583, 0.6560270309448242);83.8827133179;0.877729044866;0;0;0;0;0;0;0;0;0;();(-2000.0, -2000.0);
03:32:09:638;03:32:09:592;1448290089.24;(0.664915132522583, 0.6560270309448242);83.8827133179;0.877729044866;0;0;0;0;0;0;0;0;0;();(-2000.0, -2000.0);
03:32:09:655;03:32:09:592;1448290089.24;(0.664915132522583, 0.6560270309448242);83.8827133179;0.877729044866;0;0;0;0;0;0;0;0;0;();(-2000.0, -2000.0);
03:32:09:672;03:32:09:663;1448290089.3;(0, 0);0;0;0;0;0;0;0;0;0;0;0;();(-2000.0, -2000.0);
03:32:09:688;03:32:09:663;1448290089.3;(0, 0);0;0;0;0;0;0;0;0;0;0;0;();(-2000.0, -2000.0);
03:32:09:705;03:32:09:663;1448290089.3;(0, 0);0;0;0;0;0;0;0;0;0;0;0;();(-2000.0, -2000.0);
03:32:09:740;03:32:09:724;1448290089.38;(0.6557833671569824, 0.6575151867336697);84.749671936;0.837731587683;0;0;0;0;0;0;0;0;0;();(-2000.0, -2000.0);
03:32:09:757;03:32:09:724;1448290089.38;(0.6557833671569824, 0.6575151867336697);84.749671936;0.837731587683;0;0;0;0;0;0;0;0;0;();(-2000.0, -2000.0);
03:32:09:772;03:32:09:724;1448290089.38;(0.6557833671569824, 0.6575151867336697);84.749671936;0.837731587683;0;0;0;0;0;0;0;0;0;();(-2000.0, -2000.0);
03:32:09:787;03:32:09:724;1448290089.38;(0.6557833671569824, 0.6575151867336697);84.749671936;0.837731587683;0;0;0;0;0;0;0;0;0;();(-2000.0, -2000.0);
03:32:09:805;03:32:09:789;1448290089.4;(0.3867386817932129, 0.8386562771267361);56.6151199341;0.698662563314;0;0;0;0;0;0;0;0;0;();(-2000.0, -2000.0);
03:32:09:839;03:32:09:789;1448290089.4;(0.3867386817932129, 0.8386562771267361);56.6151199341;0.698662563314;0;0;0;0;0;0;0;0;0;();(-2000.0, -2000.0);
03:32:09:855;03:32:09:789;1448290089.4;(0.3867386817932129, 0.8386562771267361);56.6151199341;0.698662563314;0;0;0;0;0;0;0;0;0;();(-2000.0, -2000.0);
03:32:09:871;03:32:09:855;1448290089.44;(0.720039701461792, 0.638508669535319);85.8460922241;0.966255860344;0;0;0;0;0;0;0;0;0;();(-2000.0, -2000.0);
03:32:09:888;03:32:09:855;1448290089.44;(0.720039701461792, 0.638508669535319);85.8460922241;0.966255860344;0;0;0;0;0;0;0;0;0;();(-2000.0, -2000.0);
03:32:09:905;03:32:09:855;1448290089.44;(0.720039701461792, 0.638508669535319);85.8460922241;0.966255860344;0;0;0;0;0;0;0;0;0;();(-2000.0, -2000.0);
03:32:09:941;03:32:09:926;1448290089.57;(0.756744384765625, 0.6080022176106771);82.0345458984;0.828099064082;0;0;0;0;0;0;0;0;0;();(-2000.0, -2000.0);
03:32:09:958;03:32:09:926;1448290089.57;(0.756744384765625, 0.6080022176106771);82.0345458984;0.828099064082;0;0;0;0;0;0;0;0;0;();(-2000.0, -2000.0);
03:32:09:975;03:32:09:926;1448290089.57;(0.756744384765625, 0.6080022176106771);82.0345458984;0.828099064082;0;0;0;0;0;0;0;0;0;();(-2000.0, -2000.0);
03:32:09:991;03:32:09:926;1448290089.57;(0.756744384765625, 0.6080022176106771);82.0345458984;0.828099064082;0;0;0;0;0;0;0;0;0;();(-2000.0, -2000.0);
03:32:10:005;03:32:09:990;1448290089.6;(0.7488295555114746, 0.6151335822211372);81.9513702393;0.970598082179;0;0;0;0;0;0;0;0;0;();(-2000.0, -2000.0);
03:32:10:037;03:32:09:990;1448290089.6;(0.7488295555114746, 0.6151335822211372);81.9513702393;0.970598082179;0;0;0;0;0;0;0;0;0;();(-2000.0, -2000.0);
03:32:10:055;03:32:09:990;1448290089.6;(0.7488295555114746, 0.6151335822211372);81.9513702393;0.970598082179;0;0;0;0;0;0;0;0;0;();(-2000.0, -2000.0);
03:32:10:071;03:32:10:061;1448290089.71;(0, 0);0;0;0;0;0;0;0;0;0;0;0;();(-2000.0, -2000.0);
03:32:10:089;03:32:10:061;1448290089.71;(0, 0);0;0;0;0;0;0;0;0;0;0;0;();(-2000.0, -2000.0);
03:32:10:106;03:32:10:061;1448290089.71;(0, 0);0;0;0;0;0;0;0;0;0;0;0;();(-2000.0, -2000.0);
03:32:10:138;03:32:10:122;1448290089.74;(0.71907958984375, 0.6423517651028103);83.2183227539;0.838703772993;0;0;0;0;0;0;0;0;0;();(-2000.0, -2000.0);
03:32:10:155;03:32:10:122;1448290089.74;(0.71907958984375, 0.6423517651028103);83.2183227539;0.838703772993;0;0;0;0;0;0;0;0;0;();(-2000.0, -2000.0);
03:32:10:173;03:32:10:122;1448290089.74;(0.71907958984375, 0.6423517651028103);83.2183227539;0.838703772993;0;0;0;0;0;0;0;0;0;();(-2000.0, -2000.0);
03:32:10:190;03:32:10:187;1448290089.81;(0.7479161739349365, 0.630944209628635);82.2753295898;0.852484989403;0;0;0;0;0;0;0;0;0;();(-2000.0, -2000.0);
03:32:10:206;03:32:10:187;1448290089.81;(0.7479161739349365, 0.630944209628635);82.2753295898;0.852484989403;0;0;0;0;0;0;0;0;0;();(-2000.0, -2000.0);
03:32:10:242;03:32:10:187;1448290089.81;(0.7479161739349365, 0.630944209628635);82.2753295898;0.852484989403;0;0;0;0;0;0;0;0;0;();(-2000.0, -2000.0);
03:32:10:258;03:32:10:187;1448290089.81;(0.7479161739349365, 0.630944209628635);82.2753295898;0.852484989403;0;0;0;0;0;0;0;0;0;();(-2000.0, -2000.0);
03:32:10:276;03:32:10:269;1448290089.9;(0.7399921417236328, 0.6400883144802517);81.9061355591;0.972263275394;0;0;0;0;0;0;0;0;0;();(-2000.0, -2000.0);
03:32:10:291;03:32:10:269;1448290089.9;(0.7399921417236328, 0.6400883144802517);81.9061355591;0.972263275394;0;0;0;0;0;0;0;0;0;();(-2000.0, -2000.0);
03:32:10:308;03:32:10:269;1448290089.9;(0.7399921417236328, 0.6400883144802517);81.9061355591;0.972263275394;0;0;0;0;0;0;0;0;0;();(-2000.0, -2000.0);
03:32:10:339;03:32:10:322;1448290089.94;(0.7380058765411377, 0.6429890738593207);81.7121200562;1.0;0;0;0;0;0;0;0;0;0;();(-2000.0, -2000.0);
03:32:10:356;03:32:10:322;1448290089.94;(0.7380058765411377, 0.6429890738593207);81.7121200562;1.0;0;0;0;0;0;0;0;0;0;();(-2000.0, -2000.0);
03:32:10:372;03:32:10:322;1448290089.94;(0.7380058765411377, 0.6429890738593207);81.7121200562;1.0;0;0;0;0;0;0;0;0;0;();(-2000.0, -2000.0);
03:32:10:392;03:32:10:388;1448290090.05;(0.7240183830261231, 0.6440849939982096);78.6406097412;1.0;0;0;0;0;0;0;0;0;0;();(-2000.0, -2000.0);
03:32:10:406;03:32:10:388;1448290090.05;(0.7240183830261231, 0.6440849939982096);78.6406097412;1.0;0;0;0;0;0;0;0;0;0;();(-2000.0, -2000.0);
03:32:10:441;03:32:10:388;1448290090.05;(0.7240183830261231, 0.6440849939982096);78.6406097412;1.0;0;0;0;0;0;0;0;0;0;();(-2000.0, -2000.0);
03:32:10:459;03:32:10:453;1448290090.07;(0, 0);0;0;0;0;0;0;0;0;0;0;0;();(-2000.0, -2000.0);
03:32:10:474;03:32:10:455;1448290090.1;(0.9080790519714356, 0.43293622334798176);18.3863258362;0.600345947387;0;0;0;0;0;0;0;0;0;();(-2000.0, -2000.0);
03:32:10:491;03:32:10:455;1448290090.1;(0.9080790519714356, 0.43293622334798176);18.3863258362;0.600345947387;0;0;0;0;0;0;0;0;0;();(-2000.0, -2000.0);
03:32:10:508;03:32:10:455;1448290090.1;(0.9080790519714356, 0.43293622334798176);18.3863258362;0.600345947387;0;0;0;0;0;0;0;0;0;();(-2000.0, -2000.0);
03:32:10:541;03:32:10:520;1448290090.17;(0.7196454524993896, 0.6571695115831163);78.7897338867;0.869798867698;0;0;0;0;0;0;0;0;0;();(-2000.0, -2000.0);
03:32:10:558;03:32:10:520;1448290090.17;(0.7196454524993896, 0.6571695115831163);78.7897338867;0.869798867698;0;0;0;0;0;0;0;0;0;();(-2000.0, -2000.0);
03:32:10:575;03:32:10:520;1448290090.17;(0.7196454524993896, 0.6571695115831163);78.7897338867;0.869798867698;0;0;0;0;0;0;0;0;0;();(-2000.0, -2000.0);
03:32:10:591;03:32:10:520;1448290090.17;(0.7196454524993896, 0.6571695115831163);78.7897338867;0.869798867698;0;0;0;0;0;0;0;0;0;();(-2000.0, -2000.0);
03:32:10:608;03:32:10:589;1448290090.2;(0.7201607704162598, 0.6562698576185438);80.715965271;0.707926057771;0;0;0;0;0;0;0;0;0;();(-2000.0, -2000.0);
03:32:10:642;03:32:10:589;1448290090.2;(0.7201607704162598, 0.6562698576185438);80.715965271;0.707926057771;0;0;0;0;0;0;0;0;0;();(-2000.0, -2000.0);
03:32:10:658;03:32:10:589;1448290090.2;(0.7201607704162598, 0.6562698576185438);80.715965271;0.707926057771;0;0;0;0;0;0;0;0;0;();(-2000.0, -2000.0);
03:32:10:673;03:32:10:589;1448290090.2;(0.7201607704162598, 0.6562698576185438);80.715965271;0.707926057771;0;0;0;0;0;0;0;0;0;();(-2000.0, -2000.0);
03:32:10:689;03:32:10:589;1448290090.2;(0.7201607704162598, 0.6562698576185438);80.715965271;0.707926057771;0;0;0;0;0;0;0;0;0;();(-2000.0, -2000.0);
03:32:10:706;03:32:10:589;1448290090.2;(0.7201607704162598, 0.6562698576185438);80.715965271;0.707926057771;0;0;0;0;0;0;0;0;0;();(-2000.0, -2000.0);
03:32:10:742;03:32:10:719;1448290090.34;(0.7242287158966064, 0.653406227959527);84.115814209;1.0;0;0;0;0;0;0;0;0;0;();(-2000.0, -2000.0);
03:32:10:758;03:32:10:719;1448290090.34;(0.7242287158966064, 0.653406227959527);84.115814209;1.0;0;0;0;0;0;0;0;0;0;();(-2000.0, -2000.0);
03:32:10:775;03:32:10:719;1448290090.34;(0.7242287158966064, 0.653406227959527);84.115814209;1.0;0;0;0;0;0;0;0;0;0;();(-2000.0, -2000.0);
03:32:10:789;03:32:10:785;1448290090.39;(0.724880313873291, 0.6522532780965169);83.8014450073;0.942066688224;0;0;0;0;0;0;0;0;0;();(-2000.0, -2000.0);
03:32:10:806;03:32:10:792;1448290090.44;(0.7252583503723145, 0.6513028038872613);83.6493301392;1.0;0;0;0;0;0;0;0;0;0;();(-2000.0, -2000.0);
03:32:10:841;03:32:10:792;1448290090.44;(0.7252583503723145, 0.6513028038872613);83.6493301392;1.0;0;0;0;0;0;0;0;0;0;();(-2000.0, -2000.0);
03:32:10:859;03:32:10:852;1448290090.5;(0.7259271621704102, 0.6502337561713325);84.2376937866;0.980474822206;0;0;0;0;0;0;0;0;0;();(-2000.0, -2000.0);
03:32:10:875;03:32:10:852;1448290090.5;(0.7259271621704102, 0.6502337561713325);84.2376937866;0.980474822206;0;0;0;0;0;0;0;0;0;();(-2000.0, -2000.0);
03:32:10:891;03:32:10:852;1448290090.5;(0.7259271621704102, 0.6502337561713325);84.2376937866;0.980474822206;0;0;0;0;0;0;0;0;0;();(-2000.0, -2000.0);
03:32:10:908;03:32:10:852;1448290090.5;(0.7259271621704102, 0.6502337561713325);84.2376937866;0.980474822206;0;0;0;0;0;0;0;0;0;();(-2000.0, -2000.0);
03:32:10:942;03:32:10:920;1448290090.57;(0.702090835571289, 0.6607706917656793);84.2779388428;0.917173747616;0;0;0;0;0;0;0;0;0;();(-2000.0, -2000.0);
03:32:10:958;03:32:10:920;1448290090.57;(0.702090835571289, 0.6607706917656793);84.2779388428;0.917173747616;0;0;0;0;0;0;0;0;0;();(-2000.0, -2000.0);
03:32:10:973;03:32:10:920;1448290090.57;(0.702090835571289, 0.6607706917656793);84.2779388428;0.917173747616;0;0;0;0;0;0;0;0;0;();(-2000.0, -2000.0);
03:32:10:989;03:32:10:981;1448290090.6;(0.7034348487854004, 0.6594437917073568);84.5293655396;0.978502733237;0;0;0;0;0;0;0;0;0;();(-2000.0, -2000.0);
03:32:11:006;03:32:10:981;1448290090.6;(0.7034348487854004, 0.6594437917073568);84.5293655396;0.978502733237;0;0;0;0;0;0;0;0;0;();(-2000.0, -2000.0);
03:32:11:040;03:32:10:981;1448290090.6;(0.7034348487854004, 0.6594437917073568);84.5293655396;0.978502733237;0;0;0;0;0;0;0;0;0;();(-2000.0, -2000.0);
03:32:11:058;03:32:11:051;1448290090.67;(0.705997371673584, 0.6571443981594509);85.2655715942;0.921673540371;0;0;0;0;0;0;0;0;0;();(-2000.0, -2000.0);
03:32:11:075;03:32:11:051;1448290090.67;(0.705997371673584, 0.6571443981594509);85.2655715942;0.921673540371;0;0;0;0;0;0;0;0;0;();(-2000.0, -2000.0);
03:32:11:092;03:32:11:051;1448290090.67;(0.705997371673584, 0.6571443981594509);85.2655715942;0.921673540371;0;0;0;0;0;0;0;0;0;();(-2000.0, -2000.0);
03:32:11:109;03:32:11:051;1448290090.67;(0.705997371673584, 0.6571443981594509);85.2655715942;0.921673540371;0;0;0;0;0;0;0;0;0;();(-2000.0, -2000.0);
03:32:11:142;03:32:11:124;1448290090.77;(0.7072578430175781, 0.656609747144911);86.125831604;0.851513951953;0;0;0;0;0;0;0;0;0;();(-2000.0, -2000.0);
03:32:11:158;03:32:11:124;1448290090.77;(0.7072578430175781, 0.656609747144911);86.125831604;0.851513951953;0;0;0;0;0;0;0;0;0;();(-2000.0, -2000.0);
03:32:11:175;03:32:11:124;1448290090.77;(0.7072578430175781, 0.656609747144911);86.125831604;0.851513951953;0;0;0;0;0;0;0;0;0;();(-2000.0, -2000.0);
03:32:11:193;03:32:11:186;1448290090.84;(0.7101973056793213, 0.6539095136854384);84.820640564;0.904387223781;0;0;0;0;0;0;0;0;0;();(-2000.0, -2000.0);
03:32:11:209;03:32:11:186;1448290090.84;(0.7101973056793213, 0.6539095136854384);84.820640564;0.904387223781;0;0;0;0;0;0;0;0;0;();(-2000.0, -2000.0);
03:32:11:243;03:32:11:186;1448290090.84;(0.7101973056793213, 0.6539095136854384);84.820640564;0.904387223781;0;0;0;0;0;0;0;0;0;();(-2000.0, -2000.0);
03:32:11:259;03:32:11:250;1448290090.87;(0.7226934432983398, 0.6501319037543403);86.8487625122;0.964363717642;0;0;0;0;0;0;0;0;0;();(-2000.0, -2000.0);
03:32:11:273;03:32:11:250;1448290090.87;(0.7226934432983398, 0.6501319037543403);86.8487625122;0.964363717642;0;0;0;0;0;0;0;0;0;();(-2000.0, -2000.0);
03:32:11:290;03:32:11:250;1448290090.87;(0.7226934432983398, 0.6501319037543403);86.8487625122;0.964363717642;0;0;0;0;0;0;0;0;0;();(-2000.0, -2000.0);
03:32:11:307;03:32:11:250;1448290090.87;(0.7226934432983398, 0.6501319037543403);86.8487625122;0.964363717642;0;0;0;0;0;0;0;0;0;();(-2000.0, -2000.0);
03:32:11:342;03:32:11:316;1448290090.97;(0.7492709159851074, 0.642164675394694);84.2897415161;1.0;0;0;0;0;0;0;0;0;0;();(-2000.0, -2000.0);
03:32:11:358;03:32:11:316;1448290090.97;(0.7492709159851074, 0.642164675394694);84.2897415161;1.0;0;0;0;0;0;0;0;0;0;();(-2000.0, -2000.0);
03:32:11:375;03:32:11:316;1448290090.97;(0.7492709159851074, 0.642164675394694);84.2897415161;1.0;0;0;0;0;0;0;0;0;0;();(-2000.0, -2000.0);
03:32:11:390;03:32:11:383;1448290091.04;(0.7484267711639404, 0.6425517188178169);83.7294235229;0.905547781155;0;0;0;0;0;0;0;0;0;();(-2000.0, -2000.0);
03:32:11:406;03:32:11:383;1448290091.04;(0.7484267711639404, 0.6425517188178169);83.7294235229;0.905547781155;0;0;0;0;0;0;0;0;0;();(-2000.0, -2000.0);
03:32:11:440;03:32:11:383;1448290091.04;(0.7484267711639404, 0.6425517188178169);83.7294235229;0.905547781155;0;0;0;0;0;0;0;0;0;();(-2000.0, -2000.0);
03:32:11:457;03:32:11:451;1448290091.1;(0.7489349365234375, 0.642714097764757);82.0595092773;0.841903230452;0;0;0;0;0;0;0;0;0;();(-2000.0, -2000.0);
03:32:11:473;03:32:11:451;1448290091.1;(0.7489349365234375, 0.642714097764757);82.0595092773;0.841903230452;0;0;0;0;0;0;0;0;0;();(-2000.0, -2000.0);
03:32:11:490;03:32:11:451;1448290091.1;(0.7489349365234375, 0.642714097764757);82.0595092773;0.841903230452;0;0;0;0;0;0;0;0;0;();(-2000.0, -2000.0);
03:32:11:506;03:32:11:451;1448290091.1;(0.7489349365234375, 0.642714097764757);82.0595092773;0.841903230452;0;0;0;0;0;0;0;0;0;();(-2000.0, -2000.0);
03:32:11:542;03:32:11:514;1448290091.17;(0.7504564762115479, 0.6407310909695095);77.7356491089;0.87102737886;0;0;0;0;0;0;0;0;0;();(-2000.0, -2000.0);
03:32:11:559;03:32:11:514;1448290091.17;(0.7504564762115479, 0.6407310909695095);77.7356491089;0.87102737886;0;0;0;0;0;0;0;0;0;();(-2000.0, -2000.0);
03:32:11:573;03:32:11:514;1448290091.17;(0.7504564762115479, 0.6407310909695095);77.7356491089;0.87102737886;0;0;0;0;0;0;0;0;0;();(-2000.0, -2000.0);
03:32:11:590;03:32:11:582;1448290091.2;(0.7514918327331543, 0.6446375952826606);78.4518203735;0.985025620524;0;0;0;0;0;0;0;0;0;();(-2000.0, -2000.0);
03:32:11:607;03:32:11:582;1448290091.2;(0.7514918327331543, 0.6446375952826606);78.4518203735;0.985025620524;0;0;0;0;0;0;0;0;0;();(-2000.0, -2000.0);
03:32:11:640;03:32:11:582;1448290091.2;(0.7514918327331543, 0.6446375952826606);78.4518203735;0.985025620524;0;0;0;0;0;0;0;0;0;();(-2000.0, -2000.0);
03:32:11:657;03:32:11:648;1448290091.3;(0.7513422489166259, 0.6443557951185439);77.6698532104;0.922188817541;0;0;0;0;0;0;0;0;0;();(-2000.0, -2000.0);
03:32:11:674;03:32:11:648;1448290091.3;(0.7513422489166259, 0.6443557951185439);77.6698532104;0.922188817541;0;0;0;0;0;0;0;0;0;();(-2000.0, -2000.0);
03:32:11:690;03:32:11:648;1448290091.3;(0.7513422489166259, 0.6443557951185439);77.6698532104;0.922188817541;0;0;0;0;0;0;0;0;0;();(-2000.0, -2000.0);
03:32:11:706;03:32:11:648;1448290091.3;(0.7513422489166259, 0.6443557951185439);77.6698532104;0.922188817541;0;0;0;0;0;0;0;0;0;();(-2000.0, -2000.0);
03:32:11:740;03:32:11:724;1448290091.37;(0.7516812801361084, 0.6444637086656358);75.8109359741;0.992356082107;0;0;0;0;0;0;0;0;0;();(-2000.0, -2000.0);
03:32:11:759;03:32:11:724;1448290091.37;(0.7516812801361084, 0.6444637086656358);75.8109359741;0.992356082107;0;0;0;0;0;0;0;0;0;();(-2000.0, -2000.0);
03:32:11:774;03:32:11:724;1448290091.37;(0.7516812801361084, 0.6444637086656358);75.8109359741;0.992356082107;0;0;0;0;0;0;0;0;0;();(-2000.0, -2000.0);
03:32:11:791;03:32:11:781;1448290091.4;(0, 0);0;0;0;0;0;0;0;0;0;0;0;();(-2000.0, -2000.0);
03:32:11:807;03:32:11:781;1448290091.4;(0, 0);0;0;0;0;0;0;0;0;0;0;0;();(-2000.0, -2000.0);
03:32:11:840;03:32:11:781;1448290091.4;(0, 0);0;0;0;0;0;0;0;0;0;0;0;();(-2000.0, -2000.0);
03:32:11:857;03:32:11:849;1448290091.5;(0.7175556182861328, 0.6552434709337023);76.9013900757;1.0;0;0;0;0;0;0;0;0;0;();(-2000.0, -2000.0);
03:32:11:874;03:32:11:849;1448290091.5;(0.7175556182861328, 0.6552434709337023);76.9013900757;1.0;0;0;0;0;0;0;0;0;0;();(-2000.0, -2000.0);
03:32:11:890;03:32:11:849;1448290091.5;(0.7175556182861328, 0.6552434709337023);76.9013900757;1.0;0;0;0;0;0;0;0;0;0;();(-2000.0, -2000.0);
03:32:11:907;03:32:11:849;1448290091.5;(0.7175556182861328, 0.6552434709337023);76.9013900757;1.0;0;0;0;0;0;0;0;0;0;();(-2000.0, -2000.0);
03:32:11:939;03:32:11:920;1448290091.57;(0.7179745674133301, 0.6544735590616861);76.7558898926;1.0;0;0;0;0;0;0;0;0;0;();(-2000.0, -2000.0);
03:32:11:957;03:32:11:920;1448290091.57;(0.7179745674133301, 0.6544735590616861);76.7558898926;1.0;0;0;0;0;0;0;0;0;0;();(-2000.0, -2000.0);
03:32:11:974;03:32:11:920;1448290091.57;(0.7179745674133301, 0.6544735590616861);76.7558898926;1.0;0;0;0;0;0;0;0;0;0;();(-2000.0, -2000.0);
03:32:11:990;03:32:11:978;1448290091.64;(0.7183661460876465, 0.653684425354004);78.1106491089;1.0;0;0;0;0;0;0;0;0;0;();(-2000.0, -2000.0);
03:32:12:007;03:32:11:978;1448290091.64;(0.7183661460876465, 0.653684425354004);78.1106491089;1.0;0;0;0;0;0;0;0;0;0;();(-2000.0, -2000.0);
03:32:12:039;03:32:11:978;1448290091.64;(0.7183661460876465, 0.653684425354004);78.1106491089;1.0;0;0;0;0;0;0;0;0;0;();(-2000.0, -2000.0);
03:32:12:056;03:32:12:048;1448290091.7;(0.7183102130889892, 0.6530363506740994);78.2584838867;1.0;0;0;0;0;0;0;0;0;0;();(-2000.0, -2000.0);
03:32:12:073;03:32:12:048;1448290091.7;(0.7183102130889892, 0.6530363506740994);78.2584838867;1.0;0;0;0;0;0;0;0;0;0;();(-2000.0, -2000.0);
03:32:12:091;03:32:12:048;1448290091.7;(0.7183102130889892, 0.6530363506740994);78.2584838867;1.0;0;0;0;0;0;0;0;0;0;();(-2000.0, -2000.0);
03:32:12:107;03:32:12:048;1448290091.7;(0.7183102130889892, 0.6530363506740994);78.2584838867;1.0;0;0;0;0;0;0;0;0;0;();(-2000.0, -2000.0);
03:32:12:141;03:32:12:122;1448290091.77;(0.7189096927642822, 0.6521127488878038);78.6588134766;1.0;0;0;0;0;0;0;0;0;0;();(-2000.0, -2000.0);
03:32:12:158;03:32:12:122;1448290091.77;(0.7189096927642822, 0.6521127488878038);78.6588134766;1.0;0;0;0;0;0;0;0;0;0;();(-2000.0, -2000.0);
03:32:12:173;03:32:12:122;1448290091.77;(0.7189096927642822, 0.6521127488878038);78.6588134766;1.0;0;0;0;0;0;0;0;0;0;();(-2000.0, -2000.0);
03:32:12:191;03:32:12:179;1448290091.84;(0.7190940856933594, 0.6519506666395399);79.6396026611;1.0;0;0;0;0;0;0;0;0;0;();(-2000.0, -2000.0);
03:32:12:207;03:32:12:179;1448290091.84;(0.7190940856933594, 0.6519506666395399);79.6396026611;1.0;0;0;0;0;0;0;0;0;0;();(-2000.0, -2000.0);
03:32:12:241;03:32:12:179;1448290091.84;(0.7190940856933594, 0.6519506666395399);79.6396026611;1.0;0;0;0;0;0;0;0;0;0;();(-2000.0, -2000.0);
03:32:12:258;03:32:12:248;1448290091.9;(0.7348495960235596, 0.653079350789388);80.4987030029;0.859792846037;0;0;0;0;0;0;0;0;0;();(-2000.0, -2000.0);
03:32:12:273;03:32:12:248;1448290091.9;(0.7348495960235596, 0.653079350789388);80.4987030029;0.859792846037;0;0;0;0;0;0;0;0;0;();(-2000.0, -2000.0);
03:32:12:290;03:32:12:248;1448290091.9;(0.7348495960235596, 0.653079350789388);80.4987030029;0.859792846037;0;0;0;0;0;0;0;0;0;();(-2000.0, -2000.0);
03:32:12:307;03:32:12:248;1448290091.9;(0.7348495960235596, 0.653079350789388);80.4987030029;0.859792846037;0;0;0;0;0;0;0;0;0;();(-2000.0, -2000.0);
03:32:12:340;03:32:12:310;1448290091.97;(0.7345193862915039, 0.6528037177191841);80.8020553589;0.978718668619;0;0;0;0;0;0;0;0;0;();(-2000.0, -2000.0);
03:32:12:357;03:32:12:310;1448290091.97;(0.7345193862915039, 0.6528037177191841);80.8020553589;0.978718668619;0;0;0;0;0;0;0;0;0;();(-2000.0, -2000.0);
03:32:12:374;03:32:12:310;1448290091.97;(0.7345193862915039, 0.6528037177191841);80.8020553589;0.978718668619;0;0;0;0;0;0;0;0;0;();(-2000.0, -2000.0);
03:32:12:390;03:32:12:378;1448290092.04;(0.7346632480621338, 0.6532365798950195);80.7983474731;1.0;0;0;0;0;0;0;0;0;0;();(-2000.0, -2000.0);
03:32:12:407;03:32:12:378;1448290092.04;(0.7346632480621338, 0.6532365798950195);80.7983474731;1.0;0;0;0;0;0;0;0;0;0;();(-2000.0, -2000.0);
03:32:12:440;03:32:12:378;1448290092.04;(0.7346632480621338, 0.6532365798950195);80.7983474731;1.0;0;0;0;0;0;0;0;0;0;();(-2000.0, -2000.0);
03:32:12:457;03:32:12:447;1448290092.1;(0.7348054409027099, 0.6528214772542318);81.4131851196;0.984257545394;0;0;0;0;0;0;0;0;0;();(-2000.0, -2000.0);
03:32:12:474;03:32:12:447;1448290092.1;(0.7348054409027099, 0.6528214772542318);81.4131851196;0.984257545394;0;0;0;0;0;0;0;0;0;();(-2000.0, -2000.0);
03:32:12:491;03:32:12:447;1448290092.1;(0.7348054409027099, 0.6528214772542318);81.4131851196;0.984257545394;0;0;0;0;0;0;0;0;0;();(-2000.0, -2000.0);
03:32:12:508;03:32:12:447;1448290092.1;(0.7348054409027099, 0.6528214772542318);81.4131851196;0.984257545394;0;0;0;0;0;0;0;0;0;();(-2000.0, -2000.0);
03:32:12:541;03:32:12:512;1448290092.17;(0.7351354598999024, 0.6524516847398546);81.6430892944;1.0;0;0;0;0;0;0;0;0;0;();(-2000.0, -2000.0);
03:32:12:557;03:32:12:512;1448290092.17;(0.7351354598999024, 0.6524516847398546);81.6430892944;1.0;0;0;0;0;0;0;0;0;0;();(-2000.0, -2000.0);
03:32:12:575;03:32:12:512;1448290092.17;(0.7351354598999024, 0.6524516847398546);81.6430892944;1.0;0;0;0;0;0;0;0;0;0;();(-2000.0, -2000.0);
03:32:12:591;03:32:12:579;1448290092.24;(0.7353300094604492, 0.652146127488878);81.8364715576;1.0;0;0;0;0;0;0;0;0;0;();(-2000.0, -2000.0);
03:32:12:606;03:32:12:579;1448290092.24;(0.7353300094604492, 0.652146127488878);81.8364715576;1.0;0;0;0;0;0;0;0;0;0;();(-2000.0, -2000.0);
03:32:12:624;03:32:12:579;1448290092.24;(0.7353300094604492, 0.652146127488878);81.8364715576;1.0;0;0;0;0;0;0;0;0;0;();(-2000.0, -2000.0);
03:32:12:658;03:32:12:643;1448290092.3;(0.7360320091247559, 0.6519047843085395);82.5899658203;1.0;0;0;0;0;0;0;0;0;0;();(-2000.0, -2000.0);
03:32:12:675;03:32:12:643;1448290092.3;(0.7360320091247559, 0.6519047843085395);82.5899658203;1.0;0;0;0;0;0;0;0;0;0;();(-2000.0, -2000.0);
03:32:12:690;03:32:12:643;1448290092.3;(0.7360320091247559, 0.6519047843085395);82.5899658203;1.0;0;0;0;0;0;0;0;0;0;();(-2000.0, -2000.0);
03:32:12:707;03:32:12:643;1448290092.3;(0.7360320091247559, 0.6519047843085395);82.5899658203;1.0;0;0;0;0;0;0;0;0;0;();(-2000.0, -2000.0);
03:32:12:724;03:32:12:710;1448290092.37;(0.7074166774749756, 0.6589637332492404);83.6411514282;0.968120593548;0;0;0;0;0;0;0;0;0;();(-2000.0, -2000.0);
03:32:12:757;03:32:12:710;1448290092.37;(0.7074166774749756, 0.6589637332492404);83.6411514282;0.968120593548;0;0;0;0;0;0;0;0;0;();(-2000.0, -2000.0);
03:32:12:774;03:32:12:710;1448290092.37;(0.7074166774749756, 0.6589637332492404);83.6411514282;0.968120593548;0;0;0;0;0;0;0;0;0;();(-2000.0, -2000.0);
03:32:12:790;03:32:12:780;1448290092.44;(0.7077175617218018, 0.6580686569213867);83.9021072388;1.0;0;0;0;0;0;0;0;0;0;();(-2000.0, -2000.0);
03:32:12:807;03:32:12:780;1448290092.44;(0.7077175617218018, 0.6580686569213867);83.9021072388;1.0;0;0;0;0;0;0;0;0;0;();(-2000.0, -2000.0);
03:32:12:824;03:32:12:780;1448290092.44;(0.7077175617218018, 0.6580686569213867);83.9021072388;1.0;0;0;0;0;0;0;0;0;0;();(-2000.0, -2000.0);
03:32:12:857;03:32:12:843;1448290092.5;(0.708043098449707, 0.6583902147081163);84.2126998901;0.969133484112;0;0;0;0;0;0;0;0;0;();(-2000.0, -2000.0);
03:32:12:875;03:32:12:843;1448290092.5;(0.708043098449707, 0.6583902147081163);84.2126998901;0.969133484112;0;0;0;0;0;0;0;0;0;();(-2000.0, -2000.0);
03:32:12:890;03:32:12:843;1448290092.5;(0.708043098449707, 0.6583902147081163);84.2126998901;0.969133484112;0;0;0;0;0;0;0;0;0;();(-2000.0, -2000.0);
03:32:12:908;03:32:12:843;1448290092.5;(0.708043098449707, 0.6583902147081163);84.2126998901;0.969133484112;0;0;0;0;0;0;0;0;0;();(-2000.0, -2000.0);
03:32:12:941;03:32:12:910;1448290092.57;(0.7085626602172852, 0.6578371047973632);84.0219497681;0.968565752163;0;0;0;0;0;0;0;0;0;();(-2000.0, -2000.0);
03:32:12:958;03:32:12:910;1448290092.57;(0.7085626602172852, 0.6578371047973632);84.0219497681;0.968565752163;0;0;0;0;0;0;0;0;0;();(-2000.0, -2000.0);
03:32:12:976;03:32:12:973;1448290092.6;(0.7086946964263916, 0.6581872940063477);84.1897659302;0.938158313165;0;0;0;0;0;0;0;0;0;();(-2000.0, -2000.0);
03:32:12:991;03:32:12:975;1448290092.64;(0.7089600563049316, 0.6575924343532986);84.0420150757;1.0;0;0;0;0;0;0;0;0;0;();(-2000.0, -2000.0);
03:32:13:008;03:32:12:975;1448290092.64;(0.7089600563049316, 0.6575924343532986);84.0420150757;1.0;0;0;0;0;0;0;0;0;0;();(-2000.0, -2000.0);
03:32:13:041;03:32:12:975;1448290092.64;(0.7089600563049316, 0.6575924343532986);84.0420150757;1.0;0;0;0;0;0;0;0;0;0;();(-2000.0, -2000.0);
03:32:13:058;03:32:13:043;1448290092.7;(0.7091077327728271, 0.6566761864556206);83.9143371582;0.933263305882;0;0;0;0;0;0;0;0;0;();(-2000.0, -2000.0);
03:32:13:074;03:32:13:043;1448290092.7;(0.7091077327728271, 0.6566761864556206);83.9143371582;0.933263305882;0;0;0;0;0;0;0;0;0;();(-2000.0, -2000.0);
03:32:13:090;03:32:13:043;1448290092.7;(0.7091077327728271, 0.6566761864556206);83.9143371582;0.933263305882;0;0;0;0;0;0;0;0;0;();(-2000.0, -2000.0);
03:32:13:108;03:32:13:043;1448290092.7;(0.7091077327728271, 0.6566761864556206);83.9143371582;0.933263305882;0;0;0;0;0;0;0;0;0;();(-2000.0, -2000.0);
03:32:13:125;03:32:13:111;1448290092.77;(0.6569096565246582, 0.4263258192274305);25.6089057922;0.781773476757;0;0;0;0;0;0;0;0;0;();(-2000.0, -2000.0);
03:32:13:158;03:32:13:111;1448290092.77;(0.6569096565246582, 0.4263258192274305);25.6089057922;0.781773476757;0;0;0;0;0;0;0;0;0;();(-2000.0, -2000.0);
03:32:13:174;03:32:13:111;1448290092.77;(0.6569096565246582, 0.4263258192274305);25.6089057922;0.781773476757;0;0;0;0;0;0;0;0;0;();(-2000.0, -2000.0);
03:32:13:191;03:32:13:173;1448290092.8;(0, 0);0;0;0;0;0;0;0;0;0;0;0;();(-2000.0, -2000.0);
03:32:13:208;03:32:13:173;1448290092.8;(0, 0);0;0;0;0;0;0;0;0;0;0;0;();(-2000.0, -2000.0);
03:32:13:225;03:32:13:173;1448290092.8;(0, 0);0;0;0;0;0;0;0;0;0;0;0;();(-2000.0, -2000.0);
03:32:13:258;03:32:13:244;1448290092.87;(0.36688110828399656, 0.6447097354465061);35.428604126;0.715250166996;0;0;0;0;0;0;0;0;0;();(-2000.0, -2000.0);
03:32:13:275;03:32:13:244;1448290092.87;(0.36688110828399656, 0.6447097354465061);35.428604126;0.715250166996;0;0;0;0;0;0;0;0;0;();(-2000.0, -2000.0);
03:32:13:291;03:32:13:244;1448290092.87;(0.36688110828399656, 0.6447097354465061);35.428604126;0.715250166996;0;0;0;0;0;0;0;0;0;();(-2000.0, -2000.0);
03:32:13:310;03:32:13:307;1448290092.94;(0.6955742359161377, 0.6636630588107639);81.6602172852;0.929094056175;0;0;0;0;0;0;0;0;0;();(-2000.0, -2000.0);
03:32:13:324;03:32:13:307;1448290092.94;(0.6955742359161377, 0.6636630588107639);81.6602172852;0.929094056175;0;0;0;0;0;0;0;0;0;();(-2000.0, -2000.0);
03:32:13:358;03:32:13:307;1448290092.94;(0.6955742359161377, 0.6636630588107639);81.6602172852;0.929094056175;0;0;0;0;0;0;0;0;0;();(-2000.0, -2000.0);
03:32:13:375;03:32:13:307;1448290092.94;(0.6955742359161377, 0.6636630588107639);81.6602172852;0.929094056175;0;0;0;0;0;0;0;0;0;();(-2000.0, -2000.0);
03:32:13:391;03:32:13:379;1448290093.04;(0.6988082885742187, 0.6622716691758898);81.2960510254;0.896973441941;0;0;0;0;0;0;0;0;0;();(-2000.0, -2000.0);
03:32:13:407;03:32:13:379;1448290093.04;(0.6988082885742187, 0.6622716691758898);81.2960510254;0.896973441941;0;0;0;0;0;0;0;0;0;();(-2000.0, -2000.0);
03:32:13:425;03:32:13:379;1448290093.04;(0.6988082885742187, 0.6622716691758898);81.2960510254;0.896973441941;0;0;0;0;0;0;0;0;0;();(-2000.0, -2000.0);
03:32:13:458;03:32:13:442;1448290093.07;(0.33201003074645996, 0.798657766977946);43.1003990173;0.67428267733;0;0;0;0;0;0;0;0;0;();(-2000.0, -2000.0);
03:32:13:475;03:32:13:442;1448290093.07;(0.33201003074645996, 0.798657766977946);43.1003990173;0.67428267733;0;0;0;0;0;0;0;0;0;();(-2000.0, -2000.0);
03:32:13:491;03:32:13:442;1448290093.07;(0.33201003074645996, 0.798657766977946);43.1003990173;0.67428267733;0;0;0;0;0;0;0;0;0;();(-2000.0, -2000.0);
03:32:13:512;03:32:13:508;1448290093.17;(0.6998532772064209, 0.6599118974473741);80.7577896118;0.868847868986;0;0;0;0;0;0;0;0;0;();(-2000.0, -2000.0);
03:32:13:525;03:32:13:508;1448290093.17;(0.6998532772064209, 0.6599118974473741);80.7577896118;0.868847868986;0;0;0;0;0;0;0;0;0;();(-2000.0, -2000.0);
03:32:13:558;03:32:13:508;1448290093.17;(0.6998532772064209, 0.6599118974473741);80.7577896118;0.868847868986;0;0;0;0;0;0;0;0;0;();(-2000.0, -2000.0);
03:32:13:577;03:32:13:508;1448290093.17;(0.6998532772064209, 0.6599118974473741);80.7577896118;0.868847868986;0;0;0;0;0;0;0;0;0;();(-2000.0, -2000.0);
03:32:13:594;03:32:13:576;1448290093.2;(0.4116623640060425, 0.8610569636027018);49.2256202698;0.64282414993;0;0;0;0;0;0;0;0;0;();(-2000.0, -2000.0);
03:32:13:611;03:32:13:576;1448290093.2;(0.4116623640060425, 0.8610569636027018);49.2256202698;0.64282414993;0;0;0;0;0;0;0;0;0;();(-2000.0, -2000.0);
03:32:13:627;03:32:13:576;1448290093.2;(0.4116623640060425, 0.8610569636027018);49.2256202698;0.64282414993;0;0;0;0;0;0;0;0;0;();(-2000.0, -2000.0);
03:32:13:658;03:32:13:646;1448290093.3;(0.7342967987060547, 0.6380070156521267);79.8318252563;1.0;0;0;0;0;0;0;0;0;0;();(-2000.0, -2000.0);
03:32:13:675;03:32:13:646;1448290093.3;(0.7342967987060547, 0.6380070156521267);79.8318252563;1.0;0;0;0;0;0;0;0;0;0;();(-2000.0, -2000.0);
03:32:13:692;03:32:13:646;1448290093.3;(0.7342967987060547, 0.6380070156521267);79.8318252563;1.0;0;0;0;0;0;0;0;0;0;();(-2000.0, -2000.0);
03:32:13:710;03:32:13:706;1448290093.34;(0.7346451759338379, 0.6382902357313368);79.7242279053;1.0;0;0;0;0;0;0;0;0;0;();(-2000.0, -2000.0);
03:32:13:725;03:32:13:708;1448290093.37;(0.7351489067077637, 0.6379882176717122);79.4736938477;1.0;0;0;0;0;0;0;0;0;0;();(-2000.0, -2000.0);
03:32:13:758;03:32:13:708;1448290093.37;(0.7351489067077637, 0.6379882176717122);79.4736938477;1.0;0;0;0;0;0;0;0;0;0;();(-2000.0, -2000.0);
03:32:13:775;03:32:13:708;1448290093.37;(0.7351489067077637, 0.6379882176717122);79.4736938477;1.0;0;0;0;0;0;0;0;0;0;();(-2000.0, -2000.0);
03:32:13:792;03:32:13:778;1448290093.44;(0.735582685470581, 0.6381477991739909);78.9800949097;1.0;0;0;0;0;0;0;0;0;0;();(-2000.0, -2000.0);
03:32:13:808;03:32:13:778;1448290093.44;(0.735582685470581, 0.6381477991739909);78.9800949097;1.0;0;0;0;0;0;0;0;0;0;();(-2000.0, -2000.0);
03:32:13:825;03:32:13:778;1448290093.44;(0.735582685470581, 0.6381477991739909);78.9800949097;1.0;0;0;0;0;0;0;0;0;0;();(-2000.0, -2000.0);
03:32:13:859;03:32:13:839;1448290093.5;(0.7356432437896728, 0.6379787868923611);79.7053451538;1.0;0;0;0;0;0;0;0;0;0;();(-2000.0, -2000.0);
03:32:13:875;03:32:13:839;1448290093.5;(0.7356432437896728, 0.6379787868923611);79.7053451538;1.0;0;0;0;0;0;0;0;0;0;();(-2000.0, -2000.0);
03:32:13:892;03:32:13:839;1448290093.5;(0.7356432437896728, 0.6379787868923611);79.7053451538;1.0;0;0;0;0;0;0;0;0;0;();(-2000.0, -2000.0);
03:32:13:910;03:32:13:906;1448290093.54;(0.7359325408935546, 0.6378704494900174);79.5158233643;0.984933205523;0;0;0;0;0;0;0;0;0;();(-2000.0, -2000.0);
03:32:13:926;03:32:13:909;1448290093.57;(0.7363615512847901, 0.6376359303792318);79.2960128784;1.0;0;0;0;0;0;0;0;0;0;();(-2000.0, -2000.0);
03:32:13:962;03:32:13:909;1448290093.57;(0.7363615512847901, 0.6376359303792318);79.2960128784;1.0;0;0;0;0;0;0;0;0;0;();(-2000.0, -2000.0);
03:32:13:979;03:32:13:972;1448290093.64;(0.7611793994903564, 0.6304895824856228);76.9320220947;0.627704427141;0;0;0;0;0;0;0;0;0;();(-2000.0, -2000.0);
03:32:13:995;03:32:13:972;1448290093.64;(0.7611793994903564, 0.6304895824856228);76.9320220947;0.627704427141;0;0;0;0;0;0;0;0;0;();(-2000.0, -2000.0);
03:32:14:011;03:32:13:972;1448290093.64;(0.7611793994903564, 0.6304895824856228);76.9320220947;0.627704427141;0;0;0;0;0;0;0;0;0;();(-2000.0, -2000.0);
03:32:14:029;03:32:13:972;1448290093.64;(0.7611793994903564, 0.6304895824856228);76.9320220947;0.627704427141;0;0;0;0;0;0;0;0;0;();(-2000.0, -2000.0);
03:32:14:061;03:32:14:040;1448290093.7;(0.7602758407592773, 0.6338698493109809);80.5876083374;0.966890007419;0;0;0;0;0;0;0;0;0;();(-2000.0, -2000.0);
03:32:14:077;03:32:14:040;1448290093.7;(0.7602758407592773, 0.6338698493109809);80.5876083374;0.966890007419;0;0;0;0;0;0;0;0;0;();(-2000.0, -2000.0);
03:32:14:095;03:32:14:040;1448290093.7;(0.7602758407592773, 0.6338698493109809);80.5876083374;0.966890007419;0;0;0;0;0;0;0;0;0;();(-2000.0, -2000.0);
03:32:14:114;03:32:14:107;1448290093.74;(0.7606215476989746, 0.6332929187350803);79.8429946899;1.0;0;0;0;0;0;0;0;0;0;();(-2000.0, -2000.0);
03:32:14:128;03:32:14:110;1448290093.77;(0.7608346462249755, 0.6331567128499349);79.3124237061;1.0;0;0;0;0;0;0;0;0;0;();(-2000.0, -2000.0);
03:32:14:159;03:32:14:110;1448290093.77;(0.7608346462249755, 0.6331567128499349);79.3124237061;1.0;0;0;0;0;0;0;0;0;0;();(-2000.0, -2000.0);
03:32:14:176;03:32:14:171;1448290093.84;(0.7610872745513916, 0.6334483252631293);79.8436431885;1.0;0;0;0;0;0;0;0;0;0;();(-2000.0, -2000.0);
03:32:14:192;03:32:14:171;1448290093.84;(0.7610872745513916, 0.6334483252631293);79.8436431885;1.0;0;0;0;0;0;0;0;0;0;();(-2000.0, -2000.0);
03:32:14:209;03:32:14:171;1448290093.84;(0.7610872745513916, 0.6334483252631293);79.8436431885;1.0;0;0;0;0;0;0;0;0;0;();(-2000.0, -2000.0);
03:32:14:226;03:32:14:171;1448290093.84;(0.7610872745513916, 0.6334483252631293);79.8436431885;1.0;0;0;0;0;0;0;0;0;0;();(-2000.0, -2000.0);
03:32:14:259;03:32:14:239;1448290093.9;(0.7608949184417725, 0.6328522152370877);79.8978500366;1.0;0;0;0;0;0;0;0;0;0;();(-2000.0, -2000.0);
03:32:14:276;03:32:14:239;1448290093.9;(0.7608949184417725, 0.6328522152370877);79.8978500366;1.0;0;0;0;0;0;0;0;0;0;();(-2000.0, -2000.0);
03:32:14:292;03:32:14:239;1448290093.9;(0.7608949184417725, 0.6328522152370877);79.8978500366;1.0;0;0;0;0;0;0;0;0;0;();(-2000.0, -2000.0);
03:32:14:309;03:32:14:306;1448290093.97;(0.7610304832458497, 0.632580926683214);79.4941558838;1.0;0;0;0;0;0;0;0;0;0;();(-2000.0, -2000.0);
03:32:14:325;03:32:14:306;1448290093.97;(0.7610304832458497, 0.632580926683214);79.4941558838;1.0;0;0;0;0;0;0;0;0;0;();(-2000.0, -2000.0);
03:32:14:359;03:32:14:306;1448290093.97;(0.7610304832458497, 0.632580926683214);79.4941558838;1.0;0;0;0;0;0;0;0;0;0;();(-2000.0, -2000.0);
03:32:14:376;03:32:14:370;1448290094.0;(0.7610696792602539, 0.6327196333143446);79.3301773071;1.0;0;0;0;0;0;0;0;0;0;();(-2000.0, -2000.0);
03:32:14:391;03:32:14:370;1448290094.0;(0.7610696792602539, 0.6327196333143446);79.3301773071;1.0;0;0;0;0;0;0;0;0;0;();(-2000.0, -2000.0);
03:32:14:409;03:32:14:370;1448290094.0;(0.7610696792602539, 0.6327196333143446);79.3301773071;1.0;0;0;0;0;0;0;0;0;0;();(-2000.0, -2000.0);
03:32:14:426;03:32:14:370;1448290094.0;(0.7610696792602539, 0.6327196333143446);79.3301773071;1.0;0;0;0;0;0;0;0;0;0;();(-2000.0, -2000.0);
03:32:14:459;03:32:14:434;1448290094.07;(0.7259068012237548, 0.6436719682481553);78.6491012573;0.913187680373;0;0;0;0;0;0;0;0;0;();(-2000.0, -2000.0);
03:32:14:476;03:32:14:434;1448290094.07;(0.7259068012237548, 0.6436719682481553);78.6491012573;0.913187680373;0;0;0;0;0;0;0;0;0;();(-2000.0, -2000.0);
03:32:14:492;03:32:14:434;1448290094.07;(0.7259068012237548, 0.6436719682481553);78.6491012573;0.913187680373;0;0;0;0;0;0;0;0;0;();(-2000.0, -2000.0);
03:32:14:509;03:32:14:504;1448290094.17;(0.7232421398162842, 0.6451994154188367);80.3219528198;1.0;0;0;0;0;0;0;0;0;0;();(-2000.0, -2000.0);
03:32:14:525;03:32:14:504;1448290094.17;(0.7232421398162842, 0.6451994154188367);80.3219528198;1.0;0;0;0;0;0;0;0;0;0;();(-2000.0, -2000.0);
03:32:14:559;03:32:14:504;1448290094.17;(0.7232421398162842, 0.6451994154188367);80.3219528198;1.0;0;0;0;0;0;0;0;0;0;();(-2000.0, -2000.0);
03:32:14:576;03:32:14:504;1448290094.17;(0.7232421398162842, 0.6451994154188367);80.3219528198;1.0;0;0;0;0;0;0;0;0;0;();(-2000.0, -2000.0);
03:32:14:593;03:32:14:580;1448290094.24;(0.7235965728759766, 0.6451840506659614);80.4053726196;1.0;0;0;0;0;0;0;0;0;0;();(-2000.0, -2000.0);
03:32:14:609;03:32:14:580;1448290094.24;(0.7235965728759766, 0.6451840506659614);80.4053726196;1.0;0;0;0;0;0;0;0;0;0;();(-2000.0, -2000.0);
03:32:14:628;03:32:14:580;1448290094.24;(0.7235965728759766, 0.6451840506659614);80.4053726196;1.0;0;0;0;0;0;0;0;0;0;();(-2000.0, -2000.0);
03:32:14:661;03:32:14:636;1448290094.3;(0.7236108303070068, 0.6458621978759765);81.2449951172;1.0;0;0;0;0;0;0;0;0;0;();(-2000.0, -2000.0);
03:32:14:678;03:32:14:636;1448290094.3;(0.7236108303070068, 0.6458621978759765);81.2449951172;1.0;0;0;0;0;0;0;0;0;0;();(-2000.0, -2000.0);
03:32:14:693;03:32:14:636;1448290094.3;(0.7236108303070068, 0.6458621978759765);81.2449951172;1.0;0;0;0;0;0;0;0;0;0;();(-2000.0, -2000.0);
03:32:14:708;03:32:14:704;1448290094.37;(0.724218225479126, 0.6453922271728516);81.1217803955;1.0;0;0;0;0;0;0;0;0;0;();(-2000.0, -2000.0);
03:32:14:726;03:32:14:704;1448290094.37;(0.724218225479126, 0.6453922271728516);81.1217803955;1.0;0;0;0;0;0;0;0;0;0;();(-2000.0, -2000.0);
03:32:14:759;03:32:14:704;1448290094.37;(0.724218225479126, 0.6453922271728516);81.1217803955;1.0;0;0;0;0;0;0;0;0;0;();(-2000.0, -2000.0);
03:32:14:776;03:32:14:768;1448290094.4;(0.7248654365539551, 0.6448007795545789);80.5322647095;0.983311194237;0;0;0;0;0;0;0;0;0;();(-2000.0, -2000.0);
03:32:14:792;03:32:14:768;1448290094.4;(0.7248654365539551, 0.6448007795545789);80.5322647095;0.983311194237;0;0;0;0;0;0;0;0;0;();(-2000.0, -2000.0);
03:32:14:809;03:32:14:768;1448290094.4;(0.7248654365539551, 0.6448007795545789);80.5322647095;0.983311194237;0;0;0;0;0;0;0;0;0;();(-2000.0, -2000.0);
03:32:14:826;03:32:14:768;1448290094.4;(0.7248654365539551, 0.6448007795545789);80.5322647095;0.983311194237;0;0;0;0;0;0;0;0;0;();(-2000.0, -2000.0);
03:32:14:862;03:32:14:836;1448290094.47;(0.6566340446472168, 0.6687620162963868);80.519821167;0.654770309507;0;0;0;0;0;0;0;0;0;();(-2000.0, -2000.0);
03:32:14:879;03:32:14:836;1448290094.47;(0.6566340446472168, 0.6687620162963868);80.519821167;0.654770309507;0;0;0;0;0;0;0;0;0;();(-2000.0, -2000.0);
03:32:14:895;03:32:14:836;1448290094.47;(0.6566340446472168, 0.6687620162963868);80.519821167;0.654770309507;0;0;0;0;0;0;0;0;0;();(-2000.0, -2000.0);
03:32:14:913;03:32:14:906;1448290094.57;(0.6292563915252686, 0.6744635264078775);82.8588638306;0.88596081048;0;0;0;0;0;0;0;0;0;();(-2000.0, -2000.0);
03:32:14:928;03:32:14:906;1448290094.57;(0.6292563915252686, 0.6744635264078775);82.8588638306;0.88596081048;0;0;0;0;0;0;0;0;0;();(-2000.0, -2000.0);
03:32:14:961;03:32:14:906;1448290094.57;(0.6292563915252686, 0.6744635264078775);82.8588638306;0.88596081048;0;0;0;0;0;0;0;0;0;();(-2000.0, -2000.0);
03:32:14:979;03:32:14:967;1448290094.6;(0.310815167427063, 0.8427237934536405);23.1935958862;0.629791442875;0;0;0;0;0;0;0;0;0;();(-2000.0, -2000.0);
03:32:14:992;03:32:14:967;1448290094.6;(0.310815167427063, 0.8427237934536405);23.1935958862;0.629791442875;0;0;0;0;0;0;0;0;0;();(-2000.0, -2000.0);
03:32:15:008;03:32:14:967;1448290094.6;(0.310815167427063, 0.8427237934536405);23.1935958862;0.629791442875;0;0;0;0;0;0;0;0;0;();(-2000.0, -2000.0);
03:32:15:026;03:32:14:967;1448290094.6;(0.310815167427063, 0.8427237934536405);23.1935958862;0.629791442875;0;0;0;0;0;0;0;0;0;();(-2000.0, -2000.0);
03:32:15:062;03:32:15:034;1448290094.67;(0.6328987598419189, 0.6751318825615777);82.3168640137;0.886450016364;0;0;0;0;0;0;0;0;0;();(-2000.0, -2000.0);
03:32:15:078;03:32:15:034;1448290094.67;(0.6328987598419189, 0.6751318825615777);82.3168640137;0.886450016364;0;0;0;0;0;0;0;0;0;();(-2000.0, -2000.0);
03:32:15:095;03:32:15:034;1448290094.67;(0.6328987598419189, 0.6751318825615777);82.3168640137;0.886450016364;0;0;0;0;0;0;0;0;0;();(-2000.0, -2000.0);
03:32:15:112;03:32:15:103;1448290094.74;(0.6362208366394043, 0.6742616017659505);81.4706192017;0.944794185959;0;0;0;0;0;0;0;0;0;();(-2000.0, -2000.0);
03:32:15:128;03:32:15:103;1448290094.74;(0.6362208366394043, 0.6742616017659505);81.4706192017;0.944794185959;0;0;0;0;0;0;0;0;0;();(-2000.0, -2000.0);
03:32:15:159;03:32:15:103;1448290094.74;(0.6362208366394043, 0.6742616017659505);81.4706192017;0.944794185959;0;0;0;0;0;0;0;0;0;();(-2000.0, -2000.0);
03:32:15:176;03:32:15:167;1448290094.8;(0.6399867534637451, 0.6715615802341037);80.7475662231;0.919680797943;0;0;0;0;0;0;0;0;0;();(-2000.0, -2000.0);
03:32:15:193;03:32:15:167;1448290094.8;(0.6399867534637451, 0.6715615802341037);80.7475662231;0.919680797943;0;0;0;0;0;0;0;0;0;();(-2000.0, -2000.0);
03:32:15:212;03:32:15:167;1448290094.8;(0.6399867534637451, 0.6715615802341037);80.7475662231;0.919680797943;0;0;0;0;0;0;0;0;0;();(-2000.0, -2000.0);
03:32:15:228;03:32:15:167;1448290094.8;(0.6399867534637451, 0.6715615802341037);80.7475662231;0.919680797943;0;0;0;0;0;0;0;0;0;();(-2000.0, -2000.0);
03:32:15:262;03:32:15:237;1448290094.88;(0.39142417907714844, 0.9020365132225885);62.3363227844;0.661601927939;0;0;0;0;0;0;0;0;0;();(-2000.0, -2000.0);
03:32:15:278;03:32:15:237;1448290094.88;(0.39142417907714844, 0.9020365132225885);62.3363227844;0.661601927939;0;0;0;0;0;0;0;0;0;();(-2000.0, -2000.0);
03:32:15:293;03:32:15:237;1448290094.88;(0.39142417907714844, 0.9020365132225885);62.3363227844;0.661601927939;0;0;0;0;0;0;0;0;0;();(-2000.0, -2000.0);
03:32:15:309;03:32:15:307;1448290094.9;(0.6840347290039063, 0.6624802483452691);78.5150299072;0.920246151321;0;0;0;0;0;0;0;0;0;();(-2000.0, -2000.0);
03:32:15:329;03:32:15:315;1448290094.97;(0.6840628147125244, 0.6627719243367514);78.8970718384;0.93360822;0;0;0;0;0;0;0;0;0;();(-2000.0, -2000.0);
03:32:15:360;03:32:15:315;1448290094.97;(0.6840628147125244, 0.6627719243367514);78.8970718384;0.93360822;0;0;0;0;0;0;0;0;0;();(-2000.0, -2000.0);
03:32:15:376;03:32:15:365;1448290095.0;(0.684514045715332, 0.663738038804796);78.8264465332;0.885452943132;0;0;0;0;0;0;0;0;0;();(-2000.0, -2000.0);
03:32:15:394;03:32:15:365;1448290095.0;(0.684514045715332, 0.663738038804796);78.8264465332;0.885452943132;0;0;0;0;0;0;0;0;0;();(-2000.0, -2000.0);
03:32:15:410;03:32:15:365;1448290095.0;(0.684514045715332, 0.663738038804796);78.8264465332;0.885452943132;0;0;0;0;0;0;0;0;0;();(-2000.0, -2000.0);
03:32:15:426;03:32:15:365;1448290095.0;(0.684514045715332, 0.663738038804796);78.8264465332;0.885452943132;0;0;0;0;0;0;0;0;0;();(-2000.0, -2000.0);
03:32:15:459;03:32:15:431;1448290095.07;(0.6853476524353027, 0.6637161466810438);79.2150039673;1.0;0;0;0;0;0;0;0;0;0;();(-2000.0, -2000.0);
03:32:15:477;03:32:15:431;1448290095.07;(0.6853476524353027, 0.6637161466810438);79.2150039673;1.0;0;0;0;0;0;0;0;0;0;();(-2000.0, -2000.0);
03:32:15:493;03:32:15:431;1448290095.07;(0.6853476524353027, 0.6637161466810438);79.2150039673;1.0;0;0;0;0;0;0;0;0;0;();(-2000.0, -2000.0);
03:32:15:511;03:32:15:507;1448290095.17;(0.6875961303710938, 0.663498772515191);79.7213439941;0.898860936662;0;0;0;0;0;0;0;0;0;();(-2000.0, -2000.0);
03:32:15:526;03:32:15:507;1448290095.17;(0.6875961303710938, 0.663498772515191);79.7213439941;0.898860936662;0;0;0;0;0;0;0;0;0;();(-2000.0, -2000.0);
03:32:15:559;03:32:15:507;1448290095.17;(0.6875961303710938, 0.663498772515191);79.7213439941;0.898860936662;0;0;0;0;0;0;0;0;0;();(-2000.0, -2000.0);
03:32:15:577;03:32:15:567;1448290095.2;(0.6884096622467041, 0.6637730916341146);80.1723861694;0.892666452508;0;0;0;0;0;0;0;0;0;();(-2000.0, -2000.0);
03:32:15:593;03:32:15:567;1448290095.2;(0.6884096622467041, 0.6637730916341146);80.1723861694;0.892666452508;0;0;0;0;0;0;0;0;0;();(-2000.0, -2000.0);
03:32:15:610;03:32:15:567;1448290095.2;(0.6884096622467041, 0.6637730916341146);80.1723861694;0.892666452508;0;0;0;0;0;0;0;0;0;();(-2000.0, -2000.0);
03:32:15:626;03:32:15:567;1448290095.2;(0.6884096622467041, 0.6637730916341146);80.1723861694;0.892666452508;0;0;0;0;0;0;0;0;0;();(-2000.0, -2000.0);
03:32:15:662;03:32:15:629;1448290095.24;(0.6893614292144775, 0.6628191418117947);80.6323852539;0.830579259893;0;0;0;0;0;0;0;0;0;();(-2000.0, -2000.0);
03:32:15:680;03:32:15:629;1448290095.24;(0.6893614292144775, 0.6628191418117947);80.6323852539;0.830579259893;0;0;0;0;0;0;0;0;0;();(-2000.0, -2000.0);
03:32:15:696;03:32:15:629;1448290095.24;(0.6893614292144775, 0.6628191418117947);80.6323852539;0.830579259893;0;0;0;0;0;0;0;0;0;();(-2000.0, -2000.0);
03:32:15:710;03:32:15:707;1448290095.34;(0.691946268081665, 0.6631669362386068);82.4016342163;0.850088621634;0;0;0;0;0;0;0;0;0;();(-2000.0, -2000.0);
03:32:15:726;03:32:15:707;1448290095.34;(0.691946268081665, 0.6631669362386068);82.4016342163;0.850088621634;0;0;0;0;0;0;0;0;0;();(-2000.0, -2000.0);
03:32:15:760;03:32:15:707;1448290095.34;(0.691946268081665, 0.6631669362386068);82.4016342163;0.850088621634;0;0;0;0;0;0;0;0;0;();(-2000.0, -2000.0);
03:32:15:777;03:32:15:763;1448290095.4;(0.6276835441589356, 0.68827027214898);81.2261352539;0.946969593091;0;0;0;0;0;0;0;0;0;();(-2000.0, -2000.0);
03:32:15:794;03:32:15:763;1448290095.4;(0.6276835441589356, 0.68827027214898);81.2261352539;0.946969593091;0;0;0;0;0;0;0;0;0;();(-2000.0, -2000.0);
03:32:15:811;03:32:15:763;1448290095.4;(0.6276835441589356, 0.68827027214898);81.2261352539;0.946969593091;0;0;0;0;0;0;0;0;0;();(-2000.0, -2000.0);
03:32:15:826;03:32:15:763;1448290095.4;(0.6276835441589356, 0.68827027214898);81.2261352539;0.946969593091;0;0;0;0;0;0;0;0;0;();(-2000.0, -2000.0);
03:32:15:863;03:32:15:831;1448290095.47;(0.6277841567993164, 0.688589604695638);83.1364212036;0.9738188642;0;0;0;0;0;0;0;0;0;();(-2000.0, -2000.0);
03:32:15:879;03:32:15:831;1448290095.47;(0.6277841567993164, 0.688589604695638);83.1364212036;0.9738188642;0;0;0;0;0;0;0;0;0;();(-2000.0, -2000.0);
03:32:15:894;03:32:15:831;1448290095.47;(0.6277841567993164, 0.688589604695638);83.1364212036;0.9738188642;0;0;0;0;0;0;0;0;0;();(-2000.0, -2000.0);
03:32:15:911;03:32:15:899;1448290095.54;(0.6312716007232666, 0.6871774461534288);83.471572876;0.686873121803;0;0;0;0;0;0;0;0;0;();(-2000.0, -2000.0);
03:32:15:927;03:32:15:899;1448290095.54;(0.6312716007232666, 0.6871774461534288);83.471572876;0.686873121803;0;0;0;0;0;0;0;0;0;();(-2000.0, -2000.0);
03:32:15:960;03:32:15:899;1448290095.54;(0.6312716007232666, 0.6871774461534288);83.471572876;0.686873121803;0;0;0;0;0;0;0;0;0;();(-2000.0, -2000.0);
03:32:15:979;03:32:15:965;1448290095.6;(0.6356964588165284, 0.6854744381374783);83.2582626343;0.813102736213;0;0;0;0;0;0;0;0;0;();(-2000.0, -2000.0);
03:32:15:996;03:32:15:965;1448290095.6;(0.6356964588165284, 0.6854744381374783);83.2582626343;0.813102736213;0;0;0;0;0;0;0;0;0;();(-2000.0, -2000.0);
03:32:16:010;03:32:15:965;1448290095.6;(0.6356964588165284, 0.6854744381374783);83.2582626343;0.813102736213;0;0;0;0;0;0;0;0;0;();(-2000.0, -2000.0);
03:32:16:026;03:32:15:965;1448290095.6;(0.6356964588165284, 0.6854744381374783);83.2582626343;0.813102736213;0;0;0;0;0;0;0;0;0;();(-2000.0, -2000.0);
03:32:16:047;03:32:16:032;1448290095.67;(0.6395750522613526, 0.6832915412055122);82.5987930298;0.747085510935;0;0;0;0;0;0;0;0;0;();(-2000.0, -2000.0);
03:32:16:080;03:32:16:032;1448290095.67;(0.6395750522613526, 0.6832915412055122);82.5987930298;0.747085510935;0;0;0;0;0;0;0;0;0;();(-2000.0, -2000.0);
03:32:16:095;03:32:16:032;1448290095.67;(0.6395750522613526, 0.6832915412055122);82.5987930298;0.747085510935;0;0;0;0;0;0;0;0;0;();(-2000.0, -2000.0);
03:32:16:111;03:32:16:099;1448290095.74;(0, 0);0;0;0;0;0;0;0;0;0;0;0;();(-2000.0, -2000.0);
03:32:16:129;03:32:16:099;1448290095.74;(0, 0);0;0;0;0;0;0;0;0;0;0;0;();(-2000.0, -2000.0);
03:32:16:146;03:32:16:099;1448290095.74;(0, 0);0;0;0;0;0;0;0;0;0;0;0;();(-2000.0, -2000.0);
03:32:16:178;03:32:16:163;1448290095.8;(0.6126753807067871, 0.6894642723931206);84.0981292725;1.0;0;0;0;0;0;0;0;0;0;();(-2000.0, -2000.0);
03:32:16:194;03:32:16:163;1448290095.8;(0.6126753807067871, 0.6894642723931206);84.0981292725;1.0;0;0;0;0;0;0;0;0;0;();(-2000.0, -2000.0);
03:32:16:211;03:32:16:163;1448290095.8;(0.6126753807067871, 0.6894642723931206);84.0981292725;1.0;0;0;0;0;0;0;0;0;0;();(-2000.0, -2000.0);
03:32:16:227;03:32:16:163;1448290095.8;(0.6126753807067871, 0.6894642723931206);84.0981292725;1.0;0;0;0;0;0;0;0;0;0;();(-2000.0, -2000.0);
03:32:16:261;03:32:16:229;1448290095.84;(0.33750181198120116, 0.7991440031263564);18.1146755219;0.910680972121;0;0;0;0;0;0;0;0;0;();(-2000.0, -2000.0);
03:32:16:277;03:32:16:229;1448290095.84;(0.33750181198120116, 0.7991440031263564);18.1146755219;0.910680972121;0;0;0;0;0;0;0;0;0;();(-2000.0, -2000.0);
03:32:16:294;03:32:16:229;1448290095.84;(0.33750181198120116, 0.7991440031263564);18.1146755219;0.910680972121;0;0;0;0;0;0;0;0;0;();(-2000.0, -2000.0);
03:32:16:310;03:32:16:300;1448290095.94;(0, 0);0;0;0;0;0;0;0;0;0;0;0;();(-2000.0, -2000.0);
03:32:16:326;03:32:16:300;1448290095.94;(0, 0);0;0;0;0;0;0;0;0;0;0;0;();(-2000.0, -2000.0);
03:32:16:360;03:32:16:300;1448290095.94;(0, 0);0;0;0;0;0;0;0;0;0;0;0;();(-2000.0, -2000.0);
03:32:16:376;03:32:16:370;1448290096.0;(0.6070089340209961, 0.4308144887288411);20.388092041;0.895097003731;0;0;0;0;0;0;0;0;0;();(-2000.0, -2000.0);
03:32:16:395;03:32:16:370;1448290096.0;(0.6070089340209961, 0.4308144887288411);20.388092041;0.895097003731;0;0;0;0;0;0;0;0;0;();(-2000.0, -2000.0);
03:32:16:411;03:32:16:370;1448290096.0;(0.6070089340209961, 0.4308144887288411);20.388092041;0.895097003731;0;0;0;0;0;0;0;0;0;();(-2000.0, -2000.0);
03:32:16:427;03:32:16:370;1448290096.0;(0.6070089340209961, 0.4308144887288411);20.388092041;0.895097003731;0;0;0;0;0;0;0;0;0;();(-2000.0, -2000.0);
03:32:16:460;03:32:16:430;1448290096.07;(0, 0);0;0;0;0;0;0;0;0;0;0;0;();(-2000.0, -2000.0);
03:32:16:476;03:32:16:430;1448290096.07;(0, 0);0;0;0;0;0;0;0;0;0;0;0;();(-2000.0, -2000.0);
03:32:16:494;03:32:16:430;1448290096.07;(0, 0);0;0;0;0;0;0;0;0;0;0;0;();(-2000.0, -2000.0);
03:32:16:510;03:32:16:493;1448290096.1;(0.6141936302185058, 0.7069019953409831);76.9598693848;0.778686766123;0;0;0;0;0;0;0;0;0;();(-2000.0, -2000.0);
03:32:16:530;03:32:16:493;1448290096.1;(0.6141936302185058, 0.7069019953409831);76.9598693848;0.778686766123;0;0;0;0;0;0;0;0;0;();(-2000.0, -2000.0);
03:32:16:547;03:32:16:493;1448290096.1;(0.6141936302185058, 0.7069019953409831);76.9598693848;0.778686766123;0;0;0;0;0;0;0;0;0;();(-2000.0, -2000.0);
03:32:16:580;03:32:16:557;1448290096.16;(0.6163366317749024, 0.708407211303711);76.1931915283;1.0;0;0;0;0;0;0;0;0;0;();(-2000.0, -2000.0);
03:32:16:596;03:32:16:557;1448290096.16;(0.6163366317749024, 0.708407211303711);76.1931915283;1.0;0;0;0;0;0;0;0;0;0;();(-2000.0, -2000.0);
03:32:16:610;03:32:16:557;1448290096.16;(0.6163366317749024, 0.708407211303711);76.1931915283;1.0;0;0;0;0;0;0;0;0;0;();(-2000.0, -2000.0);
03:32:16:626;03:32:16:557;1448290096.16;(0.6163366317749024, 0.708407211303711);76.1931915283;1.0;0;0;0;0;0;0;0;0;0;();(-2000.0, -2000.0);
03:32:16:645;03:32:16:626;1448290096.19;(0.6191433429718017, 0.7054424921671549);77.0574188232;1.0;0;0;0;0;0;0;0;0;0;();(-2000.0, -2000.0);
03:32:16:677;03:32:16:626;1448290096.19;(0.6191433429718017, 0.7054424921671549);77.0574188232;1.0;0;0;0;0;0;0;0;0;0;();(-2000.0, -2000.0);
03:32:16:695;03:32:16:626;1448290096.19;(0.6191433429718017, 0.7054424921671549);77.0574188232;1.0;0;0;0;0;0;0;0;0;0;();(-2000.0, -2000.0);
03:32:16:710;03:32:16:698;1448290096.32;(0.630963134765625, 0.6993683709038628);73.7920837402;0.6675594939;0;0;0;0;0;0;0;0;0;();(-2000.0, -2000.0);
03:32:16:728;03:32:16:698;1448290096.32;(0.630963134765625, 0.6993683709038628);73.7920837402;0.6675594939;0;0;0;0;0;0;0;0;0;();(-2000.0, -2000.0);
03:32:16:762;03:32:16:759;1448290096.39;(0.6362248420715332, 0.696252907647027);74.1554641724;0.969201497993;0;0;0;0;0;0;0;0;0;();(-2000.0, -2000.0);
03:32:16:777;03:32:16:759;1448290096.39;(0.6362248420715332, 0.696252907647027);74.1554641724;0.969201497993;0;0;0;0;0;0;0;0;0;();(-2000.0, -2000.0);
03:32:16:794;03:32:16:759;1448290096.39;(0.6362248420715332, 0.696252907647027);74.1554641724;0.969201497993;0;0;0;0;0;0;0;0;0;();(-2000.0, -2000.0);
03:32:16:811;03:32:16:759;1448290096.39;(0.6362248420715332, 0.696252907647027);74.1554641724;0.969201497993;0;0;0;0;0;0;0;0;0;();(-2000.0, -2000.0);
03:32:16:827;03:32:16:759;1448290096.39;(0.6362248420715332, 0.696252907647027);74.1554641724;0.969201497993;0;0;0;0;0;0;0;0;0;();(-2000.0, -2000.0);
03:32:16:845;03:32:16:827;1448290096.44;(0, 0);0;0;0;0;0;0;0;0;0;0;0;();(-2000.0, -2000.0);
03:32:16:877;03:32:16:827;1448290096.44;(0, 0);0;0;0;0;0;0;0;0;0;0;0;();(-2000.0, -2000.0);
03:32:16:895;03:32:16:892;1448290096.54;(0.637510871887207, 0.7069196489122178);73.9982528687;0.974142685405;0;0;0;0;0;0;0;0;0;();(-2000.0, -2000.0);
03:32:16:912;03:32:16:892;1448290096.54;(0.637510871887207, 0.7069196489122178);73.9982528687;0.974142685405;0;0;0;0;0;0;0;0;0;();(-2000.0, -2000.0);
03:32:16:928;03:32:16:892;1448290096.54;(0.637510871887207, 0.7069196489122178);73.9982528687;0.974142685405;0;0;0;0;0;0;0;0;0;();(-2000.0, -2000.0);
03:32:16:945;03:32:16:892;1448290096.54;(0.637510871887207, 0.7069196489122178);73.9982528687;0.974142685405;0;0;0;0;0;0;0;0;0;();(-2000.0, -2000.0);
03:32:16:978;03:32:16:961;1448290096.6;(0.6436456680297852, 0.700572141011556);73.5402984619;0.910484436306;0;0;0;0;0;0;0;0;0;();(-2000.0, -2000.0);
03:32:16:994;03:32:16:961;1448290096.6;(0.6436456680297852, 0.700572141011556);73.5402984619;0.910484436306;0;0;0;0;0;0;0;0;0;();(-2000.0, -2000.0);
03:32:17:011;03:32:16:961;1448290096.6;(0.6436456680297852, 0.700572141011556);73.5402984619;0.910484436306;0;0;0;0;0;0;0;0;0;();(-2000.0, -2000.0);
03:32:17:027;03:32:16:961;1448290096.6;(0.6436456680297852, 0.700572141011556);73.5402984619;0.910484436306;0;0;0;0;0;0;0;0;0;();(-2000.0, -2000.0);
03:32:17:045;03:32:17:030;1448290096.67;(0.6532162666320801, 0.6960816277398003);73.037689209;0.879342638111;0;0;0;0;0;0;0;0;0;();(-2000.0, -2000.0);
03:32:17:078;03:32:17:030;1448290096.67;(0.6532162666320801, 0.6960816277398003);73.037689209;0.879342638111;0;0;0;0;0;0;0;0;0;();(-2000.0, -2000.0);
03:32:17:095;03:32:17:091;1448290096.74;(0.647252082824707, 0.7013395521375868);69.9725646973;0.735983453312;0;0;0;0;0;0;0;0;0;();(-2000.0, -2000.0);
03:32:17:112;03:32:17:091;1448290096.74;(0.647252082824707, 0.7013395521375868);69.9725646973;0.735983453312;0;0;0;0;0;0;0;0;0;();(-2000.0, -2000.0);
03:32:17:128;03:32:17:091;1448290096.74;(0.647252082824707, 0.7013395521375868);69.9725646973;0.735983453312;0;0;0;0;0;0;0;0;0;();(-2000.0, -2000.0);
03:32:17:144;03:32:17:091;1448290096.74;(0.647252082824707, 0.7013395521375868);69.9725646973;0.735983453312;0;0;0;0;0;0;0;0;0;();(-2000.0, -2000.0);
03:32:17:177;03:32:17:158;1448290096.81;(0, 0);0;0;0;0;0;0;0;0;0;0;0;();(-2000.0, -2000.0);
03:32:17:195;03:32:17:158;1448290096.81;(0, 0);0;0;0;0;0;0;0;0;0;0;0;();(-2000.0, -2000.0);
03:32:17:211;03:32:17:158;1448290096.81;(0, 0);0;0;0;0;0;0;0;0;0;0;0;();(-2000.0, -2000.0);
03:32:17:228;03:32:17:223;1448290096.84;(0.4227187156677246, 0.722572135925293);18.0625991821;0.757733502956;0;0;0;0;0;0;0;0;0;();(-2000.0, -2000.0);
03:32:17:245;03:32:17:225;1448290096.87;(0.557720136642456, 0.7244028091430664);69.7494888306;0.892842800252;0;0;0;0;0;0;0;0;0;();(-2000.0, -2000.0);
03:32:17:278;03:32:17:225;1448290096.87;(0.557720136642456, 0.7244028091430664);69.7494888306;0.892842800252;0;0;0;0;0;0;0;0;0;();(-2000.0, -2000.0);
03:32:17:294;03:32:17:290;1448290096.95;(0, 0);0;0;0;0;0;0;0;0;0;0;0;();(-2000.0, -2000.0);
03:32:17:311;03:32:17:290;1448290096.95;(0, 0);0;0;0;0;0;0;0;0;0;0;0;();(-2000.0, -2000.0);
03:32:17:327;03:32:17:290;1448290096.95;(0, 0);0;0;0;0;0;0;0;0;0;0;0;();(-2000.0, -2000.0);
03:32:17:345;03:32:17:290;1448290096.95;(0, 0);0;0;0;0;0;0;0;0;0;0;0;();(-2000.0, -2000.0);
03:32:17:378;03:32:17:359;1448290097.0;(0.5916501045227051, 0.6995430840386285);70.2882995605;0.909820229597;0;0;0;0;0;0;0;0;0;();(-2000.0, -2000.0);
03:32:17:395;03:32:17:359;1448290097.0;(0.5916501045227051, 0.6995430840386285);70.2882995605;0.909820229597;0;0;0;0;0;0;0;0;0;();(-2000.0, -2000.0);
03:32:17:411;03:32:17:359;1448290097.0;(0.5916501045227051, 0.6995430840386285);70.2882995605;0.909820229597;0;0;0;0;0;0;0;0;0;();(-2000.0, -2000.0);
03:32:17:428;03:32:17:423;1448290097.08;(0, 0);0;0;0;0;0;0;0;0;0;0;0;();(-2000.0, -2000.0);
03:32:17:445;03:32:17:423;1448290097.08;(0, 0);0;0;0;0;0;0;0;0;0;0;0;();(-2000.0, -2000.0);
03:32:17:477;03:32:17:423;1448290097.08;(0, 0);0;0;0;0;0;0;0;0;0;0;0;();(-2000.0, -2000.0);
03:32:17:493;03:32:17:490;1448290097.1;(0.32902262210845945, 0.7791662640041775);19.2871112823;0.863586876931;0;0;0;0;0;0;0;0;0;();(-2000.0, -2000.0);
03:32:17:511;03:32:17:490;1448290097.1;(0.32902262210845945, 0.7791662640041775);19.2871112823;0.863586876931;0;0;0;0;0;0;0;0;0;();(-2000.0, -2000.0);
03:32:17:527;03:32:17:490;1448290097.1;(0.32902262210845945, 0.7791662640041775);19.2871112823;0.863586876931;0;0;0;0;0;0;0;0;0;();(-2000.0, -2000.0);
03:32:17:545;03:32:17:490;1448290097.1;(0.32902262210845945, 0.7791662640041775);19.2871112823;0.863586876931;0;0;0;0;0;0;0;0;0;();(-2000.0, -2000.0);
03:32:17:581;03:32:17:556;1448290097.22;(0.6026759624481202, 0.7039337158203125);70.5198516846;0.872565414711;0;0;0;0;0;0;0;0;0;();(-2000.0, -2000.0);
03:32:17:598;03:32:17:556;1448290097.22;(0.6026759624481202, 0.7039337158203125);70.5198516846;0.872565414711;0;0;0;0;0;0;0;0;0;();(-2000.0, -2000.0);
03:32:17:614;03:32:17:556;1448290097.22;(0.6026759624481202, 0.7039337158203125);70.5198516846;0.872565414711;0;0;0;0;0;0;0;0;0;();(-2000.0, -2000.0);
03:32:17:628;03:32:17:624;1448290097.27;(0.6017883777618408, 0.7042135662502713);70.3378067017;0.927447498023;0;0;0;0;0;0;0;0;0;();(-2000.0, -2000.0);
03:32:17:645;03:32:17:624;1448290097.27;(0.6017883777618408, 0.7042135662502713);70.3378067017;0.927447498023;0;0;0;0;0;0;0;0;0;();(-2000.0, -2000.0);
03:32:17:679;03:32:17:624;1448290097.27;(0.6017883777618408, 0.7042135662502713);70.3378067017;0.927447498023;0;0;0;0;0;0;0;0;0;();(-2000.0, -2000.0);
03:32:17:696;03:32:17:691;1448290097.34;(0.6166858673095703, 0.6946275499131944);70.8372802734;0.958068712901;0;0;0;0;0;0;0;0;0;();(-2000.0, -2000.0);
03:32:17:712;03:32:17:691;1448290097.34;(0.6166858673095703, 0.6946275499131944);70.8372802734;0.958068712901;0;0;0;0;0;0;0;0;0;();(-2000.0, -2000.0);
03:32:17:731;03:32:17:691;1448290097.34;(0.6166858673095703, 0.6946275499131944);70.8372802734;0.958068712901;0;0;0;0;0;0;0;0;0;();(-2000.0, -2000.0);
03:32:17:745;03:32:17:691;1448290097.34;(0.6166858673095703, 0.6946275499131944);70.8372802734;0.958068712901;0;0;0;0;0;0;0;0;0;();(-2000.0, -2000.0);
03:32:17:779;03:32:17:755;1448290097.4;(0.640097713470459, 0.6790345721774631);67.7778244019;0.737302267183;0;0;0;0;0;0;0;0;0;();(-2000.0, -2000.0);
03:32:17:796;03:32:17:755;1448290097.4;(0.640097713470459, 0.6790345721774631);67.7778244019;0.737302267183;0;0;0;0;0;0;0;0;0;();(-2000.0, -2000.0);
03:32:17:812;03:32:17:755;1448290097.4;(0.640097713470459, 0.6790345721774631);67.7778244019;0.737302267183;0;0;0;0;0;0;0;0;0;();(-2000.0, -2000.0);
03:32:17:829;03:32:17:823;1448290097.47;(0, 0);0;0;0;0;0;0;0;0;0;0;0;();(-2000.0, -2000.0);
03:32:17:846;03:32:17:823;1448290097.47;(0, 0);0;0;0;0;0;0;0;0;0;0;0;();(-2000.0, -2000.0);
03:32:17:878;03:32:17:823;1448290097.47;(0, 0);0;0;0;0;0;0;0;0;0;0;0;();(-2000.0, -2000.0);
03:32:17:894;03:32:17:823;1448290097.47;(0, 0);0;0;0;0;0;0;0;0;0;0;0;();(-2000.0, -2000.0);
03:32:17:913;03:32:17:823;1448290097.47;(0, 0);0;0;0;0;0;0;0;0;0;0;0;();(-2000.0, -2000.0);
03:32:17:928;03:32:17:823;1448290097.47;(0, 0);0;0;0;0;0;0;0;0;0;0;0;();(-2000.0, -2000.0);
03:32:17:946;03:32:17:823;1448290097.47;(0, 0);0;0;0;0;0;0;0;0;0;0;0;();(-2000.0, -2000.0);
03:32:17:977;03:32:17:963;1448290097.6;(0.6823597908020019, 0.6685740364922417);70.2143630981;1.0;0;0;0;0;0;0;0;0;0;();(-2000.0, -2000.0);
03:32:17:996;03:32:17:963;1448290097.6;(0.6823597908020019, 0.6685740364922417);70.2143630981;1.0;0;0;0;0;0;0;0;0;0;();(-2000.0, -2000.0);
03:32:18:012;03:32:17:963;1448290097.6;(0.6823597908020019, 0.6685740364922417);70.2143630981;1.0;0;0;0;0;0;0;0;0;0;();(-2000.0, -2000.0);
03:32:18:029;03:32:17:963;1448290097.6;(0.6823597908020019, 0.6685740364922417);70.2143630981;1.0;0;0;0;0;0;0;0;0;0;();(-2000.0, -2000.0);
03:32:18:046;03:32:18:031;1448290097.69;(0.43625450134277344, 0.6322945912679037);41.1553764343;0.711535597091;0;0;0;0;0;0;0;0;0;();(-2000.0, -2000.0);
03:32:18:079;03:32:18:031;1448290097.69;(0.43625450134277344, 0.6322945912679037);41.1553764343;0.711535597091;0;0;0;0;0;0;0;0;0;();(-2000.0, -2000.0);
03:32:18:095;03:32:18:088;1448290097.74;(0, 0);0;0;0;0;0;0;0;0;0;0;0;();(-2000.0, -2000.0);
03:32:18:111;03:32:18:088;1448290097.74;(0, 0);0;0;0;0;0;0;0;0;0;0;0;();(-2000.0, -2000.0);
03:32:18:129;03:32:18:088;1448290097.74;(0, 0);0;0;0;0;0;0;0;0;0;0;0;();(-2000.0, -2000.0);
03:32:18:146;03:32:18:088;1448290097.74;(0, 0);0;0;0;0;0;0;0;0;0;0;0;();(-2000.0, -2000.0);
03:32:18:178;03:32:18:158;1448290097.8;(0, 0);0;0;0;0;0;0;0;0;0;0;0;();(-2000.0, -2000.0);
03:32:18:198;03:32:18:158;1448290097.8;(0, 0);0;0;0;0;0;0;0;0;0;0;0;();(-2000.0, -2000.0);
03:32:18:215;03:32:18:158;1448290097.8;(0, 0);0;0;0;0;0;0;0;0;0;0;0;();(-2000.0, -2000.0);
03:32:18:229;03:32:18:217;1448290097.84;(0.6994183540344239, 0.6308399836222331);48.9069747925;0.620894461618;0;0;0;0;0;0;0;0;0;();(-2000.0, -2000.0);
03:32:18:246;03:32:18:217;1448290097.84;(0.6994183540344239, 0.6308399836222331);48.9069747925;0.620894461618;0;0;0;0;0;0;0;0;0;();(-2000.0, -2000.0);
03:32:18:279;03:32:18:217;1448290097.84;(0.6994183540344239, 0.6308399836222331);48.9069747925;0.620894461618;0;0;0;0;0;0;0;0;0;();(-2000.0, -2000.0);
03:32:18:295;03:32:18:286;1448290097.87;(0.6868549346923828, 0.6701618830362956);70.5966873169;0.646250059154;0;0;0;0;0;0;0;0;0;();(-2000.0, -2000.0);
03:32:18:313;03:32:18:286;1448290097.87;(0.6868549346923828, 0.6701618830362956);70.5966873169;0.646250059154;0;0;0;0;0;0;0;0;0;();(-2000.0, -2000.0);
03:32:18:329;03:32:18:286;1448290097.87;(0.6868549346923828, 0.6701618830362956);70.5966873169;0.646250059154;0;0;0;0;0;0;0;0;0;();(-2000.0, -2000.0);
03:32:18:346;03:32:18:286;1448290097.87;(0.6868549346923828, 0.6701618830362956);70.5966873169;0.646250059154;0;0;0;0;0;0;0;0;0;();(-2000.0, -2000.0);
03:32:18:382;03:32:18:353;1448290097.92;(0.6850564479827881, 0.6720715628729926);73.5749130249;0.993465320076;0;0;0;0;0;0;0;0;0;();(-2000.0, -2000.0);
03:32:18:399;03:32:18:353;1448290097.92;(0.6850564479827881, 0.6720715628729926);73.5749130249;0.993465320076;0;0;0;0;0;0;0;0;0;();(-2000.0, -2000.0);
03:32:18:412;03:32:18:353;1448290097.92;(0.6850564479827881, 0.6720715628729926);73.5749130249;0.993465320076;0;0;0;0;0;0;0;0;0;();(-2000.0, -2000.0);
03:32:18:428;03:32:18:419;1448290098.05;(0.6830513000488281, 0.6734726376003689);72.9831161499;0.943005885363;0;0;0;0;0;0;0;0;0;();(-2000.0, -2000.0);
03:32:18:446;03:32:18:419;1448290098.05;(0.6830513000488281, 0.6734726376003689);72.9831161499;0.943005885363;0;0;0;0;0;0;0;0;0;();(-2000.0, -2000.0);
03:32:18:479;03:32:18:419;1448290098.05;(0.6830513000488281, 0.6734726376003689);72.9831161499;0.943005885363;0;0;0;0;0;0;0;0;0;();(-2000.0, -2000.0);
03:32:18:496;03:32:18:488;1448290098.14;(0, 0);0;0;0;0;0;0;0;0;0;0;0;();(-2000.0, -2000.0);
03:32:18:512;03:32:18:488;1448290098.14;(0, 0);0;0;0;0;0;0;0;0;0;0;0;();(-2000.0, -2000.0);
03:32:18:531;03:32:18:488;1448290098.14;(0, 0);0;0;0;0;0;0;0;0;0;0;0;();(-2000.0, -2000.0);
03:32:18:548;03:32:18:488;1448290098.14;(0, 0);0;0;0;0;0;0;0;0;0;0;0;();(-2000.0, -2000.0);
03:32:18:581;03:32:18:554;1448290098.2;(0, 0);0;0;0;0;0;0;0;0;0;0;0;();(-2000.0, -2000.0);
03:32:18:598;03:32:18:554;1448290098.2;(0, 0);0;0;0;0;0;0;0;0;0;0;0;();(-2000.0, -2000.0);
03:32:18:614;03:32:18:554;1448290098.2;(0, 0);0;0;0;0;0;0;0;0;0;0;0;();(-2000.0, -2000.0);
03:32:18:630;03:32:18:618;1448290098.24;(0.694289255142212, 0.6660291671752929);73.2560806274;0.724969771714;0;0;0;0;0;0;0;0;0;();(-2000.0, -2000.0);
03:32:18:646;03:32:18:618;1448290098.24;(0.694289255142212, 0.6660291671752929);73.2560806274;0.724969771714;0;0;0;0;0;0;0;0;0;();(-2000.0, -2000.0);
03:32:18:679;03:32:18:618;1448290098.24;(0.694289255142212, 0.6660291671752929);73.2560806274;0.724969771714;0;0;0;0;0;0;0;0;0;();(-2000.0, -2000.0);
03:32:18:696;03:32:18:688;1448290098.3;(0.690982723236084, 0.6711373435126411);75.0087356567;0.999624623847;0;0;0;0;0;0;0;0;0;();(-2000.0, -2000.0);
03:32:18:712;03:32:18:688;1448290098.3;(0.690982723236084, 0.6711373435126411);75.0087356567;0.999624623847;0;0;0;0;0;0;0;0;0;();(-2000.0, -2000.0);
03:32:18:730;03:32:18:688;1448290098.3;(0.690982723236084, 0.6711373435126411);75.0087356567;0.999624623847;0;0;0;0;0;0;0;0;0;();(-2000.0, -2000.0);
03:32:18:746;03:32:18:688;1448290098.3;(0.690982723236084, 0.6711373435126411);75.0087356567;0.999624623847;0;0;0;0;0;0;0;0;0;();(-2000.0, -2000.0);
03:32:18:779;03:32:18:760;1448290098.36;(0.6794299125671387, 0.6748122321234808);75.7108535767;0.773831575135;0;0;0;0;0;0;0;0;0;();(-2000.0, -2000.0);
03:32:18:799;03:32:18:760;1448290098.36;(0.6794299125671387, 0.6748122321234808);75.7108535767;0.773831575135;0;0;0;0;0;0;0;0;0;();(-2000.0, -2000.0);
03:32:18:815;03:32:18:760;1448290098.36;(0.6794299125671387, 0.6748122321234808);75.7108535767;0.773831575135;0;0;0;0;0;0;0;0;0;();(-2000.0, -2000.0);
03:32:18:830;03:32:18:824;1448290098.47;(0.5925807952880859, 0.6630180146959093);34.4806785583;0.712358699474;0;0;0;0;0;0;0;0;0;();(-2000.0, -2000.0);
03:32:18:846;03:32:18:824;1448290098.47;(0.5925807952880859, 0.6630180146959093);34.4806785583;0.712358699474;0;0;0;0;0;0;0;0;0;();(-2000.0, -2000.0);
03:32:18:880;03:32:18:824;1448290098.47;(0.5925807952880859, 0.6630180146959093);34.4806785583;0.712358699474;0;0;0;0;0;0;0;0;0;();(-2000.0, -2000.0);
03:32:18:896;03:32:18:881;1448290098.5;(0.36960864067077637, 0.5933437347412109);25.0066452026;0.620374297447;0;0;0;0;0;0;0;0;0;();(-2000.0, -2000.0);
03:32:18:913;03:32:18:881;1448290098.5;(0.36960864067077637, 0.5933437347412109);25.0066452026;0.620374297447;0;0;0;0;0;0;0;0;0;();(-2000.0, -2000.0);
03:32:18:929;03:32:18:881;1448290098.5;(0.36960864067077637, 0.5933437347412109);25.0066452026;0.620374297447;0;0;0;0;0;0;0;0;0;();(-2000.0, -2000.0);
03:32:18:946;03:32:18:881;1448290098.5;(0.36960864067077637, 0.5933437347412109);25.0066452026;0.620374297447;0;0;0;0;0;0;0;0;0;();(-2000.0, -2000.0);
03:32:18:982;03:32:18:953;1448290098.58;(0.6853121757507324, 0.6718703587849935);73.9115829468;0.984796731877;0;0;0;0;0;0;0;0;0;();(-2000.0, -2000.0);
03:32:18:999;03:32:18:953;1448290098.58;(0.6853121757507324, 0.6718703587849935);73.9115829468;0.984796731877;0;0;0;0;0;0;0;0;0;();(-2000.0, -2000.0);
03:32:19:012;03:32:18:953;1448290098.58;(0.6853121757507324, 0.6718703587849935);73.9115829468;0.984796731877;0;0;0;0;0;0;0;0;0;();(-2000.0, -2000.0);
03:32:19:028;03:32:19:025;1448290098.66;(0.6791743755340576, 0.6830151240030924);79.4722137451;0.712268166615;0;0;0;0;0;0;0;0;0;();(-2000.0, -2000.0);
03:32:19:047;03:32:19:025;1448290098.66;(0.6791743755340576, 0.6830151240030924);79.4722137451;0.712268166615;0;0;0;0;0;0;0;0;0;();(-2000.0, -2000.0);
03:32:19:080;03:32:19:025;1448290098.66;(0.6791743755340576, 0.6830151240030924);79.4722137451;0.712268166615;0;0;0;0;0;0;0;0;0;();(-2000.0, -2000.0);
03:32:19:098;03:32:19:085;1448290098.69;(0.679211950302124, 0.6857652240329318);77.0314254761;0.943058460249;0;0;0;0;0;0;0;0;0;();(-2000.0, -2000.0);
03:32:19:115;03:32:19:085;1448290098.69;(0.679211950302124, 0.6857652240329318);77.0314254761;0.943058460249;0;0;0;0;0;0;0;0;0;();(-2000.0, -2000.0);
03:32:19:129;03:32:19:085;1448290098.69;(0.679211950302124, 0.6857652240329318);77.0314254761;0.943058460249;0;0;0;0;0;0;0;0;0;();(-2000.0, -2000.0);
03:32:19:147;03:32:19:085;1448290098.69;(0.679211950302124, 0.6857652240329318);77.0314254761;0.943058460249;0;0;0;0;0;0;0;0;0;();(-2000.0, -2000.0);
03:32:19:180;03:32:19:153;1448290098.78;(0.6761019706726075, 0.6944380018446181);78.2778244019;0.801730925836;0;0;0;0;0;0;0;0;0;();(-2000.0, -2000.0);
03:32:19:197;03:32:19:153;1448290098.78;(0.6761019706726075, 0.6944380018446181);78.2778244019;0.801730925836;0;0;0;0;0;0;0;0;0;();(-2000.0, -2000.0);
03:32:19:213;03:32:19:153;1448290098.78;(0.6761019706726075, 0.6944380018446181);78.2778244019;0.801730925836;0;0;0;0;0;0;0;0;0;();(-2000.0, -2000.0);
03:32:19:230;03:32:19:219;1448290098.87;(0.6701491832733154, 0.6888913684421115);68.9744338989;0.664435784479;0;0;0;0;0;0;0;0;0;();(-2000.0, -2000.0);
03:32:19:247;03:32:19:219;1448290098.87;(0.6701491832733154, 0.6888913684421115);68.9744338989;0.664435784479;0;0;0;0;0;0;0;0;0;();(-2000.0, -2000.0);
03:32:19:280;03:32:19:219;1448290098.87;(0.6701491832733154, 0.6888913684421115);68.9744338989;0.664435784479;0;0;0;0;0;0;0;0;0;();(-2000.0, -2000.0);
03:32:19:297;03:32:19:286;1448290098.9;(0.662005615234375, 0.7103371302286784);78.1860046387;0.858905810988;0;0;0;0;0;0;0;0;0;();(-2000.0, -2000.0);
03:32:19:313;03:32:19:286;1448290098.9;(0.662005615234375, 0.7103371302286784);78.1860046387;0.858905810988;0;0;0;0;0;0;0;0;0;();(-2000.0, -2000.0);
03:32:19:330;03:32:19:286;1448290098.9;(0.662005615234375, 0.7103371302286784);78.1860046387;0.858905810988;0;0;0;0;0;0;0;0;0;();(-2000.0, -2000.0);
03:32:19:347;03:32:19:286;1448290098.9;(0.662005615234375, 0.7103371302286784);78.1860046387;0.858905810988;0;0;0;0;0;0;0;0;0;();(-2000.0, -2000.0);
03:32:19:380;03:32:19:350;1448290098.97;(0.6622894287109375, 0.7119244469536675);79.1400909424;0.857076893372;0;0;0;0;0;0;0;0;0;();(-2000.0, -2000.0);
03:32:19:397;03:32:19:350;1448290098.97;(0.6622894287109375, 0.7119244469536675);79.1400909424;0.857076893372;0;0;0;0;0;0;0;0;0;();(-2000.0, -2000.0);
03:32:19:413;03:32:19:350;1448290098.97;(0.6622894287109375, 0.7119244469536675);79.1400909424;0.857076893372;0;0;0;0;0;0;0;0;0;();(-2000.0, -2000.0);
03:32:19:430;03:32:19:417;1448290099.05;(0.6646227836608887, 0.7160160700480143);80.0065689087;0.815398092501;0;0;0;0;0;0;0;0;0;();(-2000.0, -2000.0);
03:32:19:446;03:32:19:417;1448290099.05;(0.6646227836608887, 0.7160160700480143);80.0065689087;0.815398092501;0;0;0;0;0;0;0;0;0;();(-2000.0, -2000.0);
03:32:19:480;03:32:19:417;1448290099.05;(0.6646227836608887, 0.7160160700480143);80.0065689087;0.815398092501;0;0;0;0;0;0;0;0;0;();(-2000.0, -2000.0);
03:32:19:496;03:32:19:486;1448290099.14;(0.6749984741210937, 0.722122679816352);82.7380599976;0.617602199934;0;0;0;0;0;0;0;0;0;();(-2000.0, -2000.0);
03:32:19:513;03:32:19:486;1448290099.14;(0.6749984741210937, 0.722122679816352);82.7380599976;0.617602199934;0;0;0;0;0;0;0;0;0;();(-2000.0, -2000.0);
03:32:19:530;03:32:19:486;1448290099.14;(0.6749984741210937, 0.722122679816352);82.7380599976;0.617602199934;0;0;0;0;0;0;0;0;0;();(-2000.0, -2000.0);
03:32:19:549;03:32:19:486;1448290099.14;(0.6749984741210937, 0.722122679816352);82.7380599976;0.617602199934;0;0;0;0;0;0;0;0;0;();(-2000.0, -2000.0);
03:32:19:582;03:32:19:555;1448290099.2;(0, 0);0;0;0;0;0;0;0;0;0;0;0;();(-2000.0, -2000.0);
03:32:19:599;03:32:19:555;1448290099.2;(0, 0);0;0;0;0;0;0;0;0;0;0;0;();(-2000.0, -2000.0);
03:32:19:614;03:32:19:555;1448290099.2;(0, 0);0;0;0;0;0;0;0;0;0;0;0;();(-2000.0, -2000.0);
03:32:19:630;03:32:19:618;1448290099.27;(0, 0);0;0;0;0;0;0;0;0;0;0;0;();(-2000.0, -2000.0);
03:32:19:647;03:32:19:618;1448290099.27;(0, 0);0;0;0;0;0;0;0;0;0;0;0;();(-2000.0, -2000.0);
03:32:19:680;03:32:19:677;1448290099.3;(0.37345242500305176, 0.6864532470703125);33.2745552063;0.636736674512;0;0;0;0;0;0;0;0;0;();(-2000.0, -2000.0);
03:32:19:698;03:32:19:677;1448290099.3;(0.37345242500305176, 0.6864532470703125);33.2745552063;0.636736674512;0;0;0;0;0;0;0;0;0;();(-2000.0, -2000.0);
03:32:19:716;03:32:19:677;1448290099.3;(0.37345242500305176, 0.6864532470703125);33.2745552063;0.636736674512;0;0;0;0;0;0;0;0;0;();(-2000.0, -2000.0);
03:32:19:730;03:32:19:677;1448290099.3;(0.37345242500305176, 0.6864532470703125);33.2745552063;0.636736674512;0;0;0;0;0;0;0;0;0;();(-2000.0, -2000.0);
03:32:19:746;03:32:19:677;1448290099.3;(0.37345242500305176, 0.6864532470703125);33.2745552063;0.636736674512;0;0;0;0;0;0;0;0;0;();(-2000.0, -2000.0);
03:32:19:780;03:32:19:751;1448290099.4;(0.6598331451416015, 0.7278310987684462);82.1033477783;0.837121396491;0;0;0;0;0;0;0;0;0;();(-2000.0, -2000.0);
03:32:19:797;03:32:19:751;1448290099.4;(0.6598331451416015, 0.7278310987684462);82.1033477783;0.837121396491;0;0;0;0;0;0;0;0;0;();(-2000.0, -2000.0);
03:32:19:813;03:32:19:751;1448290099.4;(0.6598331451416015, 0.7278310987684462);82.1033477783;0.837121396491;0;0;0;0;0;0;0;0;0;();(-2000.0, -2000.0);
03:32:19:830;03:32:19:816;1448290099.47;(0.660277271270752, 0.7254485660129123);81.7106246948;0.917746479807;0;0;0;0;0;0;0;0;0;();(-2000.0, -2000.0);
03:32:19:847;03:32:19:816;1448290099.47;(0.660277271270752, 0.7254485660129123);81.7106246948;0.917746479807;0;0;0;0;0;0;0;0;0;();(-2000.0, -2000.0);
03:32:19:880;03:32:19:877;1448290099.5;(0.912761116027832, 0.8305687692430284);58.4376945496;0.623937470097;0;0;0;0;0;0;0;0;0;();(-2000.0, -2000.0);
03:32:19:897;03:32:19:879;1448290099.54;(0.6562202930450439, 0.7157265345255535);80.576461792;0.806231140524;0;0;0;0;0;0;0;0;0;();(-2000.0, -2000.0);
03:32:19:913;03:32:19:879;1448290099.54;(0.6562202930450439, 0.7157265345255535);80.576461792;0.806231140524;0;0;0;0;0;0;0;0;0;();(-2000.0, -2000.0);
03:32:19:930;03:32:19:879;1448290099.54;(0.6562202930450439, 0.7157265345255535);80.576461792;0.806231140524;0;0;0;0;0;0;0;0;0;();(-2000.0, -2000.0);
03:32:19:947;03:32:19:879;1448290099.54;(0.6562202930450439, 0.7157265345255535);80.576461792;0.806231140524;0;0;0;0;0;0;0;0;0;();(-2000.0, -2000.0);
03:32:19:980;03:32:19:950;1448290099.6;(0.911750316619873, 0.5999403635660807);26.6705589294;0.657734880635;0;0;0;0;0;0;0;0;0;();(-2000.0, -2000.0);
03:32:19:997;03:32:19:950;1448290099.6;(0.911750316619873, 0.5999403635660807);26.6705589294;0.657734880635;0;0;0;0;0;0;0;0;0;();(-2000.0, -2000.0);
03:32:20:013;03:32:19:950;1448290099.6;(0.911750316619873, 0.5999403635660807);26.6705589294;0.657734880635;0;0;0;0;0;0;0;0;0;();(-2000.0, -2000.0);
03:32:20:029;03:32:20:026;1448290099.64;(0.7032668590545654, 0.6597507476806641);54.2738113403;0.700853714875;0;0;0;0;0;0;0;0;0;();(-2000.0, -2000.0);
03:32:20:047;03:32:20:026;1448290099.64;(0.7032668590545654, 0.6597507476806641);54.2738113403;0.700853714875;0;0;0;0;0;0;0;0;0;();(-2000.0, -2000.0);
03:32:20:082;03:32:20:079;1448290099.71;(0.6967751502990722, 0.686837175157335);81.9522171021;0.932688001624;0;0;0;0;0;0;0;0;0;();(-2000.0, -2000.0);
03:32:20:096;03:32:20:079;1448290099.71;(0.6967751502990722, 0.686837175157335);81.9522171021;0.932688001624;0;0;0;0;0;0;0;0;0;();(-2000.0, -2000.0);
03:32:20:114;03:32:20:079;1448290099.71;(0.6967751502990722, 0.686837175157335);81.9522171021;0.932688001624;0;0;0;0;0;0;0;0;0;();(-2000.0, -2000.0);
03:32:20:130;03:32:20:079;1448290099.71;(0.6967751502990722, 0.686837175157335);81.9522171021;0.932688001624;0;0;0;0;0;0;0;0;0;();(-2000.0, -2000.0);
03:32:20:147;03:32:20:079;1448290099.71;(0.6967751502990722, 0.686837175157335);81.9522171021;0.932688001624;0;0;0;0;0;0;0;0;0;();(-2000.0, -2000.0);
03:32:20:180;03:32:20:150;1448290099.77;(0.694361686706543, 0.6732655207316081);82.502571106;0.93535928693;0;0;0;0;0;0;0;0;0;();(-2000.0, -2000.0);
03:32:20:198;03:32:20:150;1448290099.77;(0.694361686706543, 0.6732655207316081);82.502571106;0.93535928693;0;0;0;0;0;0;0;0;0;();(-2000.0, -2000.0);
03:32:20:215;03:32:20:211;1448290099.85;(0.6903141975402832, 0.6526810328165691);82.2265625;0.930594684707;0;0;0;0;0;0;0;0;0;();(-2000.0, -2000.0);
03:32:20:231;03:32:20:211;1448290099.85;(0.6903141975402832, 0.6526810328165691);82.2265625;0.930594684707;0;0;0;0;0;0;0;0;0;();(-2000.0, -2000.0);
03:32:20:247;03:32:20:211;1448290099.85;(0.6903141975402832, 0.6526810328165691);82.2265625;0.930594684707;0;0;0;0;0;0;0;0;0;();(-2000.0, -2000.0);
03:32:20:264;03:32:20:211;1448290099.85;(0.6903141975402832, 0.6526810328165691);82.2265625;0.930594684707;0;0;0;0;0;0;0;0;0;();(-2000.0, -2000.0);
03:32:20:297;03:32:20:279;1448290099.91;(0.6159853458404541, 0.8814174440171983);27.6743583679;0.6915160942;0;0;0;0;0;0;0;0;0;();(-2000.0, -2000.0);
03:32:20:313;03:32:20:279;1448290099.91;(0.6159853458404541, 0.8814174440171983);27.6743583679;0.6915160942;0;0;0;0;0;0;0;0;0;();(-2000.0, -2000.0);
03:32:20:330;03:32:20:279;1448290099.91;(0.6159853458404541, 0.8814174440171983);27.6743583679;0.6915160942;0;0;0;0;0;0;0;0;0;();(-2000.0, -2000.0);
03:32:20:348;03:32:20:342;1448290099.95;(0.6935496807098389, 0.6386088265313042);82.4879379272;0.711465943358;0;0;0;0;0;0;0;0;0;();(-2000.0, -2000.0);
03:32:20:380;03:32:20:342;1448290099.95;(0.6935496807098389, 0.6386088265313042);82.4879379272;0.711465943358;0;0;0;0;0;0;0;0;0;();(-2000.0, -2000.0);
03:32:20:397;03:32:20:342;1448290099.95;(0.6935496807098389, 0.6386088265313042);82.4879379272;0.711465943358;0;0;0;0;0;0;0;0;0;();(-2000.0, -2000.0);
03:32:20:413;03:32:20:342;1448290099.95;(0.6935496807098389, 0.6386088265313042);82.4879379272;0.711465943358;0;0;0;0;0;0;0;0;0;();(-2000.0, -2000.0);
03:32:20:431;03:32:20:416;1448290100.0;(0.3112337589263916, 0.7720685111151802);51.8025245667;0.715012439761;0;0;0;0;0;0;0;0;0;();(-2000.0, -2000.0);
03:32:20:447;03:32:20:416;1448290100.0;(0.3112337589263916, 0.7720685111151802);51.8025245667;0.715012439761;0;0;0;0;0;0;0;0;0;();(-2000.0, -2000.0);
03:32:20:483;03:32:20:477;1448290100.04;(0.6922829627990723, 0.6383692211574978);82.8359603882;0.941266246163;0;0;0;0;0;0;0;0;0;();(-2000.0, -2000.0);
03:32:20:502;03:32:20:495;1448290100.14;(0.500822114944458, 0.8929781489902072);35.3175392151;0.63782450851;0;0;0;0;0;0;0;0;0;();(-2000.0, -2000.0);
03:32:20:516;03:32:20:495;1448290100.14;(0.500822114944458, 0.8929781489902072);35.3175392151;0.63782450851;0;0;0;0;0;0;0;0;0;();(-2000.0, -2000.0);
03:32:20:533;03:32:20:495;1448290100.14;(0.500822114944458, 0.8929781489902072);35.3175392151;0.63782450851;0;0;0;0;0;0;0;0;0;();(-2000.0, -2000.0);
03:32:20:547;03:32:20:495;1448290100.14;(0.500822114944458, 0.8929781489902072);35.3175392151;0.63782450851;0;0;0;0;0;0;0;0;0;();(-2000.0, -2000.0);
03:32:20:580;03:32:20:495;1448290100.14;(0.500822114944458, 0.8929781489902072);35.3175392151;0.63782450851;0;0;0;0;0;0;0;0;0;();(-2000.0, -2000.0);
03:32:20:597;03:32:20:495;1448290100.14;(0.500822114944458, 0.8929781489902072);35.3175392151;0.63782450851;0;0;0;0;0;0;0;0;0;();(-2000.0, -2000.0);
03:32:20:613;03:32:20:610;1448290100.24;(0.7441424369812012, 0.6018524593777127);81.7169876099;0.837850281125;0;0;0;0;0;0;0;0;0;();(-2000.0, -2000.0);
03:32:20:631;03:32:20:610;1448290100.24;(0.7441424369812012, 0.6018524593777127);81.7169876099;0.837850281125;0;0;0;0;0;0;0;0;0;();(-2000.0, -2000.0);
03:32:20:647;03:32:20:610;1448290100.24;(0.7441424369812012, 0.6018524593777127);81.7169876099;0.837850281125;0;0;0;0;0;0;0;0;0;();(-2000.0, -2000.0);
03:32:20:681;03:32:20:674;1448290100.31;(0.737569522857666, 0.6194874869452582);83.8590240479;1.0;0;0;0;0;0;0;0;0;0;();(-2000.0, -2000.0);
03:32:20:697;03:32:20:674;1448290100.31;(0.737569522857666, 0.6194874869452582);83.8590240479;1.0;0;0;0;0;0;0;0;0;0;();(-2000.0, -2000.0);
03:32:20:714;03:32:20:674;1448290100.31;(0.737569522857666, 0.6194874869452582);83.8590240479;1.0;0;0;0;0;0;0;0;0;0;();(-2000.0, -2000.0);
03:32:20:732;03:32:20:674;1448290100.31;(0.737569522857666, 0.6194874869452582);83.8590240479;1.0;0;0;0;0;0;0;0;0;0;();(-2000.0, -2000.0);
03:32:20:748;03:32:20:742;1448290100.35;(0.7346365928649903, 0.6249626159667969);84.140663147;0.967585951751;0;0;0;0;0;0;0;0;0;();(-2000.0, -2000.0);
03:32:20:765;03:32:20:742;1448290100.35;(0.7346365928649903, 0.6249626159667969);84.140663147;0.967585951751;0;0;0;0;0;0;0;0;0;();(-2000.0, -2000.0);
03:32:20:797;03:32:20:742;1448290100.35;(0.7346365928649903, 0.6249626159667969);84.140663147;0.967585951751;0;0;0;0;0;0;0;0;0;();(-2000.0, -2000.0);
03:32:20:817;03:32:20:809;1448290100.41;(0.7318583965301514, 0.6304500155978733);84.964630127;1.0;0;0;0;0;0;0;0;0;0;();(-2000.0, -2000.0);
03:32:20:834;03:32:20:809;1448290100.41;(0.7318583965301514, 0.6304500155978733);84.964630127;1.0;0;0;0;0;0;0;0;0;0;();(-2000.0, -2000.0);
03:32:20:850;03:32:20:809;1448290100.41;(0.7318583965301514, 0.6304500155978733);84.964630127;1.0;0;0;0;0;0;0;0;0;0;();(-2000.0, -2000.0);
03:32:20:867;03:32:20:809;1448290100.41;(0.7318583965301514, 0.6304500155978733);84.964630127;1.0;0;0;0;0;0;0;0;0;0;();(-2000.0, -2000.0);
03:32:20:900;03:32:20:879;1448290100.54;(0, 0);0;0;0;0;0;0;0;0;0;0;0;();(-2000.0, -2000.0);
03:32:20:918;03:32:20:879;1448290100.54;(0, 0);0;0;0;0;0;0;0;0;0;0;0;();(-2000.0, -2000.0);
03:32:20:932;03:32:20:879;1448290100.54;(0, 0);0;0;0;0;0;0;0;0;0;0;0;();(-2000.0, -2000.0);
03:32:20:948;03:32:20:943;1448290100.6;(0.3172791004180908, 0.5106395297580295);18.672082901;0.737796114969;0;0;0;0;0;0;0;0;0;();(-2000.0, -2000.0);
03:32:20:965;03:32:20:943;1448290100.6;(0.3172791004180908, 0.5106395297580295);18.672082901;0.737796114969;0;0;0;0;0;0;0;0;0;();(-2000.0, -2000.0);
03:32:20:998;03:32:20:943;1448290100.6;(0.3172791004180908, 0.5106395297580295);18.672082901;0.737796114969;0;0;0;0;0;0;0;0;0;();(-2000.0, -2000.0);
03:32:21:014;03:32:21:007;1448290100.64;(0, 0);0;0;0;0;0;0;0;0;0;0;0;();(-2000.0, -2000.0);
03:32:21:031;03:32:21:007;1448290100.64;(0, 0);0;0;0;0;0;0;0;0;0;0;0;();(-2000.0, -2000.0);
03:32:21:048;03:32:21:007;1448290100.64;(0, 0);0;0;0;0;0;0;0;0;0;0;0;();(-2000.0, -2000.0);
03:32:21:065;03:32:21:007;1448290100.64;(0, 0);0;0;0;0;0;0;0;0;0;0;0;();(-2000.0, -2000.0);
03:32:21:099;03:32:21:077;1448290100.74;(0.7171443462371826, 0.6506640328301323);84.1321182251;0.880459560784;0;0;0;0;0;0;0;0;0;();(-2000.0, -2000.0);
03:32:21:115;03:32:21:077;1448290100.74;(0.7171443462371826, 0.6506640328301323);84.1321182251;0.880459560784;0;0;0;0;0;0;0;0;0;();(-2000.0, -2000.0);
03:32:21:132;03:32:21:077;1448290100.74;(0.7171443462371826, 0.6506640328301323);84.1321182251;0.880459560784;0;0;0;0;0;0;0;0;0;();(-2000.0, -2000.0);
03:32:21:148;03:32:21:144;1448290100.8;(0.9182507514953613, 0.7303116268581814);18.2686042786;0.801495545794;0;0;0;0;0;0;0;0;0;();(-2000.0, -2000.0);
03:32:21:165;03:32:21:144;1448290100.8;(0.9182507514953613, 0.7303116268581814);18.2686042786;0.801495545794;0;0;0;0;0;0;0;0;0;();(-2000.0, -2000.0);
03:32:21:199;03:32:21:144;1448290100.8;(0.9182507514953613, 0.7303116268581814);18.2686042786;0.801495545794;0;0;0;0;0;0;0;0;0;();(-2000.0, -2000.0);
03:32:21:215;03:32:21:144;1448290100.8;(0.9182507514953613, 0.7303116268581814);18.2686042786;0.801495545794;0;0;0;0;0;0;0;0;0;();(-2000.0, -2000.0);
03:32:21:232;03:32:21:216;1448290100.84;(0.712337875366211, 0.6556948555840386);84.3128128052;0.722802328538;0;0;0;0;0;0;0;0;0;();(-2000.0, -2000.0);
03:32:21:249;03:32:21:216;1448290100.84;(0.712337875366211, 0.6556948555840386);84.3128128052;0.722802328538;0;0;0;0;0;0;0;0;0;();(-2000.0, -2000.0);
03:32:21:265;03:32:21:216;1448290100.84;(0.712337875366211, 0.6556948555840386);84.3128128052;0.722802328538;0;0;0;0;0;0;0;0;0;();(-2000.0, -2000.0);
03:32:21:299;03:32:21:275;1448290100.93;(0, 0);0;0;0;0;0;0;0;0;0;0;0;();(-2000.0, -2000.0);
03:32:21:315;03:32:21:275;1448290100.93;(0, 0);0;0;0;0;0;0;0;0;0;0;0;();(-2000.0, -2000.0);
03:32:21:331;03:32:21:275;1448290100.93;(0, 0);0;0;0;0;0;0;0;0;0;0;0;();(-2000.0, -2000.0);
03:32:21:348;03:32:21:341;1448290100.98;(0.7365174770355225, 0.6402632819281684);83.9878005981;0.928397706621;0;0;0;0;0;0;0;0;0;();(-2000.0, -2000.0);
03:32:21:365;03:32:21:341;1448290100.98;(0.7365174770355225, 0.6402632819281684);83.9878005981;0.928397706621;0;0;0;0;0;0;0;0;0;();(-2000.0, -2000.0);
03:32:21:399;03:32:21:341;1448290100.98;(0.7365174770355225, 0.6402632819281684);83.9878005981;0.928397706621;0;0;0;0;0;0;0;0;0;();(-2000.0, -2000.0);
03:32:21:415;03:32:21:405;1448290101.02;(0.7330499649047851, 0.6434890111287435);84.5779190063;1.0;0;0;0;0;0;0;0;0;0;();(-2000.0, -2000.0);
03:32:21:432;03:32:21:405;1448290101.02;(0.7330499649047851, 0.6434890111287435);84.5779190063;1.0;0;0;0;0;0;0;0;0;0;();(-2000.0, -2000.0);
03:32:21:449;03:32:21:405;1448290101.02;(0.7330499649047851, 0.6434890111287435);84.5779190063;1.0;0;0;0;0;0;0;0;0;0;();(-2000.0, -2000.0);
03:32:21:465;03:32:21:405;1448290101.02;(0.7330499649047851, 0.6434890111287435);84.5779190063;1.0;0;0;0;0;0;0;0;0;0;();(-2000.0, -2000.0);
03:32:21:499;03:32:21:476;1448290101.12;(0.7223110675811768, 0.6495735380384657);84.607421875;0.975914093043;0;0;0;0;0;0;0;0;0;();(-2000.0, -2000.0);
03:32:21:515;03:32:21:476;1448290101.12;(0.7223110675811768, 0.6495735380384657);84.607421875;0.975914093043;0;0;0;0;0;0;0;0;0;();(-2000.0, -2000.0);
03:32:21:532;03:32:21:476;1448290101.12;(0.7223110675811768, 0.6495735380384657);84.607421875;0.975914093043;0;0;0;0;0;0;0;0;0;();(-2000.0, -2000.0);
03:32:21:549;03:32:21:541;1448290101.17;(0, 0);0;0;0;0;0;0;0;0;0;0;0;();(-2000.0, -2000.0);
03:32:21:565;03:32:21:541;1448290101.17;(0, 0);0;0;0;0;0;0;0;0;0;0;0;();(-2000.0, -2000.0);
03:32:21:599;03:32:21:541;1448290101.17;(0, 0);0;0;0;0;0;0;0;0;0;0;0;();(-2000.0, -2000.0);
03:32:21:615;03:32:21:609;1448290101.24;(0, 0);0;0;0;0;0;0;0;0;0;0;0;();(-2000.0, -2000.0);
03:32:21:632;03:32:21:609;1448290101.24;(0, 0);0;0;0;0;0;0;0;0;0;0;0;();(-2000.0, -2000.0);
03:32:21:649;03:32:21:609;1448290101.24;(0, 0);0;0;0;0;0;0;0;0;0;0;0;();(-2000.0, -2000.0);
03:32:21:666;03:32:21:609;1448290101.24;(0, 0);0;0;0;0;0;0;0;0;0;0;0;();(-2000.0, -2000.0);
03:32:21:699;03:32:21:670;1448290101.31;(0.7090813159942627, 0.6381547927856446);86.7204666138;0.899581698184;0;0;0;0;0;0;0;0;0;();(-2000.0, -2000.0);
03:32:21:716;03:32:21:670;1448290101.31;(0.7090813159942627, 0.6381547927856446);86.7204666138;0.899581698184;0;0;0;0;0;0;0;0;0;();(-2000.0, -2000.0);
03:32:21:732;03:32:21:670;1448290101.31;(0.7090813159942627, 0.6381547927856446);86.7204666138;0.899581698184;0;0;0;0;0;0;0;0;0;();(-2000.0, -2000.0);
03:32:21:749;03:32:21:670;1448290101.31;(0.7090813159942627, 0.6381547927856446);86.7204666138;0.899581698184;0;0;0;0;0;0;0;0;0;();(-2000.0, -2000.0);
03:32:21:766;03:32:21:754;1448290101.4;(0, 0);0;0;0;0;0;0;0;0;0;0;0;();(-2000.0, -2000.0);
03:32:21:799;03:32:21:754;1448290101.4;(0, 0);0;0;0;0;0;0;0;0;0;0;0;();(-2000.0, -2000.0);
03:32:21:816;03:32:21:805;1448290101.44;(0, 0);0;0;0;0;0;0;0;0;0;0;0;();(-2000.0, -2000.0);
03:32:21:832;03:32:21:805;1448290101.44;(0, 0);0;0;0;0;0;0;0;0;0;0;0;();(-2000.0, -2000.0);
03:32:21:849;03:32:21:805;1448290101.44;(0, 0);0;0;0;0;0;0;0;0;0;0;0;();(-2000.0, -2000.0);
03:32:21:866;03:32:21:805;1448290101.44;(0, 0);0;0;0;0;0;0;0;0;0;0;0;();(-2000.0, -2000.0);
03:32:21:898;03:32:21:869;1448290101.47;(0.7057986259460449, 0.6498671213785807);84.1787643433;0.952377704413;0;0;0;0;0;0;0;0;0;();(-2000.0, -2000.0);
03:32:21:916;03:32:21:869;1448290101.47;(0.7057986259460449, 0.6498671213785807);84.1787643433;0.952377704413;0;0;0;0;0;0;0;0;0;();(-2000.0, -2000.0);
03:32:21:932;03:32:21:869;1448290101.47;(0.7057986259460449, 0.6498671213785807);84.1787643433;0.952377704413;0;0;0;0;0;0;0;0;0;();(-2000.0, -2000.0);
03:32:21:949;03:32:21:940;1448290101.6;(0.7068972587585449, 0.6453455607096354);87.3964004517;0.954884622644;0;0;0;0;0;0;0;0;0;();(-2000.0, -2000.0);
03:32:21:966;03:32:21:940;1448290101.6;(0.7068972587585449, 0.6453455607096354);87.3964004517;0.954884622644;0;0;0;0;0;0;0;0;0;();(-2000.0, -2000.0);
03:32:21:999;03:32:21:940;1448290101.6;(0.7068972587585449, 0.6453455607096354);87.3964004517;0.954884622644;0;0;0;0;0;0;0;0;0;();(-2000.0, -2000.0);
03:32:22:016;03:32:22:003;1448290101.67;(0.7066626071929931, 0.6424057430691189);87.4017410278;0.849652338712;0;0;0;0;0;0;0;0;0;();(-2000.0, -2000.0);
03:32:22:032;03:32:22:003;1448290101.67;(0.7066626071929931, 0.6424057430691189);87.4017410278;0.849652338712;0;0;0;0;0;0;0;0;0;();(-2000.0, -2000.0);
03:32:22:049;03:32:22:003;1448290101.67;(0.7066626071929931, 0.6424057430691189);87.4017410278;0.849652338712;0;0;0;0;0;0;0;0;0;();(-2000.0, -2000.0);
03:32:22:066;03:32:22:003;1448290101.67;(0.7066626071929931, 0.6424057430691189);87.4017410278;0.849652338712;0;0;0;0;0;0;0;0;0;();(-2000.0, -2000.0);
03:32:22:099;03:32:22:071;1448290101.74;(0.7068786144256591, 0.6407555050320095);86.7797012329;0.940877788471;0;0;0;0;0;0;0;0;0;();(-2000.0, -2000.0);
03:32:22:116;03:32:22:071;1448290101.74;(0.7068786144256591, 0.6407555050320095);86.7797012329;0.940877788471;0;0;0;0;0;0;0;0;0;();(-2000.0, -2000.0);
03:32:22:132;03:32:22:071;1448290101.74;(0.7068786144256591, 0.6407555050320095);86.7797012329;0.940877788471;0;0;0;0;0;0;0;0;0;();(-2000.0, -2000.0);
03:32:22:149;03:32:22:139;1448290101.8;(0.7072658538818359, 0.6406538857354058);86.5382461548;1.0;0;0;0;0;0;0;0;0;0;();(-2000.0, -2000.0);
03:32:22:166;03:32:22:139;1448290101.8;(0.7072658538818359, 0.6406538857354058);86.5382461548;1.0;0;0;0;0;0;0;0;0;0;();(-2000.0, -2000.0);
03:32:22:199;03:32:22:139;1448290101.8;(0.7072658538818359, 0.6406538857354058);86.5382461548;1.0;0;0;0;0;0;0;0;0;0;();(-2000.0, -2000.0);
03:32:22:216;03:32:22:203;1448290101.87;(0.707379674911499, 0.6408455530802408);86.5469512939;1.0;0;0;0;0;0;0;0;0;0;();(-2000.0, -2000.0);
03:32:22:232;03:32:22:203;1448290101.87;(0.707379674911499, 0.6408455530802408);86.5469512939;1.0;0;0;0;0;0;0;0;0;0;();(-2000.0, -2000.0);
03:32:22:249;03:32:22:203;1448290101.87;(0.707379674911499, 0.6408455530802408);86.5469512939;1.0;0;0;0;0;0;0;0;0;0;();(-2000.0, -2000.0);
03:32:22:266;03:32:22:203;1448290101.87;(0.707379674911499, 0.6408455530802408);86.5469512939;1.0;0;0;0;0;0;0;0;0;0;();(-2000.0, -2000.0);
03:32:22:299;03:32:22:271;1448290101.94;(0.7072729587554931, 0.6406721115112305);86.3373413086;0.990161684379;0;0;0;0;0;0;0;0;0;();(-2000.0, -2000.0);
03:32:22:316;03:32:22:271;1448290101.94;(0.7072729587554931, 0.6406721115112305);86.3373413086;0.990161684379;0;0;0;0;0;0;0;0;0;();(-2000.0, -2000.0);
03:32:22:333;03:32:22:271;1448290101.94;(0.7072729587554931, 0.6406721115112305);86.3373413086;0.990161684379;0;0;0;0;0;0;0;0;0;();(-2000.0, -2000.0);
03:32:22:349;03:32:22:271;1448290101.94;(0.7072729587554931, 0.6406721115112305);86.3373413086;0.990161684379;0;0;0;0;0;0;0;0;0;();(-2000.0, -2000.0);
03:32:22:366;03:32:22:351;1448290101.97;(0.7071054935455322, 0.6413027445475261);87.0118179321;0.856065256845;0;0;0;0;0;0;0;0;0;();(-2000.0, -2000.0);
03:32:22:399;03:32:22:351;1448290101.97;(0.7071054935455322, 0.6413027445475261);87.0118179321;0.856065256845;0;0;0;0;0;0;0;0;0;();(-2000.0, -2000.0);
03:32:22:416;03:32:22:404;1448290102.07;(0.7080138206481934, 0.6306292427910698);88.7284240723;0.871066989978;0;0;0;0;0;0;0;0;0;();(-2000.0, -2000.0);
03:32:22:433;03:32:22:404;1448290102.07;(0.7080138206481934, 0.6306292427910698);88.7284240723;0.871066989978;0;0;0;0;0;0;0;0;0;();(-2000.0, -2000.0);
03:32:22:449;03:32:22:404;1448290102.07;(0.7080138206481934, 0.6306292427910698);88.7284240723;0.871066989978;0;0;0;0;0;0;0;0;0;();(-2000.0, -2000.0);
03:32:22:466;03:32:22:404;1448290102.07;(0.7080138206481934, 0.6306292427910698);88.7284240723;0.871066989978;0;0;0;0;0;0;0;0;0;();(-2000.0, -2000.0);
03:32:22:499;03:32:22:465;1448290102.1;(0.7083293437957764, 0.6304501639472113);88.3193359375;0.977272268719;0;0;0;0;0;0;0;0;0;();(-2000.0, -2000.0);
03:32:22:516;03:32:22:465;1448290102.1;(0.7083293437957764, 0.6304501639472113);88.3193359375;0.977272268719;0;0;0;0;0;0;0;0;0;();(-2000.0, -2000.0);
03:32:22:533;03:32:22:465;1448290102.1;(0.7083293437957764, 0.6304501639472113);88.3193359375;0.977272268719;0;0;0;0;0;0;0;0;0;();(-2000.0, -2000.0);
03:32:22:550;03:32:22:536;1448290102.17;(0.708651065826416, 0.6320544772677952);88.6156997681;0.856968471837;0;0;0;0;0;0;0;0;0;();(-2000.0, -2000.0);
03:32:22:566;03:32:22:536;1448290102.17;(0.708651065826416, 0.6320544772677952);88.6156997681;0.856968471837;0;0;0;0;0;0;0;0;0;();(-2000.0, -2000.0);
03:32:22:600;03:32:22:536;1448290102.17;(0.708651065826416, 0.6320544772677952);88.6156997681;0.856968471837;0;0;0;0;0;0;0;0;0;();(-2000.0, -2000.0);
03:32:22:616;03:32:22:605;1448290102.25;(0.7108383178710938, 0.6406677034166124);88.7119140625;0.91037676745;0;0;0;0;0;0;0;0;0;();(-2000.0, -2000.0);
03:32:22:633;03:32:22:605;1448290102.25;(0.7108383178710938, 0.6406677034166124);88.7119140625;0.91037676745;0;0;0;0;0;0;0;0;0;();(-2000.0, -2000.0);
03:32:22:650;03:32:22:605;1448290102.25;(0.7108383178710938, 0.6406677034166124);88.7119140625;0.91037676745;0;0;0;0;0;0;0;0;0;();(-2000.0, -2000.0);
03:32:22:666;03:32:22:605;1448290102.25;(0.7108383178710938, 0.6406677034166124);88.7119140625;0.91037676745;0;0;0;0;0;0;0;0;0;();(-2000.0, -2000.0);
03:32:22:700;03:32:22:667;1448290102.28;(0, 0);0;0;0;0;0;0;0;0;0;0;0;();(-2000.0, -2000.0);
03:32:22:716;03:32:22:667;1448290102.28;(0, 0);0;0;0;0;0;0;0;0;0;0;0;();(-2000.0, -2000.0);
03:32:22:733;03:32:22:667;1448290102.28;(0, 0);0;0;0;0;0;0;0;0;0;0;0;();(-2000.0, -2000.0);
03:32:22:750;03:32:22:737;1448290102.4;(0.6843363761901855, 0.656794802347819);89.1360244751;0.852677873089;0;0;0;0;0;0;0;0;0;();(-2000.0, -2000.0);
03:32:22:766;03:32:22:737;1448290102.4;(0.6843363761901855, 0.656794802347819);89.1360244751;0.852677873089;0;0;0;0;0;0;0;0;0;();(-2000.0, -2000.0);
03:32:22:800;03:32:22:797;1448290102.44;(0.6843738555908203, 0.6561531278822157);88.3432540894;0.866338918386;0;0;0;0;0;0;0;0;0;();(-2000.0, -2000.0);
03:32:22:816;03:32:22:803;1448290102.47;(0.6849183559417724, 0.6558319727579753);88.7895812988;0.956351037205;0;0;0;0;0;0;0;0;0;();(-2000.0, -2000.0);
03:32:22:833;03:32:22:803;1448290102.47;(0.6849183559417724, 0.6558319727579753);88.7895812988;0.956351037205;0;0;0;0;0;0;0;0;0;();(-2000.0, -2000.0);
03:32:22:850;03:32:22:803;1448290102.47;(0.6849183559417724, 0.6558319727579753);88.7895812988;0.956351037205;0;0;0;0;0;0;0;0;0;();(-2000.0, -2000.0);
03:32:22:866;03:32:22:803;1448290102.47;(0.6849183559417724, 0.6558319727579753);88.7895812988;0.956351037205;0;0;0;0;0;0;0;0;0;();(-2000.0, -2000.0);
03:32:22:899;03:32:22:869;1448290102.54;(0.6853319644927979, 0.6553674909803602);89.2959671021;0.869616811391;0;0;0;0;0;0;0;0;0;();(-2000.0, -2000.0);
03:32:22:917;03:32:22:869;1448290102.54;(0.6853319644927979, 0.6553674909803602);89.2959671021;0.869616811391;0;0;0;0;0;0;0;0;0;();(-2000.0, -2000.0);
03:32:22:933;03:32:22:869;1448290102.54;(0.6853319644927979, 0.6553674909803602);89.2959671021;0.869616811391;0;0;0;0;0;0;0;0;0;();(-2000.0, -2000.0);
03:32:22:949;03:32:22:934;1448290102.57;(0.6855591773986817, 0.6546475092569988);89.5266876221;0.929233543885;0;0;0;0;0;0;0;0;0;();(-2000.0, -2000.0);
03:32:22:968;03:32:22:934;1448290102.57;(0.6855591773986817, 0.6546475092569988);89.5266876221;0.929233543885;0;0;0;0;0;0;0;0;0;();(-2000.0, -2000.0);
03:32:23:002;03:32:22:934;1448290102.57;(0.6855591773986817, 0.6546475092569988);89.5266876221;0.929233543885;0;0;0;0;0;0;0;0;0;();(-2000.0, -2000.0);
03:32:23:019;03:32:23:005;1448290102.64;(0.37450518608093264, 0.8894058439466689);67.8934020996;0.637938601572;0;0;0;0;0;0;0;0;0;();(-2000.0, -2000.0);
03:32:23:035;03:32:23:005;1448290102.64;(0.37450518608093264, 0.8894058439466689);67.8934020996;0.637938601572;0;0;0;0;0;0;0;0;0;();(-2000.0, -2000.0);
03:32:23:052;03:32:23:005;1448290102.64;(0.37450518608093264, 0.8894058439466689);67.8934020996;0.637938601572;0;0;0;0;0;0;0;0;0;();(-2000.0, -2000.0);
03:32:23:066;03:32:23:005;1448290102.64;(0.37450518608093264, 0.8894058439466689);67.8934020996;0.637938601572;0;0;0;0;0;0;0;0;0;();(-2000.0, -2000.0);
03:32:23:100;03:32:23:070;1448290102.71;(0.6910823345184326, 0.6517253028021919);88.7972412109;0.922047248527;0;0;0;0;0;0;0;0;0;();(-2000.0, -2000.0);
03:32:23:116;03:32:23:070;1448290102.71;(0.6910823345184326, 0.6517253028021919);88.7972412109;0.922047248527;0;0;0;0;0;0;0;0;0;();(-2000.0, -2000.0);
03:32:23:135;03:32:23:132;1448290102.77;(0.6913251399993896, 0.6518808364868164);89.7277526855;0.984255053329;0;0;0;0;0;0;0;0;0;();(-2000.0, -2000.0);
03:32:23:153;03:32:23:132;1448290102.77;(0.6913251399993896, 0.6518808364868164);89.7277526855;0.984255053329;0;0;0;0;0;0;0;0;0;();(-2000.0, -2000.0);
03:32:23:169;03:32:23:132;1448290102.77;(0.6913251399993896, 0.6518808364868164);89.7277526855;0.984255053329;0;0;0;0;0;0;0;0;0;();(-2000.0, -2000.0);
03:32:23:199;03:32:23:132;1448290102.77;(0.6913251399993896, 0.6518808364868164);89.7277526855;0.984255053329;0;0;0;0;0;0;0;0;0;();(-2000.0, -2000.0);
03:32:23:216;03:32:23:202;1448290102.84;(0.6922505855560303, 0.6506116443210178);90.5879135132;0.979072776722;0;0;0;0;0;0;0;0;0;();(-2000.0, -2000.0);
03:32:23:233;03:32:23:202;1448290102.84;(0.6922505855560303, 0.6506116443210178);90.5879135132;0.979072776722;0;0;0;0;0;0;0;0;0;();(-2000.0, -2000.0);
03:32:23:250;03:32:23:202;1448290102.84;(0.6922505855560303, 0.6506116443210178);90.5879135132;0.979072776722;0;0;0;0;0;0;0;0;0;();(-2000.0, -2000.0);
03:32:23:267;03:32:23:202;1448290102.84;(0.6922505855560303, 0.6506116443210178);90.5879135132;0.979072776722;0;0;0;0;0;0;0;0;0;();(-2000.0, -2000.0);
03:32:23:300;03:32:23:270;1448290102.9;(0.7079301834106445, 0.6226355870564779);89.9843978882;0.909240446212;0;0;0;0;0;0;0;0;0;();(-2000.0, -2000.0);
03:32:23:316;03:32:23:270;1448290102.9;(0.7079301834106445, 0.6226355870564779);89.9843978882;0.909240446212;0;0;0;0;0;0;0;0;0;();(-2000.0, -2000.0);
03:32:23:336;03:32:23:333;1448290103.0;(0.7082525253295898, 0.6244129604763455);90.2136764526;0.882878536006;0;0;0;0;0;0;0;0;0;();(-2000.0, -2000.0);
03:32:23:349;03:32:23:333;1448290103.0;(0.7082525253295898, 0.6244129604763455);90.2136764526;0.882878536006;0;0;0;0;0;0;0;0;0;();(-2000.0, -2000.0);
03:32:23:369;03:32:23:333;1448290103.0;(0.7082525253295898, 0.6244129604763455);90.2136764526;0.882878536006;0;0;0;0;0;0;0;0;0;();(-2000.0, -2000.0);
03:32:23:404;03:32:23:397;1448290103.04;(0.7076514720916748, 0.6252683003743489);90.0718078613;0.915558115967;0;0;0;0;0;0;0;0;0;();(-2000.0, -2000.0);
03:32:23:418;03:32:23:400;1448290103.07;(0, 0);0;0;0;0;0;0;0;0;0;0;0;();(-2000.0, -2000.0);
03:32:23:434;03:32:23:400;1448290103.07;(0, 0);0;0;0;0;0;0;0;0;0;0;0;();(-2000.0, -2000.0);
03:32:23:453;03:32:23:400;1448290103.07;(0, 0);0;0;0;0;0;0;0;0;0;0;0;();(-2000.0, -2000.0);
03:32:23:471;03:32:23:466;1448290103.1;(0, 0);0;0;0;0;0;0;0;0;0;0;0;();(-2000.0, -2000.0);
03:32:23:502;03:32:23:466;1448290103.1;(0, 0);0;0;0;0;0;0;0;0;0;0;0;();(-2000.0, -2000.0);
03:32:23:519;03:32:23:466;1448290103.1;(0, 0);0;0;0;0;0;0;0;0;0;0;0;();(-2000.0, -2000.0);
03:32:23:537;03:32:23:531;1448290103.14;(0.34780125617980956, 0.4670190175374349);27.9340515137;0.614556435835;0;0;0;0;0;0;0;0;0;();(-2000.0, -2000.0);
03:32:23:552;03:32:23:533;1448290103.17;(0.3353919267654419, 0.6031902313232422);32.674785614;0.786565964673;0;0;0;0;0;0;0;0;0;();(-2000.0, -2000.0);
03:32:23:569;03:32:23:533;1448290103.17;(0.3353919267654419, 0.6031902313232422);32.674785614;0.786565964673;0;0;0;0;0;0;0;0;0;();(-2000.0, -2000.0);
03:32:23:586;03:32:23:533;1448290103.17;(0.3353919267654419, 0.6031902313232422);32.674785614;0.786565964673;0;0;0;0;0;0;0;0;0;();(-2000.0, -2000.0);
03:32:23:619;03:32:23:601;1448290103.24;(0.7199033260345459, 0.6491225560506184);90.0699462891;0.92093390297;0;0;0;0;0;0;0;0;0;();(-2000.0, -2000.0);
03:32:23:634;03:32:23:601;1448290103.24;(0.7199033260345459, 0.6491225560506184);90.0699462891;0.92093390297;0;0;0;0;0;0;0;0;0;();(-2000.0, -2000.0);
03:32:23:651;03:32:23:601;1448290103.24;(0.7199033260345459, 0.6491225560506184);90.0699462891;0.92093390297;0;0;0;0;0;0;0;0;0;();(-2000.0, -2000.0);
03:32:23:667;03:32:23:662;1448290103.27;(0.7215555667877197, 0.6481190787421333);90.0376739502;1.0;0;0;0;0;0;0;0;0;0;();(-2000.0, -2000.0);
03:32:23:700;03:32:23:662;1448290103.27;(0.7215555667877197, 0.6481190787421333);90.0376739502;1.0;0;0;0;0;0;0;0;0;0;();(-2000.0, -2000.0);
03:32:23:720;03:32:23:662;1448290103.27;(0.7215555667877197, 0.6481190787421333);90.0376739502;1.0;0;0;0;0;0;0;0;0;0;();(-2000.0, -2000.0);
03:32:23:737;03:32:23:730;1448290103.32;(0.72268648147583, 0.6484561284383138);89.6783828735;1.0;0;0;0;0;0;0;0;0;0;();(-2000.0, -2000.0);
03:32:23:755;03:32:23:748;1448290103.4;(0.7244288921356201, 0.647929573059082);90.0515899658;0.956045800706;0;0;0;0;0;0;0;0;0;();(-2000.0, -2000.0);
03:32:23:770;03:32:23:748;1448290103.4;(0.7244288921356201, 0.647929573059082);90.0515899658;0.956045800706;0;0;0;0;0;0;0;0;0;();(-2000.0, -2000.0);
03:32:23:800;03:32:23:748;1448290103.4;(0.7244288921356201, 0.647929573059082);90.0515899658;0.956045800706;0;0;0;0;0;0;0;0;0;();(-2000.0, -2000.0);
03:32:23:817;03:32:23:812;1448290103.44;(0.725223445892334, 0.6477582507663303);89.9784393311;0.94272349681;0;0;0;0;0;0;0;0;0;();(-2000.0, -2000.0);
03:32:23:834;03:32:23:812;1448290103.44;(0.725223445892334, 0.6477582507663303);89.9784393311;0.94272349681;0;0;0;0;0;0;0;0;0;();(-2000.0, -2000.0);
03:32:23:851;03:32:23:812;1448290103.44;(0.725223445892334, 0.6477582507663303);89.9784393311;0.94272349681;0;0;0;0;0;0;0;0;0;();(-2000.0, -2000.0);
03:32:23:868;03:32:23:862;1448290103.47;(0, 0);0;0;0;0;0;0;0;0;0;0;0;();(-2000.0, -2000.0);
03:32:23:900;03:32:23:862;1448290103.47;(0, 0);0;0;0;0;0;0;0;0;0;0;0;();(-2000.0, -2000.0);
03:32:23:917;03:32:23:862;1448290103.47;(0, 0);0;0;0;0;0;0;0;0;0;0;0;();(-2000.0, -2000.0);
03:32:23:933;03:32:23:930;1448290103.5;(0.6854845523834229, 0.6523007922702365);90.7953872681;0.937440627852;0;0;0;0;0;0;0;0;0;();(-2000.0, -2000.0);
03:32:23:951;03:32:23:938;1448290103.6;(0.6865331172943115, 0.6516174952189128);91.2667999268;0.974114122466;0;0;0;0;0;0;0;0;0;();(-2000.0, -2000.0);
03:32:23:967;03:32:23:938;1448290103.6;(0.6865331172943115, 0.6516174952189128);91.2667999268;0.974114122466;0;0;0;0;0;0;0;0;0;();(-2000.0, -2000.0);
