%Timestamp,timestamp_write;timestamp_gotpupil;eyeTrackerTime;normPos;diameter;confidence;nplanes;listofAirplanesonScreen;lastAction;lastActionDetails;lastActionAirplaneNumber;calculatedScore;positiveScore;negativeScore;collidedAirplaneNumbers;targetPositions;collisionPoint
03:39:34:190;1448290533.82;(0, 0);0;0;0;0;0;0;0;0;0;0;0;();(-2000.0, -2000.0);
03:39:34:202;1448290533.82;(0, 0);0;0;0;0;0;0;0;0;0;0;0;();(-2000.0, -2000.0);
03:39:34:210;1448290533.82;(0, 0);0;0;0;0;0;0;0;0;0;0;0;();(-2000.0, -2000.0);
03:39:34:215;1448290533.82;(0, 0);0;0;0;0;0;0;0;0;0;0;0;();(-2000.0, -2000.0);
03:39:34:219;1448290533.82;(0, 0);0;0;0;0;0;0;0;0;0;0;0;();(-2000.0, -2000.0);
03:39:34:222;1448290533.82;(0, 0);0;0;0;0;0;0;0;0;0;0;0;();(-2000.0, -2000.0);
03:39:34:225;1448290533.82;(0, 0);0;0;0;0;0;0;0;0;0;0;0;();(-2000.0, -2000.0);
03:39:34:229;1448290533.82;(0, 0);0;0;0;0;0;0;0;0;0;0;0;();(-2000.0, -2000.0);
03:39:34:232;1448290533.82;(0, 0);0;0;0;0;0;0;0;0;0;0;0;();(-2000.0, -2000.0);
03:39:34:236;1448290533.82;(0, 0);0;0;0;0;0;0;0;0;0;0;0;();(-2000.0, -2000.0);
03:39:34:239;1448290533.82;(0, 0);0;0;0;0;0;0;0;0;0;0;0;();(-2000.0, -2000.0);
03:39:34:242;1448290533.82;(0, 0);0;0;0;0;0;0;0;0;0;0;0;();(-2000.0, -2000.0);
03:39:34:247;03:39:34:243;1448290533.86;(0.6026282787322998, 0.8065284517076281);82.1773605347;0.720465673542;0;0;0;0;0;0;0;0;0;();(-2000.0, -2000.0);
03:39:34:252;03:39:34:245;1448290533.89;(0.33707432746887206, 0.9107347382439508);26.9769039154;0.772450056922;0;0;0;0;0;0;0;0;0;();(-2000.0, -2000.0);
03:39:34:256;03:39:34:245;1448290533.89;(0.33707432746887206, 0.9107347382439508);26.9769039154;0.772450056922;0;0;0;0;0;0;0;0;0;();(-2000.0, -2000.0);
03:39:34:259;03:39:34:245;1448290533.89;(0.33707432746887206, 0.9107347382439508);26.9769039154;0.772450056922;0;0;0;0;0;0;0;0;0;();(-2000.0, -2000.0);
03:39:34:264;03:39:34:245;1448290533.89;(0.33707432746887206, 0.9107347382439508);26.9769039154;0.772450056922;0;0;0;0;0;0;0;0;0;();(-2000.0, -2000.0);
03:39:34:268;03:39:34:245;1448290533.89;(0.33707432746887206, 0.9107347382439508);26.9769039154;0.772450056922;0;0;0;0;0;0;0;0;0;();(-2000.0, -2000.0);
03:39:34:271;03:39:34:245;1448290533.89;(0.33707432746887206, 0.9107347382439508);26.9769039154;0.772450056922;0;0;0;0;0;0;0;0;0;();(-2000.0, -2000.0);
03:39:34:275;03:39:34:245;1448290533.89;(0.33707432746887206, 0.9107347382439508);26.9769039154;0.772450056922;0;0;0;0;0;0;0;0;0;();(-2000.0, -2000.0);
03:39:34:280;03:39:34:245;1448290533.89;(0.33707432746887206, 0.9107347382439508);26.9769039154;0.772450056922;0;0;0;0;0;0;0;0;0;();(-2000.0, -2000.0);
03:39:34:287;03:39:34:245;1448290533.89;(0.33707432746887206, 0.9107347382439508);26.9769039154;0.772450056922;0;0;0;0;0;0;0;0;0;();(-2000.0, -2000.0);
03:39:34:322;03:39:34:311;1448290533.96;(0.6663670539855957, 0.7370971255832248);80.8574829102;0.905406908685;0;0;0;0;0;0;0;0;0;();(-2000.0, -2000.0);
03:39:34:336;03:39:34:311;1448290533.96;(0.6663670539855957, 0.7370971255832248);80.8574829102;0.905406908685;0;0;0;0;0;0;0;0;0;();(-2000.0, -2000.0);
03:39:34:353;03:39:34:311;1448290533.96;(0.6663670539855957, 0.7370971255832248);80.8574829102;0.905406908685;0;0;0;0;0;0;0;0;0;();(-2000.0, -2000.0);
03:39:34:370;03:39:34:311;1448290533.96;(0.6663670539855957, 0.7370971255832248);80.8574829102;0.905406908685;0;0;0;0;0;0;0;0;0;();(-2000.0, -2000.0);
03:39:34:387;03:39:34:380;1448290534.02;(0.6661692142486573, 0.7373201158311632);79.9829406738;0.865131260264;0;0;0;0;0;0;0;0;0;();(-2000.0, -2000.0);
03:39:34:418;03:39:34:380;1448290534.02;(0.6661692142486573, 0.7373201158311632);79.9829406738;0.865131260264;0;0;0;0;0;0;0;0;0;();(-2000.0, -2000.0);
03:39:34:435;03:39:34:380;1448290534.02;(0.6661692142486573, 0.7373201158311632);79.9829406738;0.865131260264;0;0;0;0;0;0;0;0;0;();(-2000.0, -2000.0);
03:39:34:453;03:39:34:445;1448290534.09;(0.6663537979125976, 0.7381202697753906);79.7492599487;1.0;0;0;0;0;0;0;0;0;0;();(-2000.0, -2000.0);
03:39:34:470;03:39:34:445;1448290534.09;(0.6663537979125976, 0.7381202697753906);79.7492599487;1.0;0;0;0;0;0;0;0;0;0;();(-2000.0, -2000.0);
03:39:34:486;03:39:34:445;1448290534.09;(0.6663537979125976, 0.7381202697753906);79.7492599487;1.0;0;0;0;0;0;0;0;0;0;();(-2000.0, -2000.0);
03:39:34:519;03:39:34:513;1448290534.16;(0.6668931484222412, 0.7395717196994358);78.6958084106;0.839333876964;0;0;0;0;0;0;0;0;0;();(-2000.0, -2000.0);
03:39:34:536;03:39:34:513;1448290534.16;(0.6668931484222412, 0.7395717196994358);78.6958084106;0.839333876964;0;0;0;0;0;0;0;0;0;();(-2000.0, -2000.0);
03:39:34:553;03:39:34:513;1448290534.16;(0.6668931484222412, 0.7395717196994358);78.6958084106;0.839333876964;0;0;0;0;0;0;0;0;0;();(-2000.0, -2000.0);
03:39:34:568;03:39:34:513;1448290534.16;(0.6668931484222412, 0.7395717196994358);78.6958084106;0.839333876964;0;0;0;0;0;0;0;0;0;();(-2000.0, -2000.0);
03:39:34:586;03:39:34:576;1448290534.22;(0.6673335075378418, 0.7401583565606011);77.3705596924;0.842707562701;0;0;0;0;0;0;0;0;0;();(-2000.0, -2000.0);
03:39:34:619;03:39:34:576;1448290534.22;(0.6673335075378418, 0.7401583565606011);77.3705596924;0.842707562701;0;0;0;0;0;0;0;0;0;();(-2000.0, -2000.0);
03:39:34:636;03:39:34:576;1448290534.22;(0.6673335075378418, 0.7401583565606011);77.3705596924;0.842707562701;0;0;0;0;0;0;0;0;0;();(-2000.0, -2000.0);
03:39:34:654;03:39:34:640;1448290534.29;(0.6674975872039794, 0.7404668807983399);76.7935943604;0.880303874149;0;0;0;0;0;0;0;0;0;();(-2000.0, -2000.0);
03:39:34:670;03:39:34:640;1448290534.29;(0.6674975872039794, 0.7404668807983399);76.7935943604;0.880303874149;0;0;0;0;0;0;0;0;0;();(-2000.0, -2000.0);
03:39:34:686;03:39:34:640;1448290534.29;(0.6674975872039794, 0.7404668807983399);76.7935943604;0.880303874149;0;0;0;0;0;0;0;0;0;();(-2000.0, -2000.0);
03:39:34:719;03:39:34:708;1448290534.36;(0.6667961597442627, 0.7404734293619792);76.9541473389;0.80656310627;0;0;0;0;0;0;0;0;0;();(-2000.0, -2000.0);
03:39:34:737;03:39:34:708;1448290534.36;(0.6667961597442627, 0.7404734293619792);76.9541473389;0.80656310627;0;0;0;0;0;0;0;0;0;();(-2000.0, -2000.0);
03:39:34:753;03:39:34:708;1448290534.36;(0.6667961597442627, 0.7404734293619792);76.9541473389;0.80656310627;0;0;0;0;0;0;0;0;0;();(-2000.0, -2000.0);
03:39:34:769;03:39:34:708;1448290534.36;(0.6667961597442627, 0.7404734293619792);76.9541473389;0.80656310627;0;0;0;0;0;0;0;0;0;();(-2000.0, -2000.0);
03:39:34:786;03:39:34:777;1448290534.42;(0.7089408874511719, 0.7226711697048611);75.5484848022;0.841386089732;0;0;0;0;0;0;0;0;0;();(-2000.0, -2000.0);
03:39:34:820;03:39:34:777;1448290534.42;(0.7089408874511719, 0.7226711697048611);75.5484848022;0.841386089732;0;0;0;0;0;0;0;0;0;();(-2000.0, -2000.0);
03:39:34:836;03:39:34:777;1448290534.42;(0.7089408874511719, 0.7226711697048611);75.5484848022;0.841386089732;0;0;0;0;0;0;0;0;0;();(-2000.0, -2000.0);
03:39:34:856;03:39:34:846;1448290534.46;(0.7072020530700683, 0.7246159023708767);74.4625244141;0.856935330121;0;0;0;0;0;0;0;0;0;();(-2000.0, -2000.0);
03:39:34:873;03:39:34:846;1448290534.46;(0.7072020530700683, 0.7246159023708767);74.4625244141;0.856935330121;0;0;0;0;0;0;0;0;0;();(-2000.0, -2000.0);
03:39:34:887;03:39:34:846;1448290534.46;(0.7072020530700683, 0.7246159023708767);74.4625244141;0.856935330121;0;0;0;0;0;0;0;0;0;();(-2000.0, -2000.0);
03:39:34:920;03:39:34:910;1448290534.56;(0.706055736541748, 0.7278398513793946);73.8815536499;0.89660296167;0;0;0;0;0;0;0;0;0;();(-2000.0, -2000.0);
03:39:34:936;03:39:34:910;1448290534.56;(0.706055736541748, 0.7278398513793946);73.8815536499;0.89660296167;0;0;0;0;0;0;0;0;0;();(-2000.0, -2000.0);
03:39:34:953;03:39:34:910;1448290534.56;(0.706055736541748, 0.7278398513793946);73.8815536499;0.89660296167;0;0;0;0;0;0;0;0;0;();(-2000.0, -2000.0);
03:39:34:970;03:39:34:910;1448290534.56;(0.706055736541748, 0.7278398513793946);73.8815536499;0.89660296167;0;0;0;0;0;0;0;0;0;();(-2000.0, -2000.0);
03:39:34:986;03:39:34:973;1448290534.62;(0.7055250644683838, 0.7275160471598308);73.652885437;1.0;0;0;0;0;0;0;0;0;0;();(-2000.0, -2000.0);
03:39:35:020;03:39:34:973;1448290534.62;(0.7055250644683838, 0.7275160471598308);73.652885437;1.0;0;0;0;0;0;0;0;0;0;();(-2000.0, -2000.0);
03:39:35:036;03:39:34:973;1448290534.62;(0.7055250644683838, 0.7275160471598308);73.652885437;1.0;0;0;0;0;0;0;0;0;0;();(-2000.0, -2000.0);
03:39:35:053;03:39:35:040;1448290534.69;(0.7054230213165283, 0.7283063888549804);73.1252288818;0.962031874493;0;0;0;0;0;0;0;0;0;();(-2000.0, -2000.0);
03:39:35:070;03:39:35:040;1448290534.69;(0.7054230213165283, 0.7283063888549804);73.1252288818;0.962031874493;0;0;0;0;0;0;0;0;0;();(-2000.0, -2000.0);
03:39:35:086;03:39:35:040;1448290534.69;(0.7054230213165283, 0.7283063888549804);73.1252288818;0.962031874493;0;0;0;0;0;0;0;0;0;();(-2000.0, -2000.0);
03:39:35:120;03:39:35:040;1448290534.69;(0.7054230213165283, 0.7283063888549804);73.1252288818;0.962031874493;0;0;0;0;0;0;0;0;0;();(-2000.0, -2000.0);
03:39:35:137;03:39:35:040;1448290534.69;(0.7054230213165283, 0.7283063888549804);73.1252288818;0.962031874493;0;0;0;0;0;0;0;0;0;();(-2000.0, -2000.0);
03:39:35:153;03:39:35:141;1448290534.76;(0.6575401306152344, 0.78765992058648);74.3763961792;0.630584738664;0;0;0;0;0;0;0;0;0;();(-2000.0, -2000.0);
03:39:35:170;03:39:35:141;1448290534.76;(0.6575401306152344, 0.78765992058648);74.3763961792;0.630584738664;0;0;0;0;0;0;0;0;0;();(-2000.0, -2000.0);
03:39:35:187;03:39:35:173;1448290534.82;(0.6350444316864013, 0.812534056769477);71.7731628418;0.757327622222;0;0;0;0;0;0;0;0;0;();(-2000.0, -2000.0);
03:39:35:221;03:39:35:173;1448290534.82;(0.6350444316864013, 0.812534056769477);71.7731628418;0.757327622222;0;0;0;0;0;0;0;0;0;();(-2000.0, -2000.0);
03:39:35:237;03:39:35:173;1448290534.82;(0.6350444316864013, 0.812534056769477);71.7731628418;0.757327622222;0;0;0;0;0;0;0;0;0;();(-2000.0, -2000.0);
03:39:35:253;03:39:35:240;1448290534.89;(0.6364652633666992, 0.8134426964653863);72.4637374878;0.722392562551;0;0;0;0;0;0;0;0;0;();(-2000.0, -2000.0);
03:39:35:270;03:39:35:240;1448290534.89;(0.6364652633666992, 0.8134426964653863);72.4637374878;0.722392562551;0;0;0;0;0;0;0;0;0;();(-2000.0, -2000.0);
03:39:35:287;03:39:35:240;1448290534.89;(0.6364652633666992, 0.8134426964653863);72.4637374878;0.722392562551;0;0;0;0;0;0;0;0;0;();(-2000.0, -2000.0);
03:39:35:319;03:39:35:307;1448290534.96;(0.6380812168121338, 0.814950762854682);70.6685333252;0.738320184616;0;0;0;0;0;0;0;0;0;();(-2000.0, -2000.0);
03:39:35:337;03:39:35:307;1448290534.96;(0.6380812168121338, 0.814950762854682);70.6685333252;0.738320184616;0;0;0;0;0;0;0;0;0;();(-2000.0, -2000.0);
03:39:35:354;03:39:35:307;1448290534.96;(0.6380812168121338, 0.814950762854682);70.6685333252;0.738320184616;0;0;0;0;0;0;0;0;0;();(-2000.0, -2000.0);
03:39:35:370;03:39:35:307;1448290534.96;(0.6380812168121338, 0.814950762854682);70.6685333252;0.738320184616;0;0;0;0;0;0;0;0;0;();(-2000.0, -2000.0);
03:39:35:386;03:39:35:372;1448290535.02;(0, 0);0;0;0;0;0;0;0;0;0;0;0;();(-2000.0, -2000.0);
03:39:35:420;03:39:35:372;1448290535.02;(0, 0);0;0;0;0;0;0;0;0;0;0;0;();(-2000.0, -2000.0);
03:39:35:438;03:39:35:372;1448290535.02;(0, 0);0;0;0;0;0;0;0;0;0;0;0;();(-2000.0, -2000.0);
03:39:35:454;03:39:35:441;1448290535.09;(0, 0);0;0;0;0;0;0;0;0;0;0;0;();(-2000.0, -2000.0);
03:39:35:471;03:39:35:441;1448290535.09;(0, 0);0;0;0;0;0;0;0;0;0;0;0;();(-2000.0, -2000.0);
03:39:35:486;03:39:35:441;1448290535.09;(0, 0);0;0;0;0;0;0;0;0;0;0;0;();(-2000.0, -2000.0);
03:39:35:520;03:39:35:506;1448290535.16;(0, 0);0;0;0;0;0;0;0;0;0;0;0;();(-2000.0, -2000.0);
03:39:35:537;03:39:35:506;1448290535.16;(0, 0);0;0;0;0;0;0;0;0;0;0;0;();(-2000.0, -2000.0);
03:39:35:553;03:39:35:506;1448290535.16;(0, 0);0;0;0;0;0;0;0;0;0;0;0;();(-2000.0, -2000.0);
03:39:35:571;03:39:35:506;1448290535.16;(0, 0);0;0;0;0;0;0;0;0;0;0;0;();(-2000.0, -2000.0);
03:39:35:588;03:39:35:574;1448290535.22;(0.6039012432098388, 0.5143330891927083);26.9994297028;0.627629615316;0;0;0;0;0;0;0;0;0;();(-2000.0, -2000.0);
03:39:35:621;03:39:35:574;1448290535.22;(0.6039012432098388, 0.5143330891927083);26.9994297028;0.627629615316;0;0;0;0;0;0;0;0;0;();(-2000.0, -2000.0);
03:39:35:639;03:39:35:574;1448290535.22;(0.6039012432098388, 0.5143330891927083);26.9994297028;0.627629615316;0;0;0;0;0;0;0;0;0;();(-2000.0, -2000.0);
03:39:35:653;03:39:35:638;1448290535.29;(0.2359940528869629, 0.7331133312649197);18.8555278778;0.608753844363;0;0;0;0;0;0;0;0;0;();(-2000.0, -2000.0);
03:39:35:671;03:39:35:638;1448290535.29;(0.2359940528869629, 0.7331133312649197);18.8555278778;0.608753844363;0;0;0;0;0;0;0;0;0;();(-2000.0, -2000.0);
03:39:35:688;03:39:35:638;1448290535.29;(0.2359940528869629, 0.7331133312649197);18.8555278778;0.608753844363;0;0;0;0;0;0;0;0;0;();(-2000.0, -2000.0);
03:39:35:721;03:39:35:703;1448290535.32;(0.5203569889068603, 0.8202281845940484);62.1220550537;0.981739028557;0;0;0;0;0;0;0;0;0;();(-2000.0, -2000.0);
03:39:35:737;03:39:35:703;1448290535.32;(0.5203569889068603, 0.8202281845940484);62.1220550537;0.981739028557;0;0;0;0;0;0;0;0;0;();(-2000.0, -2000.0);
03:39:35:753;03:39:35:703;1448290535.32;(0.5203569889068603, 0.8202281845940484);62.1220550537;0.981739028557;0;0;0;0;0;0;0;0;0;();(-2000.0, -2000.0);
03:39:35:772;03:39:35:769;1448290535.36;(0.5305093288421631, 0.8161284340752496);63.0951766968;0.903585740231;0;0;0;0;0;0;0;0;0;();(-2000.0, -2000.0);
03:39:35:787;03:39:35:775;1448290535.42;(0.5466581821441651, 0.814509465959337);65.4186172485;0.650875671686;0;0;0;0;0;0;0;0;0;();(-2000.0, -2000.0);
03:39:35:821;03:39:35:775;1448290535.42;(0.5466581821441651, 0.814509465959337);65.4186172485;0.650875671686;0;0;0;0;0;0;0;0;0;();(-2000.0, -2000.0);
03:39:35:838;03:39:35:775;1448290535.42;(0.5466581821441651, 0.814509465959337);65.4186172485;0.650875671686;0;0;0;0;0;0;0;0;0;();(-2000.0, -2000.0);
03:39:35:854;03:39:35:837;1448290535.46;(0.5572406768798828, 0.80644318262736);63.230594635;0.817777435653;0;0;0;0;0;0;0;0;0;();(-2000.0, -2000.0);
03:39:35:870;03:39:35:837;1448290535.46;(0.5572406768798828, 0.80644318262736);63.230594635;0.817777435653;0;0;0;0;0;0;0;0;0;();(-2000.0, -2000.0);
03:39:35:887;03:39:35:837;1448290535.46;(0.5572406768798828, 0.80644318262736);63.230594635;0.817777435653;0;0;0;0;0;0;0;0;0;();(-2000.0, -2000.0);
03:39:35:921;03:39:35:905;1448290535.56;(0, 0);0;0;0;0;0;0;0;0;0;0;0;();(-2000.0, -2000.0);
03:39:35:936;03:39:35:905;1448290535.56;(0, 0);0;0;0;0;0;0;0;0;0;0;0;();(-2000.0, -2000.0);
03:39:35:954;03:39:35:905;1448290535.56;(0, 0);0;0;0;0;0;0;0;0;0;0;0;();(-2000.0, -2000.0);
03:39:35:970;03:39:35:967;1448290535.59;(0.5842387676239014, 0.7875440385606554);63.7283477783;0.754221214243;0;0;0;0;0;0;0;0;0;();(-2000.0, -2000.0);
03:39:35:987;03:39:35:967;1448290535.59;(0.5842387676239014, 0.7875440385606554);63.7283477783;0.754221214243;0;0;0;0;0;0;0;0;0;();(-2000.0, -2000.0);
03:39:36:023;03:39:35:967;1448290535.59;(0.5842387676239014, 0.7875440385606554);63.7283477783;0.754221214243;0;0;0;0;0;0;0;0;0;();(-2000.0, -2000.0);
03:39:36:040;03:39:36:035;1448290535.62;(0.5633483409881592, 0.7910583708021376);62.4836616516;0.815937410051;0;0;0;0;0;0;0;0;0;();(-2000.0, -2000.0);
03:39:36:057;03:39:36:046;1448290535.66;(0.5500102519989014, 0.7918322033352322);63.1651000977;0.748756311735;0;0;0;0;0;0;0;0;0;();(-2000.0, -2000.0);
03:39:36:074;03:39:36:046;1448290535.66;(0.5500102519989014, 0.7918322033352322);63.1651000977;0.748756311735;0;0;0;0;0;0;0;0;0;();(-2000.0, -2000.0);
03:39:36:088;03:39:36:046;1448290535.66;(0.5500102519989014, 0.7918322033352322);63.1651000977;0.748756311735;0;0;0;0;0;0;0;0;0;();(-2000.0, -2000.0);
03:39:36:121;03:39:36:103;1448290535.76;(0.3458298683166504, 0.887065076828003);33.5683631897;0.714480555985;0;0;0;0;0;0;0;0;0;();(-2000.0, -2000.0);
03:39:36:138;03:39:36:103;1448290535.76;(0.3458298683166504, 0.887065076828003);33.5683631897;0.714480555985;0;0;0;0;0;0;0;0;0;();(-2000.0, -2000.0);
03:39:36:154;03:39:36:103;1448290535.76;(0.3458298683166504, 0.887065076828003);33.5683631897;0.714480555985;0;0;0;0;0;0;0;0;0;();(-2000.0, -2000.0);
03:39:36:172;03:39:36:168;1448290535.79;(0.5664005279541016, 0.7900314542982314);62.5992660522;0.766173675493;0;0;0;0;0;0;0;0;0;();(-2000.0, -2000.0);
03:39:36:188;03:39:36:182;1448290535.82;(0.5700985431671143, 0.7887943691677517);62.4240074158;0.817063409063;0;0;0;0;0;0;0;0;0;();(-2000.0, -2000.0);
03:39:36:222;03:39:36:182;1448290535.82;(0.5700985431671143, 0.7887943691677517);62.4240074158;0.817063409063;0;0;0;0;0;0;0;0;0;();(-2000.0, -2000.0);
03:39:36:240;03:39:36:236;1448290535.89;(0.5749648571014404, 0.7866174909803603);62.196018219;0.821890456845;0;0;0;0;0;0;0;0;0;();(-2000.0, -2000.0);
03:39:36:255;03:39:36:236;1448290535.89;(0.5749648571014404, 0.7866174909803603);62.196018219;0.821890456845;0;0;0;0;0;0;0;0;0;();(-2000.0, -2000.0);
03:39:36:270;03:39:36:236;1448290535.89;(0.5749648571014404, 0.7866174909803603);62.196018219;0.821890456845;0;0;0;0;0;0;0;0;0;();(-2000.0, -2000.0);
03:39:36:288;03:39:36:236;1448290535.89;(0.5749648571014404, 0.7866174909803603);62.196018219;0.821890456845;0;0;0;0;0;0;0;0;0;();(-2000.0, -2000.0);
03:39:36:321;03:39:36:301;1448290535.96;(0.5754166126251221, 0.7844894197252061);61.8932876587;0.843777053561;0;0;0;0;0;0;0;0;0;();(-2000.0, -2000.0);
03:39:36:338;03:39:36:301;1448290535.96;(0.5754166126251221, 0.7844894197252061);61.8932876587;0.843777053561;0;0;0;0;0;0;0;0;0;();(-2000.0, -2000.0);
03:39:36:355;03:39:36:301;1448290535.96;(0.5754166126251221, 0.7844894197252061);61.8932876587;0.843777053561;0;0;0;0;0;0;0;0;0;();(-2000.0, -2000.0);
03:39:36:371;03:39:36:368;1448290536.02;(0.5797034740447998, 0.7843089209662544);61.0191497803;0.74422543494;0;0;0;0;0;0;0;0;0;();(-2000.0, -2000.0);
03:39:36:388;03:39:36:368;1448290536.02;(0.5797034740447998, 0.7843089209662544);61.0191497803;0.74422543494;0;0;0;0;0;0;0;0;0;();(-2000.0, -2000.0);
03:39:36:422;03:39:36:368;1448290536.02;(0.5797034740447998, 0.7843089209662544);61.0191497803;0.74422543494;0;0;0;0;0;0;0;0;0;();(-2000.0, -2000.0);
03:39:36:439;03:39:36:433;1448290536.09;(0, 0);0;0;0;0;0;0;0;0;0;0;0;();(-2000.0, -2000.0);
03:39:36:454;03:39:36:433;1448290536.09;(0, 0);0;0;0;0;0;0;0;0;0;0;0;();(-2000.0, -2000.0);
03:39:36:471;03:39:36:433;1448290536.09;(0, 0);0;0;0;0;0;0;0;0;0;0;0;();(-2000.0, -2000.0);
03:39:36:489;03:39:36:433;1448290536.09;(0, 0);0;0;0;0;0;0;0;0;0;0;0;();(-2000.0, -2000.0);
03:39:36:521;03:39:36:501;1448290536.16;(0.5733902931213379, 0.8334400282965766);61.1870384216;0.862517161657;0;0;0;0;0;0;0;0;0;();(-2000.0, -2000.0);
03:39:36:538;03:39:36:501;1448290536.16;(0.5733902931213379, 0.8334400282965766);61.1870384216;0.862517161657;0;0;0;0;0;0;0;0;0;();(-2000.0, -2000.0);
03:39:36:555;03:39:36:501;1448290536.16;(0.5733902931213379, 0.8334400282965766);61.1870384216;0.862517161657;0;0;0;0;0;0;0;0;0;();(-2000.0, -2000.0);
03:39:36:572;03:39:36:569;1448290536.22;(0, 0);0;0;0;0;0;0;0;0;0;0;0;();(-2000.0, -2000.0);
03:39:36:587;03:39:36:569;1448290536.22;(0, 0);0;0;0;0;0;0;0;0;0;0;0;();(-2000.0, -2000.0);
03:39:36:622;03:39:36:569;1448290536.22;(0, 0);0;0;0;0;0;0;0;0;0;0;0;();(-2000.0, -2000.0);
03:39:36:639;03:39:36:632;1448290536.29;(0.5726765155792236, 0.8287637286716037);66.1815872192;0.681717431754;0;0;0;0;0;0;0;0;0;();(-2000.0, -2000.0);
03:39:36:655;03:39:36:632;1448290536.29;(0.5726765155792236, 0.8287637286716037);66.1815872192;0.681717431754;0;0;0;0;0;0;0;0;0;();(-2000.0, -2000.0);
03:39:36:671;03:39:36:632;1448290536.29;(0.5726765155792236, 0.8287637286716037);66.1815872192;0.681717431754;0;0;0;0;0;0;0;0;0;();(-2000.0, -2000.0);
03:39:36:688;03:39:36:632;1448290536.29;(0.5726765155792236, 0.8287637286716037);66.1815872192;0.681717431754;0;0;0;0;0;0;0;0;0;();(-2000.0, -2000.0);
03:39:36:721;03:39:36:701;1448290536.36;(0.5804551601409912, 0.8254113515218099);64.8247833252;0.656898688365;0;0;0;0;0;0;0;0;0;();(-2000.0, -2000.0);
03:39:36:738;03:39:36:701;1448290536.36;(0.5804551601409912, 0.8254113515218099);64.8247833252;0.656898688365;0;0;0;0;0;0;0;0;0;();(-2000.0, -2000.0);
03:39:36:755;03:39:36:701;1448290536.36;(0.5804551601409912, 0.8254113515218099);64.8247833252;0.656898688365;0;0;0;0;0;0;0;0;0;();(-2000.0, -2000.0);
03:39:36:772;03:39:36:766;1448290536.42;(0.5802663803100586, 0.8322356435987684);65.4594726562;0.738406372074;0;0;0;0;0;0;0;0;0;();(-2000.0, -2000.0);
03:39:36:787;03:39:36:766;1448290536.42;(0.5802663803100586, 0.8322356435987684);65.4594726562;0.738406372074;0;0;0;0;0;0;0;0;0;();(-2000.0, -2000.0);
03:39:36:822;03:39:36:766;1448290536.42;(0.5802663803100586, 0.8322356435987684);65.4594726562;0.738406372074;0;0;0;0;0;0;0;0;0;();(-2000.0, -2000.0);
03:39:36:838;03:39:36:833;1448290536.49;(0.581109094619751, 0.8319557401869032);67.6741485596;0.834178598432;0;0;0;0;0;0;0;0;0;();(-2000.0, -2000.0);
03:39:36:855;03:39:36:833;1448290536.49;(0.581109094619751, 0.8319557401869032);67.6741485596;0.834178598432;0;0;0;0;0;0;0;0;0;();(-2000.0, -2000.0);
03:39:36:870;03:39:36:833;1448290536.49;(0.581109094619751, 0.8319557401869032);67.6741485596;0.834178598432;0;0;0;0;0;0;0;0;0;();(-2000.0, -2000.0);
03:39:36:889;03:39:36:833;1448290536.49;(0.581109094619751, 0.8319557401869032);67.6741485596;0.834178598432;0;0;0;0;0;0;0;0;0;();(-2000.0, -2000.0);
03:39:36:922;03:39:36:901;1448290536.56;(0, 0);0;0;0;0;0;0;0;0;0;0;0;();(-2000.0, -2000.0);
03:39:36:939;03:39:36:901;1448290536.56;(0, 0);0;0;0;0;0;0;0;0;0;0;0;();(-2000.0, -2000.0);
03:39:36:955;03:39:36:901;1448290536.56;(0, 0);0;0;0;0;0;0;0;0;0;0;0;();(-2000.0, -2000.0);
03:39:36:971;03:39:36:964;1448290536.62;(0.6313069343566895, 0.7682067659166124);69.1386413574;0.944397645152;0;0;0;0;0;0;0;0;0;();(-2000.0, -2000.0);
03:39:36:989;03:39:36:964;1448290536.62;(0.6313069343566895, 0.7682067659166124);69.1386413574;0.944397645152;0;0;0;0;0;0;0;0;0;();(-2000.0, -2000.0);
03:39:37:024;03:39:36:964;1448290536.62;(0.6313069343566895, 0.7682067659166124);69.1386413574;0.944397645152;0;0;0;0;0;0;0;0;0;();(-2000.0, -2000.0);
03:39:37:039;03:39:37:033;1448290536.69;(0, 0);0;0;0;0;0;0;0;0;0;0;0;();(-2000.0, -2000.0);
03:39:37:055;03:39:37:033;1448290536.69;(0, 0);0;0;0;0;0;0;0;0;0;0;0;();(-2000.0, -2000.0);
03:39:37:073;03:39:37:033;1448290536.69;(0, 0);0;0;0;0;0;0;0;0;0;0;0;();(-2000.0, -2000.0);
03:39:37:088;03:39:37:033;1448290536.69;(0, 0);0;0;0;0;0;0;0;0;0;0;0;();(-2000.0, -2000.0);
03:39:37:106;03:39:37:033;1448290536.69;(0, 0);0;0;0;0;0;0;0;0;0;0;0;();(-2000.0, -2000.0);
03:39:37:138;03:39:37:108;1448290536.72;(0.6268688201904297, 0.7712332195705838);69.796295166;0.783296769317;0;0;0;0;0;0;0;0;0;();(-2000.0, -2000.0);
03:39:37:156;03:39:37:108;1448290536.72;(0.6268688201904297, 0.7712332195705838);69.796295166;0.783296769317;0;0;0;0;0;0;0;0;0;();(-2000.0, -2000.0);
03:39:37:172;03:39:37:166;1448290536.82;(0, 0);0;0;0;0;0;0;0;0;0;0;0;();(-2000.0, -2000.0);
03:39:37:188;03:39:37:166;1448290536.82;(0, 0);0;0;0;0;0;0;0;0;0;0;0;();(-2000.0, -2000.0);
03:39:37:222;03:39:37:166;1448290536.82;(0, 0);0;0;0;0;0;0;0;0;0;0;0;();(-2000.0, -2000.0);
03:39:37:239;03:39:37:232;1448290536.89;(0, 0);0;0;0;0;0;0;0;0;0;0;0;();(-2000.0, -2000.0);
03:39:37:255;03:39:37:232;1448290536.89;(0, 0);0;0;0;0;0;0;0;0;0;0;0;();(-2000.0, -2000.0);
03:39:37:272;03:39:37:232;1448290536.89;(0, 0);0;0;0;0;0;0;0;0;0;0;0;();(-2000.0, -2000.0);
03:39:37:289;03:39:37:232;1448290536.89;(0, 0);0;0;0;0;0;0;0;0;0;0;0;();(-2000.0, -2000.0);
03:39:37:323;03:39:37:307;1448290536.96;(0.7873945713043213, 0.8845174047682021);19.7929325104;0.67987505874;0;0;0;0;0;0;0;0;0;();(-2000.0, -2000.0);
03:39:37:339;03:39:37:307;1448290536.96;(0.7873945713043213, 0.8845174047682021);19.7929325104;0.67987505874;0;0;0;0;0;0;0;0;0;();(-2000.0, -2000.0);
03:39:37:355;03:39:37:307;1448290536.96;(0.7873945713043213, 0.8845174047682021);19.7929325104;0.67987505874;0;0;0;0;0;0;0;0;0;();(-2000.0, -2000.0);
03:39:37:371;03:39:37:364;1448290536.99;(0.6728082180023194, 0.751908704969618);69.3232192993;0.898389957881;0;0;0;0;0;0;0;0;0;();(-2000.0, -2000.0);
03:39:37:389;03:39:37:364;1448290536.99;(0.6728082180023194, 0.751908704969618);69.3232192993;0.898389957881;0;0;0;0;0;0;0;0;0;();(-2000.0, -2000.0);
03:39:37:406;03:39:37:364;1448290536.99;(0.6728082180023194, 0.751908704969618);69.3232192993;0.898389957881;0;0;0;0;0;0;0;0;0;();(-2000.0, -2000.0);
03:39:37:438;03:39:37:429;1448290537.09;(0.6721180438995361, 0.7527367273966471);69.8362579346;0.926114444209;0;0;0;0;0;0;0;0;0;();(-2000.0, -2000.0);
03:39:37:456;03:39:37:429;1448290537.09;(0.6721180438995361, 0.7527367273966471);69.8362579346;0.926114444209;0;0;0;0;0;0;0;0;0;();(-2000.0, -2000.0);
03:39:37:471;03:39:37:429;1448290537.09;(0.6721180438995361, 0.7527367273966471);69.8362579346;0.926114444209;0;0;0;0;0;0;0;0;0;();(-2000.0, -2000.0);
03:39:37:488;03:39:37:429;1448290537.09;(0.6721180438995361, 0.7527367273966471);69.8362579346;0.926114444209;0;0;0;0;0;0;0;0;0;();(-2000.0, -2000.0);
03:39:37:522;03:39:37:495;1448290537.12;(0.6715762615203857, 0.7532655080159505);69.4499206543;0.876546280418;0;0;0;0;0;0;0;0;0;();(-2000.0, -2000.0);
03:39:37:539;03:39:37:495;1448290537.12;(0.6715762615203857, 0.7532655080159505);69.4499206543;0.876546280418;0;0;0;0;0;0;0;0;0;();(-2000.0, -2000.0);
03:39:37:555;03:39:37:495;1448290537.12;(0.6715762615203857, 0.7532655080159505);69.4499206543;0.876546280418;0;0;0;0;0;0;0;0;0;();(-2000.0, -2000.0);
03:39:37:573;03:39:37:567;1448290537.22;(0.6687060356140136, 0.7546491410997178);69.9650192261;1.0;0;0;0;0;0;0;0;0;0;();(-2000.0, -2000.0);
03:39:37:588;03:39:37:567;1448290537.22;(0.6687060356140136, 0.7546491410997178);69.9650192261;1.0;0;0;0;0;0;0;0;0;0;();(-2000.0, -2000.0);
03:39:37:606;03:39:37:567;1448290537.22;(0.6687060356140136, 0.7546491410997178);69.9650192261;1.0;0;0;0;0;0;0;0;0;0;();(-2000.0, -2000.0);
03:39:37:639;03:39:37:628;1448290537.29;(0.6671517372131348, 0.7554768244425456);69.6596069336;0.931162481034;0;0;0;0;0;0;0;0;0;();(-2000.0, -2000.0);
03:39:37:656;03:39:37:628;1448290537.29;(0.6671517372131348, 0.7554768244425456);69.6596069336;0.931162481034;0;0;0;0;0;0;0;0;0;();(-2000.0, -2000.0);
03:39:37:672;03:39:37:628;1448290537.29;(0.6671517372131348, 0.7554768244425456);69.6596069336;0.931162481034;0;0;0;0;0;0;0;0;0;();(-2000.0, -2000.0);
03:39:37:689;03:39:37:628;1448290537.29;(0.6671517372131348, 0.7554768244425456);69.6596069336;0.931162481034;0;0;0;0;0;0;0;0;0;();(-2000.0, -2000.0);
03:39:37:706;03:39:37:695;1448290537.32;(0.6663872718811035, 0.7560899310641819);69.9733123779;0.839405739461;0;0;0;0;0;0;0;0;0;();(-2000.0, -2000.0);
03:39:37:738;03:39:37:695;1448290537.32;(0.6663872718811035, 0.7560899310641819);69.9733123779;0.839405739461;0;0;0;0;0;0;0;0;0;();(-2000.0, -2000.0);
03:39:37:756;03:39:37:695;1448290537.32;(0.6663872718811035, 0.7560899310641819);69.9733123779;0.839405739461;0;0;0;0;0;0;0;0;0;();(-2000.0, -2000.0);
03:39:37:773;03:39:37:761;1448290537.39;(0.6637277126312255, 0.7624473147922092);71.3580245972;0.831956075992;0;0;0;0;0;0;0;0;0;();(-2000.0, -2000.0);
03:39:37:790;03:39:37:761;1448290537.39;(0.6637277126312255, 0.7624473147922092);71.3580245972;0.831956075992;0;0;0;0;0;0;0;0;0;();(-2000.0, -2000.0);
03:39:37:823;03:39:37:761;1448290537.39;(0.6637277126312255, 0.7624473147922092);71.3580245972;0.831956075992;0;0;0;0;0;0;0;0;0;();(-2000.0, -2000.0);
03:39:37:838;03:39:37:830;1448290537.49;(0.6625758171081543, 0.7635945002237956);71.5748291016;0.960105511427;0;0;0;0;0;0;0;0;0;();(-2000.0, -2000.0);
03:39:37:858;03:39:37:830;1448290537.49;(0.6625758171081543, 0.7635945002237956);71.5748291016;0.960105511427;0;0;0;0;0;0;0;0;0;();(-2000.0, -2000.0);
03:39:37:875;03:39:37:830;1448290537.49;(0.6625758171081543, 0.7635945002237956);71.5748291016;0.960105511427;0;0;0;0;0;0;0;0;0;();(-2000.0, -2000.0);
03:39:37:891;03:39:37:830;1448290537.49;(0.6625758171081543, 0.7635945002237956);71.5748291016;0.960105511427;0;0;0;0;0;0;0;0;0;();(-2000.0, -2000.0);
03:39:37:906;03:39:37:899;1448290537.56;(0.6614462375640869, 0.7638149685329861);70.549987793;0.81102704691;0;0;0;0;0;0;0;0;0;();(-2000.0, -2000.0);
03:39:37:939;03:39:37:899;1448290537.56;(0.6614462375640869, 0.7638149685329861);70.549987793;0.81102704691;0;0;0;0;0;0;0;0;0;();(-2000.0, -2000.0);
03:39:37:957;03:39:37:899;1448290537.56;(0.6614462375640869, 0.7638149685329861);70.549987793;0.81102704691;0;0;0;0;0;0;0;0;0;();(-2000.0, -2000.0);
03:39:37:972;03:39:37:962;1448290537.62;(0.7075276851654053, 0.7333766089545356);67.5773010254;0.619256520369;0;0;0;0;0;0;0;0;0;();(-2000.0, -2000.0);
03:39:37:989;03:39:37:962;1448290537.62;(0.7075276851654053, 0.7333766089545356);67.5773010254;0.619256520369;0;0;0;0;0;0;0;0;0;();(-2000.0, -2000.0);
03:39:38:006;03:39:37:962;1448290537.62;(0.7075276851654053, 0.7333766089545356);67.5773010254;0.619256520369;0;0;0;0;0;0;0;0;0;();(-2000.0, -2000.0);
03:39:38:040;03:39:38:027;1448290537.66;(0.3400739669799805, 0.8603066126505534);19.4930839539;0.604907969508;0;0;0;0;0;0;0;0;0;();(-2000.0, -2000.0);
03:39:38:057;03:39:38:027;1448290537.66;(0.3400739669799805, 0.8603066126505534);19.4930839539;0.604907969508;0;0;0;0;0;0;0;0;0;();(-2000.0, -2000.0);
03:39:38:073;03:39:38:027;1448290537.66;(0.3400739669799805, 0.8603066126505534);19.4930839539;0.604907969508;0;0;0;0;0;0;0;0;0;();(-2000.0, -2000.0);
03:39:38:089;03:39:38:027;1448290537.66;(0.3400739669799805, 0.8603066126505534);19.4930839539;0.604907969508;0;0;0;0;0;0;0;0;0;();(-2000.0, -2000.0);
03:39:38:107;03:39:38:098;1448290537.76;(0.7107599258422852, 0.7383407168918186);69.9957427979;0.918355206171;0;0;0;0;0;0;0;0;0;();(-2000.0, -2000.0);
03:39:38:140;03:39:38:098;1448290537.76;(0.7107599258422852, 0.7383407168918186);69.9957427979;0.918355206171;0;0;0;0;0;0;0;0;0;();(-2000.0, -2000.0);
03:39:38:156;03:39:38:098;1448290537.76;(0.7107599258422852, 0.7383407168918186);69.9957427979;0.918355206171;0;0;0;0;0;0;0;0;0;();(-2000.0, -2000.0);
03:39:38:173;03:39:38:098;1448290537.76;(0.7107599258422852, 0.7383407168918186);69.9957427979;0.918355206171;0;0;0;0;0;0;0;0;0;();(-2000.0, -2000.0);
03:39:38:189;03:39:38:186;1448290537.82;(0.708495044708252, 0.7404481463962131);70.6526641846;0.890921468629;0;0;0;0;0;0;0;0;0;();(-2000.0, -2000.0);
03:39:38:207;03:39:38:186;1448290537.82;(0.708495044708252, 0.7404481463962131);70.6526641846;0.890921468629;0;0;0;0;0;0;0;0;0;();(-2000.0, -2000.0);
03:39:38:239;03:39:38:228;1448290537.89;(0.7069758415222168, 0.7425974951850043);71.6103134155;0.823346981399;0;0;0;0;0;0;0;0;0;();(-2000.0, -2000.0);
03:39:38:256;03:39:38:228;1448290537.89;(0.7069758415222168, 0.7425974951850043);71.6103134155;0.823346981399;0;0;0;0;0;0;0;0;0;();(-2000.0, -2000.0);
03:39:38:274;03:39:38:228;1448290537.89;(0.7069758415222168, 0.7425974951850043);71.6103134155;0.823346981399;0;0;0;0;0;0;0;0;0;();(-2000.0, -2000.0);
03:39:38:289;03:39:38:228;1448290537.89;(0.7069758415222168, 0.7425974951850043);71.6103134155;0.823346981399;0;0;0;0;0;0;0;0;0;();(-2000.0, -2000.0);
03:39:38:306;03:39:38:292;1448290537.96;(0.7264563083648682, 0.7411301294962565);69.2098236084;0.964204419668;0;0;0;0;0;0;0;0;0;();(-2000.0, -2000.0);
03:39:38:340;03:39:38:292;1448290537.96;(0.7264563083648682, 0.7411301294962565);69.2098236084;0.964204419668;0;0;0;0;0;0;0;0;0;();(-2000.0, -2000.0);
03:39:38:357;03:39:38:292;1448290537.96;(0.7264563083648682, 0.7411301294962565);69.2098236084;0.964204419668;0;0;0;0;0;0;0;0;0;();(-2000.0, -2000.0);
03:39:38:373;03:39:38:364;1448290538.02;(0.7250326633453369, 0.745221201578776);70.7524414062;0.806301477364;0;0;0;0;0;0;0;0;0;();(-2000.0, -2000.0);
03:39:38:390;03:39:38:364;1448290538.02;(0.7250326633453369, 0.745221201578776);70.7524414062;0.806301477364;0;0;0;0;0;0;0;0;0;();(-2000.0, -2000.0);
03:39:38:406;03:39:38:364;1448290538.02;(0.7250326633453369, 0.745221201578776);70.7524414062;0.806301477364;0;0;0;0;0;0;0;0;0;();(-2000.0, -2000.0);
03:39:38:440;03:39:38:423;1448290538.06;(0, 0);0;0;0;0;0;0;0;0;0;0;0;();(-2000.0, -2000.0);
03:39:38:457;03:39:38:423;1448290538.06;(0, 0);0;0;0;0;0;0;0;0;0;0;0;();(-2000.0, -2000.0);
03:39:38:474;03:39:38:423;1448290538.06;(0, 0);0;0;0;0;0;0;0;0;0;0;0;();(-2000.0, -2000.0);
03:39:38:489;03:39:38:423;1448290538.06;(0, 0);0;0;0;0;0;0;0;0;0;0;0;();(-2000.0, -2000.0);
03:39:38:506;03:39:38:493;1448290538.12;(0.7233420372009277, 0.7517981635199653);71.4138259888;0.931176970453;0;0;0;0;0;0;0;0;0;();(-2000.0, -2000.0);
03:39:38:539;03:39:38:493;1448290538.12;(0.7233420372009277, 0.7517981635199653);71.4138259888;0.931176970453;0;0;0;0;0;0;0;0;0;();(-2000.0, -2000.0);
03:39:38:557;03:39:38:493;1448290538.12;(0.7233420372009277, 0.7517981635199653);71.4138259888;0.931176970453;0;0;0;0;0;0;0;0;0;();(-2000.0, -2000.0);
03:39:38:573;03:39:38:560;1448290538.19;(0.7200073719024658, 0.7504687839084201);70.9571990967;0.94932046465;0;0;0;0;0;0;0;0;0;();(-2000.0, -2000.0);
03:39:38:590;03:39:38:560;1448290538.19;(0.7200073719024658, 0.7504687839084201);70.9571990967;0.94932046465;0;0;0;0;0;0;0;0;0;();(-2000.0, -2000.0);
03:39:38:607;03:39:38:560;1448290538.19;(0.7200073719024658, 0.7504687839084201);70.9571990967;0.94932046465;0;0;0;0;0;0;0;0;0;();(-2000.0, -2000.0);
03:39:38:639;03:39:38:624;1448290538.26;(0, 0);0;0;0;0;0;0;0;0;0;0;0;();(-2000.0, -2000.0);
03:39:38:656;03:39:38:624;1448290538.26;(0, 0);0;0;0;0;0;0;0;0;0;0;0;();(-2000.0, -2000.0);
03:39:38:673;03:39:38:624;1448290538.26;(0, 0);0;0;0;0;0;0;0;0;0;0;0;();(-2000.0, -2000.0);
03:39:38:690;03:39:38:624;1448290538.26;(0, 0);0;0;0;0;0;0;0;0;0;0;0;();(-2000.0, -2000.0);
03:39:38:706;03:39:38:698;1448290538.36;(0.7247155666351318, 0.7652464760674371);71.0620269775;0.71450586352;0;0;0;0;0;0;0;0;0;();(-2000.0, -2000.0);
03:39:38:741;03:39:38:698;1448290538.36;(0.7247155666351318, 0.7652464760674371);71.0620269775;0.71450586352;0;0;0;0;0;0;0;0;0;();(-2000.0, -2000.0);
03:39:38:757;03:39:38:698;1448290538.36;(0.7247155666351318, 0.7652464760674371);71.0620269775;0.71450586352;0;0;0;0;0;0;0;0;0;();(-2000.0, -2000.0);
03:39:38:774;03:39:38:760;1448290538.42;(0.7300607681274414, 0.7785325792100695);72.5557022095;0.875400032734;0;0;0;0;0;0;0;0;0;();(-2000.0, -2000.0);
03:39:38:790;03:39:38:760;1448290538.42;(0.7300607681274414, 0.7785325792100695);72.5557022095;0.875400032734;0;0;0;0;0;0;0;0;0;();(-2000.0, -2000.0);
03:39:38:805;03:39:38:760;1448290538.42;(0.7300607681274414, 0.7785325792100695);72.5557022095;0.875400032734;0;0;0;0;0;0;0;0;0;();(-2000.0, -2000.0);
03:39:38:840;03:39:38:823;1448290538.46;(0.7281689643859863, 0.7791501363118489);71.789604187;0.834133650702;0;0;0;0;0;0;0;0;0;();(-2000.0, -2000.0);
03:39:38:857;03:39:38:823;1448290538.46;(0.7281689643859863, 0.7791501363118489);71.789604187;0.834133650702;0;0;0;0;0;0;0;0;0;();(-2000.0, -2000.0);
03:39:38:873;03:39:38:823;1448290538.46;(0.7281689643859863, 0.7791501363118489);71.789604187;0.834133650702;0;0;0;0;0;0;0;0;0;();(-2000.0, -2000.0);
03:39:38:890;03:39:38:823;1448290538.46;(0.7281689643859863, 0.7791501363118489);71.789604187;0.834133650702;0;0;0;0;0;0;0;0;0;();(-2000.0, -2000.0);
03:39:38:907;03:39:38:893;1448290538.53;(0.7234185218811036, 0.7804029252794054);72.0830688477;0.834383798415;0;0;0;0;0;0;0;0;0;();(-2000.0, -2000.0);
03:39:38:941;03:39:38:893;1448290538.53;(0.7234185218811036, 0.7804029252794054);72.0830688477;0.834383798415;0;0;0;0;0;0;0;0;0;();(-2000.0, -2000.0);
03:39:38:957;03:39:38:893;1448290538.53;(0.7234185218811036, 0.7804029252794054);72.0830688477;0.834383798415;0;0;0;0;0;0;0;0;0;();(-2000.0, -2000.0);
03:39:38:974;03:39:38:961;1448290538.62;(0.7183122158050537, 0.7843490388658312);73.9009399414;0.896683175264;0;0;0;0;0;0;0;0;0;();(-2000.0, -2000.0);
03:39:38:990;03:39:38:961;1448290538.62;(0.7183122158050537, 0.7843490388658312);73.9009399414;0.896683175264;0;0;0;0;0;0;0;0;0;();(-2000.0, -2000.0);
03:39:39:007;03:39:38:961;1448290538.62;(0.7183122158050537, 0.7843490388658312);73.9009399414;0.896683175264;0;0;0;0;0;0;0;0;0;();(-2000.0, -2000.0);
03:39:39:040;03:39:39:023;1448290538.66;(0.7159295082092285, 0.788056649102105);73.3727340698;0.787553094684;0;0;0;0;0;0;0;0;0;();(-2000.0, -2000.0);
03:39:39:056;03:39:39:023;1448290538.66;(0.7159295082092285, 0.788056649102105);73.3727340698;0.787553094684;0;0;0;0;0;0;0;0;0;();(-2000.0, -2000.0);
03:39:39:073;03:39:39:023;1448290538.66;(0.7159295082092285, 0.788056649102105);73.3727340698;0.787553094684;0;0;0;0;0;0;0;0;0;();(-2000.0, -2000.0);
03:39:39:091;03:39:39:023;1448290538.66;(0.7159295082092285, 0.788056649102105);73.3727340698;0.787553094684;0;0;0;0;0;0;0;0;0;();(-2000.0, -2000.0);
03:39:39:106;03:39:39:094;1448290538.72;(0.7132096290588379, 0.7842191060384115);68.8252182007;0.696145611875;0;0;0;0;0;0;0;0;0;();(-2000.0, -2000.0);
03:39:39:141;03:39:39:094;1448290538.72;(0.7132096290588379, 0.7842191060384115);68.8252182007;0.696145611875;0;0;0;0;0;0;0;0;0;();(-2000.0, -2000.0);
03:39:39:157;03:39:39:094;1448290538.72;(0.7132096290588379, 0.7842191060384115);68.8252182007;0.696145611875;0;0;0;0;0;0;0;0;0;();(-2000.0, -2000.0);
03:39:39:176;03:39:39:159;1448290538.79;(0.7081102848052978, 0.7942432615492079);73.5559997559;0.739852463579;0;0;0;0;0;0;0;0;0;();(-2000.0, -2000.0);
03:39:39:190;03:39:39:159;1448290538.79;(0.7081102848052978, 0.7942432615492079);73.5559997559;0.739852463579;0;0;0;0;0;0;0;0;0;();(-2000.0, -2000.0);
03:39:39:207;03:39:39:159;1448290538.79;(0.7081102848052978, 0.7942432615492079);73.5559997559;0.739852463579;0;0;0;0;0;0;0;0;0;();(-2000.0, -2000.0);
03:39:39:240;03:39:39:231;1448290538.86;(0.3426711320877075, 0.8809064547220866);51.7159461975;0.723477150742;0;0;0;0;0;0;0;0;0;();(-2000.0, -2000.0);
03:39:39:258;03:39:39:231;1448290538.86;(0.3426711320877075, 0.8809064547220866);51.7159461975;0.723477150742;0;0;0;0;0;0;0;0;0;();(-2000.0, -2000.0);
03:39:39:274;03:39:39:231;1448290538.86;(0.3426711320877075, 0.8809064547220866);51.7159461975;0.723477150742;0;0;0;0;0;0;0;0;0;();(-2000.0, -2000.0);
03:39:39:292;03:39:39:289;1448290538.92;(0.7096569538116455, 0.7315753512912326);73.486907959;0.884239604284;0;0;0;0;0;0;0;0;0;();(-2000.0, -2000.0);
03:39:39:307;03:39:39:289;1448290538.92;(0.7096569538116455, 0.7315753512912326);73.486907959;0.884239604284;0;0;0;0;0;0;0;0;0;();(-2000.0, -2000.0);
03:39:39:343;03:39:39:289;1448290538.92;(0.7096569538116455, 0.7315753512912326);73.486907959;0.884239604284;0;0;0;0;0;0;0;0;0;();(-2000.0, -2000.0);
03:39:39:360;03:39:39:289;1448290538.92;(0.7096569538116455, 0.7315753512912326);73.486907959;0.884239604284;0;0;0;0;0;0;0;0;0;();(-2000.0, -2000.0);
03:39:39:377;03:39:39:368;1448290538.99;(0.7075982093811035, 0.7366622500949436);73.937286377;1.0;0;0;0;0;0;0;0;0;0;();(-2000.0, -2000.0);
03:39:39:393;03:39:39:368;1448290538.99;(0.7075982093811035, 0.7366622500949436);73.937286377;1.0;0;0;0;0;0;0;0;0;0;();(-2000.0, -2000.0);
03:39:39:407;03:39:39:368;1448290538.99;(0.7075982093811035, 0.7366622500949436);73.937286377;1.0;0;0;0;0;0;0;0;0;0;();(-2000.0, -2000.0);
03:39:39:439;03:39:39:422;1448290539.06;(0.6974311828613281, 0.738603613111708);73.8235092163;0.89696746247;0;0;0;0;0;0;0;0;0;();(-2000.0, -2000.0);
03:39:39:457;03:39:39:422;1448290539.06;(0.6974311828613281, 0.738603613111708);73.8235092163;0.89696746247;0;0;0;0;0;0;0;0;0;();(-2000.0, -2000.0);
03:39:39:474;03:39:39:422;1448290539.06;(0.6974311828613281, 0.738603613111708);73.8235092163;0.89696746247;0;0;0;0;0;0;0;0;0;();(-2000.0, -2000.0);
03:39:39:491;03:39:39:488;1448290539.12;(0, 0);0;0;0;0;0;0;0;0;0;0;0;();(-2000.0, -2000.0);
03:39:39:507;03:39:39:488;1448290539.12;(0, 0);0;0;0;0;0;0;0;0;0;0;0;();(-2000.0, -2000.0);
03:39:39:541;03:39:39:488;1448290539.12;(0, 0);0;0;0;0;0;0;0;0;0;0;0;();(-2000.0, -2000.0);
03:39:39:557;03:39:39:551;1448290539.16;(0.7398558616638183, 0.7284824795193142);65.5161819458;0.623991548947;0;0;0;0;0;0;0;0;0;();(-2000.0, -2000.0);
03:39:39:574;03:39:39:551;1448290539.16;(0.7398558616638183, 0.7284824795193142);65.5161819458;0.623991548947;0;0;0;0;0;0;0;0;0;();(-2000.0, -2000.0);
03:39:39:591;03:39:39:551;1448290539.16;(0.7398558616638183, 0.7284824795193142);65.5161819458;0.623991548947;0;0;0;0;0;0;0;0;0;();(-2000.0, -2000.0);
03:39:39:608;03:39:39:551;1448290539.16;(0.7398558616638183, 0.7284824795193142);65.5161819458;0.623991548947;0;0;0;0;0;0;0;0;0;();(-2000.0, -2000.0);
03:39:39:641;03:39:39:622;1448290539.26;(0.7369948863983155, 0.7360669030083551);76.1283340454;0.951550398948;0;0;0;0;0;0;0;0;0;();(-2000.0, -2000.0);
03:39:39:657;03:39:39:622;1448290539.26;(0.7369948863983155, 0.7360669030083551);76.1283340454;0.951550398948;0;0;0;0;0;0;0;0;0;();(-2000.0, -2000.0);
03:39:39:675;03:39:39:622;1448290539.26;(0.7369948863983155, 0.7360669030083551);76.1283340454;0.951550398948;0;0;0;0;0;0;0;0;0;();(-2000.0, -2000.0);
03:39:39:692;03:39:39:689;1448290539.32;(0.7336366176605225, 0.7386220720079211);75.5684967041;0.993359299942;0;0;0;0;0;0;0;0;0;();(-2000.0, -2000.0);
03:39:39:707;03:39:39:689;1448290539.32;(0.7336366176605225, 0.7386220720079211);75.5684967041;0.993359299942;0;0;0;0;0;0;0;0;0;();(-2000.0, -2000.0);
03:39:39:741;03:39:39:689;1448290539.32;(0.7336366176605225, 0.7386220720079211);75.5684967041;0.993359299942;0;0;0;0;0;0;0;0;0;();(-2000.0, -2000.0);
03:39:39:758;03:39:39:752;1448290539.39;(0.7315010070800781, 0.7456929100884331);76.0695571899;0.928835831891;0;0;0;0;0;0;0;0;0;();(-2000.0, -2000.0);
03:39:39:774;03:39:39:752;1448290539.39;(0.7315010070800781, 0.7456929100884331);76.0695571899;0.928835831891;0;0;0;0;0;0;0;0;0;();(-2000.0, -2000.0);
03:39:39:791;03:39:39:752;1448290539.39;(0.7315010070800781, 0.7456929100884331);76.0695571899;0.928835831891;0;0;0;0;0;0;0;0;0;();(-2000.0, -2000.0);
03:39:39:807;03:39:39:752;1448290539.39;(0.7315010070800781, 0.7456929100884331);76.0695571899;0.928835831891;0;0;0;0;0;0;0;0;0;();(-2000.0, -2000.0);
03:39:39:841;03:39:39:821;1448290539.46;(0.729466438293457, 0.7510048336452908);75.6526489258;1.0;0;0;0;0;0;0;0;0;0;();(-2000.0, -2000.0);
03:39:39:860;03:39:39:821;1448290539.46;(0.729466438293457, 0.7510048336452908);75.6526489258;1.0;0;0;0;0;0;0;0;0;0;();(-2000.0, -2000.0);
03:39:39:877;03:39:39:821;1448290539.46;(0.729466438293457, 0.7510048336452908);75.6526489258;1.0;0;0;0;0;0;0;0;0;0;();(-2000.0, -2000.0);
03:39:39:891;03:39:39:886;1448290539.52;(0.7268534183502198, 0.7514178593953451);77.0423202515;0.923152561088;0;0;0;0;0;0;0;0;0;();(-2000.0, -2000.0);
03:39:39:908;03:39:39:886;1448290539.52;(0.7268534183502198, 0.7514178593953451);77.0423202515;0.923152561088;0;0;0;0;0;0;0;0;0;();(-2000.0, -2000.0);
03:39:39:940;03:39:39:886;1448290539.52;(0.7268534183502198, 0.7514178593953451);77.0423202515;0.923152561088;0;0;0;0;0;0;0;0;0;();(-2000.0, -2000.0);
03:39:39:958;03:39:39:952;1448290539.59;(0.7239783763885498, 0.7532131195068359);76.3808517456;0.95218142075;0;0;0;0;0;0;0;0;0;();(-2000.0, -2000.0);
03:39:39:974;03:39:39:952;1448290539.59;(0.7239783763885498, 0.7532131195068359);76.3808517456;0.95218142075;0;0;0;0;0;0;0;0;0;();(-2000.0, -2000.0);
03:39:39:991;03:39:39:952;1448290539.59;(0.7239783763885498, 0.7532131195068359);76.3808517456;0.95218142075;0;0;0;0;0;0;0;0;0;();(-2000.0, -2000.0);
03:39:40:008;03:39:39:952;1448290539.59;(0.7239783763885498, 0.7532131195068359);76.3808517456;0.95218142075;0;0;0;0;0;0;0;0;0;();(-2000.0, -2000.0);
03:39:40:041;03:39:40:021;1448290539.66;(0, 0);0;0;0;0;0;0;0;0;0;0;0;();(-2000.0, -2000.0);
03:39:40:058;03:39:40:021;1448290539.66;(0, 0);0;0;0;0;0;0;0;0;0;0;0;();(-2000.0, -2000.0);
03:39:40:075;03:39:40:021;1448290539.66;(0, 0);0;0;0;0;0;0;0;0;0;0;0;();(-2000.0, -2000.0);
03:39:40:092;03:39:40:085;1448290539.72;(0.7364671230316162, 0.7578978644476997);76.1647033691;0.953398166172;0;0;0;0;0;0;0;0;0;();(-2000.0, -2000.0);
03:39:40:107;03:39:40:085;1448290539.72;(0.7364671230316162, 0.7578978644476997);76.1647033691;0.953398166172;0;0;0;0;0;0;0;0;0;();(-2000.0, -2000.0);
03:39:40:141;03:39:40:085;1448290539.72;(0.7364671230316162, 0.7578978644476997);76.1647033691;0.953398166172;0;0;0;0;0;0;0;0;0;();(-2000.0, -2000.0);
03:39:40:157;03:39:40:153;1448290539.79;(0.7352711677551269, 0.7595384173923069);75.6842727661;0.804692702107;0;0;0;0;0;0;0;0;0;();(-2000.0, -2000.0);
03:39:40:239;03:39:40:153;1448290539.79;(0.7352711677551269, 0.7595384173923069);75.6842727661;0.804692702107;0;0;0;0;0;0;0;0;0;();(-2000.0, -2000.0);
03:39:40:255;03:39:40:246;1448290539.86;(0.7322872638702392, 0.7614336225721572);75.3120422363;0.862085007793;0;0;0;0;0;0;0;0;0;();(-2000.0, -2000.0);
03:39:40:263;03:39:40:246;1448290539.86;(0.7322872638702392, 0.7614336225721572);75.3120422363;0.862085007793;0;0;0;0;0;0;0;0;0;();(-2000.0, -2000.0);
03:39:40:271;03:39:40:246;1448290539.86;(0.7322872638702392, 0.7614336225721572);75.3120422363;0.862085007793;0;0;0;0;0;0;0;0;0;();(-2000.0, -2000.0);
03:39:40:276;03:39:40:246;1448290539.86;(0.7322872638702392, 0.7614336225721572);75.3120422363;0.862085007793;0;0;0;0;0;0;0;0;0;();(-2000.0, -2000.0);
03:39:40:281;03:39:40:246;1448290539.86;(0.7322872638702392, 0.7614336225721572);75.3120422363;0.862085007793;0;0;0;0;0;0;0;0;0;();(-2000.0, -2000.0);
03:39:40:292;03:39:40:246;1448290539.86;(0.7322872638702392, 0.7614336225721572);75.3120422363;0.862085007793;0;0;0;0;0;0;0;0;0;();(-2000.0, -2000.0);
03:39:40:308;03:39:40:299;1448290539.92;(0.7291688919067383, 0.7657100465562608);77.2380371094;0.87685454664;0;0;0;0;0;0;0;0;0;();(-2000.0, -2000.0);
03:39:40:341;03:39:40:299;1448290539.92;(0.7291688919067383, 0.7657100465562608);77.2380371094;0.87685454664;0;0;0;0;0;0;0;0;0;();(-2000.0, -2000.0);
03:39:40:358;03:39:40:353;1448290540.02;(0, 0);0;0;0;0;0;0;0;0;0;0;0;();(-2000.0, -2000.0);
03:39:40:375;03:39:40:353;1448290540.02;(0, 0);0;0;0;0;0;0;0;0;0;0;0;();(-2000.0, -2000.0);
03:39:40:391;03:39:40:353;1448290540.02;(0, 0);0;0;0;0;0;0;0;0;0;0;0;();(-2000.0, -2000.0);
03:39:40:408;03:39:40:353;1448290540.02;(0, 0);0;0;0;0;0;0;0;0;0;0;0;();(-2000.0, -2000.0);
03:39:40:442;03:39:40:419;1448290540.09;(0.7642709732055664, 0.7537486818101671);77.6661071777;0.847901622893;0;0;0;0;0;0;0;0;0;();(-2000.0, -2000.0);
03:39:40:458;03:39:40:419;1448290540.09;(0.7642709732055664, 0.7537486818101671);77.6661071777;0.847901622893;0;0;0;0;0;0;0;0;0;();(-2000.0, -2000.0);
03:39:40:475;03:39:40:419;1448290540.09;(0.7642709732055664, 0.7537486818101671);77.6661071777;0.847901622893;0;0;0;0;0;0;0;0;0;();(-2000.0, -2000.0);
03:39:40:491;03:39:40:484;1448290540.16;(0.762679147720337, 0.7563561333550347);77.5331115723;0.899523697512;0;0;0;0;0;0;0;0;0;();(-2000.0, -2000.0);
03:39:40:508;03:39:40:484;1448290540.16;(0.762679147720337, 0.7563561333550347);77.5331115723;0.899523697512;0;0;0;0;0;0;0;0;0;();(-2000.0, -2000.0);
03:39:40:541;03:39:40:484;1448290540.16;(0.762679147720337, 0.7563561333550347);77.5331115723;0.899523697512;0;0;0;0;0;0;0;0;0;();(-2000.0, -2000.0);
03:39:40:558;03:39:40:548;1448290540.19;(0.7611968040466308, 0.7593221664428711);75.5941848755;0.746391351027;0;0;0;0;0;0;0;0;0;();(-2000.0, -2000.0);
03:39:40:575;03:39:40:548;1448290540.19;(0.7611968040466308, 0.7593221664428711);75.5941848755;0.746391351027;0;0;0;0;0;0;0;0;0;();(-2000.0, -2000.0);
03:39:40:591;03:39:40:548;1448290540.19;(0.7611968040466308, 0.7593221664428711);75.5941848755;0.746391351027;0;0;0;0;0;0;0;0;0;();(-2000.0, -2000.0);
03:39:40:608;03:39:40:548;1448290540.19;(0.7611968040466308, 0.7593221664428711);75.5941848755;0.746391351027;0;0;0;0;0;0;0;0;0;();(-2000.0, -2000.0);
03:39:40:641;03:39:40:617;1448290540.26;(0.7558793544769287, 0.7630091985066731);77.495475769;0.971799096079;0;0;0;0;0;0;0;0;0;();(-2000.0, -2000.0);
03:39:40:658;03:39:40:617;1448290540.26;(0.7558793544769287, 0.7630091985066731);77.495475769;0.971799096079;0;0;0;0;0;0;0;0;0;();(-2000.0, -2000.0);
03:39:40:675;03:39:40:617;1448290540.26;(0.7558793544769287, 0.7630091985066731);77.495475769;0.971799096079;0;0;0;0;0;0;0;0;0;();(-2000.0, -2000.0);
03:39:40:692;03:39:40:684;1448290540.32;(0.752696180343628, 0.7685523351033529);77.0687179565;0.843987386395;0;0;0;0;0;0;0;0;0;();(-2000.0, -2000.0);
03:39:40:708;03:39:40:684;1448290540.32;(0.752696180343628, 0.7685523351033529);77.0687179565;0.843987386395;0;0;0;0;0;0;0;0;0;();(-2000.0, -2000.0);
03:39:40:741;03:39:40:684;1448290540.32;(0.752696180343628, 0.7685523351033529);77.0687179565;0.843987386395;0;0;0;0;0;0;0;0;0;();(-2000.0, -2000.0);
03:39:40:758;03:39:40:749;1448290540.39;(0.7684145450592041, 0.75605165693495);78.387802124;0.802985110188;0;0;0;0;0;0;0;0;0;();(-2000.0, -2000.0);
03:39:40:775;03:39:40:749;1448290540.39;(0.7684145450592041, 0.75605165693495);78.387802124;0.802985110188;0;0;0;0;0;0;0;0;0;();(-2000.0, -2000.0);
03:39:40:792;03:39:40:749;1448290540.39;(0.7684145450592041, 0.75605165693495);78.387802124;0.802985110188;0;0;0;0;0;0;0;0;0;();(-2000.0, -2000.0);
03:39:40:809;03:39:40:749;1448290540.39;(0.7684145450592041, 0.75605165693495);78.387802124;0.802985110188;0;0;0;0;0;0;0;0;0;();(-2000.0, -2000.0);
03:39:40:841;03:39:40:817;1448290540.46;(0.7641559600830078, 0.7572528415256077);78.1207962036;0.831170573049;0;0;0;0;0;0;0;0;0;();(-2000.0, -2000.0);
03:39:40:858;03:39:40:817;1448290540.46;(0.7641559600830078, 0.7572528415256077);78.1207962036;0.831170573049;0;0;0;0;0;0;0;0;0;();(-2000.0, -2000.0);
03:39:40:876;03:39:40:817;1448290540.46;(0.7641559600830078, 0.7572528415256077);78.1207962036;0.831170573049;0;0;0;0;0;0;0;0;0;();(-2000.0, -2000.0);
03:39:40:892;03:39:40:881;1448290540.52;(0.7600438594818115, 0.75824646419949);75.5896835327;0.76649960151;0;0;0;0;0;0;0;0;0;();(-2000.0, -2000.0);
03:39:40:908;03:39:40:881;1448290540.52;(0.7600438594818115, 0.75824646419949);75.5896835327;0.76649960151;0;0;0;0;0;0;0;0;0;();(-2000.0, -2000.0);
03:39:40:942;03:39:40:881;1448290540.52;(0.7600438594818115, 0.75824646419949);75.5896835327;0.76649960151;0;0;0;0;0;0;0;0;0;();(-2000.0, -2000.0);
03:39:40:959;03:39:40:949;1448290540.59;(0.7578903198242187, 0.76413025326199);77.3521728516;0.764775180295;0;0;0;0;0;0;0;0;0;();(-2000.0, -2000.0);
03:39:40:976;03:39:40:949;1448290540.59;(0.7578903198242187, 0.76413025326199);77.3521728516;0.764775180295;0;0;0;0;0;0;0;0;0;();(-2000.0, -2000.0);
03:39:40:991;03:39:40:949;1448290540.59;(0.7578903198242187, 0.76413025326199);77.3521728516;0.764775180295;0;0;0;0;0;0;0;0;0;();(-2000.0, -2000.0);
03:39:41:008;03:39:40:949;1448290540.59;(0.7578903198242187, 0.76413025326199);77.3521728516;0.764775180295;0;0;0;0;0;0;0;0;0;();(-2000.0, -2000.0);
03:39:41:026;03:39:41:017;1448290540.66;(0.754570198059082, 0.7650483661227756);77.0562591553;0.871057468681;0;0;0;0;0;0;0;0;0;();(-2000.0, -2000.0);
03:39:41:058;03:39:41:017;1448290540.66;(0.754570198059082, 0.7650483661227756);77.0562591553;0.871057468681;0;0;0;0;0;0;0;0;0;();(-2000.0, -2000.0);
03:39:41:075;03:39:41:017;1448290540.66;(0.754570198059082, 0.7650483661227756);77.0562591553;0.871057468681;0;0;0;0;0;0;0;0;0;();(-2000.0, -2000.0);
03:39:41:092;03:39:41:081;1448290540.72;(0.7572618007659913, 0.7630537245008681);80.0464477539;0.963519125356;0;0;0;0;0;0;0;0;0;();(-2000.0, -2000.0);
03:39:41:109;03:39:41:081;1448290540.72;(0.7572618007659913, 0.7630537245008681);80.0464477539;0.963519125356;0;0;0;0;0;0;0;0;0;();(-2000.0, -2000.0);
03:39:41:126;03:39:41:081;1448290540.72;(0.7572618007659913, 0.7630537245008681);80.0464477539;0.963519125356;0;0;0;0;0;0;0;0;0;();(-2000.0, -2000.0);
03:39:41:159;03:39:41:148;1448290540.79;(0.774485731124878, 0.7518797132703994);75.8880691528;0.694231201773;0;0;0;0;0;0;0;0;0;();(-2000.0, -2000.0);
03:39:41:176;03:39:41:148;1448290540.79;(0.774485731124878, 0.7518797132703994);75.8880691528;0.694231201773;0;0;0;0;0;0;0;0;0;();(-2000.0, -2000.0);
03:39:41:192;03:39:41:148;1448290540.79;(0.774485731124878, 0.7518797132703994);75.8880691528;0.694231201773;0;0;0;0;0;0;0;0;0;();(-2000.0, -2000.0);
03:39:41:211;03:39:41:148;1448290540.79;(0.774485731124878, 0.7518797132703994);75.8880691528;0.694231201773;0;0;0;0;0;0;0;0;0;();(-2000.0, -2000.0);
03:39:41:228;03:39:41:219;1448290540.86;(0.7714076995849609, 0.7544380611843533);78.3387145996;0.711887240611;0;0;0;0;0;0;0;0;0;();(-2000.0, -2000.0);
03:39:41:262;03:39:41:219;1448290540.86;(0.7714076995849609, 0.7544380611843533);78.3387145996;0.711887240611;0;0;0;0;0;0;0;0;0;();(-2000.0, -2000.0);
03:39:41:278;03:39:41:219;1448290540.86;(0.7714076995849609, 0.7544380611843533);78.3387145996;0.711887240611;0;0;0;0;0;0;0;0;0;();(-2000.0, -2000.0);
03:39:41:295;03:39:41:288;1448290540.92;(0, 0);0;0;0;0;0;0;0;0;0;0;0;();(-2000.0, -2000.0);
03:39:41:311;03:39:41:288;1448290540.92;(0, 0);0;0;0;0;0;0;0;0;0;0;0;();(-2000.0, -2000.0);
03:39:41:326;03:39:41:288;1448290540.92;(0, 0);0;0;0;0;0;0;0;0;0;0;0;();(-2000.0, -2000.0);
03:39:41:359;03:39:41:288;1448290540.92;(0, 0);0;0;0;0;0;0;0;0;0;0;0;();(-2000.0, -2000.0);
03:39:41:375;03:39:41:288;1448290540.92;(0, 0);0;0;0;0;0;0;0;0;0;0;0;();(-2000.0, -2000.0);
03:39:41:391;03:39:41:288;1448290540.92;(0, 0);0;0;0;0;0;0;0;0;0;0;0;();(-2000.0, -2000.0);
03:39:41:409;03:39:41:288;1448290540.92;(0, 0);0;0;0;0;0;0;0;0;0;0;0;();(-2000.0, -2000.0);
03:39:41:442;03:39:41:420;1448290541.06;(0.7623419761657715, 0.7563322914971246);78.7984313965;0.911125811017;0;0;0;0;0;0;0;0;0;();(-2000.0, -2000.0);
03:39:41:459;03:39:41:420;1448290541.06;(0.7623419761657715, 0.7563322914971246);78.7984313965;0.911125811017;0;0;0;0;0;0;0;0;0;();(-2000.0, -2000.0);
03:39:41:476;03:39:41:420;1448290541.06;(0.7623419761657715, 0.7563322914971246);78.7984313965;0.911125811017;0;0;0;0;0;0;0;0;0;();(-2000.0, -2000.0);
03:39:41:493;03:39:41:420;1448290541.06;(0.7623419761657715, 0.7563322914971246);78.7984313965;0.911125811017;0;0;0;0;0;0;0;0;0;();(-2000.0, -2000.0);
03:39:41:509;03:39:41:503;1448290541.12;(0.76085205078125, 0.7569414138793945);78.8078918457;0.957163135893;0;0;0;0;0;0;0;0;0;();(-2000.0, -2000.0);
03:39:41:526;03:39:41:503;1448290541.12;(0.76085205078125, 0.7569414138793945);78.8078918457;0.957163135893;0;0;0;0;0;0;0;0;0;();(-2000.0, -2000.0);
03:39:41:558;03:39:41:544;1448290541.19;(0.7600473403930664, 0.7573620902167426);78.4233093262;0.896394008151;0;0;0;0;0;0;0;0;0;();(-2000.0, -2000.0);
03:39:41:575;03:39:41:544;1448290541.19;(0.7600473403930664, 0.7573620902167426);78.4233093262;0.896394008151;0;0;0;0;0;0;0;0;0;();(-2000.0, -2000.0);
03:39:41:592;03:39:41:544;1448290541.19;(0.7600473403930664, 0.7573620902167426);78.4233093262;0.896394008151;0;0;0;0;0;0;0;0;0;();(-2000.0, -2000.0);
03:39:41:609;03:39:41:544;1448290541.19;(0.7600473403930664, 0.7573620902167426);78.4233093262;0.896394008151;0;0;0;0;0;0;0;0;0;();(-2000.0, -2000.0);
03:39:41:626;03:39:41:613;1448290541.26;(0.7584967136383056, 0.758510144551595);79.1421279907;0.888425225301;0;0;0;0;0;0;0;0;0;();(-2000.0, -2000.0);
03:39:41:659;03:39:41:613;1448290541.26;(0.7584967136383056, 0.758510144551595);79.1421279907;0.888425225301;0;0;0;0;0;0;0;0;0;();(-2000.0, -2000.0);
03:39:41:676;03:39:41:613;1448290541.26;(0.7584967136383056, 0.758510144551595);79.1421279907;0.888425225301;0;0;0;0;0;0;0;0;0;();(-2000.0, -2000.0);
03:39:41:692;03:39:41:679;1448290541.32;(0, 0);0;0;0;0;0;0;0;0;0;0;0;();(-2000.0, -2000.0);
03:39:41:710;03:39:41:679;1448290541.32;(0, 0);0;0;0;0;0;0;0;0;0;0;0;();(-2000.0, -2000.0);
03:39:41:726;03:39:41:679;1448290541.32;(0, 0);0;0;0;0;0;0;0;0;0;0;0;();(-2000.0, -2000.0);
03:39:41:759;03:39:41:743;1448290541.36;(0.5776947975158692, 0.7169824388292101);20.5956630707;0.748732337814;0;0;0;0;0;0;0;0;0;();(-2000.0, -2000.0);
03:39:41:776;03:39:41:743;1448290541.36;(0.5776947975158692, 0.7169824388292101);20.5956630707;0.748732337814;0;0;0;0;0;0;0;0;0;();(-2000.0, -2000.0);
03:39:41:792;03:39:41:743;1448290541.36;(0.5776947975158692, 0.7169824388292101);20.5956630707;0.748732337814;0;0;0;0;0;0;0;0;0;();(-2000.0, -2000.0);
03:39:41:809;03:39:41:743;1448290541.36;(0.5776947975158692, 0.7169824388292101);20.5956630707;0.748732337814;0;0;0;0;0;0;0;0;0;();(-2000.0, -2000.0);
03:39:41:826;03:39:41:812;1448290541.43;(0.7860621929168701, 0.6441740883721245);71.0014266968;0.693960304403;0;0;0;0;0;0;0;0;0;();(-2000.0, -2000.0);
03:39:41:862;03:39:41:812;1448290541.43;(0.7860621929168701, 0.6441740883721245);71.0014266968;0.693960304403;0;0;0;0;0;0;0;0;0;();(-2000.0, -2000.0);
03:39:41:879;03:39:41:812;1448290541.43;(0.7860621929168701, 0.6441740883721245);71.0014266968;0.693960304403;0;0;0;0;0;0;0;0;0;();(-2000.0, -2000.0);
03:39:41:896;03:39:41:886;1448290541.51;(0.781559944152832, 0.6452051374647352);77.2094116211;0.935829398772;0;0;0;0;0;0;0;0;0;();(-2000.0, -2000.0);
03:39:41:912;03:39:41:886;1448290541.51;(0.781559944152832, 0.6452051374647352);77.2094116211;0.935829398772;0;0;0;0;0;0;0;0;0;();(-2000.0, -2000.0);
03:39:41:926;03:39:41:886;1448290541.51;(0.781559944152832, 0.6452051374647352);77.2094116211;0.935829398772;0;0;0;0;0;0;0;0;0;();(-2000.0, -2000.0);
03:39:41:959;03:39:41:944;1448290541.57;(0.776276683807373, 0.6474900351630317);77.0649414062;0.922121953955;0;0;0;0;0;0;0;0;0;();(-2000.0, -2000.0);
03:39:41:976;03:39:41:944;1448290541.57;(0.776276683807373, 0.6474900351630317);77.0649414062;0.922121953955;0;0;0;0;0;0;0;0;0;();(-2000.0, -2000.0);
03:39:41:993;03:39:41:944;1448290541.57;(0.776276683807373, 0.6474900351630317);77.0649414062;0.922121953955;0;0;0;0;0;0;0;0;0;();(-2000.0, -2000.0);
03:39:42:010;03:39:42:007;1448290541.61;(0.7739084243774415, 0.6493462880452474);78.0913238525;0.89841152419;0;0;0;0;0;0;0;0;0;();(-2000.0, -2000.0);
03:39:42:026;03:39:42:007;1448290541.61;(0.7739084243774415, 0.6493462880452474);78.0913238525;0.89841152419;0;0;0;0;0;0;0;0;0;();(-2000.0, -2000.0);
03:39:42:059;03:39:42:007;1448290541.61;(0.7739084243774415, 0.6493462880452474);78.0913238525;0.89841152419;0;0;0;0;0;0;0;0;0;();(-2000.0, -2000.0);
03:39:42:078;03:39:42:007;1448290541.61;(0.7739084243774415, 0.6493462880452474);78.0913238525;0.89841152419;0;0;0;0;0;0;0;0;0;();(-2000.0, -2000.0);
03:39:42:095;03:39:42:077;1448290541.68;(0.7700617790222168, 0.6514442019992405);77.6150894165;0.991381883987;0;0;0;0;0;0;0;0;0;();(-2000.0, -2000.0);
03:39:42:109;03:39:42:077;1448290541.68;(0.7700617790222168, 0.6514442019992405);77.6150894165;0.991381883987;0;0;0;0;0;0;0;0;0;();(-2000.0, -2000.0);
03:39:42:126;03:39:42:077;1448290541.68;(0.7700617790222168, 0.6514442019992405);77.6150894165;0.991381883987;0;0;0;0;0;0;0;0;0;();(-2000.0, -2000.0);
03:39:42:159;03:39:42:147;1448290541.76;(0.7658727169036865, 0.6537947760687934);78.1946716309;0.933864541853;0;0;0;0;0;0;0;0;0;();(-2000.0, -2000.0);
03:39:42:176;03:39:42:147;1448290541.76;(0.7658727169036865, 0.6537947760687934);78.1946716309;0.933864541853;0;0;0;0;0;0;0;0;0;();(-2000.0, -2000.0);
03:39:42:193;03:39:42:147;1448290541.76;(0.7658727169036865, 0.6537947760687934);78.1946716309;0.933864541853;0;0;0;0;0;0;0;0;0;();(-2000.0, -2000.0);
03:39:42:213;03:39:42:209;1448290541.82;(0.7648383617401123, 0.6540556377834744);78.6020812988;1.0;0;0;0;0;0;0;0;0;0;();(-2000.0, -2000.0);
03:39:42:226;03:39:42:210;1448290541.86;(0.7643373966217041, 0.653860600789388);78.5891342163;1.0;0;0;0;0;0;0;0;0;0;();(-2000.0, -2000.0);
03:39:42:262;03:39:42:210;1448290541.86;(0.7643373966217041, 0.653860600789388);78.5891342163;1.0;0;0;0;0;0;0;0;0;0;();(-2000.0, -2000.0);
03:39:42:281;03:39:42:210;1448290541.86;(0.7643373966217041, 0.653860600789388);78.5891342163;1.0;0;0;0;0;0;0;0;0;0;();(-2000.0, -2000.0);
03:39:42:295;03:39:42:280;1448290541.92;(0.7637954711914062, 0.6542488310072156);78.7608337402;1.0;0;0;0;0;0;0;0;0;0;();(-2000.0, -2000.0);
03:39:42:312;03:39:42:280;1448290541.92;(0.7637954711914062, 0.6542488310072156);78.7608337402;1.0;0;0;0;0;0;0;0;0;0;();(-2000.0, -2000.0);
03:39:42:328;03:39:42:280;1448290541.92;(0.7637954711914062, 0.6542488310072156);78.7608337402;1.0;0;0;0;0;0;0;0;0;0;();(-2000.0, -2000.0);
03:39:42:362;03:39:42:341;1448290541.99;(0.7647294521331787, 0.7494817521837023);77.6617736816;0.881857305028;0;0;0;0;0;0;0;0;0;();(-2000.0, -2000.0);
03:39:42:379;03:39:42:341;1448290541.99;(0.7647294521331787, 0.7494817521837023);77.6617736816;0.881857305028;0;0;0;0;0;0;0;0;0;();(-2000.0, -2000.0);
03:39:42:395;03:39:42:341;1448290541.99;(0.7647294521331787, 0.7494817521837023);77.6617736816;0.881857305028;0;0;0;0;0;0;0;0;0;();(-2000.0, -2000.0);
03:39:42:410;03:39:42:341;1448290541.99;(0.7647294521331787, 0.7494817521837023);77.6617736816;0.881857305028;0;0;0;0;0;0;0;0;0;();(-2000.0, -2000.0);
03:39:42:427;03:39:42:412;1448290542.06;(0.752918291091919, 0.7846247355143229);79.7306289673;0.977527076568;0;0;0;0;0;0;0;0;0;();(-2000.0, -2000.0);
03:39:42:462;03:39:42:412;1448290542.06;(0.752918291091919, 0.7846247355143229);79.7306289673;0.977527076568;0;0;0;0;0;0;0;0;0;();(-2000.0, -2000.0);
03:39:42:479;03:39:42:412;1448290542.06;(0.752918291091919, 0.7846247355143229);79.7306289673;0.977527076568;0;0;0;0;0;0;0;0;0;();(-2000.0, -2000.0);
03:39:42:497;03:39:42:490;1448290542.12;(0.7540955066680908, 0.7850428899129231);80.6692657471;0.828435272008;0;0;0;0;0;0;0;0;0;();(-2000.0, -2000.0);
03:39:42:513;03:39:42:490;1448290542.12;(0.7540955066680908, 0.7850428899129231);80.6692657471;0.828435272008;0;0;0;0;0;0;0;0;0;();(-2000.0, -2000.0);
03:39:42:529;03:39:42:490;1448290542.12;(0.7540955066680908, 0.7850428899129231);80.6692657471;0.828435272008;0;0;0;0;0;0;0;0;0;();(-2000.0, -2000.0);
03:39:42:563;03:39:42:543;1448290542.19;(0.7570822715759278, 0.7906460444132487);82.2106781006;0.775169517379;0;0;0;0;0;0;0;0;0;();(-2000.0, -2000.0);
03:39:42:579;03:39:42:543;1448290542.19;(0.7570822715759278, 0.7906460444132487);82.2106781006;0.775169517379;0;0;0;0;0;0;0;0;0;();(-2000.0, -2000.0);
03:39:42:594;03:39:42:543;1448290542.19;(0.7570822715759278, 0.7906460444132487);82.2106781006;0.775169517379;0;0;0;0;0;0;0;0;0;();(-2000.0, -2000.0);
03:39:42:610;03:39:42:543;1448290542.19;(0.7570822715759278, 0.7906460444132487);82.2106781006;0.775169517379;0;0;0;0;0;0;0;0;0;();(-2000.0, -2000.0);
03:39:42:626;03:39:42:613;1448290542.26;(0.756911039352417, 0.7880509482489692);81.6468963623;0.87880636737;0;0;0;0;0;0;0;0;0;();(-2000.0, -2000.0);
03:39:42:660;03:39:42:613;1448290542.26;(0.756911039352417, 0.7880509482489692);81.6468963623;0.87880636737;0;0;0;0;0;0;0;0;0;();(-2000.0, -2000.0);
03:39:42:677;03:39:42:673;1448290542.32;(0, 0);0;0;0;0;0;0;0;0;0;0;0;();(-2000.0, -2000.0);
03:39:42:694;03:39:42:673;1448290542.32;(0, 0);0;0;0;0;0;0;0;0;0;0;0;();(-2000.0, -2000.0);
03:39:42:710;03:39:42:673;1448290542.32;(0, 0);0;0;0;0;0;0;0;0;0;0;0;();(-2000.0, -2000.0);
03:39:42:727;03:39:42:673;1448290542.32;(0, 0);0;0;0;0;0;0;0;0;0;0;0;();(-2000.0, -2000.0);
03:39:42:760;03:39:42:740;1448290542.39;(0.7410982608795166, 0.7943853166368273);81.4838638306;0.861609778247;0;0;0;0;0;0;0;0;0;();(-2000.0, -2000.0);
03:39:42:777;03:39:42:740;1448290542.39;(0.7410982608795166, 0.7943853166368273);81.4838638306;0.861609778247;0;0;0;0;0;0;0;0;0;();(-2000.0, -2000.0);
03:39:42:794;03:39:42:740;1448290542.39;(0.7410982608795166, 0.7943853166368273);81.4838638306;0.861609778247;0;0;0;0;0;0;0;0;0;();(-2000.0, -2000.0);
03:39:42:810;03:39:42:807;1448290542.42;(0.7413748741149903, 0.7954531881544324);81.6128921509;1.0;0;0;0;0;0;0;0;0;0;();(-2000.0, -2000.0);
03:39:42:827;03:39:42:808;1448290542.46;(0, 0);0;0;0;0;0;0;0;0;0;0;0;();(-2000.0, -2000.0);
03:39:42:860;03:39:42:808;1448290542.46;(0, 0);0;0;0;0;0;0;0;0;0;0;0;();(-2000.0, -2000.0);
03:39:42:877;03:39:42:871;1448290542.49;(0.7439725399017334, 0.7944156010945638);80.4272232056;0.990048809492;0;0;0;0;0;0;0;0;0;();(-2000.0, -2000.0);
03:39:42:892;03:39:42:871;1448290542.49;(0.7439725399017334, 0.7944156010945638);80.4272232056;0.990048809492;0;0;0;0;0;0;0;0;0;();(-2000.0, -2000.0);
03:39:42:910;03:39:42:871;1448290542.49;(0.7439725399017334, 0.7944156010945638);80.4272232056;0.990048809492;0;0;0;0;0;0;0;0;0;();(-2000.0, -2000.0);
03:39:42:927;03:39:42:871;1448290542.49;(0.7439725399017334, 0.7944156010945638);80.4272232056;0.990048809492;0;0;0;0;0;0;0;0;0;();(-2000.0, -2000.0);
03:39:42:960;03:39:42:942;1448290542.59;(0.7445084571838378, 0.7941595289442274);81.1875686646;0.951283161553;0;0;0;0;0;0;0;0;0;();(-2000.0, -2000.0);
03:39:42:978;03:39:42:942;1448290542.59;(0.7445084571838378, 0.7941595289442274);81.1875686646;0.951283161553;0;0;0;0;0;0;0;0;0;();(-2000.0, -2000.0);
03:39:42:993;03:39:42:942;1448290542.59;(0.7445084571838378, 0.7941595289442274);81.1875686646;0.951283161553;0;0;0;0;0;0;0;0;0;();(-2000.0, -2000.0);
03:39:43:011;03:39:43:004;1448290542.66;(0.7135749340057373, 0.7986208491855198);80.2580108643;0.904953515139;0;0;0;0;0;0;0;0;0;();(-2000.0, -2000.0);
03:39:43:028;03:39:43:004;1448290542.66;(0.7135749340057373, 0.7986208491855198);80.2580108643;0.904953515139;0;0;0;0;0;0;0;0;0;();(-2000.0, -2000.0);
03:39:43:061;03:39:43:004;1448290542.66;(0.7135749340057373, 0.7986208491855198);80.2580108643;0.904953515139;0;0;0;0;0;0;0;0;0;();(-2000.0, -2000.0);
03:39:43:078;03:39:43:074;1448290542.72;(0, 0);0;0;0;0;0;0;0;0;0;0;0;();(-2000.0, -2000.0);
03:39:43:094;03:39:43:074;1448290542.72;(0, 0);0;0;0;0;0;0;0;0;0;0;0;();(-2000.0, -2000.0);
03:39:43:110;03:39:43:074;1448290542.72;(0, 0);0;0;0;0;0;0;0;0;0;0;0;();(-2000.0, -2000.0);
03:39:43:128;03:39:43:074;1448290542.72;(0, 0);0;0;0;0;0;0;0;0;0;0;0;();(-2000.0, -2000.0);
03:39:43:160;03:39:43:145;1448290542.79;(0, 0);0;0;0;0;0;0;0;0;0;0;0;();(-2000.0, -2000.0);
03:39:43:177;03:39:43:145;1448290542.79;(0, 0);0;0;0;0;0;0;0;0;0;0;0;();(-2000.0, -2000.0);
03:39:43:194;03:39:43:145;1448290542.79;(0, 0);0;0;0;0;0;0;0;0;0;0;0;();(-2000.0, -2000.0);
03:39:43:210;03:39:43:204;1448290542.86;(0, 0);0;0;0;0;0;0;0;0;0;0;0;();(-2000.0, -2000.0);
03:39:43:227;03:39:43:204;1448290542.86;(0, 0);0;0;0;0;0;0;0;0;0;0;0;();(-2000.0, -2000.0);
03:39:43:261;03:39:43:204;1448290542.86;(0, 0);0;0;0;0;0;0;0;0;0;0;0;();(-2000.0, -2000.0);
03:39:43:278;03:39:43:275;1448290542.89;(0, 0);0;0;0;0;0;0;0;0;0;0;0;();(-2000.0, -2000.0);
03:39:43:294;03:39:43:276;1448290542.92;(0.6816787719726562, 0.7907078213161892);82.6516952515;0.765794852396;0;0;0;0;0;0;0;0;0;();(-2000.0, -2000.0);
03:39:43:310;03:39:43:276;1448290542.92;(0.6816787719726562, 0.7907078213161892);82.6516952515;0.765794852396;0;0;0;0;0;0;0;0;0;();(-2000.0, -2000.0);
03:39:43:327;03:39:43:276;1448290542.92;(0.6816787719726562, 0.7907078213161892);82.6516952515;0.765794852396;0;0;0;0;0;0;0;0;0;();(-2000.0, -2000.0);
03:39:43:361;03:39:43:336;1448290542.99;(0, 0);0;0;0;0;0;0;0;0;0;0;0;();(-2000.0, -2000.0);
03:39:43:377;03:39:43:336;1448290542.99;(0, 0);0;0;0;0;0;0;0;0;0;0;0;();(-2000.0, -2000.0);
03:39:43:394;03:39:43:336;1448290542.99;(0, 0);0;0;0;0;0;0;0;0;0;0;0;();(-2000.0, -2000.0);
03:39:43:412;03:39:43:405;1448290543.06;(0.6888593673706055, 0.7954161008199057);81.5399093628;0.728517248496;0;0;0;0;0;0;0;0;0;();(-2000.0, -2000.0);
03:39:43:427;03:39:43:405;1448290543.06;(0.6888593673706055, 0.7954161008199057);81.5399093628;0.728517248496;0;0;0;0;0;0;0;0;0;();(-2000.0, -2000.0);
03:39:43:461;03:39:43:405;1448290543.06;(0.6888593673706055, 0.7954161008199057);81.5399093628;0.728517248496;0;0;0;0;0;0;0;0;0;();(-2000.0, -2000.0);
03:39:43:477;03:39:43:472;1448290543.12;(0, 0);0;0;0;0;0;0;0;0;0;0;0;();(-2000.0, -2000.0);
03:39:43:493;03:39:43:472;1448290543.12;(0, 0);0;0;0;0;0;0;0;0;0;0;0;();(-2000.0, -2000.0);
03:39:43:510;03:39:43:472;1448290543.12;(0, 0);0;0;0;0;0;0;0;0;0;0;0;();(-2000.0, -2000.0);
03:39:43:527;03:39:43:472;1448290543.12;(0, 0);0;0;0;0;0;0;0;0;0;0;0;();(-2000.0, -2000.0);
03:39:43:561;03:39:43:536;1448290543.19;(0.6890651702880859, 0.7931501388549804);82.2077865601;0.846271228681;0;0;0;0;0;0;0;0;0;();(-2000.0, -2000.0);
03:39:43:578;03:39:43:536;1448290543.19;(0.6890651702880859, 0.7931501388549804);82.2077865601;0.846271228681;0;0;0;0;0;0;0;0;0;();(-2000.0, -2000.0);
03:39:43:594;03:39:43:536;1448290543.19;(0.6890651702880859, 0.7931501388549804);82.2077865601;0.846271228681;0;0;0;0;0;0;0;0;0;();(-2000.0, -2000.0);
03:39:43:610;03:39:43:604;1448290543.26;(0.6962278842926025, 0.7726686689588759);80.8994750977;0.830936692007;0;0;0;0;0;0;0;0;0;();(-2000.0, -2000.0);
03:39:43:627;03:39:43:604;1448290543.26;(0.6962278842926025, 0.7726686689588759);80.8994750977;0.830936692007;0;0;0;0;0;0;0;0;0;();(-2000.0, -2000.0);
03:39:43:660;03:39:43:604;1448290543.26;(0.6962278842926025, 0.7726686689588759);80.8994750977;0.830936692007;0;0;0;0;0;0;0;0;0;();(-2000.0, -2000.0);
03:39:43:677;03:39:43:668;1448290543.32;(0, 0);0;0;0;0;0;0;0;0;0;0;0;();(-2000.0, -2000.0);
03:39:43:693;03:39:43:668;1448290543.32;(0, 0);0;0;0;0;0;0;0;0;0;0;0;();(-2000.0, -2000.0);
03:39:43:711;03:39:43:668;1448290543.32;(0, 0);0;0;0;0;0;0;0;0;0;0;0;();(-2000.0, -2000.0);
03:39:43:727;03:39:43:668;1448290543.32;(0, 0);0;0;0;0;0;0;0;0;0;0;0;();(-2000.0, -2000.0);
03:39:43:761;03:39:43:736;1448290543.39;(0.700663709640503, 0.772461806403266);78.0111236572;0.816450732089;0;0;0;0;0;0;0;0;0;();(-2000.0, -2000.0);
03:39:43:777;03:39:43:736;1448290543.39;(0.700663709640503, 0.772461806403266);78.0111236572;0.816450732089;0;0;0;0;0;0;0;0;0;();(-2000.0, -2000.0);
03:39:43:794;03:39:43:736;1448290543.39;(0.700663709640503, 0.772461806403266);78.0111236572;0.816450732089;0;0;0;0;0;0;0;0;0;();(-2000.0, -2000.0);
03:39:43:812;03:39:43:805;1448290543.46;(0.7030084133148193, 0.7718543158637152);75.2526855469;0.637907538791;0;0;0;0;0;0;0;0;0;();(-2000.0, -2000.0);
03:39:43:828;03:39:43:805;1448290543.46;(0.7030084133148193, 0.7718543158637152);75.2526855469;0.637907538791;0;0;0;0;0;0;0;0;0;();(-2000.0, -2000.0);
03:39:43:862;03:39:43:805;1448290543.46;(0.7030084133148193, 0.7718543158637152);75.2526855469;0.637907538791;0;0;0;0;0;0;0;0;0;();(-2000.0, -2000.0);
03:39:43:880;03:39:43:869;1448290543.52;(0.7042221546173095, 0.7721631368001303);80.062713623;0.834834034653;0;0;0;0;0;0;0;0;0;();(-2000.0, -2000.0);
03:39:43:896;03:39:43:869;1448290543.52;(0.7042221546173095, 0.7721631368001303);80.062713623;0.834834034653;0;0;0;0;0;0;0;0;0;();(-2000.0, -2000.0);
03:39:43:914;03:39:43:869;1448290543.52;(0.7042221546173095, 0.7721631368001303);80.062713623;0.834834034653;0;0;0;0;0;0;0;0;0;();(-2000.0, -2000.0);
03:39:43:930;03:39:43:869;1448290543.52;(0.7042221546173095, 0.7721631368001303);80.062713623;0.834834034653;0;0;0;0;0;0;0;0;0;();(-2000.0, -2000.0);
03:39:43:961;03:39:43:936;1448290543.59;(0, 0);0;0;0;0;0;0;0;0;0;0;0;();(-2000.0, -2000.0);
03:39:43:978;03:39:43:936;1448290543.59;(0, 0);0;0;0;0;0;0;0;0;0;0;0;();(-2000.0, -2000.0);
03:39:43:995;03:39:43:936;1448290543.59;(0, 0);0;0;0;0;0;0;0;0;0;0;0;();(-2000.0, -2000.0);
03:39:44:012;03:39:44:002;1448290543.66;(0, 0);0;0;0;0;0;0;0;0;0;0;0;();(-2000.0, -2000.0);
03:39:44:028;03:39:44:002;1448290543.66;(0, 0);0;0;0;0;0;0;0;0;0;0;0;();(-2000.0, -2000.0);
03:39:44:061;03:39:44:002;1448290543.66;(0, 0);0;0;0;0;0;0;0;0;0;0;0;();(-2000.0, -2000.0);
03:39:44:078;03:39:44:068;1448290543.72;(0.6156206130981445, 0.7768632676866319);76.6727218628;0.816258505237;0;0;0;0;0;0;0;0;0;();(-2000.0, -2000.0);
03:39:44:095;03:39:44:068;1448290543.72;(0.6156206130981445, 0.7768632676866319);76.6727218628;0.816258505237;0;0;0;0;0;0;0;0;0;();(-2000.0, -2000.0);
03:39:44:112;03:39:44:068;1448290543.72;(0.6156206130981445, 0.7768632676866319);76.6727218628;0.816258505237;0;0;0;0;0;0;0;0;0;();(-2000.0, -2000.0);
03:39:44:129;03:39:44:068;1448290543.72;(0.6156206130981445, 0.7768632676866319);76.6727218628;0.816258505237;0;0;0;0;0;0;0;0;0;();(-2000.0, -2000.0);
03:39:44:162;03:39:44:133;1448290543.79;(0.6182991027832031, 0.7743933995564779);77.0496368408;0.785514611497;0;0;0;0;0;0;0;0;0;();(-2000.0, -2000.0);
03:39:44:178;03:39:44:133;1448290543.79;(0.6182991027832031, 0.7743933995564779);77.0496368408;0.785514611497;0;0;0;0;0;0;0;0;0;();(-2000.0, -2000.0);
03:39:44:195;03:39:44:133;1448290543.79;(0.6182991027832031, 0.7743933995564779);77.0496368408;0.785514611497;0;0;0;0;0;0;0;0;0;();(-2000.0, -2000.0);
03:39:44:212;03:39:44:201;1448290543.86;(0, 0);0;0;0;0;0;0;0;0;0;0;0;();(-2000.0, -2000.0);
03:39:44:228;03:39:44:201;1448290543.86;(0, 0);0;0;0;0;0;0;0;0;0;0;0;();(-2000.0, -2000.0);
03:39:44:262;03:39:44:201;1448290543.86;(0, 0);0;0;0;0;0;0;0;0;0;0;0;();(-2000.0, -2000.0);
03:39:44:279;03:39:44:275;1448290543.92;(0.3367678165435791, 0.8870262887742785);18.4623908997;0.855655297959;0;0;0;0;0;0;0;0;0;();(-2000.0, -2000.0);
03:39:44:295;03:39:44:275;1448290543.92;(0.3367678165435791, 0.8870262887742785);18.4623908997;0.855655297959;0;0;0;0;0;0;0;0;0;();(-2000.0, -2000.0);
03:39:44:311;03:39:44:275;1448290543.92;(0.3367678165435791, 0.8870262887742785);18.4623908997;0.855655297959;0;0;0;0;0;0;0;0;0;();(-2000.0, -2000.0);
03:39:44:329;03:39:44:275;1448290543.92;(0.3367678165435791, 0.8870262887742785);18.4623908997;0.855655297959;0;0;0;0;0;0;0;0;0;();(-2000.0, -2000.0);
03:39:44:362;03:39:44:333;1448290543.99;(0, 0);0;0;0;0;0;0;0;0;0;0;0;();(-2000.0, -2000.0);
03:39:44:378;03:39:44:333;1448290543.99;(0, 0);0;0;0;0;0;0;0;0;0;0;0;();(-2000.0, -2000.0);
03:39:44:395;03:39:44:333;1448290543.99;(0, 0);0;0;0;0;0;0;0;0;0;0;0;();(-2000.0, -2000.0);
03:39:44:412;03:39:44:401;1448290544.06;(0, 0);0;0;0;0;0;0;0;0;0;0;0;();(-2000.0, -2000.0);
03:39:44:428;03:39:44:401;1448290544.06;(0, 0);0;0;0;0;0;0;0;0;0;0;0;();(-2000.0, -2000.0);
03:39:44:462;03:39:44:401;1448290544.06;(0, 0);0;0;0;0;0;0;0;0;0;0;0;();(-2000.0, -2000.0);
03:39:44:478;03:39:44:465;1448290544.12;(0.6166314125061035, 0.7690304226345486);73.4324645996;0.93785062857;0;0;0;0;0;0;0;0;0;();(-2000.0, -2000.0);
03:39:44:495;03:39:44:465;1448290544.12;(0.6166314125061035, 0.7690304226345486);73.4324645996;0.93785062857;0;0;0;0;0;0;0;0;0;();(-2000.0, -2000.0);
03:39:44:511;03:39:44:465;1448290544.12;(0.6166314125061035, 0.7690304226345486);73.4324645996;0.93785062857;0;0;0;0;0;0;0;0;0;();(-2000.0, -2000.0);
03:39:44:528;03:39:44:465;1448290544.12;(0.6166314125061035, 0.7690304226345486);73.4324645996;0.93785062857;0;0;0;0;0;0;0;0;0;();(-2000.0, -2000.0);
03:39:44:562;03:39:44:532;1448290544.19;(0, 0);0;0;0;0;0;0;0;0;0;0;0;();(-2000.0, -2000.0);
03:39:44:578;03:39:44:532;1448290544.19;(0, 0);0;0;0;0;0;0;0;0;0;0;0;();(-2000.0, -2000.0);
03:39:44:596;03:39:44:532;1448290544.19;(0, 0);0;0;0;0;0;0;0;0;0;0;0;();(-2000.0, -2000.0);
03:39:44:612;03:39:44:601;1448290544.26;(0.6221498012542724, 0.769835090637207);72.6110610962;0.639101895657;0;0;0;0;0;0;0;0;0;();(-2000.0, -2000.0);
03:39:44:629;03:39:44:601;1448290544.26;(0.6221498012542724, 0.769835090637207);72.6110610962;0.639101895657;0;0;0;0;0;0;0;0;0;();(-2000.0, -2000.0);
03:39:44:662;03:39:44:601;1448290544.26;(0.6221498012542724, 0.769835090637207);72.6110610962;0.639101895657;0;0;0;0;0;0;0;0;0;();(-2000.0, -2000.0);
03:39:44:679;03:39:44:663;1448290544.29;(0, 0);0;0;0;0;0;0;0;0;0;0;0;();(-2000.0, -2000.0);
03:39:44:695;03:39:44:663;1448290544.29;(0, 0);0;0;0;0;0;0;0;0;0;0;0;();(-2000.0, -2000.0);
03:39:44:712;03:39:44:663;1448290544.29;(0, 0);0;0;0;0;0;0;0;0;0;0;0;();(-2000.0, -2000.0);
03:39:44:729;03:39:44:663;1448290544.29;(0, 0);0;0;0;0;0;0;0;0;0;0;0;();(-2000.0, -2000.0);
03:39:44:761;03:39:44:752;1448290544.39;(0.5822717666625976, 0.8884303516811795);71.4564743042;0.702322426649;0;0;0;0;0;0;0;0;0;();(-2000.0, -2000.0);
03:39:44:779;03:39:44:752;1448290544.39;(0.5822717666625976, 0.8884303516811795);71.4564743042;0.702322426649;0;0;0;0;0;0;0;0;0;();(-2000.0, -2000.0);
03:39:44:796;03:39:44:752;1448290544.39;(0.5822717666625976, 0.8884303516811795);71.4564743042;0.702322426649;0;0;0;0;0;0;0;0;0;();(-2000.0, -2000.0);
03:39:44:812;03:39:44:797;1448290544.46;(0.5837347507476807, 0.8770212597317166);75.2923202515;0.726404354155;0;0;0;0;0;0;0;0;0;();(-2000.0, -2000.0);
03:39:44:828;03:39:44:797;1448290544.46;(0.5837347507476807, 0.8770212597317166);75.2923202515;0.726404354155;0;0;0;0;0;0;0;0;0;();(-2000.0, -2000.0);
03:39:44:862;03:39:44:797;1448290544.46;(0.5837347507476807, 0.8770212597317166);75.2923202515;0.726404354155;0;0;0;0;0;0;0;0;0;();(-2000.0, -2000.0);
03:39:44:878;03:39:44:866;1448290544.52;(0, 0);0;0;0;0;0;0;0;0;0;0;0;();(-2000.0, -2000.0);
03:39:44:896;03:39:44:866;1448290544.52;(0, 0);0;0;0;0;0;0;0;0;0;0;0;();(-2000.0, -2000.0);
03:39:44:912;03:39:44:866;1448290544.52;(0, 0);0;0;0;0;0;0;0;0;0;0;0;();(-2000.0, -2000.0);
03:39:44:929;03:39:44:866;1448290544.52;(0, 0);0;0;0;0;0;0;0;0;0;0;0;();(-2000.0, -2000.0);
03:39:44:962;03:39:44:933;1448290544.59;(0.34385337829589846, 0.9076898998684353);27.3412189484;0.602027147033;0;0;0;0;0;0;0;0;0;();(-2000.0, -2000.0);
03:39:44:979;03:39:44:933;1448290544.59;(0.34385337829589846, 0.9076898998684353);27.3412189484;0.602027147033;0;0;0;0;0;0;0;0;0;();(-2000.0, -2000.0);
03:39:44:995;03:39:44:933;1448290544.59;(0.34385337829589846, 0.9076898998684353);27.3412189484;0.602027147033;0;0;0;0;0;0;0;0;0;();(-2000.0, -2000.0);
03:39:45:012;03:39:44:999;1448290544.66;(0.9271879196166992, 0.4491228739420573);23.3034114838;0.623443190059;0;0;0;0;0;0;0;0;0;();(-2000.0, -2000.0);
03:39:45:029;03:39:44:999;1448290544.66;(0.9271879196166992, 0.4491228739420573);23.3034114838;0.623443190059;0;0;0;0;0;0;0;0;0;();(-2000.0, -2000.0);
03:39:45:062;03:39:44:999;1448290544.66;(0.9271879196166992, 0.4491228739420573);23.3034114838;0.623443190059;0;0;0;0;0;0;0;0;0;();(-2000.0, -2000.0);
03:39:45:078;03:39:45:065;1448290544.72;(0, 0);0;0;0;0;0;0;0;0;0;0;0;();(-2000.0, -2000.0);
03:39:45:095;03:39:45:065;1448290544.72;(0, 0);0;0;0;0;0;0;0;0;0;0;0;();(-2000.0, -2000.0);
03:39:45:112;03:39:45:065;1448290544.72;(0, 0);0;0;0;0;0;0;0;0;0;0;0;();(-2000.0, -2000.0);
03:39:45:129;03:39:45:065;1448290544.72;(0, 0);0;0;0;0;0;0;0;0;0;0;0;();(-2000.0, -2000.0);
03:39:45:146;03:39:45:128;1448290544.76;(0, 0);0;0;0;0;0;0;0;0;0;0;0;();(-2000.0, -2000.0);
03:39:45:179;03:39:45:128;1448290544.76;(0, 0);0;0;0;0;0;0;0;0;0;0;0;();(-2000.0, -2000.0);
03:39:45:196;03:39:45:128;1448290544.76;(0, 0);0;0;0;0;0;0;0;0;0;0;0;();(-2000.0, -2000.0);
03:39:45:212;03:39:45:201;1448290544.86;(0.6129034042358399, 0.8656971401638455);75.1682662964;0.81557187516;0;0;0;0;0;0;0;0;0;();(-2000.0, -2000.0);
03:39:45:228;03:39:45:201;1448290544.86;(0.6129034042358399, 0.8656971401638455);75.1682662964;0.81557187516;0;0;0;0;0;0;0;0;0;();(-2000.0, -2000.0);
03:39:45:246;03:39:45:201;1448290544.86;(0.6129034042358399, 0.8656971401638455);75.1682662964;0.81557187516;0;0;0;0;0;0;0;0;0;();(-2000.0, -2000.0);
03:39:45:279;03:39:45:264;1448290544.92;(0.6030331611633301, 0.8579654057820638);79.2921905518;0.751143805437;0;0;0;0;0;0;0;0;0;();(-2000.0, -2000.0);
03:39:45:296;03:39:45:264;1448290544.92;(0.6030331611633301, 0.8579654057820638);79.2921905518;0.751143805437;0;0;0;0;0;0;0;0;0;();(-2000.0, -2000.0);
03:39:45:313;03:39:45:264;1448290544.92;(0.6030331611633301, 0.8579654057820638);79.2921905518;0.751143805437;0;0;0;0;0;0;0;0;0;();(-2000.0, -2000.0);
03:39:45:329;03:39:45:264;1448290544.92;(0.6030331611633301, 0.8579654057820638);79.2921905518;0.751143805437;0;0;0;0;0;0;0;0;0;();(-2000.0, -2000.0);
03:39:45:346;03:39:45:332;1448290544.99;(0, 0);0;0;0;0;0;0;0;0;0;0;0;();(-2000.0, -2000.0);
03:39:45:379;03:39:45:332;1448290544.99;(0, 0);0;0;0;0;0;0;0;0;0;0;0;();(-2000.0, -2000.0);
03:39:45:396;03:39:45:332;1448290544.99;(0, 0);0;0;0;0;0;0;0;0;0;0;0;();(-2000.0, -2000.0);
03:39:45:413;03:39:45:398;1448290545.06;(0.5854760646820069, 0.825058110555013);75.4274597168;0.926573635467;0;0;0;0;0;0;0;0;0;();(-2000.0, -2000.0);
03:39:45:429;03:39:45:398;1448290545.06;(0.5854760646820069, 0.825058110555013);75.4274597168;0.926573635467;0;0;0;0;0;0;0;0;0;();(-2000.0, -2000.0);
03:39:45:446;03:39:45:398;1448290545.06;(0.5854760646820069, 0.825058110555013);75.4274597168;0.926573635467;0;0;0;0;0;0;0;0;0;();(-2000.0, -2000.0);
03:39:45:480;03:39:45:461;1448290545.12;(0.5877588748931885, 0.8197513262430827);77.230682373;0.828186566244;0;0;0;0;0;0;0;0;0;();(-2000.0, -2000.0);
03:39:45:496;03:39:45:461;1448290545.12;(0.5877588748931885, 0.8197513262430827);77.230682373;0.828186566244;0;0;0;0;0;0;0;0;0;();(-2000.0, -2000.0);
03:39:45:512;03:39:45:461;1448290545.12;(0.5877588748931885, 0.8197513262430827);77.230682373;0.828186566244;0;0;0;0;0;0;0;0;0;();(-2000.0, -2000.0);
03:39:45:530;03:39:45:461;1448290545.12;(0.5877588748931885, 0.8197513262430827);77.230682373;0.828186566244;0;0;0;0;0;0;0;0;0;();(-2000.0, -2000.0);
03:39:45:546;03:39:45:528;1448290545.16;(0.5907747745513916, 0.8248727162679037);77.8676986694;0.720828298099;0;0;0;0;0;0;0;0;0;();(-2000.0, -2000.0);
03:39:45:579;03:39:45:528;1448290545.16;(0.5907747745513916, 0.8248727162679037);77.8676986694;0.720828298099;0;0;0;0;0;0;0;0;0;();(-2000.0, -2000.0);
03:39:45:596;03:39:45:528;1448290545.16;(0.5907747745513916, 0.8248727162679037);77.8676986694;0.720828298099;0;0;0;0;0;0;0;0;0;();(-2000.0, -2000.0);
03:39:45:612;03:39:45:600;1448290545.26;(0, 0);0;0;0;0;0;0;0;0;0;0;0;();(-2000.0, -2000.0);
03:39:45:629;03:39:45:600;1448290545.26;(0, 0);0;0;0;0;0;0;0;0;0;0;0;();(-2000.0, -2000.0);
03:39:45:646;03:39:45:600;1448290545.26;(0, 0);0;0;0;0;0;0;0;0;0;0;0;();(-2000.0, -2000.0);
03:39:45:680;03:39:45:659;1448290545.29;(0.6007169246673584, 0.8226550420125326);76.8213424683;0.607204525168;0;0;0;0;0;0;0;0;0;();(-2000.0, -2000.0);
03:39:45:696;03:39:45:659;1448290545.29;(0.6007169246673584, 0.8226550420125326);76.8213424683;0.607204525168;0;0;0;0;0;0;0;0;0;();(-2000.0, -2000.0);
03:39:45:713;03:39:45:659;1448290545.29;(0.6007169246673584, 0.8226550420125326);76.8213424683;0.607204525168;0;0;0;0;0;0;0;0;0;();(-2000.0, -2000.0);
03:39:45:730;03:39:45:727;1448290545.32;(0.602386474609375, 0.8222299575805664);76.136390686;0.897928860765;0;0;0;0;0;0;0;0;0;();(-2000.0, -2000.0);
03:39:45:746;03:39:45:728;1448290545.36;(0, 0);0;0;0;0;0;0;0;0;0;0;0;();(-2000.0, -2000.0);
03:39:45:779;03:39:45:728;1448290545.36;(0, 0);0;0;0;0;0;0;0;0;0;0;0;();(-2000.0, -2000.0);
03:39:45:796;03:39:45:793;1448290545.46;(0.66658616065979, 0.7883342742919922);73.8262252808;0.864281171629;0;0;0;0;0;0;0;0;0;();(-2000.0, -2000.0);
03:39:45:812;03:39:45:793;1448290545.46;(0.66658616065979, 0.7883342742919922);73.8262252808;0.864281171629;0;0;0;0;0;0;0;0;0;();(-2000.0, -2000.0);
03:39:45:830;03:39:45:793;1448290545.46;(0.66658616065979, 0.7883342742919922);73.8262252808;0.864281171629;0;0;0;0;0;0;0;0;0;();(-2000.0, -2000.0);
03:39:45:846;03:39:45:793;1448290545.46;(0.66658616065979, 0.7883342742919922);73.8262252808;0.864281171629;0;0;0;0;0;0;0;0;0;();(-2000.0, -2000.0);
03:39:45:880;03:39:45:860;1448290545.52;(0.6685891151428223, 0.7900149663289389);73.0922775269;0.691536666013;0;0;0;0;0;0;0;0;0;();(-2000.0, -2000.0);
03:39:45:896;03:39:45:860;1448290545.52;(0.6685891151428223, 0.7900149663289389);73.0922775269;0.691536666013;0;0;0;0;0;0;0;0;0;();(-2000.0, -2000.0);
03:39:45:913;03:39:45:860;1448290545.52;(0.6685891151428223, 0.7900149663289389);73.0922775269;0.691536666013;0;0;0;0;0;0;0;0;0;();(-2000.0, -2000.0);
03:39:45:929;03:39:45:860;1448290545.52;(0.6685891151428223, 0.7900149663289389);73.0922775269;0.691536666013;0;0;0;0;0;0;0;0;0;();(-2000.0, -2000.0);
03:39:45:946;03:39:45:932;1448290545.59;(0.6678160667419434, 0.79150267706977);71.9128417969;0.936787041118;0;0;0;0;0;0;0;0;0;();(-2000.0, -2000.0);
03:39:45:980;03:39:45:932;1448290545.59;(0.6678160667419434, 0.79150267706977);71.9128417969;0.936787041118;0;0;0;0;0;0;0;0;0;();(-2000.0, -2000.0);
03:39:45:996;03:39:45:991;1448290545.62;(0, 0);0;0;0;0;0;0;0;0;0;0;0;();(-2000.0, -2000.0);
03:39:46:013;03:39:45:991;1448290545.62;(0, 0);0;0;0;0;0;0;0;0;0;0;0;();(-2000.0, -2000.0);
03:39:46:029;03:39:45:991;1448290545.62;(0, 0);0;0;0;0;0;0;0;0;0;0;0;();(-2000.0, -2000.0);
03:39:46:047;03:39:45:991;1448290545.62;(0, 0);0;0;0;0;0;0;0;0;0;0;0;();(-2000.0, -2000.0);
03:39:46:080;03:39:46:062;1448290545.72;(0.6707756996154786, 0.7898096508449979);73.3451156616;0.884375340738;0;0;0;0;0;0;0;0;0;();(-2000.0, -2000.0);
03:39:46:096;03:39:46:062;1448290545.72;(0.6707756996154786, 0.7898096508449979);73.3451156616;0.884375340738;0;0;0;0;0;0;0;0;0;();(-2000.0, -2000.0);
03:39:46:113;03:39:46:062;1448290545.72;(0.6707756996154786, 0.7898096508449979);73.3451156616;0.884375340738;0;0;0;0;0;0;0;0;0;();(-2000.0, -2000.0);
03:39:46:129;03:39:46:124;1448290545.79;(0.6705222606658936, 0.7891977734035915);72.5027542114;0.952973973556;0;0;0;0;0;0;0;0;0;();(-2000.0, -2000.0);
03:39:46:146;03:39:46:124;1448290545.79;(0.6705222606658936, 0.7891977734035915);72.5027542114;0.952973973556;0;0;0;0;0;0;0;0;0;();(-2000.0, -2000.0);
03:39:46:180;03:39:46:124;1448290545.79;(0.6705222606658936, 0.7891977734035915);72.5027542114;0.952973973556;0;0;0;0;0;0;0;0;0;();(-2000.0, -2000.0);
03:39:46:196;03:39:46:192;1448290545.86;(0.6716833591461182, 0.7898465898301866);73.1058044434;0.847671936109;0;0;0;0;0;0;0;0;0;();(-2000.0, -2000.0);
03:39:46:214;03:39:46:192;1448290545.86;(0.6716833591461182, 0.7898465898301866);73.1058044434;0.847671936109;0;0;0;0;0;0;0;0;0;();(-2000.0, -2000.0);
03:39:46:230;03:39:46:192;1448290545.86;(0.6716833591461182, 0.7898465898301866);73.1058044434;0.847671936109;0;0;0;0;0;0;0;0;0;();(-2000.0, -2000.0);
03:39:46:247;03:39:46:192;1448290545.86;(0.6716833591461182, 0.7898465898301866);73.1058044434;0.847671936109;0;0;0;0;0;0;0;0;0;();(-2000.0, -2000.0);
03:39:46:280;03:39:46:260;1448290545.92;(0, 0);0;0;0;0;0;0;0;0;0;0;0;();(-2000.0, -2000.0);
03:39:46:296;03:39:46:260;1448290545.92;(0, 0);0;0;0;0;0;0;0;0;0;0;0;();(-2000.0, -2000.0);
03:39:46:313;03:39:46:260;1448290545.92;(0, 0);0;0;0;0;0;0;0;0;0;0;0;();(-2000.0, -2000.0);
03:39:46:330;03:39:46:323;1448290545.96;(0, 0);0;0;0;0;0;0;0;0;0;0;0;();(-2000.0, -2000.0);
03:39:46:347;03:39:46:323;1448290545.96;(0, 0);0;0;0;0;0;0;0;0;0;0;0;();(-2000.0, -2000.0);
03:39:46:380;03:39:46:323;1448290545.96;(0, 0);0;0;0;0;0;0;0;0;0;0;0;();(-2000.0, -2000.0);
03:39:46:396;03:39:46:393;1448290546.06;(0.6222429275512695, 0.7908494737413194);75.1628570557;0.839272789279;0;0;0;0;0;0;0;0;0;();(-2000.0, -2000.0);
03:39:46:413;03:39:46:393;1448290546.06;(0.6222429275512695, 0.7908494737413194);75.1628570557;0.839272789279;0;0;0;0;0;0;0;0;0;();(-2000.0, -2000.0);
03:39:46:429;03:39:46:393;1448290546.06;(0.6222429275512695, 0.7908494737413194);75.1628570557;0.839272789279;0;0;0;0;0;0;0;0;0;();(-2000.0, -2000.0);
03:39:46:447;03:39:46:393;1448290546.06;(0.6222429275512695, 0.7908494737413194);75.1628570557;0.839272789279;0;0;0;0;0;0;0;0;0;();(-2000.0, -2000.0);
03:39:46:480;03:39:46:457;1448290546.09;(0.3316521167755127, 0.902919758690728);20.3076858521;0.6829444471;0;0;0;0;0;0;0;0;0;();(-2000.0, -2000.0);
03:39:46:497;03:39:46:457;1448290546.09;(0.3316521167755127, 0.902919758690728);20.3076858521;0.6829444471;0;0;0;0;0;0;0;0;0;();(-2000.0, -2000.0);
03:39:46:514;03:39:46:457;1448290546.09;(0.3316521167755127, 0.902919758690728);20.3076858521;0.6829444471;0;0;0;0;0;0;0;0;0;();(-2000.0, -2000.0);
03:39:46:530;03:39:46:525;1448290546.16;(0.6249343872070312, 0.7868723763359917);74.8864898682;0.880481321601;0;0;0;0;0;0;0;0;0;();(-2000.0, -2000.0);
03:39:46:547;03:39:46:525;1448290546.16;(0.6249343872070312, 0.7868723763359917);74.8864898682;0.880481321601;0;0;0;0;0;0;0;0;0;();(-2000.0, -2000.0);
03:39:46:580;03:39:46:525;1448290546.16;(0.6249343872070312, 0.7868723763359917);74.8864898682;0.880481321601;0;0;0;0;0;0;0;0;0;();(-2000.0, -2000.0);
03:39:46:597;03:39:46:594;1448290546.22;(0.625651502609253, 0.7874308268229167);74.2659072876;0.691278216271;0;0;0;0;0;0;0;0;0;();(-2000.0, -2000.0);
03:39:46:614;03:39:46:594;1448290546.22;(0.625651502609253, 0.7874308268229167);74.2659072876;0.691278216271;0;0;0;0;0;0;0;0;0;();(-2000.0, -2000.0);
03:39:46:630;03:39:46:594;1448290546.22;(0.625651502609253, 0.7874308268229167);74.2659072876;0.691278216271;0;0;0;0;0;0;0;0;0;();(-2000.0, -2000.0);
03:39:46:646;03:39:46:594;1448290546.22;(0.625651502609253, 0.7874308268229167);74.2659072876;0.691278216271;0;0;0;0;0;0;0;0;0;();(-2000.0, -2000.0);
03:39:46:680;03:39:46:660;1448290546.32;(0.36164968013763427, 0.9035952091217041);23.7860717773;0.685384324798;0;0;0;0;0;0;0;0;0;();(-2000.0, -2000.0);
03:39:46:697;03:39:46:660;1448290546.32;(0.36164968013763427, 0.9035952091217041);23.7860717773;0.685384324798;0;0;0;0;0;0;0;0;0;();(-2000.0, -2000.0);
03:39:46:714;03:39:46:660;1448290546.32;(0.36164968013763427, 0.9035952091217041);23.7860717773;0.685384324798;0;0;0;0;0;0;0;0;0;();(-2000.0, -2000.0);
03:39:46:730;03:39:46:725;1448290546.39;(0, 0);0;0;0;0;0;0;0;0;0;0;0;();(-2000.0, -2000.0);
03:39:46:747;03:39:46:725;1448290546.39;(0, 0);0;0;0;0;0;0;0;0;0;0;0;();(-2000.0, -2000.0);
03:39:46:781;03:39:46:725;1448290546.39;(0, 0);0;0;0;0;0;0;0;0;0;0;0;();(-2000.0, -2000.0);
03:39:46:797;03:39:46:789;1448290546.46;(0.6005216121673584, 0.8021847195095486);72.7867050171;0.65723221021;0;0;0;0;0;0;0;0;0;();(-2000.0, -2000.0);
03:39:46:814;03:39:46:789;1448290546.46;(0.6005216121673584, 0.8021847195095486);72.7867050171;0.65723221021;0;0;0;0;0;0;0;0;0;();(-2000.0, -2000.0);
03:39:46:831;03:39:46:789;1448290546.46;(0.6005216121673584, 0.8021847195095486);72.7867050171;0.65723221021;0;0;0;0;0;0;0;0;0;();(-2000.0, -2000.0);
03:39:46:847;03:39:46:789;1448290546.46;(0.6005216121673584, 0.8021847195095486);72.7867050171;0.65723221021;0;0;0;0;0;0;0;0;0;();(-2000.0, -2000.0);
03:39:46:880;03:39:46:857;1448290546.52;(0, 0);0;0;0;0;0;0;0;0;0;0;0;();(-2000.0, -2000.0);
03:39:46:897;03:39:46:857;1448290546.52;(0, 0);0;0;0;0;0;0;0;0;0;0;0;();(-2000.0, -2000.0);
03:39:46:914;03:39:46:857;1448290546.52;(0, 0);0;0;0;0;0;0;0;0;0;0;0;();(-2000.0, -2000.0);
03:39:46:931;03:39:46:923;1448290546.56;(0.3168658256530762, 0.6940154393513998);20.5893726349;0.658671980245;0;0;0;0;0;0;0;0;0;();(-2000.0, -2000.0);
03:39:46:947;03:39:46:923;1448290546.56;(0.3168658256530762, 0.6940154393513998);20.5893726349;0.658671980245;0;0;0;0;0;0;0;0;0;();(-2000.0, -2000.0);
03:39:46:980;03:39:46:923;1448290546.56;(0.3168658256530762, 0.6940154393513998);20.5893726349;0.658671980245;0;0;0;0;0;0;0;0;0;();(-2000.0, -2000.0);
03:39:46:997;03:39:46:923;1448290546.56;(0.3168658256530762, 0.6940154393513998);20.5893726349;0.658671980245;0;0;0;0;0;0;0;0;0;();(-2000.0, -2000.0);
03:39:47:014;03:39:47:004;1448290546.62;(0.6187761783599853, 0.8049938095940484);73.6540374756;0.864429473804;0;0;0;0;0;0;0;0;0;();(-2000.0, -2000.0);
03:39:47:031;03:39:47:004;1448290546.62;(0.6187761783599853, 0.8049938095940484);73.6540374756;0.864429473804;0;0;0;0;0;0;0;0;0;();(-2000.0, -2000.0);
03:39:47:047;03:39:47:004;1448290546.62;(0.6187761783599853, 0.8049938095940484);73.6540374756;0.864429473804;0;0;0;0;0;0;0;0;0;();(-2000.0, -2000.0);
03:39:47:081;03:39:47:058;1448290546.72;(0, 0);0;0;0;0;0;0;0;0;0;0;0;();(-2000.0, -2000.0);
03:39:47:097;03:39:47:058;1448290546.72;(0, 0);0;0;0;0;0;0;0;0;0;0;0;();(-2000.0, -2000.0);
03:39:47:114;03:39:47:058;1448290546.72;(0, 0);0;0;0;0;0;0;0;0;0;0;0;();(-2000.0, -2000.0);
03:39:47:131;03:39:47:121;1448290546.79;(0.622172212600708, 0.8015884081522624);76.1921768188;0.843289468891;0;0;0;0;0;0;0;0;0;();(-2000.0, -2000.0);
03:39:47:147;03:39:47:121;1448290546.79;(0.622172212600708, 0.8015884081522624);76.1921768188;0.843289468891;0;0;0;0;0;0;0;0;0;();(-2000.0, -2000.0);
03:39:47:180;03:39:47:121;1448290546.79;(0.622172212600708, 0.8015884081522624);76.1921768188;0.843289468891;0;0;0;0;0;0;0;0;0;();(-2000.0, -2000.0);
03:39:47:198;03:39:47:187;1448290546.82;(0.6242780685424805, 0.8025369856092666);76.8716964722;0.839987559204;0;0;0;0;0;0;0;0;0;();(-2000.0, -2000.0);
03:39:47:214;03:39:47:187;1448290546.82;(0.6242780685424805, 0.8025369856092666);76.8716964722;0.839987559204;0;0;0;0;0;0;0;0;0;();(-2000.0, -2000.0);
03:39:47:231;03:39:47:187;1448290546.82;(0.6242780685424805, 0.8025369856092666);76.8716964722;0.839987559204;0;0;0;0;0;0;0;0;0;();(-2000.0, -2000.0);
03:39:47:247;03:39:47:187;1448290546.82;(0.6242780685424805, 0.8025369856092666);76.8716964722;0.839987559204;0;0;0;0;0;0;0;0;0;();(-2000.0, -2000.0);
03:39:47:281;03:39:47:255;1448290546.92;(0.625243854522705, 0.8019332885742188);77.1521148682;0.883803977196;0;0;0;0;0;0;0;0;0;();(-2000.0, -2000.0);
03:39:47:297;03:39:47:255;1448290546.92;(0.625243854522705, 0.8019332885742188);77.1521148682;0.883803977196;0;0;0;0;0;0;0;0;0;();(-2000.0, -2000.0);
03:39:47:315;03:39:47:255;1448290546.92;(0.625243854522705, 0.8019332885742188);77.1521148682;0.883803977196;0;0;0;0;0;0;0;0;0;();(-2000.0, -2000.0);
03:39:47:330;03:39:47:319;1448290546.96;(0.6107061862945556, 0.8088211801317002);77.8952789307;1.0;0;0;0;0;0;0;0;0;0;();(-2000.0, -2000.0);
03:39:47:348;03:39:47:319;1448290546.96;(0.6107061862945556, 0.8088211801317002);77.8952789307;1.0;0;0;0;0;0;0;0;0;0;();(-2000.0, -2000.0);
03:39:47:381;03:39:47:319;1448290546.96;(0.6107061862945556, 0.8088211801317002);77.8952789307;1.0;0;0;0;0;0;0;0;0;0;();(-2000.0, -2000.0);
03:39:47:397;03:39:47:389;1448290547.06;(0.6105376243591308, 0.8095152113172743);78.9033432007;0.902141341728;0;0;0;0;0;0;0;0;0;();(-2000.0, -2000.0);
03:39:47:413;03:39:47:389;1448290547.06;(0.6105376243591308, 0.8095152113172743);78.9033432007;0.902141341728;0;0;0;0;0;0;0;0;0;();(-2000.0, -2000.0);
03:39:47:430;03:39:47:389;1448290547.06;(0.6105376243591308, 0.8095152113172743);78.9033432007;0.902141341728;0;0;0;0;0;0;0;0;0;();(-2000.0, -2000.0);
03:39:47:448;03:39:47:389;1448290547.06;(0.6105376243591308, 0.8095152113172743);78.9033432007;0.902141341728;0;0;0;0;0;0;0;0;0;();(-2000.0, -2000.0);
03:39:47:481;03:39:47:455;1448290547.09;(0.6126138687133789, 0.8116896735297309);80.4917831421;0.833495484494;0;0;0;0;0;0;0;0;0;();(-2000.0, -2000.0);
03:39:47:497;03:39:47:455;1448290547.09;(0.6126138687133789, 0.8116896735297309);80.4917831421;0.833495484494;0;0;0;0;0;0;0;0;0;();(-2000.0, -2000.0);
03:39:47:514;03:39:47:455;1448290547.09;(0.6126138687133789, 0.8116896735297309);80.4917831421;0.833495484494;0;0;0;0;0;0;0;0;0;();(-2000.0, -2000.0);
03:39:47:531;03:39:47:521;1448290547.16;(0.6132795333862304, 0.8109772788153754);80.8600311279;0.869129803166;0;0;0;0;0;0;0;0;0;();(-2000.0, -2000.0);
03:39:47:547;03:39:47:521;1448290547.16;(0.6132795333862304, 0.8109772788153754);80.8600311279;0.869129803166;0;0;0;0;0;0;0;0;0;();(-2000.0, -2000.0);
03:39:47:580;03:39:47:521;1448290547.16;(0.6132795333862304, 0.8109772788153754);80.8600311279;0.869129803166;0;0;0;0;0;0;0;0;0;();(-2000.0, -2000.0);
03:39:47:598;03:39:47:584;1448290547.22;(0, 0);0;0;0;0;0;0;0;0;0;0;0;();(-2000.0, -2000.0);
03:39:47:614;03:39:47:584;1448290547.22;(0, 0);0;0;0;0;0;0;0;0;0;0;0;();(-2000.0, -2000.0);
03:39:47:630;03:39:47:584;1448290547.22;(0, 0);0;0;0;0;0;0;0;0;0;0;0;();(-2000.0, -2000.0);
03:39:47:647;03:39:47:584;1448290547.22;(0, 0);0;0;0;0;0;0;0;0;0;0;0;();(-2000.0, -2000.0);
03:39:47:681;03:39:47:652;1448290547.29;(0.6159374237060546, 0.8091771549648709);79.356880188;0.916278912649;0;0;0;0;0;0;0;0;0;();(-2000.0, -2000.0);
03:39:47:696;03:39:47:652;1448290547.29;(0.6159374237060546, 0.8091771549648709);79.356880188;0.916278912649;0;0;0;0;0;0;0;0;0;();(-2000.0, -2000.0);
03:39:47:715;03:39:47:652;1448290547.29;(0.6159374237060546, 0.8091771549648709);79.356880188;0.916278912649;0;0;0;0;0;0;0;0;0;();(-2000.0, -2000.0);
03:39:47:731;03:39:47:722;1448290547.39;(0.6172445774078369, 0.8091597027248807);78.589553833;0.875739958558;0;0;0;0;0;0;0;0;0;();(-2000.0, -2000.0);
03:39:47:747;03:39:47:722;1448290547.39;(0.6172445774078369, 0.8091597027248807);78.589553833;0.875739958558;0;0;0;0;0;0;0;0;0;();(-2000.0, -2000.0);
03:39:47:781;03:39:47:722;1448290547.39;(0.6172445774078369, 0.8091597027248807);78.589553833;0.875739958558;0;0;0;0;0;0;0;0;0;();(-2000.0, -2000.0);
03:39:47:798;03:39:47:783;1448290547.42;(0, 0);0;0;0;0;0;0;0;0;0;0;0;();(-2000.0, -2000.0);
03:39:47:815;03:39:47:783;1448290547.42;(0, 0);0;0;0;0;0;0;0;0;0;0;0;();(-2000.0, -2000.0);
03:39:47:831;03:39:47:783;1448290547.42;(0, 0);0;0;0;0;0;0;0;0;0;0;0;();(-2000.0, -2000.0);
03:39:47:851;03:39:47:783;1448290547.42;(0, 0);0;0;0;0;0;0;0;0;0;0;0;();(-2000.0, -2000.0);
03:39:47:883;03:39:47:857;1448290547.49;(0.6482982158660888, 0.79077025519477);77.6229934692;0.808458308989;0;0;0;0;0;0;0;0;0;();(-2000.0, -2000.0);
03:39:47:900;03:39:47:857;1448290547.49;(0.6482982158660888, 0.79077025519477);77.6229934692;0.808458308989;0;0;0;0;0;0;0;0;0;();(-2000.0, -2000.0);
03:39:47:917;03:39:47:857;1448290547.49;(0.6482982158660888, 0.79077025519477);77.6229934692;0.808458308989;0;0;0;0;0;0;0;0;0;();(-2000.0, -2000.0);
03:39:47:931;03:39:47:925;1448290547.59;(0.6511980533599854, 0.7948318481445312);78.6737060547;0.849638790927;0;0;0;0;0;0;0;0;0;();(-2000.0, -2000.0);
03:39:47:948;03:39:47:925;1448290547.59;(0.6511980533599854, 0.7948318481445312);78.6737060547;0.849638790927;0;0;0;0;0;0;0;0;0;();(-2000.0, -2000.0);
03:39:47:981;03:39:47:925;1448290547.59;(0.6511980533599854, 0.7948318481445312);78.6737060547;0.849638790927;0;0;0;0;0;0;0;0;0;();(-2000.0, -2000.0);
03:39:47:998;03:39:47:983;1448290547.62;(0, 0);0;0;0;0;0;0;0;0;0;0;0;();(-2000.0, -2000.0);
03:39:48:014;03:39:47:983;1448290547.62;(0, 0);0;0;0;0;0;0;0;0;0;0;0;();(-2000.0, -2000.0);
03:39:48:032;03:39:47:983;1448290547.62;(0, 0);0;0;0;0;0;0;0;0;0;0;0;();(-2000.0, -2000.0);
03:39:48:048;03:39:47:983;1448290547.62;(0, 0);0;0;0;0;0;0;0;0;0;0;0;();(-2000.0, -2000.0);
03:39:48:083;03:39:48:054;1448290547.69;(0.6543174743652344, 0.7957359949747721);78.2991256714;0.836952487936;0;0;0;0;0;0;0;0;0;();(-2000.0, -2000.0);
03:39:48:100;03:39:48:054;1448290547.69;(0.6543174743652344, 0.7957359949747721);78.2991256714;0.836952487936;0;0;0;0;0;0;0;0;0;();(-2000.0, -2000.0);
03:39:48:117;03:39:48:054;1448290547.69;(0.6543174743652344, 0.7957359949747721);78.2991256714;0.836952487936;0;0;0;0;0;0;0;0;0;();(-2000.0, -2000.0);
03:39:48:134;03:39:48:124;1448290547.76;(0.6543579578399659, 0.7966738065083822);79.9091949463;0.973564675344;0;0;0;0;0;0;0;0;0;();(-2000.0, -2000.0);
03:39:48:151;03:39:48:124;1448290547.76;(0.6543579578399659, 0.7966738065083822);79.9091949463;0.973564675344;0;0;0;0;0;0;0;0;0;();(-2000.0, -2000.0);
03:39:48:182;03:39:48:124;1448290547.76;(0.6543579578399659, 0.7966738065083822);79.9091949463;0.973564675344;0;0;0;0;0;0;0;0;0;();(-2000.0, -2000.0);
03:39:48:201;03:39:48:187;1448290547.86;(0.6531885147094727, 0.7969303448994954);79.8267059326;0.966614808671;0;0;0;0;0;0;0;0;0;();(-2000.0, -2000.0);
03:39:48:218;03:39:48:187;1448290547.86;(0.6531885147094727, 0.7969303448994954);79.8267059326;0.966614808671;0;0;0;0;0;0;0;0;0;();(-2000.0, -2000.0);
03:39:48:232;03:39:48:187;1448290547.86;(0.6531885147094727, 0.7969303448994954);79.8267059326;0.966614808671;0;0;0;0;0;0;0;0;0;();(-2000.0, -2000.0);
03:39:48:249;03:39:48:187;1448290547.86;(0.6531885147094727, 0.7969303448994954);79.8267059326;0.966614808671;0;0;0;0;0;0;0;0;0;();(-2000.0, -2000.0);
03:39:48:282;03:39:48:249;1448290547.89;(0.6441104888916016, 0.7946109559800889);78.2288665771;0.785154644628;0;0;0;0;0;0;0;0;0;();(-2000.0, -2000.0);
03:39:48:301;03:39:48:249;1448290547.89;(0.6441104888916016, 0.7946109559800889);78.2288665771;0.785154644628;0;0;0;0;0;0;0;0;0;();(-2000.0, -2000.0);
03:39:48:315;03:39:48:249;1448290547.89;(0.6441104888916016, 0.7946109559800889);78.2288665771;0.785154644628;0;0;0;0;0;0;0;0;0;();(-2000.0, -2000.0);
03:39:48:332;03:39:48:323;1448290547.92;(0, 0);0;0;0;0;0;0;0;0;0;0;0;();(-2000.0, -2000.0);
03:39:48:348;03:39:48:323;1448290547.92;(0, 0);0;0;0;0;0;0;0;0;0;0;0;();(-2000.0, -2000.0);
03:39:48:382;03:39:48:323;1448290547.92;(0, 0);0;0;0;0;0;0;0;0;0;0;0;();(-2000.0, -2000.0);
03:39:48:399;03:39:48:385;1448290548.01;(0.3630162000656128, 0.6895718892415365);22.0752391815;0.740708974442;0;0;0;0;0;0;0;0;0;();(-2000.0, -2000.0);
03:39:48:415;03:39:48:385;1448290548.01;(0.3630162000656128, 0.6895718892415365);22.0752391815;0.740708974442;0;0;0;0;0;0;0;0;0;();(-2000.0, -2000.0);
03:39:48:431;03:39:48:385;1448290548.01;(0.3630162000656128, 0.6895718892415365);22.0752391815;0.740708974442;0;0;0;0;0;0;0;0;0;();(-2000.0, -2000.0);
03:39:48:449;03:39:48:385;1448290548.01;(0.3630162000656128, 0.6895718892415365);22.0752391815;0.740708974442;0;0;0;0;0;0;0;0;0;();(-2000.0, -2000.0);
03:39:48:482;03:39:48:455;1448290548.1;(0.6493692874908448, 0.7472911834716797);79.676902771;0.780266208972;0;0;0;0;0;0;0;0;0;();(-2000.0, -2000.0);
03:39:48:498;03:39:48:455;1448290548.1;(0.6493692874908448, 0.7472911834716797);79.676902771;0.780266208972;0;0;0;0;0;0;0;0;0;();(-2000.0, -2000.0);
03:39:48:515;03:39:48:455;1448290548.1;(0.6493692874908448, 0.7472911834716797);79.676902771;0.780266208972;0;0;0;0;0;0;0;0;0;();(-2000.0, -2000.0);
03:39:48:531;03:39:48:519;1448290548.16;(0.6499703884124756, 0.7460672802395291);81.2114868164;0.771977218019;0;0;0;0;0;0;0;0;0;();(-2000.0, -2000.0);
03:39:48:548;03:39:48:519;1448290548.16;(0.6499703884124756, 0.7460672802395291);81.2114868164;0.771977218019;0;0;0;0;0;0;0;0;0;();(-2000.0, -2000.0);
03:39:48:584;03:39:48:581;1448290548.22;(0.6512418746948242, 0.745602289835612);82.6846084595;0.889404276071;0;0;0;0;0;0;0;0;0;();(-2000.0, -2000.0);
03:39:48:599;03:39:48:581;1448290548.22;(0.6512418746948242, 0.745602289835612);82.6846084595;0.889404276071;0;0;0;0;0;0;0;0;0;();(-2000.0, -2000.0);
03:39:48:616;03:39:48:581;1448290548.22;(0.6512418746948242, 0.745602289835612);82.6846084595;0.889404276071;0;0;0;0;0;0;0;0;0;();(-2000.0, -2000.0);
03:39:48:632;03:39:48:581;1448290548.22;(0.6512418746948242, 0.745602289835612);82.6846084595;0.889404276071;0;0;0;0;0;0;0;0;0;();(-2000.0, -2000.0);
03:39:48:649;03:39:48:581;1448290548.22;(0.6512418746948242, 0.745602289835612);82.6846084595;0.889404276071;0;0;0;0;0;0;0;0;0;();(-2000.0, -2000.0);
03:39:48:682;03:39:48:652;1448290548.29;(0.6520419597625733, 0.74541318681505);82.358291626;0.832467943098;0;0;0;0;0;0;0;0;0;();(-2000.0, -2000.0);
03:39:48:698;03:39:48:652;1448290548.29;(0.6520419597625733, 0.74541318681505);82.358291626;0.832467943098;0;0;0;0;0;0;0;0;0;();(-2000.0, -2000.0);
03:39:48:715;03:39:48:652;1448290548.29;(0.6520419597625733, 0.74541318681505);82.358291626;0.832467943098;0;0;0;0;0;0;0;0;0;();(-2000.0, -2000.0);
03:39:48:731;03:39:48:718;1448290548.36;(0, 0);0;0;0;0;0;0;0;0;0;0;0;();(-2000.0, -2000.0);
03:39:48:749;03:39:48:718;1448290548.36;(0, 0);0;0;0;0;0;0;0;0;0;0;0;();(-2000.0, -2000.0);
03:39:48:782;03:39:48:779;1448290548.39;(0, 0);0;0;0;0;0;0;0;0;0;0;0;();(-2000.0, -2000.0);
03:39:48:799;03:39:48:780;1448290548.42;(0.5678277492523194, 0.7959115346272787);80.8612747192;0.900332292812;0;0;0;0;0;0;0;0;0;();(-2000.0, -2000.0);
03:39:48:816;03:39:48:780;1448290548.42;(0.5678277492523194, 0.7959115346272787);80.8612747192;0.900332292812;0;0;0;0;0;0;0;0;0;();(-2000.0, -2000.0);
03:39:48:832;03:39:48:780;1448290548.42;(0.5678277492523194, 0.7959115346272787);80.8612747192;0.900332292812;0;0;0;0;0;0;0;0;0;();(-2000.0, -2000.0);
03:39:48:849;03:39:48:780;1448290548.42;(0.5678277492523194, 0.7959115346272787);80.8612747192;0.900332292812;0;0;0;0;0;0;0;0;0;();(-2000.0, -2000.0);
03:39:48:882;03:39:48:851;1448290548.49;(0.5711829662322998, 0.7931553522745768);77.5467224121;0.742501225733;0;0;0;0;0;0;0;0;0;();(-2000.0, -2000.0);
03:39:48:899;03:39:48:851;1448290548.49;(0.5711829662322998, 0.7931553522745768);77.5467224121;0.742501225733;0;0;0;0;0;0;0;0;0;();(-2000.0, -2000.0);
03:39:48:915;03:39:48:851;1448290548.49;(0.5711829662322998, 0.7931553522745768);77.5467224121;0.742501225733;0;0;0;0;0;0;0;0;0;();(-2000.0, -2000.0);
03:39:48:933;03:39:48:928;1448290548.56;(0.5753016471862793, 0.7957942114935981);74.4278564453;0.8841054265;0;0;0;0;0;0;0;0;0;();(-2000.0, -2000.0);
03:39:48:949;03:39:48:928;1448290548.56;(0.5753016471862793, 0.7957942114935981);74.4278564453;0.8841054265;0;0;0;0;0;0;0;0;0;();(-2000.0, -2000.0);
03:39:48:981;03:39:48:928;1448290548.56;(0.5753016471862793, 0.7957942114935981);74.4278564453;0.8841054265;0;0;0;0;0;0;0;0;0;();(-2000.0, -2000.0);
03:39:48:998;03:39:48:985;1448290548.62;(0.5800845146179199, 0.7967052353752984);73.5988616943;0.91522452176;0;0;0;0;0;0;0;0;0;();(-2000.0, -2000.0);
03:39:49:015;03:39:48:985;1448290548.62;(0.5800845146179199, 0.7967052353752984);73.5988616943;0.91522452176;0;0;0;0;0;0;0;0;0;();(-2000.0, -2000.0);
03:39:49:032;03:39:48:985;1448290548.62;(0.5800845146179199, 0.7967052353752984);73.5988616943;0.91522452176;0;0;0;0;0;0;0;0;0;();(-2000.0, -2000.0);
03:39:49:048;03:39:48:985;1448290548.62;(0.5800845146179199, 0.7967052353752984);73.5988616943;0.91522452176;0;0;0;0;0;0;0;0;0;();(-2000.0, -2000.0);
03:39:49:082;03:39:49:051;1448290548.7;(0.5836605548858642, 0.7979259702894423);72.3787918091;0.855431023183;0;0;0;0;0;0;0;0;0;();(-2000.0, -2000.0);
03:39:49:098;03:39:49:051;1448290548.7;(0.5836605548858642, 0.7979259702894423);72.3787918091;0.855431023183;0;0;0;0;0;0;0;0;0;();(-2000.0, -2000.0);
03:39:49:115;03:39:49:112;1448290548.76;(0.5892778873443604, 0.794156879848904);71.2867965698;0.742180602647;0;0;0;0;0;0;0;0;0;();(-2000.0, -2000.0);
03:39:49:132;03:39:49:112;1448290548.76;(0.5892778873443604, 0.794156879848904);71.2867965698;0.742180602647;0;0;0;0;0;0;0;0;0;();(-2000.0, -2000.0);
03:39:49:150;03:39:49:112;1448290548.76;(0.5892778873443604, 0.794156879848904);71.2867965698;0.742180602647;0;0;0;0;0;0;0;0;0;();(-2000.0, -2000.0);
03:39:49:184;03:39:49:180;1448290548.82;(0.5483278751373291, 0.8138912836710612);65.9863967896;0.633412067509;0;0;0;0;0;0;0;0;0;();(-2000.0, -2000.0);
03:39:49:198;03:39:49:180;1448290548.82;(0.5483278751373291, 0.8138912836710612);65.9863967896;0.633412067509;0;0;0;0;0;0;0;0;0;();(-2000.0, -2000.0);
03:39:49:216;03:39:49:180;1448290548.82;(0.5483278751373291, 0.8138912836710612);65.9863967896;0.633412067509;0;0;0;0;0;0;0;0;0;();(-2000.0, -2000.0);
03:39:49:232;03:39:49:180;1448290548.82;(0.5483278751373291, 0.8138912836710612);65.9863967896;0.633412067509;0;0;0;0;0;0;0;0;0;();(-2000.0, -2000.0);
03:39:49:253;03:39:49:246;1448290548.89;(0.5543168544769287, 0.8154843860202365);66.1654281616;0.966875396335;0;0;0;0;0;0;0;0;0;();(-2000.0, -2000.0);
03:39:49:268;03:39:49:246;1448290548.89;(0.5543168544769287, 0.8154843860202365);66.1654281616;0.966875396335;0;0;0;0;0;0;0;0;0;();(-2000.0, -2000.0);
03:39:49:299;03:39:49:246;1448290548.89;(0.5543168544769287, 0.8154843860202365);66.1654281616;0.966875396335;0;0;0;0;0;0;0;0;0;();(-2000.0, -2000.0);
03:39:49:317;03:39:49:312;1448290548.96;(0.5586700916290284, 0.8163122706943088);65.7615585327;0.622740074599;0;0;0;0;0;0;0;0;0;();(-2000.0, -2000.0);
03:39:49:333;03:39:49:312;1448290548.96;(0.5586700916290284, 0.8163122706943088);65.7615585327;0.622740074599;0;0;0;0;0;0;0;0;0;();(-2000.0, -2000.0);
03:39:49:349;03:39:49:312;1448290548.96;(0.5586700916290284, 0.8163122706943088);65.7615585327;0.622740074599;0;0;0;0;0;0;0;0;0;();(-2000.0, -2000.0);
03:39:49:366;03:39:49:312;1448290548.96;(0.5586700916290284, 0.8163122706943088);65.7615585327;0.622740074599;0;0;0;0;0;0;0;0;0;();(-2000.0, -2000.0);
03:39:49:400;03:39:49:381;1448290549.02;(0, 0);0;0;0;0;0;0;0;0;0;0;0;();(-2000.0, -2000.0);
03:39:49:416;03:39:49:381;1448290549.02;(0, 0);0;0;0;0;0;0;0;0;0;0;0;();(-2000.0, -2000.0);
03:39:49:433;03:39:49:381;1448290549.02;(0, 0);0;0;0;0;0;0;0;0;0;0;0;();(-2000.0, -2000.0);
03:39:49:450;03:39:49:381;1448290549.02;(0, 0);0;0;0;0;0;0;0;0;0;0;0;();(-2000.0, -2000.0);
03:39:49:466;03:39:49:456;1448290549.09;(0.5647529602050781, 0.8118845197889539);64.1412200928;0.969416169985;0;0;0;0;0;0;0;0;0;();(-2000.0, -2000.0);
03:39:49:499;03:39:49:456;1448290549.09;(0.5647529602050781, 0.8118845197889539);64.1412200928;0.969416169985;0;0;0;0;0;0;0;0;0;();(-2000.0, -2000.0);
03:39:49:516;03:39:49:512;1448290549.16;(0.5658422470092773, 0.8145095189412435);65.1343994141;0.837580155636;0;0;0;0;0;0;0;0;0;();(-2000.0, -2000.0);
03:39:49:533;03:39:49:512;1448290549.16;(0.5658422470092773, 0.8145095189412435);65.1343994141;0.837580155636;0;0;0;0;0;0;0;0;0;();(-2000.0, -2000.0);
03:39:49:552;03:39:49:512;1448290549.16;(0.5658422470092773, 0.8145095189412435);65.1343994141;0.837580155636;0;0;0;0;0;0;0;0;0;();(-2000.0, -2000.0);
03:39:49:568;03:39:49:512;1448290549.16;(0.5658422470092773, 0.8145095189412435);65.1343994141;0.837580155636;0;0;0;0;0;0;0;0;0;();(-2000.0, -2000.0);
03:39:49:599;03:39:49:576;1448290549.22;(0.5695265293121338, 0.8088132540384928);63.7954673767;0.651436199985;0;0;0;0;0;0;0;0;0;();(-2000.0, -2000.0);
03:39:49:616;03:39:49:576;1448290549.22;(0.5695265293121338, 0.8088132540384928);63.7954673767;0.651436199985;0;0;0;0;0;0;0;0;0;();(-2000.0, -2000.0);
03:39:49:633;03:39:49:576;1448290549.22;(0.5695265293121338, 0.8088132540384928);63.7954673767;0.651436199985;0;0;0;0;0;0;0;0;0;();(-2000.0, -2000.0);
03:39:49:650;03:39:49:646;1448290549.26;(0.5684419631958008, 0.8098333888583713);64.2168884277;0.948640416578;0;0;0;0;0;0;0;0;0;();(-2000.0, -2000.0);
03:39:49:666;03:39:49:647;1448290549.29;(0, 0);0;0;0;0;0;0;0;0;0;0;0;();(-2000.0, -2000.0);
03:39:49:700;03:39:49:647;1448290549.29;(0, 0);0;0;0;0;0;0;0;0;0;0;0;();(-2000.0, -2000.0);
03:39:49:717;03:39:49:714;1448290549.36;(0, 0);0;0;0;0;0;0;0;0;0;0;0;();(-2000.0, -2000.0);
03:39:49:733;03:39:49:714;1448290549.36;(0, 0);0;0;0;0;0;0;0;0;0;0;0;();(-2000.0, -2000.0);
03:39:49:749;03:39:49:714;1448290549.36;(0, 0);0;0;0;0;0;0;0;0;0;0;0;();(-2000.0, -2000.0);
03:39:49:766;03:39:49:714;1448290549.36;(0, 0);0;0;0;0;0;0;0;0;0;0;0;();(-2000.0, -2000.0);
03:39:49:800;03:39:49:776;1448290549.43;(0.5804998874664307, 0.8187654283311632);62.794418335;0.930776559199;0;0;0;0;0;0;0;0;0;();(-2000.0, -2000.0);
03:39:49:817;03:39:49:776;1448290549.43;(0.5804998874664307, 0.8187654283311632);62.794418335;0.930776559199;0;0;0;0;0;0;0;0;0;();(-2000.0, -2000.0);
03:39:49:833;03:39:49:776;1448290549.43;(0.5804998874664307, 0.8187654283311632);62.794418335;0.930776559199;0;0;0;0;0;0;0;0;0;();(-2000.0, -2000.0);
03:39:49:850;03:39:49:846;1448290549.49;(0.5822044372558594, 0.8193744235568576);65.7824935913;0.742314692962;0;0;0;0;0;0;0;0;0;();(-2000.0, -2000.0);
03:39:49:867;03:39:49:846;1448290549.49;(0.5822044372558594, 0.8193744235568576);65.7824935913;0.742314692962;0;0;0;0;0;0;0;0;0;();(-2000.0, -2000.0);
03:39:49:898;03:39:49:846;1448290549.49;(0.5822044372558594, 0.8193744235568576);65.7824935913;0.742314692962;0;0;0;0;0;0;0;0;0;();(-2000.0, -2000.0);
03:39:49:916;03:39:49:909;1448290549.56;(0.584652328491211, 0.8115633434719509);64.7918243408;0.963433517096;0;0;0;0;0;0;0;0;0;();(-2000.0, -2000.0);
03:39:49:933;03:39:49:909;1448290549.56;(0.584652328491211, 0.8115633434719509);64.7918243408;0.963433517096;0;0;0;0;0;0;0;0;0;();(-2000.0, -2000.0);
03:39:49:950;03:39:49:909;1448290549.56;(0.584652328491211, 0.8115633434719509);64.7918243408;0.963433517096;0;0;0;0;0;0;0;0;0;();(-2000.0, -2000.0);
03:39:49:967;03:39:49:909;1448290549.56;(0.584652328491211, 0.8115633434719509);64.7918243408;0.963433517096;0;0;0;0;0;0;0;0;0;();(-2000.0, -2000.0);
03:39:50:000;03:39:49:979;1448290549.62;(0.5850186824798584, 0.8101642608642579);66.8601379395;0.93426145869;0;0;0;0;0;0;0;0;0;();(-2000.0, -2000.0);
03:39:50:017;03:39:49:979;1448290549.62;(0.5850186824798584, 0.8101642608642579);66.8601379395;0.93426145869;0;0;0;0;0;0;0;0;0;();(-2000.0, -2000.0);
03:39:50:033;03:39:49:979;1448290549.62;(0.5850186824798584, 0.8101642608642579);66.8601379395;0.93426145869;0;0;0;0;0;0;0;0;0;();(-2000.0, -2000.0);
03:39:50:049;03:39:50:041;1448290549.69;(0.5852756977081299, 0.8092195087009006);67.3447952271;1.0;0;0;0;0;0;0;0;0;0;();(-2000.0, -2000.0);
03:39:50:066;03:39:50:041;1448290549.69;(0.5852756977081299, 0.8092195087009006);67.3447952271;1.0;0;0;0;0;0;0;0;0;0;();(-2000.0, -2000.0);
03:39:50:099;03:39:50:041;1448290549.69;(0.5852756977081299, 0.8092195087009006);67.3447952271;1.0;0;0;0;0;0;0;0;0;0;();(-2000.0, -2000.0);
03:39:50:116;03:39:50:108;1448290549.76;(0.5846970081329346, 0.8080999692281088);69.1503753662;0.913894406535;0;0;0;0;0;0;0;0;0;();(-2000.0, -2000.0);
03:39:50:133;03:39:50:108;1448290549.76;(0.5846970081329346, 0.8080999692281088);69.1503753662;0.913894406535;0;0;0;0;0;0;0;0;0;();(-2000.0, -2000.0);
03:39:50:150;03:39:50:108;1448290549.76;(0.5846970081329346, 0.8080999692281088);69.1503753662;0.913894406535;0;0;0;0;0;0;0;0;0;();(-2000.0, -2000.0);
03:39:50:166;03:39:50:108;1448290549.76;(0.5846970081329346, 0.8080999692281088);69.1503753662;0.913894406535;0;0;0;0;0;0;0;0;0;();(-2000.0, -2000.0);
03:39:50:199;03:39:50:176;1448290549.82;(0.5852981090545655, 0.8076873461405436);70.1433486938;0.838239120827;0;0;0;0;0;0;0;0;0;();(-2000.0, -2000.0);
03:39:50:216;03:39:50:176;1448290549.82;(0.5852981090545655, 0.8076873461405436);70.1433486938;0.838239120827;0;0;0;0;0;0;0;0;0;();(-2000.0, -2000.0);
03:39:50:233;03:39:50:176;1448290549.82;(0.5852981090545655, 0.8076873461405436);70.1433486938;0.838239120827;0;0;0;0;0;0;0;0;0;();(-2000.0, -2000.0);
03:39:50:251;03:39:50:176;1448290549.82;(0.5852981090545655, 0.8076873461405436);70.1433486938;0.838239120827;0;0;0;0;0;0;0;0;0;();(-2000.0, -2000.0);
03:39:50:267;03:39:50:254;1448290549.89;(0.5856012821197509, 0.8065395779079861);71.1006546021;0.893106618649;0;0;0;0;0;0;0;0;0;();(-2000.0, -2000.0);
03:39:50:299;03:39:50:254;1448290549.89;(0.5856012821197509, 0.8065395779079861);71.1006546021;0.893106618649;0;0;0;0;0;0;0;0;0;();(-2000.0, -2000.0);
03:39:50:317;03:39:50:310;1448290549.96;(0.5618169784545899, 0.8096600850423177);70.7632293701;0.787083200395;0;0;0;0;0;0;0;0;0;();(-2000.0, -2000.0);
03:39:50:334;03:39:50:310;1448290549.96;(0.5618169784545899, 0.8096600850423177);70.7632293701;0.787083200395;0;0;0;0;0;0;0;0;0;();(-2000.0, -2000.0);
03:39:50:350;03:39:50:310;1448290549.96;(0.5618169784545899, 0.8096600850423177);70.7632293701;0.787083200395;0;0;0;0;0;0;0;0;0;();(-2000.0, -2000.0);
03:39:50:365;03:39:50:310;1448290549.96;(0.5618169784545899, 0.8096600850423177);70.7632293701;0.787083200395;0;0;0;0;0;0;0;0;0;();(-2000.0, -2000.0);
03:39:50:400;03:39:50:372;1448290550.02;(0.5619447708129883, 0.8111717542012533);70.8485946655;0.830680647489;0;0;0;0;0;0;0;0;0;();(-2000.0, -2000.0);
03:39:50:416;03:39:50:372;1448290550.02;(0.5619447708129883, 0.8111717542012533);70.8485946655;0.830680647489;0;0;0;0;0;0;0;0;0;();(-2000.0, -2000.0);
03:39:50:433;03:39:50:372;1448290550.02;(0.5619447708129883, 0.8111717542012533);70.8485946655;0.830680647489;0;0;0;0;0;0;0;0;0;();(-2000.0, -2000.0);
03:39:50:449;03:39:50:441;1448290550.09;(0.5617644309997558, 0.8097941080729166);70.2420578003;0.922984910671;0;0;0;0;0;0;0;0;0;();(-2000.0, -2000.0);
03:39:50:466;03:39:50:441;1448290550.09;(0.5617644309997558, 0.8097941080729166);70.2420578003;0.922984910671;0;0;0;0;0;0;0;0;0;();(-2000.0, -2000.0);
03:39:50:499;03:39:50:441;1448290550.09;(0.5617644309997558, 0.8097941080729166);70.2420578003;0.922984910671;0;0;0;0;0;0;0;0;0;();(-2000.0, -2000.0);
03:39:50:517;03:39:50:508;1448290550.16;(0.5621962547302246, 0.8090114487542046);70.9486465454;0.941289516625;0;0;0;0;0;0;0;0;0;();(-2000.0, -2000.0);
03:39:50:533;03:39:50:508;1448290550.16;(0.5621962547302246, 0.8090114487542046);70.9486465454;0.941289516625;0;0;0;0;0;0;0;0;0;();(-2000.0, -2000.0);
03:39:50:550;03:39:50:508;1448290550.16;(0.5621962547302246, 0.8090114487542046);70.9486465454;0.941289516625;0;0;0;0;0;0;0;0;0;();(-2000.0, -2000.0);
03:39:50:566;03:39:50:508;1448290550.16;(0.5621962547302246, 0.8090114487542046);70.9486465454;0.941289516625;0;0;0;0;0;0;0;0;0;();(-2000.0, -2000.0);
03:39:50:601;03:39:50:573;1448290550.22;(0.5623856067657471, 0.8088245921664767);71.7957839966;0.918338738095;0;0;0;0;0;0;0;0;0;();(-2000.0, -2000.0);
03:39:50:617;03:39:50:573;1448290550.22;(0.5623856067657471, 0.8088245921664767);71.7957839966;0.918338738095;0;0;0;0;0;0;0;0;0;();(-2000.0, -2000.0);
03:39:50:633;03:39:50:573;1448290550.22;(0.5623856067657471, 0.8088245921664767);71.7957839966;0.918338738095;0;0;0;0;0;0;0;0;0;();(-2000.0, -2000.0);
03:39:50:650;03:39:50:640;1448290550.29;(0, 0);0;0;0;0;0;0;0;0;0;0;0;();(-2000.0, -2000.0);
03:39:50:667;03:39:50:640;1448290550.29;(0, 0);0;0;0;0;0;0;0;0;0;0;0;();(-2000.0, -2000.0);
03:39:50:700;03:39:50:640;1448290550.29;(0, 0);0;0;0;0;0;0;0;0;0;0;0;();(-2000.0, -2000.0);
03:39:50:717;03:39:50:704;1448290550.36;(0.6614840984344482, 0.7959509319729275);73.5349121094;0.953499826768;0;0;0;0;0;0;0;0;0;();(-2000.0, -2000.0);
03:39:50:733;03:39:50:704;1448290550.36;(0.6614840984344482, 0.7959509319729275);73.5349121094;0.953499826768;0;0;0;0;0;0;0;0;0;();(-2000.0, -2000.0);
03:39:50:750;03:39:50:704;1448290550.36;(0.6614840984344482, 0.7959509319729275);73.5349121094;0.953499826768;0;0;0;0;0;0;0;0;0;();(-2000.0, -2000.0);
03:39:50:767;03:39:50:704;1448290550.36;(0.6614840984344482, 0.7959509319729275);73.5349121094;0.953499826768;0;0;0;0;0;0;0;0;0;();(-2000.0, -2000.0);
03:39:50:800;03:39:50:773;1448290550.42;(0.660586166381836, 0.796468448638916);73.3225326538;0.971967550901;0;0;0;0;0;0;0;0;0;();(-2000.0, -2000.0);
03:39:50:817;03:39:50:773;1448290550.42;(0.660586166381836, 0.796468448638916);73.3225326538;0.971967550901;0;0;0;0;0;0;0;0;0;();(-2000.0, -2000.0);
03:39:50:834;03:39:50:773;1448290550.42;(0.660586166381836, 0.796468448638916);73.3225326538;0.971967550901;0;0;0;0;0;0;0;0;0;();(-2000.0, -2000.0);
03:39:50:851;03:39:50:842;1448290550.49;(0.6595850944519043, 0.7961899439493815);73.7346572876;0.857876669767;0;0;0;0;0;0;0;0;0;();(-2000.0, -2000.0);
03:39:50:866;03:39:50:842;1448290550.49;(0.6595850944519043, 0.7961899439493815);73.7346572876;0.857876669767;0;0;0;0;0;0;0;0;0;();(-2000.0, -2000.0);
03:39:50:900;03:39:50:842;1448290550.49;(0.6595850944519043, 0.7961899439493815);73.7346572876;0.857876669767;0;0;0;0;0;0;0;0;0;();(-2000.0, -2000.0);
03:39:50:917;03:39:50:904;1448290550.56;(0.6587913990020752, 0.7968425750732422);73.223815918;0.897598598858;0;0;0;0;0;0;0;0;0;();(-2000.0, -2000.0);
03:39:50:933;03:39:50:904;1448290550.56;(0.6587913990020752, 0.7968425750732422);73.223815918;0.897598598858;0;0;0;0;0;0;0;0;0;();(-2000.0, -2000.0);
03:39:50:951;03:39:50:904;1448290550.56;(0.6587913990020752, 0.7968425750732422);73.223815918;0.897598598858;0;0;0;0;0;0;0;0;0;();(-2000.0, -2000.0);
03:39:50:968;03:39:50:904;1448290550.56;(0.6587913990020752, 0.7968425750732422);73.223815918;0.897598598858;0;0;0;0;0;0;0;0;0;();(-2000.0, -2000.0);
03:39:51:000;03:39:50:973;1448290550.62;(0.6581820964813232, 0.7964104652404785);73.3465805054;1.0;0;0;0;0;0;0;0;0;0;();(-2000.0, -2000.0);
03:39:51:017;03:39:50:973;1448290550.62;(0.6581820964813232, 0.7964104652404785);73.3465805054;1.0;0;0;0;0;0;0;0;0;0;();(-2000.0, -2000.0);
03:39:51:033;03:39:50:973;1448290550.62;(0.6581820964813232, 0.7964104652404785);73.3465805054;1.0;0;0;0;0;0;0;0;0;0;();(-2000.0, -2000.0);
03:39:51:050;03:39:51:037;1448290550.69;(0, 0);0;0;0;0;0;0;0;0;0;0;0;();(-2000.0, -2000.0);
03:39:51:068;03:39:51:037;1448290550.69;(0, 0);0;0;0;0;0;0;0;0;0;0;0;();(-2000.0, -2000.0);
03:39:51:101;03:39:51:037;1448290550.69;(0, 0);0;0;0;0;0;0;0;0;0;0;0;();(-2000.0, -2000.0);
03:39:51:117;03:39:51:105;1448290550.76;(0.6546236038208008, 0.7958422872755262);74.904045105;0.834833546553;0;0;0;0;0;0;0;0;0;();(-2000.0, -2000.0);
03:39:51:134;03:39:51:105;1448290550.76;(0.6546236038208008, 0.7958422872755262);74.904045105;0.834833546553;0;0;0;0;0;0;0;0;0;();(-2000.0, -2000.0);
03:39:51:151;03:39:51:105;1448290550.76;(0.6546236038208008, 0.7958422872755262);74.904045105;0.834833546553;0;0;0;0;0;0;0;0;0;();(-2000.0, -2000.0);
03:39:51:168;03:39:51:105;1448290550.76;(0.6546236038208008, 0.7958422872755262);74.904045105;0.834833546553;0;0;0;0;0;0;0;0;0;();(-2000.0, -2000.0);
03:39:51:201;03:39:51:173;1448290550.82;(0, 0);0;0;0;0;0;0;0;0;0;0;0;();(-2000.0, -2000.0);
03:39:51:218;03:39:51:173;1448290550.82;(0, 0);0;0;0;0;0;0;0;0;0;0;0;();(-2000.0, -2000.0);
03:39:51:234;03:39:51:173;1448290550.82;(0, 0);0;0;0;0;0;0;0;0;0;0;0;();(-2000.0, -2000.0);
03:39:51:625;03:39:51:237;1448290550.89;(0.5804600715637207, 0.8055474387274848);78.7588500977;0.89135302204;0;0;0;0;0;0;0;0;0;();(-2000.0, -2000.0);
03:39:51:645;03:39:51:637;1448290551.02;(0.5816822528839112, 0.8066211700439453);78.5198135376;0.91824816208;0;0;0;0;0;0;0;0;0;();(-2000.0, -2000.0);
03:39:51:662;03:39:51:654;1448290551.12;(0.5813651561737061, 0.8068661477830674);79.8458099365;0.905034927453;0;0;0;0;0;0;0;0;0;();(-2000.0, -2000.0);
03:39:51:680;03:39:51:673;1448290551.26;(0, 0);0;0;0;0;0;0;0;0;0;0;0;();(-2000.0, -2000.0);
03:39:51:690;03:39:51:676;1448290551.29;(0.6362387180328369, 0.8020041359795465);77.6365661621;0.75592577875;0;0;0;0;0;0;0;0;0;();(-2000.0, -2000.0);
03:39:51:698;03:39:51:676;1448290551.29;(0.6362387180328369, 0.8020041359795465);77.6365661621;0.75592577875;0;0;0;0;0;0;0;0;0;();(-2000.0, -2000.0);
03:39:51:707;03:39:51:704;1448290551.36;(0.632923698425293, 0.8082141028510199);82.0406494141;0.790425354101;0;0;0;0;0;0;0;0;0;();(-2000.0, -2000.0);
