%Timestamp,timestamp_write;timestamp_gotpupil;eyeTrackerTime;normPos;diameter;confidence;timestamp_gotbitdata;CRC;SEQ;AnalogOutp1;AnalogOutp2;AnalogOutp3;AnalogOutp4;AnalogOutp5;AnalogOutp6;DigitalOutp1;DigitalOutp2;DigitalOutp3;DigitalOutp4;nplanes;listofAirplanesonScreen;lastAction;lastActionDetails;lastActionAirplaneNumber;calculatedScore;positiveScore;negativeScore;collidedAirplaneNumbers;targetPositions;collisionPoint
03:36:46:279;1448290365.91;(0.7640298366546631, 0.424170642428928);40.3751220703;0.606160642518;;;;;;;;;;;;;;0;0;0;0;0;0;0;0;0;();(-2000.0, -2000.0);
03:36:46:292;1448290365.91;(0.7640298366546631, 0.424170642428928);40.3751220703;0.606160642518;;;;;;;;;;;;;;0;0;0;0;0;0;0;0;0;();(-2000.0, -2000.0);
03:36:46:301;1448290365.91;(0.7640298366546631, 0.424170642428928);40.3751220703;0.606160642518;;;;;;;;;;;;;;0;0;0;0;0;0;0;0;0;();(-2000.0, -2000.0);
03:36:46:305;1448290365.91;(0.7640298366546631, 0.424170642428928);40.3751220703;0.606160642518;;;;;;;;;;;;;;0;0;0;0;0;0;0;0;0;();(-2000.0, -2000.0);
03:36:46:309;1448290365.91;(0.7640298366546631, 0.424170642428928);40.3751220703;0.606160642518;;;;;;;;;;;;;;0;0;0;0;0;0;0;0;0;();(-2000.0, -2000.0);
03:36:46:313;1448290365.91;(0.7640298366546631, 0.424170642428928);40.3751220703;0.606160642518;;;;;;;;;;;;;;0;0;0;0;0;0;0;0;0;();(-2000.0, -2000.0);
03:36:46:317;1448290365.91;(0.7640298366546631, 0.424170642428928);40.3751220703;0.606160642518;;;;;;;;;;;;;;0;0;0;0;0;0;0;0;0;();(-2000.0, -2000.0);
03:36:46:320;1448290365.91;(0.7640298366546631, 0.424170642428928);40.3751220703;0.606160642518;;;;;;;;;;;;;;0;0;0;0;0;0;0;0;0;();(-2000.0, -2000.0);
03:36:46:324;1448290365.91;(0.7640298366546631, 0.424170642428928);40.3751220703;0.606160642518;;;;;;;;;;;;;;0;0;0;0;0;0;0;0;0;();(-2000.0, -2000.0);
03:36:46:330;03:36:46:326;1448290365.96;(0, 0);0;0;;;;;;;;;;;;;;0;0;0;0;0;0;0;0;0;();(-2000.0, -2000.0);
03:36:46:333;03:36:46:326;1448290365.96;(0, 0);0;0;;;;;;;;;;;;;;0;0;0;0;0;0;0;0;0;();(-2000.0, -2000.0);
03:36:46:337;03:36:46:326;1448290365.96;(0, 0);0;0;;;;;;;;;;;;;;0;0;0;0;0;0;0;0;0;();(-2000.0, -2000.0);
03:36:46:341;03:36:46:326;1448290365.96;(0, 0);0;0;;;;;;;;;;;;;;0;0;0;0;0;0;0;0;0;();(-2000.0, -2000.0);
03:36:46:344;03:36:46:326;1448290365.96;(0, 0);0;0;;;;;;;;;;;;;;0;0;0;0;0;0;0;0;0;();(-2000.0, -2000.0);
03:36:46:348;03:36:46:326;1448290365.96;(0, 0);0;0;;;;;;;;;;;;;;0;0;0;0;0;0;0;0;0;();(-2000.0, -2000.0);
03:36:46:351;03:36:46:326;1448290365.96;(0, 0);0;0;;;;;;;;;;;;;;0;0;0;0;0;0;0;0;0;();(-2000.0, -2000.0);
03:36:46:356;03:36:46:326;1448290365.96;(0, 0);0;0;;;;;;;;;;;;;;0;0;0;0;0;0;0;0;0;();(-2000.0, -2000.0);
03:36:46:360;03:36:46:326;1448290365.96;(0, 0);0;0;;;;;;;;;;;;;;0;0;0;0;0;0;0;0;0;();(-2000.0, -2000.0);
03:36:46:363;03:36:46:326;1448290365.96;(0, 0);0;0;;;;;;;;;;;;;;0;0;0;0;0;0;0;0;0;();(-2000.0, -2000.0);
03:36:46:367;03:36:46:326;1448290365.96;(0, 0);0;0;;;;;;;;;;;;;;0;0;0;0;0;0;0;0;0;();(-2000.0, -2000.0);
03:36:46:371;03:36:46:326;1448290365.96;(0, 0);0;0;;;;;;;;;;;;;;0;0;0;0;0;0;0;0;0;();(-2000.0, -2000.0);
03:36:46:392;03:36:46:388;1448290366.04;(0.6378137588500976, 0.7486798816257053);76.5719146729;0.946746148389;;;;;;;;;;;;;;0;0;0;0;0;0;0;0;0;();(-2000.0, -2000.0);
03:36:46:409;03:36:46:388;1448290366.04;(0.6378137588500976, 0.7486798816257053);76.5719146729;0.946746148389;;;;;;;;;;;;;;0;0;0;0;0;0;0;0;0;();(-2000.0, -2000.0);
03:36:46:428;03:36:46:388;1448290366.04;(0.6378137588500976, 0.7486798816257053);76.5719146729;0.946746148389;;;;;;;;;;;;;;0;0;0;0;0;0;0;0;0;();(-2000.0, -2000.0);
03:36:46:445;03:36:46:388;1448290366.04;(0.6378137588500976, 0.7486798816257053);76.5719146729;0.946746148389;;;;;;;;;;;;;;0;0;0;0;0;0;0;0;0;();(-2000.0, -2000.0);
03:36:46:475;03:36:46:456;1448290366.1;(0.6489718914031982, 0.7427966011895073);77.0515441895;0.763162434203;;;;;;;;;;;;;;0;0;0;0;0;0;0;0;0;();(-2000.0, -2000.0);
03:36:46:491;03:36:46:456;1448290366.1;(0.6489718914031982, 0.7427966011895073);77.0515441895;0.763162434203;;;;;;;;;;;;;;0;0;0;0;0;0;0;0;0;();(-2000.0, -2000.0);
03:36:46:509;03:36:46:456;1448290366.1;(0.6489718914031982, 0.7427966011895073);77.0515441895;0.763162434203;;;;;;;;;;;;;;0;0;0;0;0;0;0;0;0;();(-2000.0, -2000.0);
03:36:46:528;03:36:46:522;1448290366.13;(0.6555088043212891, 0.7453570895724826);77.8062057495;0.806811389345;;;;;;;;;;;;;;0;0;0;0;0;0;0;0;0;();(-2000.0, -2000.0);
03:36:46:545;03:36:46:534;1448290366.16;(0.6584381103515625, 0.7431546529134114);76.7079086304;0.934741303262;;;;;;;;;;;;;;0;0;0;0;0;0;0;0;0;();(-2000.0, -2000.0);
03:36:46:578;03:36:46:534;1448290366.16;(0.6584381103515625, 0.7431546529134114);76.7079086304;0.934741303262;;;;;;;;;;;;;;0;0;0;0;0;0;0;0;0;();(-2000.0, -2000.0);
03:36:46:596;03:36:46:589;1448290366.23;(0.6604751110076904, 0.740626335144043);76.7077255249;0.822636537397;;;;;;;;;;;;;;0;0;0;0;0;0;0;0;0;();(-2000.0, -2000.0);
03:36:46:609;03:36:46:589;1448290366.23;(0.6604751110076904, 0.740626335144043);76.7077255249;0.822636537397;;;;;;;;;;;;;;0;0;0;0;0;0;0;0;0;();(-2000.0, -2000.0);
03:36:46:626;03:36:46:589;1448290366.23;(0.6604751110076904, 0.740626335144043);76.7077255249;0.822636537397;;;;;;;;;;;;;;0;0;0;0;0;0;0;0;0;();(-2000.0, -2000.0);
03:36:46:645;03:36:46:589;1448290366.23;(0.6604751110076904, 0.740626335144043);76.7077255249;0.822636537397;;;;;;;;;;;;;;0;0;0;0;0;0;0;0;0;();(-2000.0, -2000.0);
03:36:46:678;03:36:46:657;1448290366.3;(0.6425749301910401, 0.6157125684950087);77.0004272461;0.944341350762;;;;;;;;;;;;;;0;0;0;0;0;0;0;0;0;();(-2000.0, -2000.0);
03:36:46:695;03:36:46:657;1448290366.3;(0.6425749301910401, 0.6157125684950087);77.0004272461;0.944341350762;;;;;;;;;;;;;;0;0;0;0;0;0;0;0;0;();(-2000.0, -2000.0);
03:36:46:711;03:36:46:657;1448290366.3;(0.6425749301910401, 0.6157125684950087);77.0004272461;0.944341350762;;;;;;;;;;;;;;0;0;0;0;0;0;0;0;0;();(-2000.0, -2000.0);
03:36:46:727;03:36:46:719;1448290366.33;(0.6396793842315673, 0.611408699883355);76.8189315796;0.885991048388;;;;;;;;;;;;;;0;0;0;0;0;0;0;0;0;();(-2000.0, -2000.0);
03:36:46:743;03:36:46:719;1448290366.33;(0.6396793842315673, 0.611408699883355);76.8189315796;0.885991048388;;;;;;;;;;;;;;0;0;0;0;0;0;0;0;0;();(-2000.0, -2000.0);
03:36:46:776;03:36:46:719;1448290366.33;(0.6396793842315673, 0.611408699883355);76.8189315796;0.885991048388;;;;;;;;;;;;;;0;0;0;0;0;0;0;0;0;();(-2000.0, -2000.0);
03:36:46:794;03:36:46:790;1448290366.43;(0.6393767356872558, 0.6084570566813151);77.7868270874;0.841009957402;;;;;;;;;;;;;;0;0;0;0;0;0;0;0;0;();(-2000.0, -2000.0);
03:36:46:810;03:36:46:790;1448290366.43;(0.6393767356872558, 0.6084570566813151);77.7868270874;0.841009957402;;;;;;;;;;;;;;0;0;0;0;0;0;0;0;0;();(-2000.0, -2000.0);
03:36:46:826;03:36:46:790;1448290366.43;(0.6393767356872558, 0.6084570566813151);77.7868270874;0.841009957402;;;;;;;;;;;;;;0;0;0;0;0;0;0;0;0;();(-2000.0, -2000.0);
03:36:46:843;03:36:46:790;1448290366.43;(0.6393767356872558, 0.6084570566813151);77.7868270874;0.841009957402;;;;;;;;;;;;;;0;0;0;0;0;0;0;0;0;();(-2000.0, -2000.0);
03:36:46:876;03:36:46:851;1448290366.46;(0.316041374206543, 0.7321101930406358);29.819978714;0.668908010469;;;;;;;;;;;;;;0;0;0;0;0;0;0;0;0;();(-2000.0, -2000.0);
03:36:46:892;03:36:46:851;1448290366.46;(0.316041374206543, 0.7321101930406358);29.819978714;0.668908010469;;;;;;;;;;;;;;0;0;0;0;0;0;0;0;0;();(-2000.0, -2000.0);
03:36:46:908;03:36:46:851;1448290366.46;(0.316041374206543, 0.7321101930406358);29.819978714;0.668908010469;;;;;;;;;;;;;;0;0;0;0;0;0;0;0;0;();(-2000.0, -2000.0);
03:36:46:925;03:36:46:920;1448290366.54;(0.6349676609039306, 0.5984191470675998);79.3069992065;0.966553329847;;;;;;;;;;;;;;0;0;0;0;0;0;0;0;0;();(-2000.0, -2000.0);
03:36:46:945;03:36:46:920;1448290366.54;(0.6349676609039306, 0.5984191470675998);79.3069992065;0.966553329847;;;;;;;;;;;;;;0;0;0;0;0;0;0;0;0;();(-2000.0, -2000.0);
03:36:46:978;03:36:46:920;1448290366.54;(0.6349676609039306, 0.5984191470675998);79.3069992065;0.966553329847;;;;;;;;;;;;;;0;0;0;0;0;0;0;0;0;();(-2000.0, -2000.0);
03:36:46:995;03:36:46:987;1448290366.6;(0.6321997165679931, 0.5784789191351997);80.2241592407;1.0;;;;;;;;;;;;;;0;0;0;0;0;0;0;0;0;();(-2000.0, -2000.0);
03:36:47:010;03:36:46:987;1448290366.6;(0.6321997165679931, 0.5784789191351997);80.2241592407;1.0;;;;;;;;;;;;;;0;0;0;0;0;0;0;0;0;();(-2000.0, -2000.0);
03:36:47:028;03:36:46:987;1448290366.6;(0.6321997165679931, 0.5784789191351997);80.2241592407;1.0;;;;;;;;;;;;;;0;0;0;0;0;0;0;0;0;();(-2000.0, -2000.0);
03:36:47:046;03:36:46:987;1448290366.6;(0.6321997165679931, 0.5784789191351997);80.2241592407;1.0;;;;;;;;;;;;;;0;0;0;0;0;0;0;0;0;();(-2000.0, -2000.0);
03:36:47:077;03:36:47:058;1448290366.71;(0, 0);0;0;;;;;;;;;;;;;;0;0;0;0;0;0;0;0;0;();(-2000.0, -2000.0);
03:36:47:092;03:36:47:058;1448290366.71;(0, 0);0;0;;;;;;;;;;;;;;0;0;0;0;0;0;0;0;0;();(-2000.0, -2000.0);
03:36:47:110;03:36:47:058;1448290366.71;(0, 0);0;0;;;;;;;;;;;;;;0;0;0;0;0;0;0;0;0;();(-2000.0, -2000.0);
03:36:47:126;03:36:47:120;1448290366.76;(0, 0);0;0;;;;;;;;;;;;;;0;0;0;0;0;0;0;0;0;();(-2000.0, -2000.0);
03:36:47:143;03:36:47:120;1448290366.76;(0, 0);0;0;;;;;;;;;;;;;;0;0;0;0;0;0;0;0;0;();(-2000.0, -2000.0);
03:36:47:177;03:36:47:120;1448290366.76;(0, 0);0;0;;;;;;;;;;;;;;0;0;0;0;0;0;0;0;0;();(-2000.0, -2000.0);
03:36:47:193;03:36:47:187;1448290366.8;(0, 0);0;0;;;;;;;;;;;;;;0;0;0;0;0;0;0;0;0;();(-2000.0, -2000.0);
03:36:47:210;03:36:47:187;1448290366.8;(0, 0);0;0;;;;;;;;;;;;;;0;0;0;0;0;0;0;0;0;();(-2000.0, -2000.0);
03:36:47:227;03:36:47:187;1448290366.8;(0, 0);0;0;;;;;;;;;;;;;;0;0;0;0;0;0;0;0;0;();(-2000.0, -2000.0);
03:36:47:242;03:36:47:187;1448290366.8;(0, 0);0;0;;;;;;;;;;;;;;0;0;0;0;0;0;0;0;0;();(-2000.0, -2000.0);
03:36:47:276;03:36:47:252;1448290366.87;(0.6668807029724121, 0.6812011294894749);80.113861084;0.78690732498;;;;;;;;;;;;;;0;0;0;0;0;0;0;0;0;();(-2000.0, -2000.0);
03:36:47:292;03:36:47:252;1448290366.87;(0.6668807029724121, 0.6812011294894749);80.113861084;0.78690732498;;;;;;;;;;;;;;0;0;0;0;0;0;0;0;0;();(-2000.0, -2000.0);
03:36:47:309;03:36:47:252;1448290366.87;(0.6668807029724121, 0.6812011294894749);80.113861084;0.78690732498;;;;;;;;;;;;;;0;0;0;0;0;0;0;0;0;();(-2000.0, -2000.0);
03:36:47:327;03:36:47:319;1448290366.91;(0.6660495281219483, 0.6853486590915256);79.8986740112;0.821201779627;;;;;;;;;;;;;;0;0;0;0;0;0;0;0;0;();(-2000.0, -2000.0);
03:36:47:344;03:36:47:319;1448290366.91;(0.6660495281219483, 0.6853486590915256);79.8986740112;0.821201779627;;;;;;;;;;;;;;0;0;0;0;0;0;0;0;0;();(-2000.0, -2000.0);
03:36:47:376;03:36:47:319;1448290366.91;(0.6660495281219483, 0.6853486590915256);79.8986740112;0.821201779627;;;;;;;;;;;;;;0;0;0;0;0;0;0;0;0;();(-2000.0, -2000.0);
03:36:47:393;03:36:47:383;1448290367.02;(0.27497336864471433, 0.7877428690592447);26.2750644684;0.60786014567;;;;;;;;;;;;;;0;0;0;0;0;0;0;0;0;();(-2000.0, -2000.0);
03:36:47:410;03:36:47:383;1448290367.02;(0.27497336864471433, 0.7877428690592447);26.2750644684;0.60786014567;;;;;;;;;;;;;;0;0;0;0;0;0;0;0;0;();(-2000.0, -2000.0);
03:36:47:429;03:36:47:383;1448290367.02;(0.27497336864471433, 0.7877428690592447);26.2750644684;0.60786014567;;;;;;;;;;;;;;0;0;0;0;0;0;0;0;0;();(-2000.0, -2000.0);
03:36:47:446;03:36:47:383;1448290367.02;(0.27497336864471433, 0.7877428690592447);26.2750644684;0.60786014567;;;;;;;;;;;;;;0;0;0;0;0;0;0;0;0;();(-2000.0, -2000.0);
03:36:47:479;03:36:47:454;1448290367.09;(0.6667243003845215, 0.7122700373331705);83.24634552;0.690538009275;;;;;;;;;;;;;;0;0;0;0;0;0;0;0;0;();(-2000.0, -2000.0);
03:36:47:496;03:36:47:454;1448290367.09;(0.6667243003845215, 0.7122700373331705);83.24634552;0.690538009275;;;;;;;;;;;;;;0;0;0;0;0;0;0;0;0;();(-2000.0, -2000.0);
03:36:47:510;03:36:47:454;1448290367.09;(0.6667243003845215, 0.7122700373331705);83.24634552;0.690538009275;;;;;;;;;;;;;;0;0;0;0;0;0;0;0;0;();(-2000.0, -2000.0);
03:36:47:526;03:36:47:518;1448290367.16;(0, 0);0;0;;;;;;;;;;;;;;0;0;0;0;0;0;0;0;0;();(-2000.0, -2000.0);
03:36:47:542;03:36:47:518;1448290367.16;(0, 0);0;0;;;;;;;;;;;;;;0;0;0;0;0;0;0;0;0;();(-2000.0, -2000.0);
03:36:47:577;03:36:47:518;1448290367.16;(0, 0);0;0;;;;;;;;;;;;;;0;0;0;0;0;0;0;0;0;();(-2000.0, -2000.0);
03:36:47:593;03:36:47:584;1448290367.23;(0.8599336624145508, 0.8814383930630154);19.218629837;0.719938113074;;;;;;;;;;;;;;0;0;0;0;0;0;0;0;0;();(-2000.0, -2000.0);
03:36:47:610;03:36:47:584;1448290367.23;(0.8599336624145508, 0.8814383930630154);19.218629837;0.719938113074;;;;;;;;;;;;;;0;0;0;0;0;0;0;0;0;();(-2000.0, -2000.0);
03:36:47:626;03:36:47:584;1448290367.23;(0.8599336624145508, 0.8814383930630154);19.218629837;0.719938113074;;;;;;;;;;;;;;0;0;0;0;0;0;0;0;0;();(-2000.0, -2000.0);
03:36:47:643;03:36:47:584;1448290367.23;(0.8599336624145508, 0.8814383930630154);19.218629837;0.719938113074;;;;;;;;;;;;;;0;0;0;0;0;0;0;0;0;();(-2000.0, -2000.0);
03:36:47:676;03:36:47:652;1448290367.3;(0.3537217378616333, 0.7253097322252062);30.9865684509;0.638499847185;;;;;;;;;;;;;;0;0;0;0;0;0;0;0;0;();(-2000.0, -2000.0);
03:36:47:695;03:36:47:652;1448290367.3;(0.3537217378616333, 0.7253097322252062);30.9865684509;0.638499847185;;;;;;;;;;;;;;0;0;0;0;0;0;0;0;0;();(-2000.0, -2000.0);
03:36:47:712;03:36:47:652;1448290367.3;(0.3537217378616333, 0.7253097322252062);30.9865684509;0.638499847185;;;;;;;;;;;;;;0;0;0;0;0;0;0;0;0;();(-2000.0, -2000.0);
03:36:47:729;03:36:47:719;1448290367.37;(0, 0);0;0;;;;;;;;;;;;;;0;0;0;0;0;0;0;0;0;();(-2000.0, -2000.0);
03:36:47:746;03:36:47:719;1448290367.37;(0, 0);0;0;;;;;;;;;;;;;;0;0;0;0;0;0;0;0;0;();(-2000.0, -2000.0);
03:36:47:779;03:36:47:719;1448290367.37;(0, 0);0;0;;;;;;;;;;;;;;0;0;0;0;0;0;0;0;0;();(-2000.0, -2000.0);
03:36:47:796;03:36:47:787;1448290367.43;(0.5320347785949707, 0.7837089750501844);82.2941207886;0.797178392036;;;;;;;;;;;;;;0;0;0;0;0;0;0;0;0;();(-2000.0, -2000.0);
03:36:47:812;03:36:47:787;1448290367.43;(0.5320347785949707, 0.7837089750501844);82.2941207886;0.797178392036;;;;;;;;;;;;;;0;0;0;0;0;0;0;0;0;();(-2000.0, -2000.0);
03:36:47:830;03:36:47:787;1448290367.43;(0.5320347785949707, 0.7837089750501844);82.2941207886;0.797178392036;;;;;;;;;;;;;;0;0;0;0;0;0;0;0;0;();(-2000.0, -2000.0);
03:36:47:843;03:36:47:787;1448290367.43;(0.5320347785949707, 0.7837089750501844);82.2941207886;0.797178392036;;;;;;;;;;;;;;0;0;0;0;0;0;0;0;0;();(-2000.0, -2000.0);
03:36:47:877;03:36:47:848;1448290367.51;(0, 0);0;0;;;;;;;;;;;;;;0;0;0;0;0;0;0;0;0;();(-2000.0, -2000.0);
03:36:47:894;03:36:47:848;1448290367.51;(0, 0);0;0;;;;;;;;;;;;;;0;0;0;0;0;0;0;0;0;();(-2000.0, -2000.0);
03:36:47:909;03:36:47:848;1448290367.51;(0, 0);0;0;;;;;;;;;;;;;;0;0;0;0;0;0;0;0;0;();(-2000.0, -2000.0);
03:36:47:927;03:36:47:916;1448290367.56;(0, 0);0;0;;;;;;;;;;;;;;0;0;0;0;0;0;0;0;0;();(-2000.0, -2000.0);
03:36:47:943;03:36:47:916;1448290367.56;(0, 0);0;0;;;;;;;;;;;;;;0;0;0;0;0;0;0;0;0;();(-2000.0, -2000.0);
03:36:47:963;03:36:47:916;1448290367.56;(0, 0);0;0;;;;;;;;;;;;;;0;0;0;0;0;0;0;0;0;();(-2000.0, -2000.0);
03:36:47:996;03:36:47:987;1448290367.63;(0.32305207252502444, 0.8914752960205078);30.7269153595;0.802099817506;;;;;;;;;;;;;;0;0;0;0;0;0;0;0;0;();(-2000.0, -2000.0);
03:36:48:012;03:36:47:987;1448290367.63;(0.32305207252502444, 0.8914752960205078);30.7269153595;0.802099817506;;;;;;;;;;;;;;0;0;0;0;0;0;0;0;0;();(-2000.0, -2000.0);
03:36:48:029;03:36:47:987;1448290367.63;(0.32305207252502444, 0.8914752960205078);30.7269153595;0.802099817506;;;;;;;;;;;;;;0;0;0;0;0;0;0;0;0;();(-2000.0, -2000.0);
03:36:48:045;03:36:47:987;1448290367.63;(0.32305207252502444, 0.8914752960205078);30.7269153595;0.802099817506;;;;;;;;;;;;;;0;0;0;0;0;0;0;0;0;();(-2000.0, -2000.0);
03:36:48:077;03:36:48:048;1448290367.7;(0.5460267543792725, 0.7928502400716146);81.5039138794;0.841497121884;;;;;;;;;;;;;;0;0;0;0;0;0;0;0;0;();(-2000.0, -2000.0);
03:36:48:094;03:36:48:048;1448290367.7;(0.5460267543792725, 0.7928502400716146);81.5039138794;0.841497121884;;;;;;;;;;;;;;0;0;0;0;0;0;0;0;0;();(-2000.0, -2000.0);
03:36:48:111;03:36:48:048;1448290367.7;(0.5460267543792725, 0.7928502400716146);81.5039138794;0.841497121884;;;;;;;;;;;;;;0;0;0;0;0;0;0;0;0;();(-2000.0, -2000.0);
03:36:48:127;03:36:48:115;1448290367.73;(0.324825644493103, 0.8475051244099935);22.0261287689;0.609406739905;;;;;;;;;;;;;;0;0;0;0;0;0;0;0;0;();(-2000.0, -2000.0);
03:36:48:144;03:36:48:115;1448290367.73;(0.324825644493103, 0.8475051244099935);22.0261287689;0.609406739905;;;;;;;;;;;;;;0;0;0;0;0;0;0;0;0;();(-2000.0, -2000.0);
03:36:48:177;03:36:48:115;1448290367.73;(0.324825644493103, 0.8475051244099935);22.0261287689;0.609406739905;;;;;;;;;;;;;;0;0;0;0;0;0;0;0;0;();(-2000.0, -2000.0);
03:36:48:194;03:36:48:182;1448290367.83;(0, 0);0;0;;;;;;;;;;;;;;0;0;0;0;0;0;0;0;0;();(-2000.0, -2000.0);
03:36:48:210;03:36:48:182;1448290367.83;(0, 0);0;0;;;;;;;;;;;;;;0;0;0;0;0;0;0;0;0;();(-2000.0, -2000.0);
03:36:48:227;03:36:48:182;1448290367.83;(0, 0);0;0;;;;;;;;;;;;;;0;0;0;0;0;0;0;0;0;();(-2000.0, -2000.0);
03:36:48:243;03:36:48:182;1448290367.83;(0, 0);0;0;;;;;;;;;;;;;;0;0;0;0;0;0;0;0;0;();(-2000.0, -2000.0);
03:36:48:261;03:36:48:247;1448290367.9;(0, 0);0;0;;;;;;;;;;;;;;0;0;0;0;0;0;0;0;0;();(-2000.0, -2000.0);
03:36:48:294;03:36:48:247;1448290367.9;(0, 0);0;0;;;;;;;;;;;;;;0;0;0;0;0;0;0;0;0;();(-2000.0, -2000.0);
03:36:48:311;03:36:48:247;1448290367.9;(0, 0);0;0;;;;;;;;;;;;;;0;0;0;0;0;0;0;0;0;();(-2000.0, -2000.0);
03:36:48:327;03:36:48:316;1448290367.96;(0, 0);0;0;;;;;;;;;;;;;;0;0;0;0;0;0;0;0;0;();(-2000.0, -2000.0);
03:36:48:344;03:36:48:316;1448290367.96;(0, 0);0;0;;;;;;;;;;;;;;0;0;0;0;0;0;0;0;0;();(-2000.0, -2000.0);
03:36:48:377;03:36:48:316;1448290367.96;(0, 0);0;0;;;;;;;;;;;;;;0;0;0;0;0;0;0;0;0;();(-2000.0, -2000.0);
03:36:48:394;03:36:48:381;1448290368.03;(0.28549580574035643, 0.7094958835177951);27.8408718109;0.601615365314;;;;;;;;;;;;;;0;0;0;0;0;0;0;0;0;();(-2000.0, -2000.0);
03:36:48:411;03:36:48:381;1448290368.03;(0.28549580574035643, 0.7094958835177951);27.8408718109;0.601615365314;;;;;;;;;;;;;;0;0;0;0;0;0;0;0;0;();(-2000.0, -2000.0);
03:36:48:427;03:36:48:381;1448290368.03;(0.28549580574035643, 0.7094958835177951);27.8408718109;0.601615365314;;;;;;;;;;;;;;0;0;0;0;0;0;0;0;0;();(-2000.0, -2000.0);
03:36:48:444;03:36:48:381;1448290368.03;(0.28549580574035643, 0.7094958835177951);27.8408718109;0.601615365314;;;;;;;;;;;;;;0;0;0;0;0;0;0;0;0;();(-2000.0, -2000.0);
03:36:48:477;03:36:48:449;1448290368.1;(0.5615470886230469, 0.7630226135253906);75.8869934082;0.950902778084;;;;;;;;;;;;;;0;0;0;0;0;0;0;0;0;();(-2000.0, -2000.0);
03:36:48:493;03:36:48:449;1448290368.1;(0.5615470886230469, 0.7630226135253906);75.8869934082;0.950902778084;;;;;;;;;;;;;;0;0;0;0;0;0;0;0;0;();(-2000.0, -2000.0);
03:36:48:510;03:36:48:449;1448290368.1;(0.5615470886230469, 0.7630226135253906);75.8869934082;0.950902778084;;;;;;;;;;;;;;0;0;0;0;0;0;0;0;0;();(-2000.0, -2000.0);
03:36:48:527;03:36:48:511;1448290368.16;(0, 0);0;0;;;;;;;;;;;;;;0;0;0;0;0;0;0;0;0;();(-2000.0, -2000.0);
03:36:48:544;03:36:48:511;1448290368.16;(0, 0);0;0;;;;;;;;;;;;;;0;0;0;0;0;0;0;0;0;();(-2000.0, -2000.0);
03:36:48:581;03:36:48:511;1448290368.16;(0, 0);0;0;;;;;;;;;;;;;;0;0;0;0;0;0;0;0;0;();(-2000.0, -2000.0);
03:36:48:595;03:36:48:583;1448290368.23;(0.5637815952301025, 0.7577967749701606);75.5452728271;0.775618664972;;;;;;;;;;;;;;0;0;0;0;0;0;0;0;0;();(-2000.0, -2000.0);
03:36:48:611;03:36:48:583;1448290368.23;(0.5637815952301025, 0.7577967749701606);75.5452728271;0.775618664972;;;;;;;;;;;;;;0;0;0;0;0;0;0;0;0;();(-2000.0, -2000.0);
03:36:48:627;03:36:48:583;1448290368.23;(0.5637815952301025, 0.7577967749701606);75.5452728271;0.775618664972;;;;;;;;;;;;;;0;0;0;0;0;0;0;0;0;();(-2000.0, -2000.0);
03:36:48:644;03:36:48:583;1448290368.23;(0.5637815952301025, 0.7577967749701606);75.5452728271;0.775618664972;;;;;;;;;;;;;;0;0;0;0;0;0;0;0;0;();(-2000.0, -2000.0);
03:36:48:661;03:36:48:647;1448290368.26;(0.5624040603637696, 0.7536119249131945);72.9797439575;0.944782136769;;;;;;;;;;;;;;0;0;0;0;0;0;0;0;0;();(-2000.0, -2000.0);
03:36:48:695;03:36:48:647;1448290368.26;(0.5624040603637696, 0.7536119249131945);72.9797439575;0.944782136769;;;;;;;;;;;;;;0;0;0;0;0;0;0;0;0;();(-2000.0, -2000.0);
03:36:48:711;03:36:48:647;1448290368.26;(0.5624040603637696, 0.7536119249131945);72.9797439575;0.944782136769;;;;;;;;;;;;;;0;0;0;0;0;0;0;0;0;();(-2000.0, -2000.0);
03:36:48:727;03:36:48:715;1448290368.36;(0.5614117622375489, 0.7581113603379992);74.2957305908;0.864212437589;;;;;;;;;;;;;;0;0;0;0;0;0;0;0;0;();(-2000.0, -2000.0);
03:36:48:744;03:36:48:715;1448290368.36;(0.5614117622375489, 0.7581113603379992);74.2957305908;0.864212437589;;;;;;;;;;;;;;0;0;0;0;0;0;0;0;0;();(-2000.0, -2000.0);
03:36:48:760;03:36:48:715;1448290368.36;(0.5614117622375489, 0.7581113603379992);74.2957305908;0.864212437589;;;;;;;;;;;;;;0;0;0;0;0;0;0;0;0;();(-2000.0, -2000.0);
03:36:48:794;03:36:48:780;1448290368.43;(0.5604641914367676, 0.7619596269395617);72.4344863892;0.788215324573;;;;;;;;;;;;;;0;0;0;0;0;0;0;0;0;();(-2000.0, -2000.0);
03:36:48:811;03:36:48:780;1448290368.43;(0.5604641914367676, 0.7619596269395617);72.4344863892;0.788215324573;;;;;;;;;;;;;;0;0;0;0;0;0;0;0;0;();(-2000.0, -2000.0);
03:36:48:827;03:36:48:780;1448290368.43;(0.5604641914367676, 0.7619596269395617);72.4344863892;0.788215324573;;;;;;;;;;;;;;0;0;0;0;0;0;0;0;0;();(-2000.0, -2000.0);
03:36:48:844;03:36:48:780;1448290368.43;(0.5604641914367676, 0.7619596269395617);72.4344863892;0.788215324573;;;;;;;;;;;;;;0;0;0;0;0;0;0;0;0;();(-2000.0, -2000.0);
03:36:48:861;03:36:48:847;1448290368.5;(0.5568424701690674, 0.7632457309299046);71.1323242188;0.923355578535;;;;;;;;;;;;;;0;0;0;0;0;0;0;0;0;();(-2000.0, -2000.0);
03:36:48:894;03:36:48:847;1448290368.5;(0.5568424701690674, 0.7632457309299046);71.1323242188;0.923355578535;;;;;;;;;;;;;;0;0;0;0;0;0;0;0;0;();(-2000.0, -2000.0);
03:36:48:911;03:36:48:847;1448290368.5;(0.5568424701690674, 0.7632457309299046);71.1323242188;0.923355578535;;;;;;;;;;;;;;0;0;0;0;0;0;0;0;0;();(-2000.0, -2000.0);
03:36:48:928;03:36:48:923;1448290368.56;(0, 0);0;0;;;;;;;;;;;;;;0;0;0;0;0;0;0;0;0;();(-2000.0, -2000.0);
03:36:48:945;03:36:48:923;1448290368.56;(0, 0);0;0;;;;;;;;;;;;;;0;0;0;0;0;0;0;0;0;();(-2000.0, -2000.0);
03:36:48:961;03:36:48:923;1448290368.56;(0, 0);0;0;;;;;;;;;;;;;;0;0;0;0;0;0;0;0;0;();(-2000.0, -2000.0);
03:36:48:994;03:36:48:979;1448290368.6;(0.6677693367004395, 0.6663601769341363);72.422706604;0.955910299255;;;;;;;;;;;;;;0;0;0;0;0;0;0;0;0;();(-2000.0, -2000.0);
03:36:49:012;03:36:48:979;1448290368.6;(0.6677693367004395, 0.6663601769341363);72.422706604;0.955910299255;;;;;;;;;;;;;;0;0;0;0;0;0;0;0;0;();(-2000.0, -2000.0);
03:36:49:028;03:36:48:979;1448290368.6;(0.6677693367004395, 0.6663601769341363);72.422706604;0.955910299255;;;;;;;;;;;;;;0;0;0;0;0;0;0;0;0;();(-2000.0, -2000.0);
03:36:49:045;03:36:48:979;1448290368.6;(0.6677693367004395, 0.6663601769341363);72.422706604;0.955910299255;;;;;;;;;;;;;;0;0;0;0;0;0;0;0;0;();(-2000.0, -2000.0);
03:36:49:062;03:36:49:049;1448290368.7;(0.6593485355377198, 0.6635326385498047);71.3683013916;1.0;;;;;;;;;;;;;;0;0;0;0;0;0;0;0;0;();(-2000.0, -2000.0);
03:36:49:096;03:36:49:049;1448290368.7;(0.6593485355377198, 0.6635326385498047);71.3683013916;1.0;;;;;;;;;;;;;;0;0;0;0;0;0;0;0;0;();(-2000.0, -2000.0);
03:36:49:114;03:36:49:049;1448290368.7;(0.6593485355377198, 0.6635326385498047);71.3683013916;1.0;;;;;;;;;;;;;;0;0;0;0;0;0;0;0;0;();(-2000.0, -2000.0);
03:36:49:131;03:36:49:117;1448290368.76;(0.32359817028045657, 0.7739169650607639);21.0092372894;0.608993102934;;;;;;;;;;;;;;0;0;0;0;0;0;0;0;0;();(-2000.0, -2000.0);
03:36:49:147;03:36:49:117;1448290368.76;(0.32359817028045657, 0.7739169650607639);21.0092372894;0.608993102934;;;;;;;;;;;;;;0;0;0;0;0;0;0;0;0;();(-2000.0, -2000.0);
03:36:49:161;03:36:49:117;1448290368.76;(0.32359817028045657, 0.7739169650607639);21.0092372894;0.608993102934;;;;;;;;;;;;;;0;0;0;0;0;0;0;0;0;();(-2000.0, -2000.0);
03:36:49:194;03:36:49:175;1448290368.83;(0, 0);0;0;;;;;;;;;;;;;;0;0;0;0;0;0;0;0;0;();(-2000.0, -2000.0);
03:36:49:211;03:36:49:175;1448290368.83;(0, 0);0;0;;;;;;;;;;;;;;0;0;0;0;0;0;0;0;0;();(-2000.0, -2000.0);
03:36:49:228;03:36:49:175;1448290368.83;(0, 0);0;0;;;;;;;;;;;;;;0;0;0;0;0;0;0;0;0;();(-2000.0, -2000.0);
03:36:49:246;03:36:49:243;1448290368.86;(0.40634565353393554, 0.4845365736219618);26.1552371979;0.688346333787;;;;;;;;;;;;;;0;0;0;0;0;0;0;0;0;();(-2000.0, -2000.0);
03:36:49:262;03:36:49:244;1448290368.9;(0, 0);0;0;;;;;;;;;;;;;;0;0;0;0;0;0;0;0;0;();(-2000.0, -2000.0);
03:36:49:297;03:36:49:244;1448290368.9;(0, 0);0;0;;;;;;;;;;;;;;0;0;0;0;0;0;0;0;0;();(-2000.0, -2000.0);
03:36:49:314;03:36:49:244;1448290368.9;(0, 0);0;0;;;;;;;;;;;;;;0;0;0;0;0;0;0;0;0;();(-2000.0, -2000.0);
03:36:49:330;03:36:49:311;1448290368.93;(0.6835773944854736, 0.6607819027370877);65.8817749023;0.862723717258;;;;;;;;;;;;;;0;0;0;0;0;0;0;0;0;();(-2000.0, -2000.0);
03:36:49:347;03:36:49:311;1448290368.93;(0.6835773944854736, 0.6607819027370877);65.8817749023;0.862723717258;;;;;;;;;;;;;;0;0;0;0;0;0;0;0;0;();(-2000.0, -2000.0);
03:36:49:363;03:36:49:311;1448290368.93;(0.6835773944854736, 0.6607819027370877);65.8817749023;0.862723717258;;;;;;;;;;;;;;0;0;0;0;0;0;0;0;0;();(-2000.0, -2000.0);
03:36:49:395;03:36:49:375;1448290368.97;(0.6811347007751465, 0.6654947068956163);68.2467346191;0.853794513635;;;;;;;;;;;;;;0;0;0;0;0;0;0;0;0;();(-2000.0, -2000.0);
03:36:49:412;03:36:49:375;1448290368.97;(0.6811347007751465, 0.6654947068956163);68.2467346191;0.853794513635;;;;;;;;;;;;;;0;0;0;0;0;0;0;0;0;();(-2000.0, -2000.0);
03:36:49:429;03:36:49:375;1448290368.97;(0.6811347007751465, 0.6654947068956163);68.2467346191;0.853794513635;;;;;;;;;;;;;;0;0;0;0;0;0;0;0;0;();(-2000.0, -2000.0);
03:36:49:446;03:36:49:442;1448290369.02;(0.6788415431976318, 0.6672450807359483);69.0128936768;1.0;;;;;;;;;;;;;;0;0;0;0;0;0;0;0;0;();(-2000.0, -2000.0);
03:36:49:461;03:36:49:444;1448290369.08;(0.672766923904419, 0.6708555645412869);68.4659576416;0.868926367845;;;;;;;;;;;;;;0;0;0;0;0;0;0;0;0;();(-2000.0, -2000.0);
03:36:49:494;03:36:49:444;1448290369.08;(0.672766923904419, 0.6708555645412869);68.4659576416;0.868926367845;;;;;;;;;;;;;;0;0;0;0;0;0;0;0;0;();(-2000.0, -2000.0);
03:36:49:511;03:36:49:444;1448290369.08;(0.672766923904419, 0.6708555645412869);68.4659576416;0.868926367845;;;;;;;;;;;;;;0;0;0;0;0;0;0;0;0;();(-2000.0, -2000.0);
03:36:49:528;03:36:49:514;1448290369.1;(0.9231305122375488, 0.8222060097588433);50.4337692261;0.605439498426;;;;;;;;;;;;;;0;0;0;0;0;0;0;0;0;();(-2000.0, -2000.0);
03:36:49:545;03:36:49:514;1448290369.1;(0.9231305122375488, 0.8222060097588433);50.4337692261;0.605439498426;;;;;;;;;;;;;;0;0;0;0;0;0;0;0;0;();(-2000.0, -2000.0);
03:36:49:561;03:36:49:514;1448290369.1;(0.9231305122375488, 0.8222060097588433);50.4337692261;0.605439498426;;;;;;;;;;;;;;0;0;0;0;0;0;0;0;0;();(-2000.0, -2000.0);
03:36:49:595;03:36:49:576;1448290369.23;(0.7259479999542237, 0.6539523866441515);66.2325210571;0.864713793808;;;;;;;;;;;;;;0;0;0;0;0;0;0;0;0;();(-2000.0, -2000.0);
03:36:49:612;03:36:49:576;1448290369.23;(0.7259479999542237, 0.6539523866441515);66.2325210571;0.864713793808;;;;;;;;;;;;;;0;0;0;0;0;0;0;0;0;();(-2000.0, -2000.0);
03:36:49:628;03:36:49:576;1448290369.23;(0.7259479999542237, 0.6539523866441515);66.2325210571;0.864713793808;;;;;;;;;;;;;;0;0;0;0;0;0;0;0;0;();(-2000.0, -2000.0);
03:36:49:645;03:36:49:576;1448290369.23;(0.7259479999542237, 0.6539523866441515);66.2325210571;0.864713793808;;;;;;;;;;;;;;0;0;0;0;0;0;0;0;0;();(-2000.0, -2000.0);
03:36:49:661;03:36:49:653;1448290369.26;(0.7206402778625488, 0.6606301837497287);67.9268798828;0.974845602217;;;;;;;;;;;;;;0;0;0;0;0;0;0;0;0;();(-2000.0, -2000.0);
03:36:49:695;03:36:49:653;1448290369.26;(0.7206402778625488, 0.6606301837497287);67.9268798828;0.974845602217;;;;;;;;;;;;;;0;0;0;0;0;0;0;0;0;();(-2000.0, -2000.0);
03:36:49:712;03:36:49:709;1448290369.33;(0.373177170753479, 0.8377316157023111);25.6801242828;0.684912411664;;;;;;;;;;;;;;0;0;0;0;0;0;0;0;0;();(-2000.0, -2000.0);
03:36:49:728;03:36:49:717;1448290369.36;(0.6946608066558838, 0.6760955174763997);70.3108444214;0.920515984794;;;;;;;;;;;;;;0;0;0;0;0;0;0;0;0;();(-2000.0, -2000.0);
03:36:49:745;03:36:49:717;1448290369.36;(0.6946608066558838, 0.6760955174763997);70.3108444214;0.920515984794;;;;;;;;;;;;;;0;0;0;0;0;0;0;0;0;();(-2000.0, -2000.0);
03:36:49:761;03:36:49:717;1448290369.36;(0.6946608066558838, 0.6760955174763997);70.3108444214;0.920515984794;;;;;;;;;;;;;;0;0;0;0;0;0;0;0;0;();(-2000.0, -2000.0);
03:36:49:796;03:36:49:777;1448290369.43;(0.9064787864685059, 0.34942054748535156);30.1584682465;0.608075138648;;;;;;;;;;;;;;0;0;0;0;0;0;0;0;0;();(-2000.0, -2000.0);
03:36:49:812;03:36:49:777;1448290369.43;(0.9064787864685059, 0.34942054748535156);30.1584682465;0.608075138648;;;;;;;;;;;;;;0;0;0;0;0;0;0;0;0;();(-2000.0, -2000.0);
03:36:49:828;03:36:49:777;1448290369.43;(0.9064787864685059, 0.34942054748535156);30.1584682465;0.608075138648;;;;;;;;;;;;;;0;0;0;0;0;0;0;0;0;();(-2000.0, -2000.0);
03:36:49:846;03:36:49:839;1448290369.46;(0.9081544876098633, 0.35786950853135846);22.9615688324;0.629742511127;;;;;;;;;;;;;;0;0;0;0;0;0;0;0;0;();(-2000.0, -2000.0);
03:36:49:862;03:36:49:839;1448290369.46;(0.9081544876098633, 0.35786950853135846);22.9615688324;0.629742511127;;;;;;;;;;;;;;0;0;0;0;0;0;0;0;0;();(-2000.0, -2000.0);
03:36:49:895;03:36:49:839;1448290369.46;(0.9081544876098633, 0.35786950853135846);22.9615688324;0.629742511127;;;;;;;;;;;;;;0;0;0;0;0;0;0;0;0;();(-2000.0, -2000.0);
03:36:49:914;03:36:49:839;1448290369.46;(0.9081544876098633, 0.35786950853135846);22.9615688324;0.629742511127;;;;;;;;;;;;;;0;0;0;0;0;0;0;0;0;();(-2000.0, -2000.0);
03:36:49:928;03:36:49:913;1448290369.56;(0.7235156536102295, 0.6757400300767686);72.6478271484;0.910959239222;;;;;;;;;;;;;;0;0;0;0;0;0;0;0;0;();(-2000.0, -2000.0);
03:36:49:946;03:36:49:913;1448290369.56;(0.7235156536102295, 0.6757400300767686);72.6478271484;0.910959239222;;;;;;;;;;;;;;0;0;0;0;0;0;0;0;0;();(-2000.0, -2000.0);
03:36:49:962;03:36:49:913;1448290369.56;(0.7235156536102295, 0.6757400300767686);72.6478271484;0.910959239222;;;;;;;;;;;;;;0;0;0;0;0;0;0;0;0;();(-2000.0, -2000.0);
03:36:49:995;03:36:49:913;1448290369.56;(0.7235156536102295, 0.6757400300767686);72.6478271484;0.910959239222;;;;;;;;;;;;;;0;0;0;0;0;0;0;0;0;();(-2000.0, -2000.0);
03:36:50:012;03:36:49:913;1448290369.56;(0.7235156536102295, 0.6757400300767686);72.6478271484;0.910959239222;;;;;;;;;;;;;;0;0;0;0;0;0;0;0;0;();(-2000.0, -2000.0);
03:36:50:028;03:36:49:913;1448290369.56;(0.7235156536102295, 0.6757400300767686);72.6478271484;0.910959239222;;;;;;;;;;;;;;0;0;0;0;0;0;0;0;0;();(-2000.0, -2000.0);
03:36:50:046;03:36:49:913;1448290369.56;(0.7235156536102295, 0.6757400300767686);72.6478271484;0.910959239222;;;;;;;;;;;;;;0;0;0;0;0;0;0;0;0;();(-2000.0, -2000.0);
03:36:50:063;03:36:50:059;1448290369.58;(0.7203711986541748, 0.6733099195692274);71.2865524292;0.628036504342;;;;;;;;;;;;;;0;0;0;0;0;0;0;0;0;();(-2000.0, -2000.0);
03:36:50:098;03:36:50:066;1448290369.7;(0, 0);0;0;;;;;;;;;;;;;;0;0;0;0;0;0;0;0;0;();(-2000.0, -2000.0);
03:36:50:114;03:36:50:107;1448290369.73;(0.7111408710479736, 0.691084713406033);76.5244293213;0.920522411975;;;;;;;;;;;;;;0;0;0;0;0;0;0;0;0;();(-2000.0, -2000.0);
03:36:50:129;03:36:50:107;1448290369.73;(0.7111408710479736, 0.691084713406033);76.5244293213;0.920522411975;;;;;;;;;;;;;;0;0;0;0;0;0;0;0;0;();(-2000.0, -2000.0);
03:36:50:146;03:36:50:107;1448290369.73;(0.7111408710479736, 0.691084713406033);76.5244293213;0.920522411975;;;;;;;;;;;;;;0;0;0;0;0;0;0;0;0;();(-2000.0, -2000.0);
03:36:50:162;03:36:50:107;1448290369.73;(0.7111408710479736, 0.691084713406033);76.5244293213;0.920522411975;;;;;;;;;;;;;;0;0;0;0;0;0;0;0;0;();(-2000.0, -2000.0);
03:36:50:195;03:36:50:172;1448290369.8;(0.7071640968322754, 0.6946700625949436);78.1285247803;0.879694337467;;;;;;;;;;;;;;0;0;0;0;0;0;0;0;0;();(-2000.0, -2000.0);
03:36:50:212;03:36:50:172;1448290369.8;(0.7071640968322754, 0.6946700625949436);78.1285247803;0.879694337467;;;;;;;;;;;;;;0;0;0;0;0;0;0;0;0;();(-2000.0, -2000.0);
03:36:50:229;03:36:50:172;1448290369.8;(0.7071640968322754, 0.6946700625949436);78.1285247803;0.879694337467;;;;;;;;;;;;;;0;0;0;0;0;0;0;0;0;();(-2000.0, -2000.0);
03:36:50:245;03:36:50:241;1448290369.9;(0, 0);0;0;;;;;;;;;;;;;;0;0;0;0;0;0;0;0;0;();(-2000.0, -2000.0);
03:36:50:263;03:36:50:241;1448290369.9;(0, 0);0;0;;;;;;;;;;;;;;0;0;0;0;0;0;0;0;0;();(-2000.0, -2000.0);
03:36:50:296;03:36:50:241;1448290369.9;(0, 0);0;0;;;;;;;;;;;;;;0;0;0;0;0;0;0;0;0;();(-2000.0, -2000.0);
03:36:50:313;03:36:50:303;1448290369.93;(0.7037216663360596, 0.7029287974039713);78.032409668;0.74299964617;;;;;;;;;;;;;;0;0;0;0;0;0;0;0;0;();(-2000.0, -2000.0);
03:36:50:329;03:36:50:303;1448290369.93;(0.7037216663360596, 0.7029287974039713);78.032409668;0.74299964617;;;;;;;;;;;;;;0;0;0;0;0;0;0;0;0;();(-2000.0, -2000.0);
03:36:50:346;03:36:50:303;1448290369.93;(0.7037216663360596, 0.7029287974039713);78.032409668;0.74299964617;;;;;;;;;;;;;;0;0;0;0;0;0;0;0;0;();(-2000.0, -2000.0);
03:36:50:362;03:36:50:303;1448290369.93;(0.7037216663360596, 0.7029287974039713);78.032409668;0.74299964617;;;;;;;;;;;;;;0;0;0;0;0;0;0;0;0;();(-2000.0, -2000.0);
03:36:50:396;03:36:50:372;1448290370.0;(0, 0);0;0;;;;;;;;;;;;;;0;0;0;0;0;0;0;0;0;();(-2000.0, -2000.0);
03:36:50:412;03:36:50:372;1448290370.0;(0, 0);0;0;;;;;;;;;;;;;;0;0;0;0;0;0;0;0;0;();(-2000.0, -2000.0);
03:36:50:429;03:36:50:372;1448290370.0;(0, 0);0;0;;;;;;;;;;;;;;0;0;0;0;0;0;0;0;0;();(-2000.0, -2000.0);
03:36:50:446;03:36:50:372;1448290370.0;(0, 0);0;0;;;;;;;;;;;;;;0;0;0;0;0;0;0;0;0;();(-2000.0, -2000.0);
03:36:50:462;03:36:50:372;1448290370.0;(0, 0);0;0;;;;;;;;;;;;;;0;0;0;0;0;0;0;0;0;();(-2000.0, -2000.0);
03:36:50:495;03:36:50:372;1448290370.0;(0, 0);0;0;;;;;;;;;;;;;;0;0;0;0;0;0;0;0;0;();(-2000.0, -2000.0);
03:36:50:512;03:36:50:504;1448290370.14;(0.7073229789733887, 0.6778574625651042);79.2363586426;0.838026256438;;;;;;;;;;;;;;0;0;0;0;0;0;0;0;0;();(-2000.0, -2000.0);
03:36:50:529;03:36:50:504;1448290370.14;(0.7073229789733887, 0.6778574625651042);79.2363586426;0.838026256438;;;;;;;;;;;;;;0;0;0;0;0;0;0;0;0;();(-2000.0, -2000.0);
03:36:50:546;03:36:50:504;1448290370.14;(0.7073229789733887, 0.6778574625651042);79.2363586426;0.838026256438;;;;;;;;;;;;;;0;0;0;0;0;0;0;0;0;();(-2000.0, -2000.0);
03:36:50:562;03:36:50:504;1448290370.14;(0.7073229789733887, 0.6778574625651042);79.2363586426;0.838026256438;;;;;;;;;;;;;;0;0;0;0;0;0;0;0;0;();(-2000.0, -2000.0);
03:36:50:596;03:36:50:573;1448290370.23;(0, 0);0;0;;;;;;;;;;;;;;0;0;0;0;0;0;0;0;0;();(-2000.0, -2000.0);
03:36:50:613;03:36:50:573;1448290370.23;(0, 0);0;0;;;;;;;;;;;;;;0;0;0;0;0;0;0;0;0;();(-2000.0, -2000.0);
03:36:50:629;03:36:50:573;1448290370.23;(0, 0);0;0;;;;;;;;;;;;;;0;0;0;0;0;0;0;0;0;();(-2000.0, -2000.0);
03:36:50:646;03:36:50:638;1448290370.26;(0.6590400695800781, 0.46361372205946183);19.6699752808;0.70465077774;;;;;;;;;;;;;;0;0;0;0;0;0;0;0;0;();(-2000.0, -2000.0);
03:36:50:662;03:36:50:638;1448290370.26;(0.6590400695800781, 0.46361372205946183);19.6699752808;0.70465077774;;;;;;;;;;;;;;0;0;0;0;0;0;0;0;0;();(-2000.0, -2000.0);
03:36:50:696;03:36:50:638;1448290370.26;(0.6590400695800781, 0.46361372205946183);19.6699752808;0.70465077774;;;;;;;;;;;;;;0;0;0;0;0;0;0;0;0;();(-2000.0, -2000.0);
03:36:50:713;03:36:50:704;1448290370.33;(0.7601137161254883, 0.6570166905721029);70.3806152344;0.756486543895;;;;;;;;;;;;;;0;0;0;0;0;0;0;0;0;();(-2000.0, -2000.0);
03:36:50:729;03:36:50:704;1448290370.33;(0.7601137161254883, 0.6570166905721029);70.3806152344;0.756486543895;;;;;;;;;;;;;;0;0;0;0;0;0;0;0;0;();(-2000.0, -2000.0);
03:36:50:746;03:36:50:704;1448290370.33;(0.7601137161254883, 0.6570166905721029);70.3806152344;0.756486543895;;;;;;;;;;;;;;0;0;0;0;0;0;0;0;0;();(-2000.0, -2000.0);
03:36:50:763;03:36:50:704;1448290370.33;(0.7601137161254883, 0.6570166905721029);70.3806152344;0.756486543895;;;;;;;;;;;;;;0;0;0;0;0;0;0;0;0;();(-2000.0, -2000.0);
03:36:50:796;03:36:50:770;1448290370.36;(0.7583082675933838, 0.6515114890204536);74.8444366455;0.894982181767;;;;;;;;;;;;;;0;0;0;0;0;0;0;0;0;();(-2000.0, -2000.0);
03:36:50:813;03:36:50:770;1448290370.36;(0.7583082675933838, 0.6515114890204536);74.8444366455;0.894982181767;;;;;;;;;;;;;;0;0;0;0;0;0;0;0;0;();(-2000.0, -2000.0);
03:36:50:829;03:36:50:770;1448290370.36;(0.7583082675933838, 0.6515114890204536);74.8444366455;0.894982181767;;;;;;;;;;;;;;0;0;0;0;0;0;0;0;0;();(-2000.0, -2000.0);
03:36:50:846;03:36:50:836;1448290370.47;(0.7516779899597168, 0.6510114034016927);77.516418457;0.980020038045;;;;;;;;;;;;;;0;0;0;0;0;0;0;0;0;();(-2000.0, -2000.0);
03:36:50:863;03:36:50:836;1448290370.47;(0.7516779899597168, 0.6510114034016927);77.516418457;0.980020038045;;;;;;;;;;;;;;0;0;0;0;0;0;0;0;0;();(-2000.0, -2000.0);
03:36:50:896;03:36:50:836;1448290370.47;(0.7516779899597168, 0.6510114034016927);77.516418457;0.980020038045;;;;;;;;;;;;;;0;0;0;0;0;0;0;0;0;();(-2000.0, -2000.0);
03:36:50:913;03:36:50:904;1448290370.55;(0.745278263092041, 0.6531056510077582);74.8529586792;0.797648827002;;;;;;;;;;;;;;0;0;0;0;0;0;0;0;0;();(-2000.0, -2000.0);
03:36:50:930;03:36:50:904;1448290370.55;(0.745278263092041, 0.6531056510077582);74.8529586792;0.797648827002;;;;;;;;;;;;;;0;0;0;0;0;0;0;0;0;();(-2000.0, -2000.0);
03:36:50:946;03:36:50:904;1448290370.55;(0.745278263092041, 0.6531056510077582);74.8529586792;0.797648827002;;;;;;;;;;;;;;0;0;0;0;0;0;0;0;0;();(-2000.0, -2000.0);
03:36:50:963;03:36:50:904;1448290370.55;(0.745278263092041, 0.6531056510077582);74.8529586792;0.797648827002;;;;;;;;;;;;;;0;0;0;0;0;0;0;0;0;();(-2000.0, -2000.0);
03:36:50:997;03:36:50:968;1448290370.61;(0.7395679473876953, 0.6651396009657118);77.5643157959;0.729894967643;;;;;;;;;;;;;;0;0;0;0;0;0;0;0;0;();(-2000.0, -2000.0);
03:36:51:013;03:36:50:968;1448290370.61;(0.7395679473876953, 0.6651396009657118);77.5643157959;0.729894967643;;;;;;;;;;;;;;0;0;0;0;0;0;0;0;0;();(-2000.0, -2000.0);
03:36:51:030;03:36:50:968;1448290370.61;(0.7395679473876953, 0.6651396009657118);77.5643157959;0.729894967643;;;;;;;;;;;;;;0;0;0;0;0;0;0;0;0;();(-2000.0, -2000.0);
03:36:51:046;03:36:51:041;1448290370.7;(0.7357367038726806, 0.6724993811713325);77.0298538208;0.961366346239;;;;;;;;;;;;;;0;0;0;0;0;0;0;0;0;();(-2000.0, -2000.0);
03:36:51:063;03:36:51:041;1448290370.7;(0.7357367038726806, 0.6724993811713325);77.0298538208;0.961366346239;;;;;;;;;;;;;;0;0;0;0;0;0;0;0;0;();(-2000.0, -2000.0);
03:36:51:098;03:36:51:041;1448290370.7;(0.7357367038726806, 0.6724993811713325);77.0298538208;0.961366346239;;;;;;;;;;;;;;0;0;0;0;0;0;0;0;0;();(-2000.0, -2000.0);
03:36:51:113;03:36:51:105;1448290370.76;(0.7352615356445312, 0.6753312428792317);77.3748550415;0.903388535944;;;;;;;;;;;;;;0;0;0;0;0;0;0;0;0;();(-2000.0, -2000.0);
03:36:51:129;03:36:51:105;1448290370.76;(0.7352615356445312, 0.6753312428792317);77.3748550415;0.903388535944;;;;;;;;;;;;;;0;0;0;0;0;0;0;0;0;();(-2000.0, -2000.0);
03:36:51:145;03:36:51:105;1448290370.76;(0.7352615356445312, 0.6753312428792317);77.3748550415;0.903388535944;;;;;;;;;;;;;;0;0;0;0;0;0;0;0;0;();(-2000.0, -2000.0);
03:36:51:163;03:36:51:105;1448290370.76;(0.7352615356445312, 0.6753312428792317);77.3748550415;0.903388535944;;;;;;;;;;;;;;0;0;0;0;0;0;0;0;0;();(-2000.0, -2000.0);
03:36:51:198;03:36:51:166;1448290370.8;(0, 0);0;0;;;;;;;;;;;;;;0;0;0;0;0;0;0;0;0;();(-2000.0, -2000.0);
03:36:51:216;03:36:51:166;1448290370.8;(0, 0);0;0;;;;;;;;;;;;;;0;0;0;0;0;0;0;0;0;();(-2000.0, -2000.0);
03:36:51:230;03:36:51:166;1448290370.8;(0, 0);0;0;;;;;;;;;;;;;;0;0;0;0;0;0;0;0;0;();(-2000.0, -2000.0);
03:36:51:246;03:36:51:239;1448290370.9;(0.749685525894165, 0.6548871994018555);77.9405441284;1.0;;;;;;;;;;;;;;0;0;0;0;0;0;0;0;0;();(-2000.0, -2000.0);
03:36:51:266;03:36:51:239;1448290370.9;(0.749685525894165, 0.6548871994018555);77.9405441284;1.0;;;;;;;;;;;;;;0;0;0;0;0;0;0;0;0;();(-2000.0, -2000.0);
03:36:51:299;03:36:51:239;1448290370.9;(0.749685525894165, 0.6548871994018555);77.9405441284;1.0;;;;;;;;;;;;;;0;0;0;0;0;0;0;0;0;();(-2000.0, -2000.0);
03:36:51:316;03:36:51:302;1448290370.96;(0.7493992328643799, 0.6554693433973524);77.9520187378;1.0;;;;;;;;;;;;;;0;0;0;0;0;0;0;0;0;();(-2000.0, -2000.0);
03:36:51:332;03:36:51:302;1448290370.96;(0.7493992328643799, 0.6554693433973524);77.9520187378;1.0;;;;;;;;;;;;;;0;0;0;0;0;0;0;0;0;();(-2000.0, -2000.0);
03:36:51:346;03:36:51:302;1448290370.96;(0.7493992328643799, 0.6554693433973524);77.9520187378;1.0;;;;;;;;;;;;;;0;0;0;0;0;0;0;0;0;();(-2000.0, -2000.0);
03:36:51:364;03:36:51:302;1448290370.96;(0.7493992328643799, 0.6554693433973524);77.9520187378;1.0;;;;;;;;;;;;;;0;0;0;0;0;0;0;0;0;();(-2000.0, -2000.0);
03:36:51:397;03:36:51:382;1448290371.03;(0.7490756034851074, 0.6580065197414822);78.3864593506;0.966536908841;;;;;;;;;;;;;;0;0;0;0;0;0;0;0;0;();(-2000.0, -2000.0);
03:36:51:414;03:36:51:382;1448290371.03;(0.7490756034851074, 0.6580065197414822);78.3864593506;0.966536908841;;;;;;;;;;;;;;0;0;0;0;0;0;0;0;0;();(-2000.0, -2000.0);
03:36:51:430;03:36:51:382;1448290371.03;(0.7490756034851074, 0.6580065197414822);78.3864593506;0.966536908841;;;;;;;;;;;;;;0;0;0;0;0;0;0;0;0;();(-2000.0, -2000.0);
03:36:51:447;03:36:51:382;1448290371.03;(0.7490756034851074, 0.6580065197414822);78.3864593506;0.966536908841;;;;;;;;;;;;;;0;0;0;0;0;0;0;0;0;();(-2000.0, -2000.0);
03:36:51:464;03:36:51:382;1448290371.03;(0.7490756034851074, 0.6580065197414822);78.3864593506;0.966536908841;;;;;;;;;;;;;;0;0;0;0;0;0;0;0;0;();(-2000.0, -2000.0);
03:36:51:496;03:36:51:472;1448290371.1;(0.7499662876129151, 0.6590398788452149);78.7066574097;1.0;;;;;;;;;;;;;;0;0;0;0;0;0;0;0;0;();(-2000.0, -2000.0);
03:36:51:513;03:36:51:498;1448290371.13;(0.7433398246765137, 0.6775196923149956);76.6892242432;0.757206040156;;;;;;;;;;;;;;0;0;0;0;0;0;0;0;0;();(-2000.0, -2000.0);
03:36:51:530;03:36:51:498;1448290371.13;(0.7433398246765137, 0.6775196923149956);76.6892242432;0.757206040156;;;;;;;;;;;;;;0;0;0;0;0;0;0;0;0;();(-2000.0, -2000.0);
03:36:51:547;03:36:51:498;1448290371.13;(0.7433398246765137, 0.6775196923149956);76.6892242432;0.757206040156;;;;;;;;;;;;;;0;0;0;0;0;0;0;0;0;();(-2000.0, -2000.0);
03:36:51:566;03:36:51:498;1448290371.13;(0.7433398246765137, 0.6775196923149956);76.6892242432;0.757206040156;;;;;;;;;;;;;;0;0;0;0;0;0;0;0;0;();(-2000.0, -2000.0);
03:36:51:583;03:36:51:572;1448290371.2;(0.736622428894043, 0.6946635140313042);79.477180481;0.869381129594;;;;;;;;;;;;;;0;0;0;0;0;0;0;0;0;();(-2000.0, -2000.0);
03:36:51:615;03:36:51:579;1448290371.23;(0.7366957187652587, 0.6954874886406792);79.6345062256;0.905048047731;;;;;;;;;;;;;;0;0;0;0;0;0;0;0;0;();(-2000.0, -2000.0);
03:36:51:632;03:36:51:579;1448290371.23;(0.7366957187652587, 0.6954874886406792);79.6345062256;0.905048047731;;;;;;;;;;;;;;0;0;0;0;0;0;0;0;0;();(-2000.0, -2000.0);
03:36:51:647;03:36:51:635;1448290371.3;(0.7371984004974366, 0.6961930380927193);79.4605712891;0.952572050549;;;;;;;;;;;;;;0;0;0;0;0;0;0;0;0;();(-2000.0, -2000.0);
03:36:51:664;03:36:51:635;1448290371.3;(0.7371984004974366, 0.6961930380927193);79.4605712891;0.952572050549;;;;;;;;;;;;;;0;0;0;0;0;0;0;0;0;();(-2000.0, -2000.0);
03:36:51:697;03:36:51:635;1448290371.3;(0.7371984004974366, 0.6961930380927193);79.4605712891;0.952572050549;;;;;;;;;;;;;;0;0;0;0;0;0;0;0;0;();(-2000.0, -2000.0);
03:36:51:714;03:36:51:635;1448290371.3;(0.7371984004974366, 0.6961930380927193);79.4605712891;0.952572050549;;;;;;;;;;;;;;0;0;0;0;0;0;0;0;0;();(-2000.0, -2000.0);
03:36:51:731;03:36:51:635;1448290371.3;(0.7371984004974366, 0.6961930380927193);79.4605712891;0.952572050549;;;;;;;;;;;;;;0;0;0;0;0;0;0;0;0;();(-2000.0, -2000.0);
03:36:51:747;03:36:51:635;1448290371.3;(0.7371984004974366, 0.6961930380927193);79.4605712891;0.952572050549;;;;;;;;;;;;;;0;0;0;0;0;0;0;0;0;();(-2000.0, -2000.0);
03:36:51:764;03:36:51:760;1448290371.36;(0.7381596088409423, 0.6969464196099175);79.9085235596;0.865709889344;;;;;;;;;;;;;;0;0;0;0;0;0;0;0;0;();(-2000.0, -2000.0);
03:36:51:797;03:36:51:768;1448290371.43;(0.7391219139099121, 0.6961249669392904);80.0122528076;0.985937004871;;;;;;;;;;;;;;0;0;0;0;0;0;0;0;0;();(-2000.0, -2000.0);
03:36:51:814;03:36:51:768;1448290371.43;(0.7391219139099121, 0.6961249669392904);80.0122528076;0.985937004871;;;;;;;;;;;;;;0;0;0;0;0;0;0;0;0;();(-2000.0, -2000.0);
03:36:51:829;03:36:51:768;1448290371.43;(0.7391219139099121, 0.6961249669392904);80.0122528076;0.985937004871;;;;;;;;;;;;;;0;0;0;0;0;0;0;0;0;();(-2000.0, -2000.0);
03:36:51:847;03:36:51:830;1448290371.46;(0.7393734455108643, 0.6958926518758137);80.1010284424;1.0;;;;;;;;;;;;;;0;0;0;0;0;0;0;0;0;();(-2000.0, -2000.0);
03:36:51:863;03:36:51:830;1448290371.46;(0.7393734455108643, 0.6958926518758137);80.1010284424;1.0;;;;;;;;;;;;;;0;0;0;0;0;0;0;0;0;();(-2000.0, -2000.0);
03:36:51:897;03:36:51:830;1448290371.46;(0.7393734455108643, 0.6958926518758137);80.1010284424;1.0;;;;;;;;;;;;;;0;0;0;0;0;0;0;0;0;();(-2000.0, -2000.0);
03:36:51:913;03:36:51:901;1448290371.56;(0, 0);0;0;;;;;;;;;;;;;;0;0;0;0;0;0;0;0;0;();(-2000.0, -2000.0);
03:36:51:930;03:36:51:901;1448290371.56;(0, 0);0;0;;;;;;;;;;;;;;0;0;0;0;0;0;0;0;0;();(-2000.0, -2000.0);
03:36:51:947;03:36:51:901;1448290371.56;(0, 0);0;0;;;;;;;;;;;;;;0;0;0;0;0;0;0;0;0;();(-2000.0, -2000.0);
03:36:51:963;03:36:51:901;1448290371.56;(0, 0);0;0;;;;;;;;;;;;;;0;0;0;0;0;0;0;0;0;();(-2000.0, -2000.0);
03:36:51:998;03:36:51:901;1448290371.56;(0, 0);0;0;;;;;;;;;;;;;;0;0;0;0;0;0;0;0;0;();(-2000.0, -2000.0);
03:36:52:014;03:36:51:901;1448290371.56;(0, 0);0;0;;;;;;;;;;;;;;0;0;0;0;0;0;0;0;0;();(-2000.0, -2000.0);
03:36:52:030;03:36:51:901;1448290371.56;(0, 0);0;0;;;;;;;;;;;;;;0;0;0;0;0;0;0;0;0;();(-2000.0, -2000.0);
03:36:52:048;03:36:51:901;1448290371.56;(0, 0);0;0;;;;;;;;;;;;;;0;0;0;0;0;0;0;0;0;();(-2000.0, -2000.0);
03:36:52:065;03:36:52:053;1448290371.7;(0, 0);0;0;;;;;;;;;;;;;;0;0;0;0;0;0;0;0;0;();(-2000.0, -2000.0);
03:36:52:083;03:36:52:053;1448290371.7;(0, 0);0;0;;;;;;;;;;;;;;0;0;0;0;0;0;0;0;0;();(-2000.0, -2000.0);
03:36:52:117;03:36:52:102;1448290371.73;(0.6937490940093994, 0.7387807846069336);79.5011291504;0.906081119376;;;;;;;;;;;;;;0;0;0;0;0;0;0;0;0;();(-2000.0, -2000.0);
03:36:52:132;03:36:52:102;1448290371.73;(0.6937490940093994, 0.7387807846069336);79.5011291504;0.906081119376;;;;;;;;;;;;;;0;0;0;0;0;0;0;0;0;();(-2000.0, -2000.0);
03:36:52:150;03:36:52:102;1448290371.73;(0.6937490940093994, 0.7387807846069336);79.5011291504;0.906081119376;;;;;;;;;;;;;;0;0;0;0;0;0;0;0;0;();(-2000.0, -2000.0);
03:36:52:164;03:36:52:102;1448290371.73;(0.6937490940093994, 0.7387807846069336);79.5011291504;0.906081119376;;;;;;;;;;;;;;0;0;0;0;0;0;0;0;0;();(-2000.0, -2000.0);
03:36:52:197;03:36:52:175;1448290371.83;(0.6955131530761719, 0.7396921157836914);82.4139328003;0.848508630509;;;;;;;;;;;;;;0;0;0;0;0;0;0;0;0;();(-2000.0, -2000.0);
03:36:52:215;03:36:52:175;1448290371.83;(0.6955131530761719, 0.7396921157836914);82.4139328003;0.848508630509;;;;;;;;;;;;;;0;0;0;0;0;0;0;0;0;();(-2000.0, -2000.0);
03:36:52:233;03:36:52:175;1448290371.83;(0.6955131530761719, 0.7396921157836914);82.4139328003;0.848508630509;;;;;;;;;;;;;;0;0;0;0;0;0;0;0;0;();(-2000.0, -2000.0);
03:36:52:249;03:36:52:239;1448290371.9;(0, 0);0;0;;;;;;;;;;;;;;0;0;0;0;0;0;0;0;0;();(-2000.0, -2000.0);
03:36:52:267;03:36:52:239;1448290371.9;(0, 0);0;0;;;;;;;;;;;;;;0;0;0;0;0;0;0;0;0;();(-2000.0, -2000.0);
03:36:52:281;03:36:52:239;1448290371.9;(0, 0);0;0;;;;;;;;;;;;;;0;0;0;0;0;0;0;0;0;();(-2000.0, -2000.0);
03:36:52:314;03:36:52:239;1448290371.9;(0, 0);0;0;;;;;;;;;;;;;;0;0;0;0;0;0;0;0;0;();(-2000.0, -2000.0);
03:36:52:331;03:36:52:239;1448290371.9;(0, 0);0;0;;;;;;;;;;;;;;0;0;0;0;0;0;0;0;0;();(-2000.0, -2000.0);
03:36:52:348;03:36:52:335;1448290371.93;(0, 0);0;0;;;;;;;;;;;;;;0;0;0;0;0;0;0;0;0;();(-2000.0, -2000.0);
03:36:52:365;03:36:52:335;1448290371.93;(0, 0);0;0;;;;;;;;;;;;;;0;0;0;0;0;0;0;0;0;();(-2000.0, -2000.0);
03:36:52:381;03:36:52:365;1448290372.0;(0, 0);0;0;;;;;;;;;;;;;;0;0;0;0;0;0;0;0;0;();(-2000.0, -2000.0);
03:36:52:414;03:36:52:365;1448290372.0;(0, 0);0;0;;;;;;;;;;;;;;0;0;0;0;0;0;0;0;0;();(-2000.0, -2000.0);
03:36:52:431;03:36:52:427;1448290372.03;(0.6465156078338623, 0.7364699469672309);83.7934265137;0.781536729234;;;;;;;;;;;;;;0;0;0;0;0;0;0;0;0;();(-2000.0, -2000.0);
03:36:52:447;03:36:52:435;1448290372.1;(0.6509889125823974, 0.7378344217936198);83.7805328369;0.921912792557;;;;;;;;;;;;;;0;0;0;0;0;0;0;0;0;();(-2000.0, -2000.0);
03:36:52:464;03:36:52:435;1448290372.1;(0.6509889125823974, 0.7378344217936198);83.7805328369;0.921912792557;;;;;;;;;;;;;;0;0;0;0;0;0;0;0;0;();(-2000.0, -2000.0);
03:36:52:481;03:36:52:435;1448290372.1;(0.6509889125823974, 0.7378344217936198);83.7805328369;0.921912792557;;;;;;;;;;;;;;0;0;0;0;0;0;0;0;0;();(-2000.0, -2000.0);
03:36:52:517;03:36:52:496;1448290372.13;(0.42018373012542726, 0.5062070634629992);24.2075691223;0.935324494315;;;;;;;;;;;;;;0;0;0;0;0;0;0;0;0;();(-2000.0, -2000.0);
03:36:52:533;03:36:52:496;1448290372.13;(0.42018373012542726, 0.5062070634629992);24.2075691223;0.935324494315;;;;;;;;;;;;;;0;0;0;0;0;0;0;0;0;();(-2000.0, -2000.0);
03:36:52:550;03:36:52:496;1448290372.13;(0.42018373012542726, 0.5062070634629992);24.2075691223;0.935324494315;;;;;;;;;;;;;;0;0;0;0;0;0;0;0;0;();(-2000.0, -2000.0);
03:36:52:567;03:36:52:496;1448290372.13;(0.42018373012542726, 0.5062070634629992);24.2075691223;0.935324494315;;;;;;;;;;;;;;0;0;0;0;0;0;0;0;0;();(-2000.0, -2000.0);
03:36:52:581;03:36:52:496;1448290372.13;(0.42018373012542726, 0.5062070634629992);24.2075691223;0.935324494315;;;;;;;;;;;;;;0;0;0;0;0;0;0;0;0;();(-2000.0, -2000.0);
03:36:52:614;03:36:52:496;1448290372.13;(0.42018373012542726, 0.5062070634629992);24.2075691223;0.935324494315;;;;;;;;;;;;;;0;0;0;0;0;0;0;0;0;();(-2000.0, -2000.0);
03:36:52:632;03:36:52:628;1448290372.26;(0.9055153846740722, 0.7178140640258789);41.5585670471;0.801004097876;;;;;;;;;;;;;;0;0;0;0;0;0;0;0;0;();(-2000.0, -2000.0);
03:36:52:648;03:36:52:628;1448290372.26;(0.9055153846740722, 0.7178140640258789);41.5585670471;0.801004097876;;;;;;;;;;;;;;0;0;0;0;0;0;0;0;0;();(-2000.0, -2000.0);
03:36:52:664;03:36:52:628;1448290372.26;(0.9055153846740722, 0.7178140640258789);41.5585670471;0.801004097876;;;;;;;;;;;;;;0;0;0;0;0;0;0;0;0;();(-2000.0, -2000.0);
03:36:52:681;03:36:52:628;1448290372.26;(0.9055153846740722, 0.7178140640258789);41.5585670471;0.801004097876;;;;;;;;;;;;;;0;0;0;0;0;0;0;0;0;();(-2000.0, -2000.0);
03:36:52:714;03:36:52:695;1448290372.3;(0.632569408416748, 0.7380756378173828);80.9194335938;1.0;;;;;;;;;;;;;;0;0;0;0;0;0;0;0;0;();(-2000.0, -2000.0);
03:36:52:731;03:36:52:695;1448290372.3;(0.632569408416748, 0.7380756378173828);80.9194335938;1.0;;;;;;;;;;;;;;0;0;0;0;0;0;0;0;0;();(-2000.0, -2000.0);
03:36:52:748;03:36:52:695;1448290372.3;(0.632569408416748, 0.7380756378173828);80.9194335938;1.0;;;;;;;;;;;;;;0;0;0;0;0;0;0;0;0;();(-2000.0, -2000.0);
03:36:52:764;03:36:52:760;1448290372.4;(0, 0);0;0;;;;;;;;;;;;;;0;0;0;0;0;0;0;0;0;();(-2000.0, -2000.0);
03:36:52:781;03:36:52:760;1448290372.4;(0, 0);0;0;;;;;;;;;;;;;;0;0;0;0;0;0;0;0;0;();(-2000.0, -2000.0);
03:36:52:814;03:36:52:760;1448290372.4;(0, 0);0;0;;;;;;;;;;;;;;0;0;0;0;0;0;0;0;0;();(-2000.0, -2000.0);
03:36:52:831;03:36:52:760;1448290372.4;(0, 0);0;0;;;;;;;;;;;;;;0;0;0;0;0;0;0;0;0;();(-2000.0, -2000.0);
03:36:52:848;03:36:52:760;1448290372.4;(0, 0);0;0;;;;;;;;;;;;;;0;0;0;0;0;0;0;0;0;();(-2000.0, -2000.0);
03:36:52:864;03:36:52:760;1448290372.4;(0, 0);0;0;;;;;;;;;;;;;;0;0;0;0;0;0;0;0;0;();(-2000.0, -2000.0);
03:36:52:882;03:36:52:760;1448290372.4;(0, 0);0;0;;;;;;;;;;;;;;0;0;0;0;0;0;0;0;0;();(-2000.0, -2000.0);
03:36:52:915;03:36:52:760;1448290372.4;(0, 0);0;0;;;;;;;;;;;;;;0;0;0;0;0;0;0;0;0;();(-2000.0, -2000.0);
03:36:52:932;03:36:52:922;1448290372.53;(0.6426212310791015, 0.7394181569417317);82.2450637817;0.774123458615;;;;;;;;;;;;;;0;0;0;0;0;0;0;0;0;();(-2000.0, -2000.0);
03:36:52:948;03:36:52:922;1448290372.53;(0.6426212310791015, 0.7394181569417317);82.2450637817;0.774123458615;;;;;;;;;;;;;;0;0;0;0;0;0;0;0;0;();(-2000.0, -2000.0);
03:36:52:964;03:36:52:959;1448290372.6;(0.6472175598144532, 0.732428338792589);78.9908370972;0.630256418313;;;;;;;;;;;;;;0;0;0;0;0;0;0;0;0;();(-2000.0, -2000.0);
03:36:52:981;03:36:52:959;1448290372.6;(0.6472175598144532, 0.732428338792589);78.9908370972;0.630256418313;;;;;;;;;;;;;;0;0;0;0;0;0;0;0;0;();(-2000.0, -2000.0);
03:36:53:014;03:36:52:959;1448290372.6;(0.6472175598144532, 0.732428338792589);78.9908370972;0.630256418313;;;;;;;;;;;;;;0;0;0;0;0;0;0;0;0;();(-2000.0, -2000.0);
03:36:53:031;03:36:53:027;1448290372.67;(0, 0);0;0;;;;;;;;;;;;;;0;0;0;0;0;0;0;0;0;();(-2000.0, -2000.0);
03:36:53:048;03:36:53:027;1448290372.67;(0, 0);0;0;;;;;;;;;;;;;;0;0;0;0;0;0;0;0;0;();(-2000.0, -2000.0);
03:36:53:065;03:36:53:027;1448290372.67;(0, 0);0;0;;;;;;;;;;;;;;0;0;0;0;0;0;0;0;0;();(-2000.0, -2000.0);
03:36:53:081;03:36:53:027;1448290372.67;(0, 0);0;0;;;;;;;;;;;;;;0;0;0;0;0;0;0;0;0;();(-2000.0, -2000.0);
03:36:53:115;03:36:53:092;1448290372.73;(0.6514233112335205, 0.7478993521796333);78.1310272217;0.85408860792;;;;;;;;;;;;;;0;0;0;0;0;0;0;0;0;();(-2000.0, -2000.0);
03:36:53:131;03:36:53:092;1448290372.73;(0.6514233112335205, 0.7478993521796333);78.1310272217;0.85408860792;;;;;;;;;;;;;;0;0;0;0;0;0;0;0;0;();(-2000.0, -2000.0);
03:36:53:148;03:36:53:092;1448290372.73;(0.6514233112335205, 0.7478993521796333);78.1310272217;0.85408860792;;;;;;;;;;;;;;0;0;0;0;0;0;0;0;0;();(-2000.0, -2000.0);
03:36:53:164;03:36:53:092;1448290372.73;(0.6514233112335205, 0.7478993521796333);78.1310272217;0.85408860792;;;;;;;;;;;;;;0;0;0;0;0;0;0;0;0;();(-2000.0, -2000.0);
03:36:53:180;03:36:53:092;1448290372.73;(0.6514233112335205, 0.7478993521796333);78.1310272217;0.85408860792;;;;;;;;;;;;;;0;0;0;0;0;0;0;0;0;();(-2000.0, -2000.0);
03:36:53:215;03:36:53:092;1448290372.73;(0.6514233112335205, 0.7478993521796333);78.1310272217;0.85408860792;;;;;;;;;;;;;;0;0;0;0;0;0;0;0;0;();(-2000.0, -2000.0);
03:36:53:232;03:36:53:225;1448290372.8;(0.6525390148162842, 0.7462742487589518);78.3483581543;0.81631523093;;;;;;;;;;;;;;0;0;0;0;0;0;0;0;0;();(-2000.0, -2000.0);
03:36:53:251;03:36:53:236;1448290372.86;(0, 0);0;0;;;;;;;;;;;;;;0;0;0;0;0;0;0;0;0;();(-2000.0, -2000.0);
03:36:53:268;03:36:53:236;1448290372.86;(0, 0);0;0;;;;;;;;;;;;;;0;0;0;0;0;0;0;0;0;();(-2000.0, -2000.0);
03:36:53:283;03:36:53:236;1448290372.86;(0, 0);0;0;;;;;;;;;;;;;;0;0;0;0;0;0;0;0;0;();(-2000.0, -2000.0);
03:36:53:315;03:36:53:293;1448290372.93;(0.6571614265441894, 0.7451308144463433);79.0962295532;0.931340049312;;;;;;;;;;;;;;0;0;0;0;0;0;0;0;0;();(-2000.0, -2000.0);
03:36:53:332;03:36:53:293;1448290372.93;(0.6571614265441894, 0.7451308144463433);79.0962295532;0.931340049312;;;;;;;;;;;;;;0;0;0;0;0;0;0;0;0;();(-2000.0, -2000.0);
03:36:53:349;03:36:53:293;1448290372.93;(0.6571614265441894, 0.7451308144463433);79.0962295532;0.931340049312;;;;;;;;;;;;;;0;0;0;0;0;0;0;0;0;();(-2000.0, -2000.0);
03:36:53:365;03:36:53:361;1448290373.03;(0.6569311141967773, 0.7437898212009006);78.6296310425;0.973198549506;;;;;;;;;;;;;;0;0;0;0;0;0;0;0;0;();(-2000.0, -2000.0);
03:36:53:381;03:36:53:361;1448290373.03;(0.6569311141967773, 0.7437898212009006);78.6296310425;0.973198549506;;;;;;;;;;;;;;0;0;0;0;0;0;0;0;0;();(-2000.0, -2000.0);
03:36:53:417;03:36:53:361;1448290373.03;(0.6569311141967773, 0.7437898212009006);78.6296310425;0.973198549506;;;;;;;;;;;;;;0;0;0;0;0;0;0;0;0;();(-2000.0, -2000.0);
03:36:53:434;03:36:53:361;1448290373.03;(0.6569311141967773, 0.7437898212009006);78.6296310425;0.973198549506;;;;;;;;;;;;;;0;0;0;0;0;0;0;0;0;();(-2000.0, -2000.0);
03:36:53:449;03:36:53:361;1448290373.03;(0.6569311141967773, 0.7437898212009006);78.6296310425;0.973198549506;;;;;;;;;;;;;;0;0;0;0;0;0;0;0;0;();(-2000.0, -2000.0);
03:36:53:465;03:36:53:361;1448290373.03;(0.6569311141967773, 0.7437898212009006);78.6296310425;0.973198549506;;;;;;;;;;;;;;0;0;0;0;0;0;0;0;0;();(-2000.0, -2000.0);
03:36:53:482;03:36:53:361;1448290373.03;(0.6569311141967773, 0.7437898212009006);78.6296310425;0.973198549506;;;;;;;;;;;;;;0;0;0;0;0;0;0;0;0;();(-2000.0, -2000.0);
03:36:53:518;03:36:53:507;1448290373.13;(0.33913044929504393, 0.7995551321241591);45.3694229126;0.699328759271;;;;;;;;;;;;;;0;0;0;0;0;0;0;0;0;();(-2000.0, -2000.0);
03:36:53:533;03:36:53:507;1448290373.13;(0.33913044929504393, 0.7995551321241591);45.3694229126;0.699328759271;;;;;;;;;;;;;;0;0;0;0;0;0;0;0;0;();(-2000.0, -2000.0);
03:36:53:549;03:36:53:507;1448290373.13;(0.33913044929504393, 0.7995551321241591);45.3694229126;0.699328759271;;;;;;;;;;;;;;0;0;0;0;0;0;0;0;0;();(-2000.0, -2000.0);
03:36:53:565;03:36:53:559;1448290373.2;(0.6438791275024414, 0.7285343382093641);78.2075805664;0.899018492974;;;;;;;;;;;;;;0;0;0;0;0;0;0;0;0;();(-2000.0, -2000.0);
03:36:53:582;03:36:53:559;1448290373.2;(0.6438791275024414, 0.7285343382093641);78.2075805664;0.899018492974;;;;;;;;;;;;;;0;0;0;0;0;0;0;0;0;();(-2000.0, -2000.0);
03:36:53:615;03:36:53:559;1448290373.2;(0.6438791275024414, 0.7285343382093641);78.2075805664;0.899018492974;;;;;;;;;;;;;;0;0;0;0;0;0;0;0;0;();(-2000.0, -2000.0);
03:36:53:632;03:36:53:624;1448290373.26;(0, 0);0;0;;;;;;;;;;;;;;0;0;0;0;0;0;0;0;0;();(-2000.0, -2000.0);
03:36:53:649;03:36:53:624;1448290373.26;(0, 0);0;0;;;;;;;;;;;;;;0;0;0;0;0;0;0;0;0;();(-2000.0, -2000.0);
03:36:53:666;03:36:53:624;1448290373.26;(0, 0);0;0;;;;;;;;;;;;;;0;0;0;0;0;0;0;0;0;();(-2000.0, -2000.0);
03:36:53:681;03:36:53:624;1448290373.26;(0, 0);0;0;;;;;;;;;;;;;;0;0;0;0;0;0;0;0;0;();(-2000.0, -2000.0);
03:36:53:717;03:36:53:624;1448290373.26;(0, 0);0;0;;;;;;;;;;;;;;0;0;0;0;0;0;0;0;0;();(-2000.0, -2000.0);
03:36:53:734;03:36:53:624;1448290373.26;(0, 0);0;0;;;;;;;;;;;;;;0;0;0;0;0;0;0;0;0;();(-2000.0, -2000.0);
03:36:53:749;03:36:53:624;1448290373.26;(0, 0);0;0;;;;;;;;;;;;;;0;0;0;0;0;0;0;0;0;();(-2000.0, -2000.0);
03:36:53:765;03:36:53:624;1448290373.26;(0, 0);0;0;;;;;;;;;;;;;;0;0;0;0;0;0;0;0;0;();(-2000.0, -2000.0);
03:36:53:785;03:36:53:782;1448290373.4;(0.6457703590393067, 0.7293180253770617);79.6837158203;0.881930599848;;;;;;;;;;;;;;0;0;0;0;0;0;0;0;0;();(-2000.0, -2000.0);
03:36:53:815;03:36:53:782;1448290373.4;(0.6457703590393067, 0.7293180253770617);79.6837158203;0.881930599848;;;;;;;;;;;;;;0;0;0;0;0;0;0;0;0;();(-2000.0, -2000.0);
03:36:53:832;03:36:53:823;1448290373.46;(0.6460033893585205, 0.7291669845581055);80.1626968384;1.0;;;;;;;;;;;;;;0;0;0;0;0;0;0;0;0;();(-2000.0, -2000.0);
03:36:53:849;03:36:53:823;1448290373.46;(0.6460033893585205, 0.7291669845581055);80.1626968384;1.0;;;;;;;;;;;;;;0;0;0;0;0;0;0;0;0;();(-2000.0, -2000.0);
03:36:53:866;03:36:53:823;1448290373.46;(0.6460033893585205, 0.7291669845581055);80.1626968384;1.0;;;;;;;;;;;;;;0;0;0;0;0;0;0;0;0;();(-2000.0, -2000.0);
03:36:53:882;03:36:53:823;1448290373.46;(0.6460033893585205, 0.7291669845581055);80.1626968384;1.0;;;;;;;;;;;;;;0;0;0;0;0;0;0;0;0;();(-2000.0, -2000.0);
03:36:53:918;03:36:53:892;1448290373.53;(0.6395888328552246, 0.7130448871188694);80.5630645752;0.643308347942;;;;;;;;;;;;;;0;0;0;0;0;0;0;0;0;();(-2000.0, -2000.0);
03:36:53:933;03:36:53:892;1448290373.53;(0.6395888328552246, 0.7130448871188694);80.5630645752;0.643308347942;;;;;;;;;;;;;;0;0;0;0;0;0;0;0;0;();(-2000.0, -2000.0);
03:36:53:949;03:36:53:892;1448290373.53;(0.6395888328552246, 0.7130448871188694);80.5630645752;0.643308347942;;;;;;;;;;;;;;0;0;0;0;0;0;0;0;0;();(-2000.0, -2000.0);
03:36:53:967;03:36:53:958;1448290373.6;(0.6411738395690918, 0.715102301703559);79.5305480957;0.690134773553;;;;;;;;;;;;;;0;0;0;0;0;0;0;0;0;();(-2000.0, -2000.0);
03:36:53:983;03:36:53:958;1448290373.6;(0.6411738395690918, 0.715102301703559);79.5305480957;0.690134773553;;;;;;;;;;;;;;0;0;0;0;0;0;0;0;0;();(-2000.0, -2000.0);
03:36:54:015;03:36:53:958;1448290373.6;(0.6411738395690918, 0.715102301703559);79.5305480957;0.690134773553;;;;;;;;;;;;;;0;0;0;0;0;0;0;0;0;();(-2000.0, -2000.0);
03:36:54:032;03:36:53:958;1448290373.6;(0.6411738395690918, 0.715102301703559);79.5305480957;0.690134773553;;;;;;;;;;;;;;0;0;0;0;0;0;0;0;0;();(-2000.0, -2000.0);
03:36:54:049;03:36:53:958;1448290373.6;(0.6411738395690918, 0.715102301703559);79.5305480957;0.690134773553;;;;;;;;;;;;;;0;0;0;0;0;0;0;0;0;();(-2000.0, -2000.0);
03:36:54:066;03:36:53:958;1448290373.6;(0.6411738395690918, 0.715102301703559);79.5305480957;0.690134773553;;;;;;;;;;;;;;0;0;0;0;0;0;0;0;0;();(-2000.0, -2000.0);
03:36:54:082;03:36:54:070;1448290373.66;(0.6409003257751464, 0.711729473537869);80.2639389038;0.89284408512;;;;;;;;;;;;;;0;0;0;0;0;0;0;0;0;();(-2000.0, -2000.0);
03:36:54:118;03:36:54:087;1448290373.73;(0.6408201217651367, 0.7126409530639648);80.9987945557;0.979605809716;;;;;;;;;;;;;;0;0;0;0;0;0;0;0;0;();(-2000.0, -2000.0);
03:36:54:134;03:36:54:087;1448290373.73;(0.6408201217651367, 0.7126409530639648);80.9987945557;0.979605809716;;;;;;;;;;;;;;0;0;0;0;0;0;0;0;0;();(-2000.0, -2000.0);
03:36:54:149;03:36:54:087;1448290373.73;(0.6408201217651367, 0.7126409530639648);80.9987945557;0.979605809716;;;;;;;;;;;;;;0;0;0;0;0;0;0;0;0;();(-2000.0, -2000.0);
03:36:54:165;03:36:54:156;1448290373.8;(0.6575417995452881, 0.7403409957885743);79.7812423706;0.91344482198;;;;;;;;;;;;;;0;0;0;0;0;0;0;0;0;();(-2000.0, -2000.0);
03:36:54:183;03:36:54:156;1448290373.8;(0.6575417995452881, 0.7403409957885743);79.7812423706;0.91344482198;;;;;;;;;;;;;;0;0;0;0;0;0;0;0;0;();(-2000.0, -2000.0);
03:36:54:216;03:36:54:156;1448290373.8;(0.6575417995452881, 0.7403409957885743);79.7812423706;0.91344482198;;;;;;;;;;;;;;0;0;0;0;0;0;0;0;0;();(-2000.0, -2000.0);
03:36:54:232;03:36:54:226;1448290373.9;(0.65723876953125, 0.7415701124403211);81.0556640625;0.800339915804;;;;;;;;;;;;;;0;0;0;0;0;0;0;0;0;();(-2000.0, -2000.0);
03:36:54:249;03:36:54:226;1448290373.9;(0.65723876953125, 0.7415701124403211);81.0556640625;0.800339915804;;;;;;;;;;;;;;0;0;0;0;0;0;0;0;0;();(-2000.0, -2000.0);
03:36:54:266;03:36:54:226;1448290373.9;(0.65723876953125, 0.7415701124403211);81.0556640625;0.800339915804;;;;;;;;;;;;;;0;0;0;0;0;0;0;0;0;();(-2000.0, -2000.0);
03:36:54:283;03:36:54:226;1448290373.9;(0.65723876953125, 0.7415701124403211);81.0556640625;0.800339915804;;;;;;;;;;;;;;0;0;0;0;0;0;0;0;0;();(-2000.0, -2000.0);
03:36:54:316;03:36:54:226;1448290373.9;(0.65723876953125, 0.7415701124403211);81.0556640625;0.800339915804;;;;;;;;;;;;;;0;0;0;0;0;0;0;0;0;();(-2000.0, -2000.0);
03:36:54:332;03:36:54:226;1448290373.9;(0.65723876953125, 0.7415701124403211);81.0556640625;0.800339915804;;;;;;;;;;;;;;0;0;0;0;0;0;0;0;0;();(-2000.0, -2000.0);
03:36:54:349;03:36:54:226;1448290373.9;(0.65723876953125, 0.7415701124403211);81.0556640625;0.800339915804;;;;;;;;;;;;;;0;0;0;0;0;0;0;0;0;();(-2000.0, -2000.0);
03:36:54:366;03:36:54:358;1448290374.0;(0.6567232131958007, 0.7442901399400499);80.7843856812;0.808068261492;;;;;;;;;;;;;;0;0;0;0;0;0;0;0;0;();(-2000.0, -2000.0);
03:36:54:383;03:36:54:358;1448290374.0;(0.6567232131958007, 0.7442901399400499);80.7843856812;0.808068261492;;;;;;;;;;;;;;0;0;0;0;0;0;0;0;0;();(-2000.0, -2000.0);
03:36:54:416;03:36:54:358;1448290374.0;(0.6567232131958007, 0.7442901399400499);80.7843856812;0.808068261492;;;;;;;;;;;;;;0;0;0;0;0;0;0;0;0;();(-2000.0, -2000.0);
03:36:54:432;03:36:54:420;1448290374.06;(0.6568234443664551, 0.7539027320014106);80.4609909058;0.935340890158;;;;;;;;;;;;;;0;0;0;0;0;0;0;0;0;();(-2000.0, -2000.0);
03:36:54:448;03:36:54:420;1448290374.06;(0.6568234443664551, 0.7539027320014106);80.4609909058;0.935340890158;;;;;;;;;;;;;;0;0;0;0;0;0;0;0;0;();(-2000.0, -2000.0);
03:36:54:466;03:36:54:420;1448290374.06;(0.6568234443664551, 0.7539027320014106);80.4609909058;0.935340890158;;;;;;;;;;;;;;0;0;0;0;0;0;0;0;0;();(-2000.0, -2000.0);
03:36:54:481;03:36:54:420;1448290374.06;(0.6568234443664551, 0.7539027320014106);80.4609909058;0.935340890158;;;;;;;;;;;;;;0;0;0;0;0;0;0;0;0;();(-2000.0, -2000.0);
03:36:54:516;03:36:54:488;1448290374.13;(0, 0);0;0;;;;;;;;;;;;;;0;0;0;0;0;0;0;0;0;();(-2000.0, -2000.0);
03:36:54:532;03:36:54:488;1448290374.13;(0, 0);0;0;;;;;;;;;;;;;;0;0;0;0;0;0;0;0;0;();(-2000.0, -2000.0);
03:36:54:549;03:36:54:488;1448290374.13;(0, 0);0;0;;;;;;;;;;;;;;0;0;0;0;0;0;0;0;0;();(-2000.0, -2000.0);
03:36:54:565;03:36:54:488;1448290374.13;(0, 0);0;0;;;;;;;;;;;;;;0;0;0;0;0;0;0;0;0;();(-2000.0, -2000.0);
03:36:54:582;03:36:54:488;1448290374.13;(0, 0);0;0;;;;;;;;;;;;;;0;0;0;0;0;0;0;0;0;();(-2000.0, -2000.0);
03:36:54:616;03:36:54:488;1448290374.13;(0, 0);0;0;;;;;;;;;;;;;;0;0;0;0;0;0;0;0;0;();(-2000.0, -2000.0);
03:36:54:632;03:36:54:488;1448290374.13;(0, 0);0;0;;;;;;;;;;;;;;0;0;0;0;0;0;0;0;0;();(-2000.0, -2000.0);
03:36:54:649;03:36:54:488;1448290374.13;(0, 0);0;0;;;;;;;;;;;;;;0;0;0;0;0;0;0;0;0;();(-2000.0, -2000.0);
03:36:54:666;03:36:54:488;1448290374.13;(0, 0);0;0;;;;;;;;;;;;;;0;0;0;0;0;0;0;0;0;();(-2000.0, -2000.0);
03:36:54:685;03:36:54:488;1448290374.13;(0, 0);0;0;;;;;;;;;;;;;;0;0;0;0;0;0;0;0;0;();(-2000.0, -2000.0);
03:36:54:718;03:36:54:709;1448290374.33;(0.6535077095031738, 0.7605175654093425);84.6735534668;0.981736238929;;;;;;;;;;;;;;0;0;0;0;0;0;0;0;0;();(-2000.0, -2000.0);
03:36:54:735;03:36:54:709;1448290374.33;(0.6535077095031738, 0.7605175654093425);84.6735534668;0.981736238929;;;;;;;;;;;;;;0;0;0;0;0;0;0;0;0;();(-2000.0, -2000.0);
03:36:54:751;03:36:54:709;1448290374.33;(0.6535077095031738, 0.7605175654093425);84.6735534668;0.981736238929;;;;;;;;;;;;;;0;0;0;0;0;0;0;0;0;();(-2000.0, -2000.0);
03:36:54:768;03:36:54:758;1448290374.4;(0.6533281803131104, 0.75988892449273);83.9499130249;1.0;;;;;;;;;;;;;;0;0;0;0;0;0;0;0;0;();(-2000.0, -2000.0);
03:36:54:785;03:36:54:758;1448290374.4;(0.6533281803131104, 0.75988892449273);83.9499130249;1.0;;;;;;;;;;;;;;0;0;0;0;0;0;0;0;0;();(-2000.0, -2000.0);
03:36:54:818;03:36:54:758;1448290374.4;(0.6533281803131104, 0.75988892449273);83.9499130249;1.0;;;;;;;;;;;;;;0;0;0;0;0;0;0;0;0;();(-2000.0, -2000.0);
03:36:54:836;03:36:54:758;1448290374.4;(0.6533281803131104, 0.75988892449273);83.9499130249;1.0;;;;;;;;;;;;;;0;0;0;0;0;0;0;0;0;();(-2000.0, -2000.0);
03:36:54:852;03:36:54:832;1448290374.46;(0.6536311626434326, 0.7584725062052409);84.1888885498;0.889562848715;;;;;;;;;;;;;;0;0;0;0;0;0;0;0;0;();(-2000.0, -2000.0);
03:36:54:869;03:36:54:832;1448290374.46;(0.6536311626434326, 0.7584725062052409);84.1888885498;0.889562848715;;;;;;;;;;;;;;0;0;0;0;0;0;0;0;0;();(-2000.0, -2000.0);
03:36:54:886;03:36:54:832;1448290374.46;(0.6536311626434326, 0.7584725062052409);84.1888885498;0.889562848715;;;;;;;;;;;;;;0;0;0;0;0;0;0;0;0;();(-2000.0, -2000.0);
03:36:54:918;03:36:54:893;1448290374.53;(0.6539452075958252, 0.7578033871120877);84.0374145508;0.923215777378;;;;;;;;;;;;;;0;0;0;0;0;0;0;0;0;();(-2000.0, -2000.0);
03:36:54:935;03:36:54:893;1448290374.53;(0.6539452075958252, 0.7578033871120877);84.0374145508;0.923215777378;;;;;;;;;;;;;;0;0;0;0;0;0;0;0;0;();(-2000.0, -2000.0);
03:36:54:950;03:36:54:893;1448290374.53;(0.6539452075958252, 0.7578033871120877);84.0374145508;0.923215777378;;;;;;;;;;;;;;0;0;0;0;0;0;0;0;0;();(-2000.0, -2000.0);
03:36:54:967;03:36:54:893;1448290374.53;(0.6539452075958252, 0.7578033871120877);84.0374145508;0.923215777378;;;;;;;;;;;;;;0;0;0;0;0;0;0;0;0;();(-2000.0, -2000.0);
03:36:54:983;03:36:54:893;1448290374.53;(0.6539452075958252, 0.7578033871120877);84.0374145508;0.923215777378;;;;;;;;;;;;;;0;0;0;0;0;0;0;0;0;();(-2000.0, -2000.0);
03:36:55:017;03:36:54:893;1448290374.53;(0.6539452075958252, 0.7578033871120877);84.0374145508;0.923215777378;;;;;;;;;;;;;;0;0;0;0;0;0;0;0;0;();(-2000.0, -2000.0);
03:36:55:033;03:36:54:893;1448290374.53;(0.6539452075958252, 0.7578033871120877);84.0374145508;0.923215777378;;;;;;;;;;;;;;0;0;0;0;0;0;0;0;0;();(-2000.0, -2000.0);
03:36:55:050;03:36:55:041;1448290374.63;(0.3503267288208008, 0.8488206015692816);32.8983154297;0.609021887143;;;;;;;;;;;;;;0;0;0;0;0;0;0;0;0;();(-2000.0, -2000.0);
03:36:55:066;03:36:55:041;1448290374.63;(0.3503267288208008, 0.8488206015692816);32.8983154297;0.609021887143;;;;;;;;;;;;;;0;0;0;0;0;0;0;0;0;();(-2000.0, -2000.0);
03:36:55:083;03:36:55:041;1448290374.63;(0.3503267288208008, 0.8488206015692816);32.8983154297;0.609021887143;;;;;;;;;;;;;;0;0;0;0;0;0;0;0;0;();(-2000.0, -2000.0);
03:36:55:116;03:36:55:089;1448290374.73;(0.6369976997375488, 0.7624892552693685);85.0455169678;0.898646797815;;;;;;;;;;;;;;0;0;0;0;0;0;0;0;0;();(-2000.0, -2000.0);
03:36:55:135;03:36:55:089;1448290374.73;(0.6369976997375488, 0.7624892552693685);85.0455169678;0.898646797815;;;;;;;;;;;;;;0;0;0;0;0;0;0;0;0;();(-2000.0, -2000.0);
03:36:55:153;03:36:55:089;1448290374.73;(0.6369976997375488, 0.7624892552693685);85.0455169678;0.898646797815;;;;;;;;;;;;;;0;0;0;0;0;0;0;0;0;();(-2000.0, -2000.0);
03:36:55:169;03:36:55:160;1448290374.8;(0.63710036277771, 0.7622059716118706);85.265296936;0.982381529814;;;;;;;;;;;;;;0;0;0;0;0;0;0;0;0;();(-2000.0, -2000.0);
03:36:55:186;03:36:55:160;1448290374.8;(0.63710036277771, 0.7622059716118706);85.265296936;0.982381529814;;;;;;;;;;;;;;0;0;0;0;0;0;0;0;0;();(-2000.0, -2000.0);
03:36:55:219;03:36:55:160;1448290374.8;(0.63710036277771, 0.7622059716118706);85.265296936;0.982381529814;;;;;;;;;;;;;;0;0;0;0;0;0;0;0;0;();(-2000.0, -2000.0);
03:36:55:236;03:36:55:226;1448290374.86;(0.6373469829559326, 0.7620723088582357);85.7049942017;1.0;;;;;;;;;;;;;;0;0;0;0;0;0;0;0;0;();(-2000.0, -2000.0);
03:36:55:250;03:36:55:226;1448290374.86;(0.6373469829559326, 0.7620723088582357);85.7049942017;1.0;;;;;;;;;;;;;;0;0;0;0;0;0;0;0;0;();(-2000.0, -2000.0);
03:36:55:267;03:36:55:226;1448290374.86;(0.6373469829559326, 0.7620723088582357);85.7049942017;1.0;;;;;;;;;;;;;;0;0;0;0;0;0;0;0;0;();(-2000.0, -2000.0);
03:36:55:286;03:36:55:226;1448290374.86;(0.6373469829559326, 0.7620723088582357);85.7049942017;1.0;;;;;;;;;;;;;;0;0;0;0;0;0;0;0;0;();(-2000.0, -2000.0);
03:36:55:319;03:36:55:226;1448290374.86;(0.6373469829559326, 0.7620723088582357);85.7049942017;1.0;;;;;;;;;;;;;;0;0;0;0;0;0;0;0;0;();(-2000.0, -2000.0);
03:36:55:336;03:36:55:226;1448290374.86;(0.6373469829559326, 0.7620723088582357);85.7049942017;1.0;;;;;;;;;;;;;;0;0;0;0;0;0;0;0;0;();(-2000.0, -2000.0);
03:36:55:352;03:36:55:226;1448290374.86;(0.6373469829559326, 0.7620723088582357);85.7049942017;1.0;;;;;;;;;;;;;;0;0;0;0;0;0;0;0;0;();(-2000.0, -2000.0);
03:36:55:367;03:36:55:226;1448290374.86;(0.6373469829559326, 0.7620723088582357);85.7049942017;1.0;;;;;;;;;;;;;;0;0;0;0;0;0;0;0;0;();(-2000.0, -2000.0);
03:36:55:384;03:36:55:226;1448290374.86;(0.6373469829559326, 0.7620723088582357);85.7049942017;1.0;;;;;;;;;;;;;;0;0;0;0;0;0;0;0;0;();(-2000.0, -2000.0);
03:36:55:417;03:36:55:390;1448290375.0;(0, 0);0;0;;;;;;;;;;;;;;0;0;0;0;0;0;0;0;0;();(-2000.0, -2000.0);
03:36:55:433;03:36:55:419;1448290375.06;(0.6659997940063477, 0.7329406102498373);83.1434860229;0.895875337527;;;;;;;;;;;;;;0;0;0;0;0;0;0;0;0;();(-2000.0, -2000.0);
03:36:55:449;03:36:55:419;1448290375.06;(0.6659997940063477, 0.7329406102498373);83.1434860229;0.895875337527;;;;;;;;;;;;;;0;0;0;0;0;0;0;0;0;();(-2000.0, -2000.0);
03:36:55:465;03:36:55:419;1448290375.06;(0.6659997940063477, 0.7329406102498373);83.1434860229;0.895875337527;;;;;;;;;;;;;;0;0;0;0;0;0;0;0;0;();(-2000.0, -2000.0);
03:36:55:483;03:36:55:419;1448290375.06;(0.6659997940063477, 0.7329406102498373);83.1434860229;0.895875337527;;;;;;;;;;;;;;0;0;0;0;0;0;0;0;0;();(-2000.0, -2000.0);
03:36:55:519;03:36:55:489;1448290375.13;(0.6661159038543701, 0.732067256503635);83.0068054199;0.749041385784;;;;;;;;;;;;;;0;0;0;0;0;0;0;0;0;();(-2000.0, -2000.0);
03:36:55:535;03:36:55:489;1448290375.13;(0.6661159038543701, 0.732067256503635);83.0068054199;0.749041385784;;;;;;;;;;;;;;0;0;0;0;0;0;0;0;0;();(-2000.0, -2000.0);
03:36:55:551;03:36:55:547;1448290375.2;(0.6658724308013916, 0.734515380859375);81.7498245239;0.851083891595;;;;;;;;;;;;;;0;0;0;0;0;0;0;0;0;();(-2000.0, -2000.0);
03:36:55:567;03:36:55:547;1448290375.2;(0.6658724308013916, 0.734515380859375);81.7498245239;0.851083891595;;;;;;;;;;;;;;0;0;0;0;0;0;0;0;0;();(-2000.0, -2000.0);
03:36:55:586;03:36:55:547;1448290375.2;(0.6658724308013916, 0.734515380859375);81.7498245239;0.851083891595;;;;;;;;;;;;;;0;0;0;0;0;0;0;0;0;();(-2000.0, -2000.0);
03:36:55:603;03:36:55:547;1448290375.2;(0.6658724308013916, 0.734515380859375);81.7498245239;0.851083891595;;;;;;;;;;;;;;0;0;0;0;0;0;0;0;0;();(-2000.0, -2000.0);
03:36:55:634;03:36:55:616;1448290375.26;(0.6664088249206543, 0.7319470935397678);80.918006897;0.623487707308;;;;;;;;;;;;;;0;0;0;0;0;0;0;0;0;();(-2000.0, -2000.0);
03:36:55:650;03:36:55:616;1448290375.26;(0.6664088249206543, 0.7319470935397678);80.918006897;0.623487707308;;;;;;;;;;;;;;0;0;0;0;0;0;0;0;0;();(-2000.0, -2000.0);
03:36:55:667;03:36:55:616;1448290375.26;(0.6664088249206543, 0.7319470935397678);80.918006897;0.623487707308;;;;;;;;;;;;;;0;0;0;0;0;0;0;0;0;();(-2000.0, -2000.0);
03:36:55:684;03:36:55:616;1448290375.26;(0.6664088249206543, 0.7319470935397678);80.918006897;0.623487707308;;;;;;;;;;;;;;0;0;0;0;0;0;0;0;0;();(-2000.0, -2000.0);
03:36:55:717;03:36:55:687;1448290375.33;(0.6667756557464599, 0.7319853676689996);80.0269775391;0.870538092585;;;;;;;;;;;;;;0;0;0;0;0;0;0;0;0;();(-2000.0, -2000.0);
03:36:55:734;03:36:55:687;1448290375.33;(0.6667756557464599, 0.7319853676689996);80.0269775391;0.870538092585;;;;;;;;;;;;;;0;0;0;0;0;0;0;0;0;();(-2000.0, -2000.0);
03:36:55:751;03:36:55:748;1448290375.4;(0.6671752452850341, 0.7322168774074979);79.6068725586;0.871819368723;;;;;;;;;;;;;;0;0;0;0;0;0;0;0;0;();(-2000.0, -2000.0);
03:36:55:767;03:36:55:748;1448290375.4;(0.6671752452850341, 0.7322168774074979);79.6068725586;0.871819368723;;;;;;;;;;;;;;0;0;0;0;0;0;0;0;0;();(-2000.0, -2000.0);
03:36:55:783;03:36:55:748;1448290375.4;(0.6671752452850341, 0.7322168774074979);79.6068725586;0.871819368723;;;;;;;;;;;;;;0;0;0;0;0;0;0;0;0;();(-2000.0, -2000.0);
03:36:55:817;03:36:55:748;1448290375.4;(0.6671752452850341, 0.7322168774074979);79.6068725586;0.871819368723;;;;;;;;;;;;;;0;0;0;0;0;0;0;0;0;();(-2000.0, -2000.0);
03:36:55:834;03:36:55:820;1448290375.46;(0.6670875549316406, 0.7322060690985785);79.1820831299;1.0;;;;;;;;;;;;;;0;0;0;0;0;0;0;0;0;();(-2000.0, -2000.0);
03:36:55:853;03:36:55:820;1448290375.46;(0.6670875549316406, 0.7322060690985785);79.1820831299;1.0;;;;;;;;;;;;;;0;0;0;0;0;0;0;0;0;();(-2000.0, -2000.0);
03:36:55:869;03:36:55:820;1448290375.46;(0.6670875549316406, 0.7322060690985785);79.1820831299;1.0;;;;;;;;;;;;;;0;0;0;0;0;0;0;0;0;();(-2000.0, -2000.0);
03:36:55:884;03:36:55:880;1448290375.53;(0.6591126441955566, 0.72754029168023);77.6112289429;0.845810408669;;;;;;;;;;;;;;0;0;0;0;0;0;0;0;0;();(-2000.0, -2000.0);
03:36:55:901;03:36:55:880;1448290375.53;(0.6591126441955566, 0.72754029168023);77.6112289429;0.845810408669;;;;;;;;;;;;;;0;0;0;0;0;0;0;0;0;();(-2000.0, -2000.0);
03:36:55:934;03:36:55:880;1448290375.53;(0.6591126441955566, 0.72754029168023);77.6112289429;0.845810408669;;;;;;;;;;;;;;0;0;0;0;0;0;0;0;0;();(-2000.0, -2000.0);
03:36:55:952;03:36:55:948;1448290375.56;(0.6585582256317138, 0.7283030615912544);78.2230224609;0.946315317108;;;;;;;;;;;;;;0;0;0;0;0;0;0;0;0;();(-2000.0, -2000.0);
03:36:55:967;03:36:55:949;1448290375.6;(0.6585282325744629, 0.7279132843017578);78.1925582886;0.933352093586;;;;;;;;;;;;;;0;0;0;0;0;0;0;0;0;();(-2000.0, -2000.0);
03:36:55:984;03:36:55:949;1448290375.6;(0.6585282325744629, 0.7279132843017578);78.1925582886;0.933352093586;;;;;;;;;;;;;;0;0;0;0;0;0;0;0;0;();(-2000.0, -2000.0);
03:36:56:018;03:36:56:014;1448290375.63;(0.6584518909454345, 0.7280277252197266);77.9596786499;0.994700334263;;;;;;;;;;;;;;0;0;0;0;0;0;0;0;0;();(-2000.0, -2000.0);
03:36:56:034;03:36:56:016;1448290375.66;(0.6584214210510254, 0.7286826027764215);77.7368164062;0.809874117013;;;;;;;;;;;;;;0;0;0;0;0;0;0;0;0;();(-2000.0, -2000.0);
03:36:56:051;03:36:56:016;1448290375.66;(0.6584214210510254, 0.7286826027764215);77.7368164062;0.809874117013;;;;;;;;;;;;;;0;0;0;0;0;0;0;0;0;();(-2000.0, -2000.0);
03:36:56:067;03:36:56:016;1448290375.66;(0.6584214210510254, 0.7286826027764215);77.7368164062;0.809874117013;;;;;;;;;;;;;;0;0;0;0;0;0;0;0;0;();(-2000.0, -2000.0);
03:36:56:084;03:36:56:016;1448290375.66;(0.6584214210510254, 0.7286826027764215);77.7368164062;0.809874117013;;;;;;;;;;;;;;0;0;0;0;0;0;0;0;0;();(-2000.0, -2000.0);
03:36:56:101;03:36:56:087;1448290375.73;(0.6594016075134277, 0.7298780229356554);76.6687545776;0.892119760362;;;;;;;;;;;;;;0;0;0;0;0;0;0;0;0;();(-2000.0, -2000.0);
03:36:56:134;03:36:56:087;1448290375.73;(0.6594016075134277, 0.7298780229356554);76.6687545776;0.892119760362;;;;;;;;;;;;;;0;0;0;0;0;0;0;0;0;();(-2000.0, -2000.0);
03:36:56:152;03:36:56:149;1448290375.8;(0.6590093612670899, 0.7300259908040365);76.1427078247;0.933479803666;;;;;;;;;;;;;;0;0;0;0;0;0;0;0;0;();(-2000.0, -2000.0);
03:36:56:167;03:36:56:149;1448290375.8;(0.6590093612670899, 0.7300259908040365);76.1427078247;0.933479803666;;;;;;;;;;;;;;0;0;0;0;0;0;0;0;0;();(-2000.0, -2000.0);
03:36:56:183;03:36:56:149;1448290375.8;(0.6590093612670899, 0.7300259908040365);76.1427078247;0.933479803666;;;;;;;;;;;;;;0;0;0;0;0;0;0;0;0;();(-2000.0, -2000.0);
03:36:56:201;03:36:56:149;1448290375.8;(0.6590093612670899, 0.7300259908040365);76.1427078247;0.933479803666;;;;;;;;;;;;;;0;0;0;0;0;0;0;0;0;();(-2000.0, -2000.0);
03:36:56:236;03:36:56:213;1448290375.86;(0.6554735660552978, 0.7225552452935113);74.4087371826;0.849255995913;;;;;;;;;;;;;;0;0;0;0;0;0;0;0;0;();(-2000.0, -2000.0);
03:36:56:253;03:36:56:213;1448290375.86;(0.6554735660552978, 0.7225552452935113);74.4087371826;0.849255995913;;;;;;;;;;;;;;0;0;0;0;0;0;0;0;0;();(-2000.0, -2000.0);
03:36:56:267;03:36:56:213;1448290375.86;(0.6554735660552978, 0.7225552452935113);74.4087371826;0.849255995913;;;;;;;;;;;;;;0;0;0;0;0;0;0;0;0;();(-2000.0, -2000.0);
03:36:56:284;03:36:56:213;1448290375.86;(0.6554735660552978, 0.7225552452935113);74.4087371826;0.849255995913;;;;;;;;;;;;;;0;0;0;0;0;0;0;0;0;();(-2000.0, -2000.0);
03:36:56:300;03:36:56:288;1448290375.93;(0, 0);0;0;;;;;;;;;;;;;;0;0;0;0;0;0;0;0;0;();(-2000.0, -2000.0);
03:36:56:334;03:36:56:288;1448290375.93;(0, 0);0;0;;;;;;;;;;;;;;0;0;0;0;0;0;0;0;0;();(-2000.0, -2000.0);
03:36:56:350;03:36:56:347;1448290376.0;(0, 0);0;0;;;;;;;;;;;;;;0;0;0;0;0;0;0;0;0;();(-2000.0, -2000.0);
03:36:56:367;03:36:56:347;1448290376.0;(0, 0);0;0;;;;;;;;;;;;;;0;0;0;0;0;0;0;0;0;();(-2000.0, -2000.0);
03:36:56:384;03:36:56:347;1448290376.0;(0, 0);0;0;;;;;;;;;;;;;;0;0;0;0;0;0;0;0;0;();(-2000.0, -2000.0);
03:36:56:401;03:36:56:347;1448290376.0;(0, 0);0;0;;;;;;;;;;;;;;0;0;0;0;0;0;0;0;0;();(-2000.0, -2000.0);
03:36:56:437;03:36:56:411;1448290376.03;(0.6576108932495117, 0.726574601067437);73.5456771851;0.809895762034;;;;;;;;;;;;;;0;0;0;0;0;0;0;0;0;();(-2000.0, -2000.0);
03:36:56:453;03:36:56:411;1448290376.03;(0.6576108932495117, 0.726574601067437);73.5456771851;0.809895762034;;;;;;;;;;;;;;0;0;0;0;0;0;0;0;0;();(-2000.0, -2000.0);
03:36:56:470;03:36:56:411;1448290376.03;(0.6576108932495117, 0.726574601067437);73.5456771851;0.809895762034;;;;;;;;;;;;;;0;0;0;0;0;0;0;0;0;();(-2000.0, -2000.0);
03:36:56:487;03:36:56:480;1448290376.09;(0.6581562995910645, 0.725241364373101);74.3724365234;0.955495000153;;;;;;;;;;;;;;0;0;0;0;0;0;0;0;0;();(-2000.0, -2000.0);
03:36:56:503;03:36:56:494;1448290376.13;(0.6592986583709717, 0.7238732655843099);74.5052566528;0.950434636895;;;;;;;;;;;;;;0;0;0;0;0;0;0;0;0;();(-2000.0, -2000.0);
03:36:56:537;03:36:56:494;1448290376.13;(0.6592986583709717, 0.7238732655843099);74.5052566528;0.950434636895;;;;;;;;;;;;;;0;0;0;0;0;0;0;0;0;();(-2000.0, -2000.0);
03:36:56:553;03:36:56:546;1448290376.2;(0.6598388671875, 0.7218911276923285);74.0845108032;0.914154743357;;;;;;;;;;;;;;0;0;0;0;0;0;0;0;0;();(-2000.0, -2000.0);
03:36:56:567;03:36:56:546;1448290376.2;(0.6598388671875, 0.7218911276923285);74.0845108032;0.914154743357;;;;;;;;;;;;;;0;0;0;0;0;0;0;0;0;();(-2000.0, -2000.0);
03:36:56:584;03:36:56:546;1448290376.2;(0.6598388671875, 0.7218911276923285);74.0845108032;0.914154743357;;;;;;;;;;;;;;0;0;0;0;0;0;0;0;0;();(-2000.0, -2000.0);
03:36:56:601;03:36:56:546;1448290376.2;(0.6598388671875, 0.7218911276923285);74.0845108032;0.914154743357;;;;;;;;;;;;;;0;0;0;0;0;0;0;0;0;();(-2000.0, -2000.0);
03:36:56:634;03:36:56:612;1448290376.26;(0.6604563236236572, 0.7214447869194878);73.6620101929;0.921531333877;;;;;;;;;;;;;;0;0;0;0;0;0;0;0;0;();(-2000.0, -2000.0);
03:36:56:651;03:36:56:612;1448290376.26;(0.6604563236236572, 0.7214447869194878);73.6620101929;0.921531333877;;;;;;;;;;;;;;0;0;0;0;0;0;0;0;0;();(-2000.0, -2000.0);
03:36:56:667;03:36:56:612;1448290376.26;(0.6604563236236572, 0.7214447869194878);73.6620101929;0.921531333877;;;;;;;;;;;;;;0;0;0;0;0;0;0;0;0;();(-2000.0, -2000.0);
03:36:56:684;03:36:56:680;1448290376.33;(0.6607187271118165, 0.7190839131673177);73.8452224731;0.935093453698;;;;;;;;;;;;;;0;0;0;0;0;0;0;0;0;();(-2000.0, -2000.0);
03:36:56:701;03:36:56:680;1448290376.33;(0.6607187271118165, 0.7190839131673177);73.8452224731;0.935093453698;;;;;;;;;;;;;;0;0;0;0;0;0;0;0;0;();(-2000.0, -2000.0);
03:36:56:737;03:36:56:680;1448290376.33;(0.6607187271118165, 0.7190839131673177);73.8452224731;0.935093453698;;;;;;;;;;;;;;0;0;0;0;0;0;0;0;0;();(-2000.0, -2000.0);
03:36:56:754;03:36:56:745;1448290376.4;(0.6612512588500976, 0.7179552502102322);74.4947738647;1.0;;;;;;;;;;;;;;0;0;0;0;0;0;0;0;0;();(-2000.0, -2000.0);
03:36:56:770;03:36:56:745;1448290376.4;(0.6612512588500976, 0.7179552502102322);74.4947738647;1.0;;;;;;;;;;;;;;0;0;0;0;0;0;0;0;0;();(-2000.0, -2000.0);
03:36:56:785;03:36:56:745;1448290376.4;(0.6612512588500976, 0.7179552502102322);74.4947738647;1.0;;;;;;;;;;;;;;0;0;0;0;0;0;0;0;0;();(-2000.0, -2000.0);
03:36:56:802;03:36:56:745;1448290376.4;(0.6612512588500976, 0.7179552502102322);74.4947738647;1.0;;;;;;;;;;;;;;0;0;0;0;0;0;0;0;0;();(-2000.0, -2000.0);
03:36:56:835;03:36:56:813;1448290376.46;(0.6618775367736817, 0.7159748713175456);74.7021713257;1.0;;;;;;;;;;;;;;0;0;0;0;0;0;0;0;0;();(-2000.0, -2000.0);
03:36:56:852;03:36:56:813;1448290376.46;(0.6618775367736817, 0.7159748713175456);74.7021713257;1.0;;;;;;;;;;;;;;0;0;0;0;0;0;0;0;0;();(-2000.0, -2000.0);
03:36:56:868;03:36:56:813;1448290376.46;(0.6618775367736817, 0.7159748713175456);74.7021713257;1.0;;;;;;;;;;;;;;0;0;0;0;0;0;0;0;0;();(-2000.0, -2000.0);
03:36:56:885;03:36:56:876;1448290376.53;(0.669355821609497, 0.6982065200805664);87.5272369385;0.686073097607;;;;;;;;;;;;;;0;0;0;0;0;0;0;0;0;();(-2000.0, -2000.0);
03:36:56:901;03:36:56:876;1448290376.53;(0.669355821609497, 0.6982065200805664);87.5272369385;0.686073097607;;;;;;;;;;;;;;0;0;0;0;0;0;0;0;0;();(-2000.0, -2000.0);
03:36:56:935;03:36:56:876;1448290376.53;(0.669355821609497, 0.6982065200805664);87.5272369385;0.686073097607;;;;;;;;;;;;;;0;0;0;0;0;0;0;0;0;();(-2000.0, -2000.0);
03:36:56:950;03:36:56:943;1448290376.56;(0.6761775970458984, 0.689512062072754);76.0495986938;0.83444454705;;;;;;;;;;;;;;0;0;0;0;0;0;0;0;0;();(-2000.0, -2000.0);
03:36:56:968;03:36:56:943;1448290376.56;(0.6761775970458984, 0.689512062072754);76.0495986938;0.83444454705;;;;;;;;;;;;;;0;0;0;0;0;0;0;0;0;();(-2000.0, -2000.0);
03:36:56:984;03:36:56:943;1448290376.56;(0.6761775970458984, 0.689512062072754);76.0495986938;0.83444454705;;;;;;;;;;;;;;0;0;0;0;0;0;0;0;0;();(-2000.0, -2000.0);
03:36:57:000;03:36:56:943;1448290376.56;(0.6761775970458984, 0.689512062072754);76.0495986938;0.83444454705;;;;;;;;;;;;;;0;0;0;0;0;0;0;0;0;();(-2000.0, -2000.0);
03:36:57:035;03:36:57:013;1448290376.66;(0.6754623889923096, 0.6898502773708768);77.5443191528;1.0;;;;;;;;;;;;;;0;0;0;0;0;0;0;0;0;();(-2000.0, -2000.0);
03:36:57:051;03:36:57:013;1448290376.66;(0.6754623889923096, 0.6898502773708768);77.5443191528;1.0;;;;;;;;;;;;;;0;0;0;0;0;0;0;0;0;();(-2000.0, -2000.0);
03:36:57:069;03:36:57:013;1448290376.66;(0.6754623889923096, 0.6898502773708768);77.5443191528;1.0;;;;;;;;;;;;;;0;0;0;0;0;0;0;0;0;();(-2000.0, -2000.0);
03:36:57:085;03:36:57:080;1448290376.73;(0.6756390571594239, 0.6887412812974718);77.6236038208;1.0;;;;;;;;;;;;;;0;0;0;0;0;0;0;0;0;();(-2000.0, -2000.0);
03:36:57:101;03:36:57:080;1448290376.73;(0.6756390571594239, 0.6887412812974718);77.6236038208;1.0;;;;;;;;;;;;;;0;0;0;0;0;0;0;0;0;();(-2000.0, -2000.0);
03:36:57:135;03:36:57:080;1448290376.73;(0.6756390571594239, 0.6887412812974718);77.6236038208;1.0;;;;;;;;;;;;;;0;0;0;0;0;0;0;0;0;();(-2000.0, -2000.0);
03:36:57:152;03:36:57:142;1448290376.76;(0.6758600234985351, 0.6881974538167317);77.9766082764;1.0;;;;;;;;;;;;;;0;0;0;0;0;0;0;0;0;();(-2000.0, -2000.0);
03:36:57:170;03:36:57:142;1448290376.76;(0.6758600234985351, 0.6881974538167317);77.9766082764;1.0;;;;;;;;;;;;;;0;0;0;0;0;0;0;0;0;();(-2000.0, -2000.0);
03:36:57:187;03:36:57:142;1448290376.76;(0.6758600234985351, 0.6881974538167317);77.9766082764;1.0;;;;;;;;;;;;;;0;0;0;0;0;0;0;0;0;();(-2000.0, -2000.0);
03:36:57:201;03:36:57:142;1448290376.76;(0.6758600234985351, 0.6881974538167317);77.9766082764;1.0;;;;;;;;;;;;;;0;0;0;0;0;0;0;0;0;();(-2000.0, -2000.0);
03:36:57:235;03:36:57:215;1448290376.86;(0.6745353698730469, 0.7700762006971571);78.7770690918;0.742252750603;;;;;;;;;;;;;;0;0;0;0;0;0;0;0;0;();(-2000.0, -2000.0);
03:36:57:252;03:36:57:215;1448290376.86;(0.6745353698730469, 0.7700762006971571);78.7770690918;0.742252750603;;;;;;;;;;;;;;0;0;0;0;0;0;0;0;0;();(-2000.0, -2000.0);
03:36:57:268;03:36:57:215;1448290376.86;(0.6745353698730469, 0.7700762006971571);78.7770690918;0.742252750603;;;;;;;;;;;;;;0;0;0;0;0;0;0;0;0;();(-2000.0, -2000.0);
03:36:57:285;03:36:57:275;1448290376.93;(0.6749669551849365, 0.7712579303317599);79.474067688;0.853216154631;;;;;;;;;;;;;;0;0;0;0;0;0;0;0;0;();(-2000.0, -2000.0);
03:36:57:301;03:36:57:275;1448290376.93;(0.6749669551849365, 0.7712579303317599);79.474067688;0.853216154631;;;;;;;;;;;;;;0;0;0;0;0;0;0;0;0;();(-2000.0, -2000.0);
03:36:57:335;03:36:57:275;1448290376.93;(0.6749669551849365, 0.7712579303317599);79.474067688;0.853216154631;;;;;;;;;;;;;;0;0;0;0;0;0;0;0;0;();(-2000.0, -2000.0);
03:36:57:352;03:36:57:345;1448290377.0;(0.6749299049377442, 0.7715965694851346);80.4285507202;0.901786123459;;;;;;;;;;;;;;0;0;0;0;0;0;0;0;0;();(-2000.0, -2000.0);
03:36:57:368;03:36:57:345;1448290377.0;(0.6749299049377442, 0.7715965694851346);80.4285507202;0.901786123459;;;;;;;;;;;;;;0;0;0;0;0;0;0;0;0;();(-2000.0, -2000.0);
03:36:57:385;03:36:57:345;1448290377.0;(0.6749299049377442, 0.7715965694851346);80.4285507202;0.901786123459;;;;;;;;;;;;;;0;0;0;0;0;0;0;0;0;();(-2000.0, -2000.0);
03:36:57:402;03:36:57:345;1448290377.0;(0.6749299049377442, 0.7715965694851346);80.4285507202;0.901786123459;;;;;;;;;;;;;;0;0;0;0;0;0;0;0;0;();(-2000.0, -2000.0);
03:36:57:435;03:36:57:409;1448290377.06;(0.6749845027923584, 0.7719953960842556);79.8076477051;0.943573672585;;;;;;;;;;;;;;0;0;0;0;0;0;0;0;0;();(-2000.0, -2000.0);
03:36:57:452;03:36:57:409;1448290377.06;(0.6749845027923584, 0.7719953960842556);79.8076477051;0.943573672585;;;;;;;;;;;;;;0;0;0;0;0;0;0;0;0;();(-2000.0, -2000.0);
03:36:57:469;03:36:57:409;1448290377.06;(0.6749845027923584, 0.7719953960842556);79.8076477051;0.943573672585;;;;;;;;;;;;;;0;0;0;0;0;0;0;0;0;();(-2000.0, -2000.0);
03:36:57:485;03:36:57:477;1448290377.13;(0.6749032497406006, 0.7720253202650282);80.2567977905;0.996155368879;;;;;;;;;;;;;;0;0;0;0;0;0;0;0;0;();(-2000.0, -2000.0);
03:36:57:502;03:36:57:477;1448290377.13;(0.6749032497406006, 0.7720253202650282);80.2567977905;0.996155368879;;;;;;;;;;;;;;0;0;0;0;0;0;0;0;0;();(-2000.0, -2000.0);
03:36:57:535;03:36:57:477;1448290377.13;(0.6749032497406006, 0.7720253202650282);80.2567977905;0.996155368879;;;;;;;;;;;;;;0;0;0;0;0;0;0;0;0;();(-2000.0, -2000.0);
03:36:57:552;03:36:57:540;1448290377.2;(0.6538157939910889, 0.7676853391859266);84.7504806519;0.771545198113;;;;;;;;;;;;;;0;0;0;0;0;0;0;0;0;();(-2000.0, -2000.0);
03:36:57:568;03:36:57:540;1448290377.2;(0.6538157939910889, 0.7676853391859266);84.7504806519;0.771545198113;;;;;;;;;;;;;;0;0;0;0;0;0;0;0;0;();(-2000.0, -2000.0);
03:36:57:585;03:36:57:540;1448290377.2;(0.6538157939910889, 0.7676853391859266);84.7504806519;0.771545198113;;;;;;;;;;;;;;0;0;0;0;0;0;0;0;0;();(-2000.0, -2000.0);
03:36:57:602;03:36:57:540;1448290377.2;(0.6538157939910889, 0.7676853391859266);84.7504806519;0.771545198113;;;;;;;;;;;;;;0;0;0;0;0;0;0;0;0;();(-2000.0, -2000.0);
03:36:57:636;03:36:57:608;1448290377.26;(0.3020521402359009, 0.8624708281622993);25.1409320831;0.671943336172;;;;;;;;;;;;;;0;0;0;0;0;0;0;0;0;();(-2000.0, -2000.0);
03:36:57:652;03:36:57:608;1448290377.26;(0.3020521402359009, 0.8624708281622993);25.1409320831;0.671943336172;;;;;;;;;;;;;;0;0;0;0;0;0;0;0;0;();(-2000.0, -2000.0);
03:36:57:668;03:36:57:608;1448290377.26;(0.3020521402359009, 0.8624708281622993);25.1409320831;0.671943336172;;;;;;;;;;;;;;0;0;0;0;0;0;0;0;0;();(-2000.0, -2000.0);
03:36:57:685;03:36:57:676;1448290377.33;(0.6324615955352784, 0.7493945651584202);81.7793502808;0.827129478672;;;;;;;;;;;;;;0;0;0;0;0;0;0;0;0;();(-2000.0, -2000.0);
03:36:57:702;03:36:57:676;1448290377.33;(0.6324615955352784, 0.7493945651584202);81.7793502808;0.827129478672;;;;;;;;;;;;;;0;0;0;0;0;0;0;0;0;();(-2000.0, -2000.0);
03:36:57:736;03:36:57:676;1448290377.33;(0.6324615955352784, 0.7493945651584202);81.7793502808;0.827129478672;;;;;;;;;;;;;;0;0;0;0;0;0;0;0;0;();(-2000.0, -2000.0);
03:36:57:752;03:36:57:740;1448290377.4;(0, 0);0;0;;;;;;;;;;;;;;0;0;0;0;0;0;0;0;0;();(-2000.0, -2000.0);
03:36:57:769;03:36:57:740;1448290377.4;(0, 0);0;0;;;;;;;;;;;;;;0;0;0;0;0;0;0;0;0;();(-2000.0, -2000.0);
03:36:57:786;03:36:57:740;1448290377.4;(0, 0);0;0;;;;;;;;;;;;;;0;0;0;0;0;0;0;0;0;();(-2000.0, -2000.0);
03:36:57:802;03:36:57:740;1448290377.4;(0, 0);0;0;;;;;;;;;;;;;;0;0;0;0;0;0;0;0;0;();(-2000.0, -2000.0);
03:36:57:837;03:36:57:808;1448290377.46;(0.5699060440063477, 0.7511895073784722);84.784828186;0.995835269811;;;;;;;;;;;;;;0;0;0;0;0;0;0;0;0;();(-2000.0, -2000.0);
03:36:57:853;03:36:57:808;1448290377.46;(0.5699060440063477, 0.7511895073784722);84.784828186;0.995835269811;;;;;;;;;;;;;;0;0;0;0;0;0;0;0;0;();(-2000.0, -2000.0);
03:36:57:868;03:36:57:808;1448290377.46;(0.5699060440063477, 0.7511895073784722);84.784828186;0.995835269811;;;;;;;;;;;;;;0;0;0;0;0;0;0;0;0;();(-2000.0, -2000.0);
03:36:57:886;03:36:57:872;1448290377.53;(0.5697635173797607, 0.7513394037882487);84.7835464478;0.878775392309;;;;;;;;;;;;;;0;0;0;0;0;0;0;0;0;();(-2000.0, -2000.0);
03:36:57:902;03:36:57:872;1448290377.53;(0.5697635173797607, 0.7513394037882487);84.7835464478;0.878775392309;;;;;;;;;;;;;;0;0;0;0;0;0;0;0;0;();(-2000.0, -2000.0);
03:36:57:935;03:36:57:872;1448290377.53;(0.5697635173797607, 0.7513394037882487);84.7835464478;0.878775392309;;;;;;;;;;;;;;0;0;0;0;0;0;0;0;0;();(-2000.0, -2000.0);
03:36:57:952;03:36:57:944;1448290377.6;(0.5701130867004395, 0.7509122636583117);84.6126861572;0.857393271103;;;;;;;;;;;;;;0;0;0;0;0;0;0;0;0;();(-2000.0, -2000.0);
03:36:57:969;03:36:57:944;1448290377.6;(0.5701130867004395, 0.7509122636583117);84.6126861572;0.857393271103;;;;;;;;;;;;;;0;0;0;0;0;0;0;0;0;();(-2000.0, -2000.0);
03:36:57:985;03:36:57:944;1448290377.6;(0.5701130867004395, 0.7509122636583117);84.6126861572;0.857393271103;;;;;;;;;;;;;;0;0;0;0;0;0;0;0;0;();(-2000.0, -2000.0);
03:36:58:003;03:36:57:944;1448290377.6;(0.5701130867004395, 0.7509122636583117);84.6126861572;0.857393271103;;;;;;;;;;;;;;0;0;0;0;0;0;0;0;0;();(-2000.0, -2000.0);
03:36:58:037;03:36:58:008;1448290377.66;(0.570686674118042, 0.7504641003078885);84.8063735962;0.841130916035;;;;;;;;;;;;;;0;0;0;0;0;0;0;0;0;();(-2000.0, -2000.0);
03:36:58:055;03:36:58:008;1448290377.66;(0.570686674118042, 0.7504641003078885);84.8063735962;0.841130916035;;;;;;;;;;;;;;0;0;0;0;0;0;0;0;0;();(-2000.0, -2000.0);
03:36:58:069;03:36:58:008;1448290377.66;(0.570686674118042, 0.7504641003078885);84.8063735962;0.841130916035;;;;;;;;;;;;;;0;0;0;0;0;0;0;0;0;();(-2000.0, -2000.0);
03:36:58:086;03:36:58:072;1448290377.73;(0.5708463668823243, 0.7504949145846896);84.9296340942;0.838927332231;;;;;;;;;;;;;;0;0;0;0;0;0;0;0;0;();(-2000.0, -2000.0);
03:36:58:103;03:36:58:072;1448290377.73;(0.5708463668823243, 0.7504949145846896);84.9296340942;0.838927332231;;;;;;;;;;;;;;0;0;0;0;0;0;0;0;0;();(-2000.0, -2000.0);
03:36:58:136;03:36:58:072;1448290377.73;(0.5708463668823243, 0.7504949145846896);84.9296340942;0.838927332231;;;;;;;;;;;;;;0;0;0;0;0;0;0;0;0;();(-2000.0, -2000.0);
03:36:58:153;03:36:58:140;1448290377.8;(0.5711801052093506, 0.7512753592597113);83.8436355591;0.906150158586;;;;;;;;;;;;;;0;0;0;0;0;0;0;0;0;();(-2000.0, -2000.0);
03:36:58:169;03:36:58:140;1448290377.8;(0.5711801052093506, 0.7512753592597113);83.8436355591;0.906150158586;;;;;;;;;;;;;;0;0;0;0;0;0;0;0;0;();(-2000.0, -2000.0);
03:36:58:186;03:36:58:140;1448290377.8;(0.5711801052093506, 0.7512753592597113);83.8436355591;0.906150158586;;;;;;;;;;;;;;0;0;0;0;0;0;0;0;0;();(-2000.0, -2000.0);
03:36:58:203;03:36:58:140;1448290377.8;(0.5711801052093506, 0.7512753592597113);83.8436355591;0.906150158586;;;;;;;;;;;;;;0;0;0;0;0;0;0;0;0;();(-2000.0, -2000.0);
03:36:58:236;03:36:58:206;1448290377.86;(0.3554389238357544, 0.8454190784030491);21.5230312347;0.859714076254;;;;;;;;;;;;;;0;0;0;0;0;0;0;0;0;();(-2000.0, -2000.0);
03:36:58:253;03:36:58:206;1448290377.86;(0.3554389238357544, 0.8454190784030491);21.5230312347;0.859714076254;;;;;;;;;;;;;;0;0;0;0;0;0;0;0;0;();(-2000.0, -2000.0);
03:36:58:269;03:36:58:206;1448290377.86;(0.3554389238357544, 0.8454190784030491);21.5230312347;0.859714076254;;;;;;;;;;;;;;0;0;0;0;0;0;0;0;0;();(-2000.0, -2000.0);
03:36:58:286;03:36:58:273;1448290377.9;(0.6178935050964356, 0.737460560268826);80.1342697144;0.803394042491;;;;;;;;;;;;;;0;0;0;0;0;0;0;0;0;();(-2000.0, -2000.0);
03:36:58:303;03:36:58:273;1448290377.9;(0.6178935050964356, 0.737460560268826);80.1342697144;0.803394042491;;;;;;;;;;;;;;0;0;0;0;0;0;0;0;0;();(-2000.0, -2000.0);
03:36:58:338;03:36:58:273;1448290377.9;(0.6178935050964356, 0.737460560268826);80.1342697144;0.803394042491;;;;;;;;;;;;;;0;0;0;0;0;0;0;0;0;();(-2000.0, -2000.0);
03:36:58:355;03:36:58:346;1448290377.96;(0.6198856353759765, 0.7358762317233616);80.3396148682;0.63107221919;;;;;;;;;;;;;;0;0;0;0;0;0;0;0;0;();(-2000.0, -2000.0);
03:36:58:369;03:36:58:346;1448290377.96;(0.6198856353759765, 0.7358762317233616);80.3396148682;0.63107221919;;;;;;;;;;;;;;0;0;0;0;0;0;0;0;0;();(-2000.0, -2000.0);
03:36:58:386;03:36:58:346;1448290377.96;(0.6198856353759765, 0.7358762317233616);80.3396148682;0.63107221919;;;;;;;;;;;;;;0;0;0;0;0;0;0;0;0;();(-2000.0, -2000.0);
03:36:58:403;03:36:58:346;1448290377.96;(0.6198856353759765, 0.7358762317233616);80.3396148682;0.63107221919;;;;;;;;;;;;;;0;0;0;0;0;0;0;0;0;();(-2000.0, -2000.0);
03:36:58:438;03:36:58:407;1448290378.03;(0.34063589572906494, 0.8667532920837402);22.9388065338;0.774014076319;;;;;;;;;;;;;;0;0;0;0;0;0;0;0;0;();(-2000.0, -2000.0);
03:36:58:455;03:36:58:407;1448290378.03;(0.34063589572906494, 0.8667532920837402);22.9388065338;0.774014076319;;;;;;;;;;;;;;0;0;0;0;0;0;0;0;0;();(-2000.0, -2000.0);
03:36:58:472;03:36:58:407;1448290378.03;(0.34063589572906494, 0.8667532920837402);22.9388065338;0.774014076319;;;;;;;;;;;;;;0;0;0;0;0;0;0;0;0;();(-2000.0, -2000.0);
03:36:58:490;03:36:58:480;1448290378.13;(0.6184463024139404, 0.7453944312201606);81.1240539551;0.870636297768;;;;;;;;;;;;;;0;0;0;0;0;0;0;0;0;();(-2000.0, -2000.0);
03:36:58:505;03:36:58:480;1448290378.13;(0.6184463024139404, 0.7453944312201606);81.1240539551;0.870636297768;;;;;;;;;;;;;;0;0;0;0;0;0;0;0;0;();(-2000.0, -2000.0);
03:36:58:536;03:36:58:480;1448290378.13;(0.6184463024139404, 0.7453944312201606);81.1240539551;0.870636297768;;;;;;;;;;;;;;0;0;0;0;0;0;0;0;0;();(-2000.0, -2000.0);
03:36:58:553;03:36:58:539;1448290378.2;(0.8113750457763672, 0.44757219950358074);29.0977039337;0.601742867299;;;;;;;;;;;;;;0;0;0;0;0;0;0;0;0;();(-2000.0, -2000.0);
03:36:58:570;03:36:58:539;1448290378.2;(0.8113750457763672, 0.44757219950358074);29.0977039337;0.601742867299;;;;;;;;;;;;;;0;0;0;0;0;0;0;0;0;();(-2000.0, -2000.0);
03:36:58:586;03:36:58:539;1448290378.2;(0.8113750457763672, 0.44757219950358074);29.0977039337;0.601742867299;;;;;;;;;;;;;;0;0;0;0;0;0;0;0;0;();(-2000.0, -2000.0);
03:36:58:603;03:36:58:539;1448290378.2;(0.8113750457763672, 0.44757219950358074);29.0977039337;0.601742867299;;;;;;;;;;;;;;0;0;0;0;0;0;0;0;0;();(-2000.0, -2000.0);
03:36:58:636;03:36:58:603;1448290378.23;(0, 0);0;0;;;;;;;;;;;;;;0;0;0;0;0;0;0;0;0;();(-2000.0, -2000.0);
03:36:58:652;03:36:58:603;1448290378.23;(0, 0);0;0;;;;;;;;;;;;;;0;0;0;0;0;0;0;0;0;();(-2000.0, -2000.0);
03:36:58:670;03:36:58:667;1448290378.26;(0.32017624378204346, 0.6183755662706163);27.2934303284;0.628566822922;;;;;;;;;;;;;;0;0;0;0;0;0;0;0;0;();(-2000.0, -2000.0);
03:36:58:686;03:36:58:672;1448290378.3;(0.6949315071105957, 0.7208471086290147);78.5796203613;0.908010663771;;;;;;;;;;;;;;0;0;0;0;0;0;0;0;0;();(-2000.0, -2000.0);
03:36:58:703;03:36:58:672;1448290378.3;(0.6949315071105957, 0.7208471086290147);78.5796203613;0.908010663771;;;;;;;;;;;;;;0;0;0;0;0;0;0;0;0;();(-2000.0, -2000.0);
03:36:58:738;03:36:58:672;1448290378.3;(0.6949315071105957, 0.7208471086290147);78.5796203613;0.908010663771;;;;;;;;;;;;;;0;0;0;0;0;0;0;0;0;();(-2000.0, -2000.0);
03:36:58:755;03:36:58:747;1448290378.37;(0.6970547199249267, 0.7212773429022895);81.6142425537;0.831560125773;;;;;;;;;;;;;;0;0;0;0;0;0;0;0;0;();(-2000.0, -2000.0);
03:36:58:772;03:36:58:747;1448290378.37;(0.6970547199249267, 0.7212773429022895);81.6142425537;0.831560125773;;;;;;;;;;;;;;0;0;0;0;0;0;0;0;0;();(-2000.0, -2000.0);
03:36:58:789;03:36:58:747;1448290378.37;(0.6970547199249267, 0.7212773429022895);81.6142425537;0.831560125773;;;;;;;;;;;;;;0;0;0;0;0;0;0;0;0;();(-2000.0, -2000.0);
03:36:58:805;03:36:58:747;1448290378.37;(0.6970547199249267, 0.7212773429022895);81.6142425537;0.831560125773;;;;;;;;;;;;;;0;0;0;0;0;0;0;0;0;();(-2000.0, -2000.0);
03:36:58:836;03:36:58:808;1448290378.43;(0.6994483470916748, 0.721416261461046);80.4407424927;0.934207202743;;;;;;;;;;;;;;0;0;0;0;0;0;0;0;0;();(-2000.0, -2000.0);
03:36:58:853;03:36:58:808;1448290378.43;(0.6994483470916748, 0.721416261461046);80.4407424927;0.934207202743;;;;;;;;;;;;;;0;0;0;0;0;0;0;0;0;();(-2000.0, -2000.0);
03:36:58:871;03:36:58:867;1448290378.47;(0.6994184494018555, 0.7224445978800456);81.5564422607;0.96406770694;;;;;;;;;;;;;;0;0;0;0;0;0;0;0;0;();(-2000.0, -2000.0);
03:36:58:888;03:36:58:876;1448290378.53;(0.699299430847168, 0.721945317586263);81.8605880737;1.0;;;;;;;;;;;;;;0;0;0;0;0;0;0;0;0;();(-2000.0, -2000.0);
03:36:58:905;03:36:58:876;1448290378.53;(0.699299430847168, 0.721945317586263);81.8605880737;1.0;;;;;;;;;;;;;;0;0;0;0;0;0;0;0;0;();(-2000.0, -2000.0);
03:36:58:938;03:36:58:876;1448290378.53;(0.699299430847168, 0.721945317586263);81.8605880737;1.0;;;;;;;;;;;;;;0;0;0;0;0;0;0;0;0;();(-2000.0, -2000.0);
03:36:58:955;03:36:58:946;1448290378.6;(0.6988914012908936, 0.7220682356092665);82.154548645;0.981958874795;;;;;;;;;;;;;;0;0;0;0;0;0;0;0;0;();(-2000.0, -2000.0);
03:36:58:969;03:36:58:946;1448290378.6;(0.6988914012908936, 0.7220682356092665);82.154548645;0.981958874795;;;;;;;;;;;;;;0;0;0;0;0;0;0;0;0;();(-2000.0, -2000.0);
03:36:58:986;03:36:58:946;1448290378.6;(0.6988914012908936, 0.7220682356092665);82.154548645;0.981958874795;;;;;;;;;;;;;;0;0;0;0;0;0;0;0;0;();(-2000.0, -2000.0);
03:36:59:006;03:36:58:999;1448290378.63;(0.6992265701293945, 0.721399392022027);82.4208908081;0.994925017851;;;;;;;;;;;;;;0;0;0;0;0;0;0;0;0;();(-2000.0, -2000.0);
03:36:59:039;03:36:59:001;1448290378.66;(0.6990718364715576, 0.7210486941867404);82.4651489258;0.931027746685;;;;;;;;;;;;;;0;0;0;0;0;0;0;0;0;();(-2000.0, -2000.0);
03:36:59:054;03:36:59:001;1448290378.66;(0.6990718364715576, 0.7210486941867404);82.4651489258;0.931027746685;;;;;;;;;;;;;;0;0;0;0;0;0;0;0;0;();(-2000.0, -2000.0);
03:36:59:070;03:36:59:066;1448290378.7;(0.6992173671722413, 0.7204980426364475);82.8276824951;0.885298626002;;;;;;;;;;;;;;0;0;0;0;0;0;0;0;0;();(-2000.0, -2000.0);
03:36:59:086;03:36:59:068;1448290378.73;(0.6990937709808349, 0.7204292933146159);83.1502380371;1.0;;;;;;;;;;;;;;0;0;0;0;0;0;0;0;0;();(-2000.0, -2000.0);
03:36:59:103;03:36:59:068;1448290378.73;(0.6990937709808349, 0.7204292933146159);83.1502380371;1.0;;;;;;;;;;;;;;0;0;0;0;0;0;0;0;0;();(-2000.0, -2000.0);
03:36:59:136;03:36:59:068;1448290378.73;(0.6990937709808349, 0.7204292933146159);83.1502380371;1.0;;;;;;;;;;;;;;0;0;0;0;0;0;0;0;0;();(-2000.0, -2000.0);
03:36:59:153;03:36:59:140;1448290378.8;(0.6986589431762695, 0.719986449347602);83.7153625488;1.0;;;;;;;;;;;;;;0;0;0;0;0;0;0;0;0;();(-2000.0, -2000.0);
03:36:59:170;03:36:59:140;1448290378.8;(0.6986589431762695, 0.719986449347602);83.7153625488;1.0;;;;;;;;;;;;;;0;0;0;0;0;0;0;0;0;();(-2000.0, -2000.0);
03:36:59:187;03:36:59:140;1448290378.8;(0.6986589431762695, 0.719986449347602);83.7153625488;1.0;;;;;;;;;;;;;;0;0;0;0;0;0;0;0;0;();(-2000.0, -2000.0);
03:36:59:204;03:36:59:200;1448290378.86;(0.3340401887893677, 0.8203716701931424);20.5316963196;1.0;;;;;;;;;;;;;;0;0;0;0;0;0;0;0;0;();(-2000.0, -2000.0);
03:36:59:236;03:36:59:200;1448290378.86;(0.3340401887893677, 0.8203716701931424);20.5316963196;1.0;;;;;;;;;;;;;;0;0;0;0;0;0;0;0;0;();(-2000.0, -2000.0);
03:36:59:253;03:36:59:200;1448290378.86;(0.3340401887893677, 0.8203716701931424);20.5316963196;1.0;;;;;;;;;;;;;;0;0;0;0;0;0;0;0;0;();(-2000.0, -2000.0);
03:36:59:272;03:36:59:268;1448290378.9;(0.6807711124420166, 0.7269138971964518);84.8973846436;0.887362820086;;;;;;;;;;;;;;0;0;0;0;0;0;0;0;0;();(-2000.0, -2000.0);
03:36:59:286;03:36:59:269;1448290378.93;(0.6804556369781494, 0.7294568803575303);85.6180496216;0.955931765275;;;;;;;;;;;;;;0;0;0;0;0;0;0;0;0;();(-2000.0, -2000.0);
03:36:59:303;03:36:59:269;1448290378.93;(0.6804556369781494, 0.7294568803575303);85.6180496216;0.955931765275;;;;;;;;;;;;;;0;0;0;0;0;0;0;0;0;();(-2000.0, -2000.0);
03:36:59:337;03:36:59:269;1448290378.93;(0.6804556369781494, 0.7294568803575303);85.6180496216;0.955931765275;;;;;;;;;;;;;;0;0;0;0;0;0;0;0;0;();(-2000.0, -2000.0);
03:36:59:353;03:36:59:345;1448290379.0;(0.6804865837097168, 0.7291617499457466);84.9385452271;0.99292183547;;;;;;;;;;;;;;0;0;0;0;0;0;0;0;0;();(-2000.0, -2000.0);
03:36:59:370;03:36:59:345;1448290379.0;(0.6804865837097168, 0.7291617499457466);84.9385452271;0.99292183547;;;;;;;;;;;;;;0;0;0;0;0;0;0;0;0;();(-2000.0, -2000.0);
03:36:59:386;03:36:59:345;1448290379.0;(0.6804865837097168, 0.7291617499457466);84.9385452271;0.99292183547;;;;;;;;;;;;;;0;0;0;0;0;0;0;0;0;();(-2000.0, -2000.0);
03:36:59:403;03:36:59:400;1448290379.06;(0.6804029941558838, 0.7281662411159939);84.5818328857;0.978085912537;;;;;;;;;;;;;;0;0;0;0;0;0;0;0;0;();(-2000.0, -2000.0);
03:36:59:436;03:36:59:400;1448290379.06;(0.6804029941558838, 0.7281662411159939);84.5818328857;0.978085912537;;;;;;;;;;;;;;0;0;0;0;0;0;0;0;0;();(-2000.0, -2000.0);
03:36:59:453;03:36:59:400;1448290379.06;(0.6804029941558838, 0.7281662411159939);84.5818328857;0.978085912537;;;;;;;;;;;;;;0;0;0;0;0;0;0;0;0;();(-2000.0, -2000.0);
03:36:59:470;03:36:59:467;1448290379.1;(0.3344422340393066, 0.8276454183790418);19.924621582;0.927134998748;;;;;;;;;;;;;;0;0;0;0;0;0;0;0;0;();(-2000.0, -2000.0);
03:36:59:489;03:36:59:467;1448290379.1;(0.3344422340393066, 0.8276454183790418);19.924621582;0.927134998748;;;;;;;;;;;;;;0;0;0;0;0;0;0;0;0;();(-2000.0, -2000.0);
03:36:59:506;03:36:59:467;1448290379.1;(0.3344422340393066, 0.8276454183790418);19.924621582;0.927134998748;;;;;;;;;;;;;;0;0;0;0;0;0;0;0;0;();(-2000.0, -2000.0);
03:36:59:523;03:36:59:467;1448290379.1;(0.3344422340393066, 0.8276454183790418);19.924621582;0.927134998748;;;;;;;;;;;;;;0;0;0;0;0;0;0;0;0;();(-2000.0, -2000.0);
03:36:59:556;03:36:59:537;1448290379.2;(0.7278687000274658, 0.6996627383761935);84.6694717407;0.909989829891;;;;;;;;;;;;;;0;0;0;0;0;0;0;0;0;();(-2000.0, -2000.0);
03:36:59:570;03:36:59:537;1448290379.2;(0.7278687000274658, 0.6996627383761935);84.6694717407;0.909989829891;;;;;;;;;;;;;;0;0;0;0;0;0;0;0;0;();(-2000.0, -2000.0);
03:36:59:586;03:36:59:537;1448290379.2;(0.7278687000274658, 0.6996627383761935);84.6694717407;0.909989829891;;;;;;;;;;;;;;0;0;0;0;0;0;0;0;0;();(-2000.0, -2000.0);
03:36:59:604;03:36:59:600;1448290379.26;(0.7278548240661621, 0.7009816063774956);84.8140258789;1.0;;;;;;;;;;;;;;0;0;0;0;0;0;0;0;0;();(-2000.0, -2000.0);
03:36:59:621;03:36:59:600;1448290379.26;(0.7278548240661621, 0.7009816063774956);84.8140258789;1.0;;;;;;;;;;;;;;0;0;0;0;0;0;0;0;0;();(-2000.0, -2000.0);
03:36:59:654;03:36:59:600;1448290379.26;(0.7278548240661621, 0.7009816063774956);84.8140258789;1.0;;;;;;;;;;;;;;0;0;0;0;0;0;0;0;0;();(-2000.0, -2000.0);
03:36:59:672;03:36:59:600;1448290379.26;(0.7278548240661621, 0.7009816063774956);84.8140258789;1.0;;;;;;;;;;;;;;0;0;0;0;0;0;0;0;0;();(-2000.0, -2000.0);
03:36:59:689;03:36:59:675;1448290379.33;(0.728295087814331, 0.7011599010891385);84.6588821411;1.0;;;;;;;;;;;;;;0;0;0;0;0;0;0;0;0;();(-2000.0, -2000.0);
03:36:59:706;03:36:59:675;1448290379.33;(0.728295087814331, 0.7011599010891385);84.6588821411;1.0;;;;;;;;;;;;;;0;0;0;0;0;0;0;0;0;();(-2000.0, -2000.0);
03:36:59:736;03:36:59:732;1448290379.4;(0.7283754825592041, 0.7007251739501953);84.5651855469;1.0;;;;;;;;;;;;;;0;0;0;0;0;0;0;0;0;();(-2000.0, -2000.0);
03:36:59:757;03:36:59:732;1448290379.4;(0.7283754825592041, 0.7007251739501953);84.5651855469;1.0;;;;;;;;;;;;;;0;0;0;0;0;0;0;0;0;();(-2000.0, -2000.0);
03:36:59:773;03:36:59:732;1448290379.4;(0.7283754825592041, 0.7007251739501953);84.5651855469;1.0;;;;;;;;;;;;;;0;0;0;0;0;0;0;0;0;();(-2000.0, -2000.0);
03:36:59:789;03:36:59:732;1448290379.4;(0.7283754825592041, 0.7007251739501953);84.5651855469;1.0;;;;;;;;;;;;;;0;0;0;0;0;0;0;0;0;();(-2000.0, -2000.0);
03:36:59:807;03:36:59:801;1448290379.46;(0.7283776283264161, 0.7004731284247505);84.4412384033;1.0;;;;;;;;;;;;;;0;0;0;0;0;0;0;0;0;();(-2000.0, -2000.0);
03:36:59:823;03:36:59:801;1448290379.46;(0.7283776283264161, 0.7004731284247505);84.4412384033;1.0;;;;;;;;;;;;;;0;0;0;0;0;0;0;0;0;();(-2000.0, -2000.0);
03:36:59:854;03:36:59:801;1448290379.46;(0.7283776283264161, 0.7004731284247505);84.4412384033;1.0;;;;;;;;;;;;;;0;0;0;0;0;0;0;0;0;();(-2000.0, -2000.0);
03:36:59:871;03:36:59:864;1448290379.53;(0.7285994529724121, 0.7000006781684027);84.3415145874;1.0;;;;;;;;;;;;;;0;0;0;0;0;0;0;0;0;();(-2000.0, -2000.0);
03:36:59:887;03:36:59:864;1448290379.53;(0.7285994529724121, 0.7000006781684027);84.3415145874;1.0;;;;;;;;;;;;;;0;0;0;0;0;0;0;0;0;();(-2000.0, -2000.0);
03:36:59:904;03:36:59:864;1448290379.53;(0.7285994529724121, 0.7000006781684027);84.3415145874;1.0;;;;;;;;;;;;;;0;0;0;0;0;0;0;0;0;();(-2000.0, -2000.0);
03:36:59:921;03:36:59:864;1448290379.53;(0.7285994529724121, 0.7000006781684027);84.3415145874;1.0;;;;;;;;;;;;;;0;0;0;0;0;0;0;0;0;();(-2000.0, -2000.0);
03:36:59:954;03:36:59:932;1448290379.6;(0.6565268993377685, 0.7495299021402995);85.6025314331;0.76553576135;;;;;;;;;;;;;;0;0;0;0;0;0;0;0;0;();(-2000.0, -2000.0);
03:36:59:971;03:36:59:932;1448290379.6;(0.6565268993377685, 0.7495299021402995);85.6025314331;0.76553576135;;;;;;;;;;;;;;0;0;0;0;0;0;0;0;0;();(-2000.0, -2000.0);
03:36:59:987;03:36:59:932;1448290379.6;(0.6565268993377685, 0.7495299021402995);85.6025314331;0.76553576135;;;;;;;;;;;;;;0;0;0;0;0;0;0;0;0;();(-2000.0, -2000.0);
03:37:00:004;03:36:59:995;1448290379.63;(0.653956127166748, 0.7541259765625);85.4488830566;0.930553837719;;;;;;;;;;;;;;0;0;0;0;0;0;0;0;0;();(-2000.0, -2000.0);
03:37:00:021;03:36:59:995;1448290379.63;(0.653956127166748, 0.7541259765625);85.4488830566;0.930553837719;;;;;;;;;;;;;;0;0;0;0;0;0;0;0;0;();(-2000.0, -2000.0);
03:37:00:054;03:36:59:995;1448290379.63;(0.653956127166748, 0.7541259765625);85.4488830566;0.930553837719;;;;;;;;;;;;;;0;0;0;0;0;0;0;0;0;();(-2000.0, -2000.0);
03:37:00:071;03:37:00:068;1448290379.73;(0.6533287525177002, 0.75402406056722);85.9694747925;1.0;;;;;;;;;;;;;;0;0;0;0;0;0;0;0;0;();(-2000.0, -2000.0);
03:37:00:088;03:37:00:068;1448290379.73;(0.6533287525177002, 0.75402406056722);85.9694747925;1.0;;;;;;;;;;;;;;0;0;0;0;0;0;0;0;0;();(-2000.0, -2000.0);
03:37:00:104;03:37:00:068;1448290379.73;(0.6533287525177002, 0.75402406056722);85.9694747925;1.0;;;;;;;;;;;;;;0;0;0;0;0;0;0;0;0;();(-2000.0, -2000.0);
03:37:00:121;03:37:00:068;1448290379.73;(0.6533287525177002, 0.75402406056722);85.9694747925;1.0;;;;;;;;;;;;;;0;0;0;0;0;0;0;0;0;();(-2000.0, -2000.0);
03:37:00:154;03:37:00:132;1448290379.8;(0.6538416862487793, 0.7550152884589301);86.3356399536;0.925225678901;;;;;;;;;;;;;;0;0;0;0;0;0;0;0;0;();(-2000.0, -2000.0);
03:37:00:173;03:37:00:132;1448290379.8;(0.6538416862487793, 0.7550152884589301);86.3356399536;0.925225678901;;;;;;;;;;;;;;0;0;0;0;0;0;0;0;0;();(-2000.0, -2000.0);
03:37:00:190;03:37:00:132;1448290379.8;(0.6538416862487793, 0.7550152884589301);86.3356399536;0.925225678901;;;;;;;;;;;;;;0;0;0;0;0;0;0;0;0;();(-2000.0, -2000.0);
03:37:00:207;03:37:00:196;1448290379.83;(0.6541178703308106, 0.7555043538411459);86.7882843018;0.93599435774;;;;;;;;;;;;;;0;0;0;0;0;0;0;0;0;();(-2000.0, -2000.0);
03:37:00:223;03:37:00:196;1448290379.83;(0.6541178703308106, 0.7555043538411459);86.7882843018;0.93599435774;;;;;;;;;;;;;;0;0;0;0;0;0;0;0;0;();(-2000.0, -2000.0);
03:37:00:257;03:37:00:196;1448290379.83;(0.6541178703308106, 0.7555043538411459);86.7882843018;0.93599435774;;;;;;;;;;;;;;0;0;0;0;0;0;0;0;0;();(-2000.0, -2000.0);
03:37:00:274;03:37:00:266;1448290379.9;(0.6008305549621582, 0.760998789469401);88.1878051758;1.0;;;;;;;;;;;;;;0;0;0;0;0;0;0;0;0;();(-2000.0, -2000.0);
03:37:00:288;03:37:00:266;1448290379.9;(0.6008305549621582, 0.760998789469401);88.1878051758;1.0;;;;;;;;;;;;;;0;0;0;0;0;0;0;0;0;();(-2000.0, -2000.0);
03:37:00:305;03:37:00:266;1448290379.9;(0.6008305549621582, 0.760998789469401);88.1878051758;1.0;;;;;;;;;;;;;;0;0;0;0;0;0;0;0;0;();(-2000.0, -2000.0);
03:37:00:321;03:37:00:266;1448290379.9;(0.6008305549621582, 0.760998789469401);88.1878051758;1.0;;;;;;;;;;;;;;0;0;0;0;0;0;0;0;0;();(-2000.0, -2000.0);
03:37:00:355;03:37:00:331;1448290380.0;(0.5865662574768067, 0.7614100774129232);88.094833374;0.99911049118;;;;;;;;;;;;;;0;0;0;0;0;0;0;0;0;();(-2000.0, -2000.0);
03:37:00:371;03:37:00:331;1448290380.0;(0.5865662574768067, 0.7614100774129232);88.094833374;0.99911049118;;;;;;;;;;;;;;0;0;0;0;0;0;0;0;0;();(-2000.0, -2000.0);
03:37:00:388;03:37:00:331;1448290380.0;(0.5865662574768067, 0.7614100774129232);88.094833374;0.99911049118;;;;;;;;;;;;;;0;0;0;0;0;0;0;0;0;();(-2000.0, -2000.0);
03:37:00:405;03:37:00:396;1448290380.06;(0.5865556240081787, 0.7611605326334635);88.4499893188;0.983734786863;;;;;;;;;;;;;;0;0;0;0;0;0;0;0;0;();(-2000.0, -2000.0);
03:37:00:421;03:37:00:396;1448290380.06;(0.5865556240081787, 0.7611605326334635);88.4499893188;0.983734786863;;;;;;;;;;;;;;0;0;0;0;0;0;0;0;0;();(-2000.0, -2000.0);
03:37:00:455;03:37:00:396;1448290380.06;(0.5865556240081787, 0.7611605326334635);88.4499893188;0.983734786863;;;;;;;;;;;;;;0;0;0;0;0;0;0;0;0;();(-2000.0, -2000.0);
03:37:00:471;03:37:00:464;1448290380.13;(0.5866112232208252, 0.7611261367797851);88.5233840942;1.0;;;;;;;;;;;;;;0;0;0;0;0;0;0;0;0;();(-2000.0, -2000.0);
03:37:00:488;03:37:00:464;1448290380.13;(0.5866112232208252, 0.7611261367797851);88.5233840942;1.0;;;;;;;;;;;;;;0;0;0;0;0;0;0;0;0;();(-2000.0, -2000.0);
03:37:00:504;03:37:00:464;1448290380.13;(0.5866112232208252, 0.7611261367797851);88.5233840942;1.0;;;;;;;;;;;;;;0;0;0;0;0;0;0;0;0;();(-2000.0, -2000.0);
03:37:00:521;03:37:00:464;1448290380.13;(0.5866112232208252, 0.7611261367797851);88.5233840942;1.0;;;;;;;;;;;;;;0;0;0;0;0;0;0;0;0;();(-2000.0, -2000.0);
03:37:00:555;03:37:00:528;1448290380.2;(0.5869800567626953, 0.760858620537652);87.9314041138;0.900135723109;;;;;;;;;;;;;;0;0;0;0;0;0;0;0;0;();(-2000.0, -2000.0);
03:37:00:571;03:37:00:528;1448290380.2;(0.5869800567626953, 0.760858620537652);87.9314041138;0.900135723109;;;;;;;;;;;;;;0;0;0;0;0;0;0;0;0;();(-2000.0, -2000.0);
03:37:00:588;03:37:00:528;1448290380.2;(0.5869800567626953, 0.760858620537652);87.9314041138;0.900135723109;;;;;;;;;;;;;;0;0;0;0;0;0;0;0;0;();(-2000.0, -2000.0);
03:37:00:604;03:37:00:596;1448290380.26;(0.5870506763458252, 0.7614615546332465);87.7538986206;1.0;;;;;;;;;;;;;;0;0;0;0;0;0;0;0;0;();(-2000.0, -2000.0);
03:37:00:622;03:37:00:596;1448290380.26;(0.5870506763458252, 0.7614615546332465);87.7538986206;1.0;;;;;;;;;;;;;;0;0;0;0;0;0;0;0;0;();(-2000.0, -2000.0);
03:37:00:655;03:37:00:596;1448290380.26;(0.5870506763458252, 0.7614615546332465);87.7538986206;1.0;;;;;;;;;;;;;;0;0;0;0;0;0;0;0;0;();(-2000.0, -2000.0);
03:37:00:671;03:37:00:661;1448290380.33;(0.587147569656372, 0.7617405149671767);87.0937576294;0.986389854079;;;;;;;;;;;;;;0;0;0;0;0;0;0;0;0;();(-2000.0, -2000.0);
03:37:00:688;03:37:00:661;1448290380.33;(0.587147569656372, 0.7617405149671767);87.0937576294;0.986389854079;;;;;;;;;;;;;;0;0;0;0;0;0;0;0;0;();(-2000.0, -2000.0);
03:37:00:705;03:37:00:661;1448290380.33;(0.587147569656372, 0.7617405149671767);87.0937576294;0.986389854079;;;;;;;;;;;;;;0;0;0;0;0;0;0;0;0;();(-2000.0, -2000.0);
03:37:00:720;03:37:00:661;1448290380.33;(0.587147569656372, 0.7617405149671767);87.0937576294;0.986389854079;;;;;;;;;;;;;;0;0;0;0;0;0;0;0;0;();(-2000.0, -2000.0);
03:37:00:755;03:37:00:727;1448290380.36;(0.5873231410980224, 0.7614117940266927);87.1582107544;0.910668853983;;;;;;;;;;;;;;0;0;0;0;0;0;0;0;0;();(-2000.0, -2000.0);
03:37:00:771;03:37:00:727;1448290380.36;(0.5873231410980224, 0.7614117940266927);87.1582107544;0.910668853983;;;;;;;;;;;;;;0;0;0;0;0;0;0;0;0;();(-2000.0, -2000.0);
03:37:00:788;03:37:00:727;1448290380.36;(0.5873231410980224, 0.7614117940266927);87.1582107544;0.910668853983;;;;;;;;;;;;;;0;0;0;0;0;0;0;0;0;();(-2000.0, -2000.0);
03:37:00:805;03:37:00:795;1448290380.43;(0.6291329383850097, 0.7701925065782336);88.3346862793;0.830368966308;;;;;;;;;;;;;;0;0;0;0;0;0;0;0;0;();(-2000.0, -2000.0);
03:37:00:821;03:37:00:795;1448290380.43;(0.6291329383850097, 0.7701925065782336);88.3346862793;0.830368966308;;;;;;;;;;;;;;0;0;0;0;0;0;0;0;0;();(-2000.0, -2000.0);
03:37:00:855;03:37:00:795;1448290380.43;(0.6291329383850097, 0.7701925065782336);88.3346862793;0.830368966308;;;;;;;;;;;;;;0;0;0;0;0;0;0;0;0;();(-2000.0, -2000.0);
03:37:00:871;03:37:00:865;1448290380.53;(0.6303014278411865, 0.7706947962443034);85.9127044678;0.945048307835;;;;;;;;;;;;;;0;0;0;0;0;0;0;0;0;();(-2000.0, -2000.0);
03:37:00:888;03:37:00:865;1448290380.53;(0.6303014278411865, 0.7706947962443034);85.9127044678;0.945048307835;;;;;;;;;;;;;;0;0;0;0;0;0;0;0;0;();(-2000.0, -2000.0);
03:37:00:905;03:37:00:865;1448290380.53;(0.6303014278411865, 0.7706947962443034);85.9127044678;0.945048307835;;;;;;;;;;;;;;0;0;0;0;0;0;0;0;0;();(-2000.0, -2000.0);
03:37:00:921;03:37:00:865;1448290380.53;(0.6303014278411865, 0.7706947962443034);85.9127044678;0.945048307835;;;;;;;;;;;;;;0;0;0;0;0;0;0;0;0;();(-2000.0, -2000.0);
03:37:00:955;03:37:00:926;1448290380.56;(0.6304916381835938, 0.7717541376749675);85.3577651978;0.843959297544;;;;;;;;;;;;;;0;0;0;0;0;0;0;0;0;();(-2000.0, -2000.0);
03:37:00:972;03:37:00:926;1448290380.56;(0.6304916381835938, 0.7717541376749675);85.3577651978;0.843959297544;;;;;;;;;;;;;;0;0;0;0;0;0;0;0;0;();(-2000.0, -2000.0);
03:37:00:988;03:37:00:926;1448290380.56;(0.6304916381835938, 0.7717541376749675);85.3577651978;0.843959297544;;;;;;;;;;;;;;0;0;0;0;0;0;0;0;0;();(-2000.0, -2000.0);
03:37:01:004;03:37:00:926;1448290380.56;(0.6304916381835938, 0.7717541376749675);85.3577651978;0.843959297544;;;;;;;;;;;;;;0;0;0;0;0;0;0;0;0;();(-2000.0, -2000.0);
03:37:01:021;03:37:01:009;1448290380.63;(0.630919075012207, 0.7726769129435221);85.3454055786;1.0;;;;;;;;;;;;;;0;0;0;0;0;0;0;0;0;();(-2000.0, -2000.0);
03:37:01:055;03:37:01:009;1448290380.63;(0.630919075012207, 0.7726769129435221);85.3454055786;1.0;;;;;;;;;;;;;;0;0;0;0;0;0;0;0;0;();(-2000.0, -2000.0);
03:37:01:070;03:37:01:060;1448290380.7;(0, 0);0;0;;;;;;;;;;;;;;0;0;0;0;0;0;0;0;0;();(-2000.0, -2000.0);
03:37:01:088;03:37:01:060;1448290380.7;(0, 0);0;0;;;;;;;;;;;;;;0;0;0;0;0;0;0;0;0;();(-2000.0, -2000.0);
03:37:01:105;03:37:01:060;1448290380.7;(0, 0);0;0;;;;;;;;;;;;;;0;0;0;0;0;0;0;0;0;();(-2000.0, -2000.0);
03:37:01:121;03:37:01:060;1448290380.7;(0, 0);0;0;;;;;;;;;;;;;;0;0;0;0;0;0;0;0;0;();(-2000.0, -2000.0);
03:37:01:155;03:37:01:125;1448290380.8;(0.6857664108276367, 0.7488587909274631);86.2525787354;1.0;;;;;;;;;;;;;;0;0;0;0;0;0;0;0;0;();(-2000.0, -2000.0);
03:37:01:171;03:37:01:125;1448290380.8;(0.6857664108276367, 0.7488587909274631);86.2525787354;1.0;;;;;;;;;;;;;;0;0;0;0;0;0;0;0;0;();(-2000.0, -2000.0);
03:37:01:188;03:37:01:125;1448290380.8;(0.6857664108276367, 0.7488587909274631);86.2525787354;1.0;;;;;;;;;;;;;;0;0;0;0;0;0;0;0;0;();(-2000.0, -2000.0);
03:37:01:205;03:37:01:190;1448290380.83;(0.6858053207397461, 0.7489101409912109);87.1376419067;0.940232512199;;;;;;;;;;;;;;0;0;0;0;0;0;0;0;0;();(-2000.0, -2000.0);
03:37:01:221;03:37:01:190;1448290380.83;(0.6858053207397461, 0.7489101409912109);87.1376419067;0.940232512199;;;;;;;;;;;;;;0;0;0;0;0;0;0;0;0;();(-2000.0, -2000.0);
03:37:01:255;03:37:01:190;1448290380.83;(0.6858053207397461, 0.7489101409912109);87.1376419067;0.940232512199;;;;;;;;;;;;;;0;0;0;0;0;0;0;0;0;();(-2000.0, -2000.0);
03:37:01:272;03:37:01:261;1448290380.93;(0.6863945484161377, 0.7490803612603081);86.6270904541;0.846173478989;;;;;;;;;;;;;;0;0;0;0;0;0;0;0;0;();(-2000.0, -2000.0);
03:37:01:291;03:37:01:261;1448290380.93;(0.6863945484161377, 0.7490803612603081);86.6270904541;0.846173478989;;;;;;;;;;;;;;0;0;0;0;0;0;0;0;0;();(-2000.0, -2000.0);
03:37:01:306;03:37:01:261;1448290380.93;(0.6863945484161377, 0.7490803612603081);86.6270904541;0.846173478989;;;;;;;;;;;;;;0;0;0;0;0;0;0;0;0;();(-2000.0, -2000.0);
03:37:01:322;03:37:01:261;1448290380.93;(0.6863945484161377, 0.7490803612603081);86.6270904541;0.846173478989;;;;;;;;;;;;;;0;0;0;0;0;0;0;0;0;();(-2000.0, -2000.0);
03:37:01:355;03:37:01:325;1448290380.96;(0.6862591743469239, 0.7493477079603408);86.8816452026;0.963412187551;;;;;;;;;;;;;;0;0;0;0;0;0;0;0;0;();(-2000.0, -2000.0);
03:37:01:372;03:37:01:325;1448290380.96;(0.6862591743469239, 0.7493477079603408);86.8816452026;0.963412187551;;;;;;;;;;;;;;0;0;0;0;0;0;0;0;0;();(-2000.0, -2000.0);
03:37:01:388;03:37:01:325;1448290380.96;(0.6862591743469239, 0.7493477079603408);86.8816452026;0.963412187551;;;;;;;;;;;;;;0;0;0;0;0;0;0;0;0;();(-2000.0, -2000.0);
03:37:01:405;03:37:01:392;1448290381.03;(0, 0);0;0;;;;;;;;;;;;;;0;0;0;0;0;0;0;0;0;();(-2000.0, -2000.0);
03:37:01:421;03:37:01:392;1448290381.03;(0, 0);0;0;;;;;;;;;;;;;;0;0;0;0;0;0;0;0;0;();(-2000.0, -2000.0);
03:37:01:458;03:37:01:392;1448290381.03;(0, 0);0;0;;;;;;;;;;;;;;0;0;0;0;0;0;0;0;0;();(-2000.0, -2000.0);
03:37:01:472;03:37:01:456;1448290381.1;(0, 0);0;0;;;;;;;;;;;;;;0;0;0;0;0;0;0;0;0;();(-2000.0, -2000.0);
03:37:01:489;03:37:01:456;1448290381.1;(0, 0);0;0;;;;;;;;;;;;;;0;0;0;0;0;0;0;0;0;();(-2000.0, -2000.0);
03:37:01:505;03:37:01:456;1448290381.1;(0, 0);0;0;;;;;;;;;;;;;;0;0;0;0;0;0;0;0;0;();(-2000.0, -2000.0);
03:37:01:521;03:37:01:456;1448290381.1;(0, 0);0;0;;;;;;;;;;;;;;0;0;0;0;0;0;0;0;0;();(-2000.0, -2000.0);
03:37:01:555;03:37:01:524;1448290381.16;(0.5903781414031982, 0.7457642237345378);85.9265441895;0.798437267818;;;;;;;;;;;;;;0;0;0;0;0;0;0;0;0;();(-2000.0, -2000.0);
03:37:01:571;03:37:01:524;1448290381.16;(0.5903781414031982, 0.7457642237345378);85.9265441895;0.798437267818;;;;;;;;;;;;;;0;0;0;0;0;0;0;0;0;();(-2000.0, -2000.0);
03:37:01:587;03:37:01:524;1448290381.16;(0.5903781414031982, 0.7457642237345378);85.9265441895;0.798437267818;;;;;;;;;;;;;;0;0;0;0;0;0;0;0;0;();(-2000.0, -2000.0);
03:37:01:606;03:37:01:591;1448290381.23;(0.589959192276001, 0.7479432423909504);85.4677963257;0.762394830171;;;;;;;;;;;;;;0;0;0;0;0;0;0;0;0;();(-2000.0, -2000.0);
03:37:01:622;03:37:01:591;1448290381.23;(0.589959192276001, 0.7479432423909504);85.4677963257;0.762394830171;;;;;;;;;;;;;;0;0;0;0;0;0;0;0;0;();(-2000.0, -2000.0);
03:37:01:655;03:37:01:591;1448290381.23;(0.589959192276001, 0.7479432423909504);85.4677963257;0.762394830171;;;;;;;;;;;;;;0;0;0;0;0;0;0;0;0;();(-2000.0, -2000.0);
03:37:01:672;03:37:01:657;1448290381.3;(0.590806245803833, 0.7463890923394096);86.0946502686;0.947633514345;;;;;;;;;;;;;;0;0;0;0;0;0;0;0;0;();(-2000.0, -2000.0);
03:37:01:688;03:37:01:657;1448290381.3;(0.590806245803833, 0.7463890923394096);86.0946502686;0.947633514345;;;;;;;;;;;;;;0;0;0;0;0;0;0;0;0;();(-2000.0, -2000.0);
03:37:01:705;03:37:01:657;1448290381.3;(0.590806245803833, 0.7463890923394096);86.0946502686;0.947633514345;;;;;;;;;;;;;;0;0;0;0;0;0;0;0;0;();(-2000.0, -2000.0);
03:37:01:721;03:37:01:657;1448290381.3;(0.590806245803833, 0.7463890923394096);86.0946502686;0.947633514345;;;;;;;;;;;;;;0;0;0;0;0;0;0;0;0;();(-2000.0, -2000.0);
03:37:01:755;03:37:01:724;1448290381.36;(0, 0);0;0;;;;;;;;;;;;;;0;0;0;0;0;0;0;0;0;();(-2000.0, -2000.0);
03:37:01:772;03:37:01:724;1448290381.36;(0, 0);0;0;;;;;;;;;;;;;;0;0;0;0;0;0;0;0;0;();(-2000.0, -2000.0);
03:37:01:788;03:37:01:724;1448290381.36;(0, 0);0;0;;;;;;;;;;;;;;0;0;0;0;0;0;0;0;0;();(-2000.0, -2000.0);
03:37:01:806;03:37:01:790;1448290381.43;(0.32506752014160156, 0.8646123462253147);28.625711441;0.759267772046;;;;;;;;;;;;;;0;0;0;0;0;0;0;0;0;();(-2000.0, -2000.0);
03:37:01:821;03:37:01:790;1448290381.43;(0.32506752014160156, 0.8646123462253147);28.625711441;0.759267772046;;;;;;;;;;;;;;0;0;0;0;0;0;0;0;0;();(-2000.0, -2000.0);
