%Timestamp,timestamp_write;timestamp_gotpupil;eyeTrackerTime;normPos;diameter;confidence;nplanes;listofAirplanesonScreen;lastAction;lastActionDetails;lastActionAirplaneNumber;calculatedScore;positiveScore;negativeScore;collidedAirplaneNumbers;targetPositions;collisionPoint
03:23:19:324;1448289558.89;(0, 0);0;0;0;0;0;0;0;0;0;0;0;();(-2000.0, -2000.0);
03:23:19:338;1448289558.89;(0, 0);0;0;0;0;0;0;0;0;0;0;0;();(-2000.0, -2000.0);
03:23:19:345;1448289558.89;(0, 0);0;0;0;0;0;0;0;0;0;0;0;();(-2000.0, -2000.0);
03:23:19:353;1448289558.89;(0, 0);0;0;0;0;0;0;0;0;0;0;0;();(-2000.0, -2000.0);
03:23:19:360;1448289558.89;(0, 0);0;0;0;0;0;0;0;0;0;0;0;();(-2000.0, -2000.0);
03:23:19:367;1448289558.89;(0, 0);0;0;0;0;0;0;0;0;0;0;0;();(-2000.0, -2000.0);
03:23:19:374;1448289558.89;(0, 0);0;0;0;0;0;0;0;0;0;0;0;();(-2000.0, -2000.0);
03:23:19:381;1448289558.89;(0, 0);0;0;0;0;0;0;0;0;0;0;0;();(-2000.0, -2000.0);
03:23:19:388;1448289558.89;(0, 0);0;0;0;0;0;0;0;0;0;0;0;();(-2000.0, -2000.0);
03:23:19:396;1448289558.89;(0, 0);0;0;0;0;0;0;0;0;0;0;0;();(-2000.0, -2000.0);
03:23:19:403;03:23:19:396;1448289559.02;(0, 0);0;0;0;0;0;0;0;0;0;0;0;();(-2000.0, -2000.0);
03:23:19:410;03:23:19:396;1448289559.02;(0, 0);0;0;0;0;0;0;0;0;0;0;0;();(-2000.0, -2000.0);
03:23:19:417;03:23:19:396;1448289559.02;(0, 0);0;0;0;0;0;0;0;0;0;0;0;();(-2000.0, -2000.0);
03:23:19:424;03:23:19:396;1448289559.02;(0, 0);0;0;0;0;0;0;0;0;0;0;0;();(-2000.0, -2000.0);
03:23:19:431;03:23:19:396;1448289559.02;(0, 0);0;0;0;0;0;0;0;0;0;0;0;();(-2000.0, -2000.0);
03:23:19:438;03:23:19:396;1448289559.02;(0, 0);0;0;0;0;0;0;0;0;0;0;0;();(-2000.0, -2000.0);
03:23:19:566;03:23:19:529;1448289559.15;(0, 0);0;0;0;0;0;0;0;0;0;0;0;();(-2000.0, -2000.0);
03:23:19:574;03:23:19:529;1448289559.15;(0, 0);0;0;0;0;0;0;0;0;0;0;0;();(-2000.0, -2000.0);
03:23:19:581;03:23:19:529;1448289559.15;(0, 0);0;0;0;0;0;0;0;0;0;0;0;();(-2000.0, -2000.0);
03:23:19:588;03:23:19:529;1448289559.15;(0, 0);0;0;0;0;0;0;0;0;0;0;0;();(-2000.0, -2000.0);
03:23:19:596;03:23:19:529;1448289559.15;(0, 0);0;0;0;0;0;0;0;0;0;0;0;();(-2000.0, -2000.0);
03:23:19:603;03:23:19:529;1448289559.15;(0, 0);0;0;0;0;0;0;0;0;0;0;0;();(-2000.0, -2000.0);
03:23:19:610;03:23:19:529;1448289559.15;(0, 0);0;0;0;0;0;0;0;0;0;0;0;();(-2000.0, -2000.0);
03:23:19:617;03:23:19:529;1448289559.15;(0, 0);0;0;0;0;0;0;0;0;0;0;0;();(-2000.0, -2000.0);
03:23:19:625;03:23:19:529;1448289559.15;(0, 0);0;0;0;0;0;0;0;0;0;0;0;();(-2000.0, -2000.0);
03:23:19:632;03:23:19:529;1448289559.15;(0, 0);0;0;0;0;0;0;0;0;0;0;0;();(-2000.0, -2000.0);
03:23:19:639;03:23:19:529;1448289559.15;(0, 0);0;0;0;0;0;0;0;0;0;0;0;();(-2000.0, -2000.0);
03:23:19:646;03:23:19:529;1448289559.15;(0, 0);0;0;0;0;0;0;0;0;0;0;0;();(-2000.0, -2000.0);
03:23:19:653;03:23:19:529;1448289559.15;(0, 0);0;0;0;0;0;0;0;0;0;0;0;();(-2000.0, -2000.0);
03:23:19:673;03:23:19:665;1448289559.29;(0, 0);0;0;0;0;0;0;0;0;0;0;0;();(-2000.0, -2000.0);
03:23:19:680;03:23:19:665;1448289559.29;(0, 0);0;0;0;0;0;0;0;0;0;0;0;();(-2000.0, -2000.0);
03:23:19:687;03:23:19:665;1448289559.29;(0, 0);0;0;0;0;0;0;0;0;0;0;0;();(-2000.0, -2000.0);
03:23:19:694;03:23:19:665;1448289559.29;(0, 0);0;0;0;0;0;0;0;0;0;0;0;();(-2000.0, -2000.0);
03:23:19:702;03:23:19:665;1448289559.29;(0, 0);0;0;0;0;0;0;0;0;0;0;0;();(-2000.0, -2000.0);
03:23:19:711;03:23:19:665;1448289559.29;(0, 0);0;0;0;0;0;0;0;0;0;0;0;();(-2000.0, -2000.0);
03:23:19:718;03:23:19:665;1448289559.29;(0, 0);0;0;0;0;0;0;0;0;0;0;0;();(-2000.0, -2000.0);
03:23:19:730;03:23:19:665;1448289559.29;(0, 0);0;0;0;0;0;0;0;0;0;0;0;();(-2000.0, -2000.0);
03:23:19:746;03:23:19:665;1448289559.29;(0, 0);0;0;0;0;0;0;0;0;0;0;0;();(-2000.0, -2000.0);
03:23:19:779;03:23:19:665;1448289559.29;(0, 0);0;0;0;0;0;0;0;0;0;0;0;();(-2000.0, -2000.0);
03:23:19:796;03:23:19:665;1448289559.29;(0, 0);0;0;0;0;0;0;0;0;0;0;0;();(-2000.0, -2000.0);
03:23:19:812;03:23:19:796;1448289559.42;(0, 0);0;0;0;0;0;0;0;0;0;0;0;();(-2000.0, -2000.0);
03:23:19:829;03:23:19:796;1448289559.42;(0, 0);0;0;0;0;0;0;0;0;0;0;0;();(-2000.0, -2000.0);
03:23:19:846;03:23:19:796;1448289559.42;(0, 0);0;0;0;0;0;0;0;0;0;0;0;();(-2000.0, -2000.0);
03:23:19:879;03:23:19:796;1448289559.42;(0, 0);0;0;0;0;0;0;0;0;0;0;0;();(-2000.0, -2000.0);
03:23:19:895;03:23:19:796;1448289559.42;(0, 0);0;0;0;0;0;0;0;0;0;0;0;();(-2000.0, -2000.0);
03:23:19:912;03:23:19:796;1448289559.42;(0, 0);0;0;0;0;0;0;0;0;0;0;0;();(-2000.0, -2000.0);
03:23:19:929;03:23:19:796;1448289559.42;(0, 0);0;0;0;0;0;0;0;0;0;0;0;();(-2000.0, -2000.0);
03:23:19:945;03:23:19:930;1448289559.55;(0, 0);0;0;0;0;0;0;0;0;0;0;0;();(-2000.0, -2000.0);
03:23:19:978;03:23:19:930;1448289559.55;(0, 0);0;0;0;0;0;0;0;0;0;0;0;();(-2000.0, -2000.0);
03:23:19:995;03:23:19:930;1448289559.55;(0, 0);0;0;0;0;0;0;0;0;0;0;0;();(-2000.0, -2000.0);
03:23:20:011;03:23:19:930;1448289559.55;(0, 0);0;0;0;0;0;0;0;0;0;0;0;();(-2000.0, -2000.0);
03:23:20:028;03:23:19:930;1448289559.55;(0, 0);0;0;0;0;0;0;0;0;0;0;0;();(-2000.0, -2000.0);
03:23:20:044;03:23:19:930;1448289559.55;(0, 0);0;0;0;0;0;0;0;0;0;0;0;();(-2000.0, -2000.0);
03:23:20:077;03:23:20:059;1448289559.69;(0, 0);0;0;0;0;0;0;0;0;0;0;0;();(-2000.0, -2000.0);
03:23:20:094;03:23:20:059;1448289559.69;(0, 0);0;0;0;0;0;0;0;0;0;0;0;();(-2000.0, -2000.0);
03:23:20:110;03:23:20:059;1448289559.69;(0, 0);0;0;0;0;0;0;0;0;0;0;0;();(-2000.0, -2000.0);
03:23:20:127;03:23:20:059;1448289559.69;(0, 0);0;0;0;0;0;0;0;0;0;0;0;();(-2000.0, -2000.0);
03:23:20:160;03:23:20:059;1448289559.69;(0, 0);0;0;0;0;0;0;0;0;0;0;0;();(-2000.0, -2000.0);
03:23:20:177;03:23:20:059;1448289559.69;(0, 0);0;0;0;0;0;0;0;0;0;0;0;();(-2000.0, -2000.0);
03:23:20:193;03:23:20:059;1448289559.69;(0, 0);0;0;0;0;0;0;0;0;0;0;0;();(-2000.0, -2000.0);
03:23:20:210;03:23:20:194;1448289559.82;(0, 0);0;0;0;0;0;0;0;0;0;0;0;();(-2000.0, -2000.0);
03:23:20:226;03:23:20:194;1448289559.82;(0, 0);0;0;0;0;0;0;0;0;0;0;0;();(-2000.0, -2000.0);
03:23:20:259;03:23:20:194;1448289559.82;(0, 0);0;0;0;0;0;0;0;0;0;0;0;();(-2000.0, -2000.0);
03:23:20:276;03:23:20:194;1448289559.82;(0, 0);0;0;0;0;0;0;0;0;0;0;0;();(-2000.0, -2000.0);
03:23:20:293;03:23:20:194;1448289559.82;(0, 0);0;0;0;0;0;0;0;0;0;0;0;();(-2000.0, -2000.0);
03:23:20:310;03:23:20:194;1448289559.82;(0, 0);0;0;0;0;0;0;0;0;0;0;0;();(-2000.0, -2000.0);
03:23:20:326;03:23:20:194;1448289559.82;(0, 0);0;0;0;0;0;0;0;0;0;0;0;();(-2000.0, -2000.0);
03:23:20:360;03:23:20:328;1448289559.95;(0, 0);0;0;0;0;0;0;0;0;0;0;0;();(-2000.0, -2000.0);
03:23:20:376;03:23:20:328;1448289559.95;(0, 0);0;0;0;0;0;0;0;0;0;0;0;();(-2000.0, -2000.0);
03:23:20:393;03:23:20:328;1448289559.95;(0, 0);0;0;0;0;0;0;0;0;0;0;0;();(-2000.0, -2000.0);
03:23:20:409;03:23:20:328;1448289559.95;(0, 0);0;0;0;0;0;0;0;0;0;0;0;();(-2000.0, -2000.0);
03:23:20:426;03:23:20:328;1448289559.95;(0, 0);0;0;0;0;0;0;0;0;0;0;0;();(-2000.0, -2000.0);
03:23:20:458;03:23:20:328;1448289559.95;(0, 0);0;0;0;0;0;0;0;0;0;0;0;();(-2000.0, -2000.0);
03:23:20:475;03:23:20:460;1448289560.09;(0, 0);0;0;0;0;0;0;0;0;0;0;0;();(-2000.0, -2000.0);
03:23:20:492;03:23:20:460;1448289560.09;(0, 0);0;0;0;0;0;0;0;0;0;0;0;();(-2000.0, -2000.0);
03:23:20:514;03:23:20:460;1448289560.09;(0, 0);0;0;0;0;0;0;0;0;0;0;0;();(-2000.0, -2000.0);
03:23:20:525;03:23:20:460;1448289560.09;(0, 0);0;0;0;0;0;0;0;0;0;0;0;();(-2000.0, -2000.0);
03:23:20:558;03:23:20:460;1448289560.09;(0, 0);0;0;0;0;0;0;0;0;0;0;0;();(-2000.0, -2000.0);
03:23:20:575;03:23:20:460;1448289560.09;(0, 0);0;0;0;0;0;0;0;0;0;0;0;();(-2000.0, -2000.0);
03:23:20:592;03:23:20:460;1448289560.09;(0, 0);0;0;0;0;0;0;0;0;0;0;0;();(-2000.0, -2000.0);
03:23:20:608;03:23:20:592;1448289560.22;(0, 0);0;0;0;0;0;0;0;0;0;0;0;();(-2000.0, -2000.0);
03:23:20:625;03:23:20:592;1448289560.22;(0, 0);0;0;0;0;0;0;0;0;0;0;0;();(-2000.0, -2000.0);
03:23:20:658;03:23:20:592;1448289560.22;(0, 0);0;0;0;0;0;0;0;0;0;0;0;();(-2000.0, -2000.0);
03:23:20:674;03:23:20:592;1448289560.22;(0, 0);0;0;0;0;0;0;0;0;0;0;0;();(-2000.0, -2000.0);
03:23:20:691;03:23:20:592;1448289560.22;(0, 0);0;0;0;0;0;0;0;0;0;0;0;();(-2000.0, -2000.0);
03:23:20:708;03:23:20:592;1448289560.22;(0, 0);0;0;0;0;0;0;0;0;0;0;0;();(-2000.0, -2000.0);
03:23:20:740;03:23:20:726;1448289560.35;(0, 0);0;0;0;0;0;0;0;0;0;0;0;();(-2000.0, -2000.0);
03:23:20:757;03:23:20:726;1448289560.35;(0, 0);0;0;0;0;0;0;0;0;0;0;0;();(-2000.0, -2000.0);
03:23:20:777;03:23:20:726;1448289560.35;(0, 0);0;0;0;0;0;0;0;0;0;0;0;();(-2000.0, -2000.0);
03:23:20:790;03:23:20:726;1448289560.35;(0, 0);0;0;0;0;0;0;0;0;0;0;0;();(-2000.0, -2000.0);
03:23:20:807;03:23:20:726;1448289560.35;(0, 0);0;0;0;0;0;0;0;0;0;0;0;();(-2000.0, -2000.0);
03:23:20:843;03:23:20:726;1448289560.35;(0, 0);0;0;0;0;0;0;0;0;0;0;0;();(-2000.0, -2000.0);
03:23:20:857;03:23:20:726;1448289560.35;(0, 0);0;0;0;0;0;0;0;0;0;0;0;();(-2000.0, -2000.0);
03:23:20:873;03:23:20:866;1448289560.49;(0, 0);0;0;0;0;0;0;0;0;0;0;0;();(-2000.0, -2000.0);
03:23:20:890;03:23:20:866;1448289560.49;(0, 0);0;0;0;0;0;0;0;0;0;0;0;();(-2000.0, -2000.0);
03:23:20:906;03:23:20:866;1448289560.49;(0, 0);0;0;0;0;0;0;0;0;0;0;0;();(-2000.0, -2000.0);
03:23:20:939;03:23:20:866;1448289560.49;(0, 0);0;0;0;0;0;0;0;0;0;0;0;();(-2000.0, -2000.0);
03:23:20:956;03:23:20:866;1448289560.49;(0, 0);0;0;0;0;0;0;0;0;0;0;0;();(-2000.0, -2000.0);
03:23:20:972;03:23:20:866;1448289560.49;(0, 0);0;0;0;0;0;0;0;0;0;0;0;();(-2000.0, -2000.0);
03:23:20:989;03:23:20:866;1448289560.49;(0, 0);0;0;0;0;0;0;0;0;0;0;0;();(-2000.0, -2000.0);
03:23:21:006;03:23:20:993;1448289560.62;(0, 0);0;0;0;0;0;0;0;0;0;0;0;();(-2000.0, -2000.0);
03:23:21:039;03:23:20:993;1448289560.62;(0, 0);0;0;0;0;0;0;0;0;0;0;0;();(-2000.0, -2000.0);
03:23:21:055;03:23:20:993;1448289560.62;(0, 0);0;0;0;0;0;0;0;0;0;0;0;();(-2000.0, -2000.0);
03:23:21:072;03:23:20:993;1448289560.62;(0, 0);0;0;0;0;0;0;0;0;0;0;0;();(-2000.0, -2000.0);
03:23:21:089;03:23:20:993;1448289560.62;(0, 0);0;0;0;0;0;0;0;0;0;0;0;();(-2000.0, -2000.0);
03:23:21:105;03:23:20:993;1448289560.62;(0, 0);0;0;0;0;0;0;0;0;0;0;0;();(-2000.0, -2000.0);
03:23:21:138;03:23:21:124;1448289560.75;(0, 0);0;0;0;0;0;0;0;0;0;0;0;();(-2000.0, -2000.0);
03:23:21:155;03:23:21:124;1448289560.75;(0, 0);0;0;0;0;0;0;0;0;0;0;0;();(-2000.0, -2000.0);
03:23:21:171;03:23:21:124;1448289560.75;(0, 0);0;0;0;0;0;0;0;0;0;0;0;();(-2000.0, -2000.0);
03:23:21:188;03:23:21:124;1448289560.75;(0, 0);0;0;0;0;0;0;0;0;0;0;0;();(-2000.0, -2000.0);
03:23:21:204;03:23:21:124;1448289560.75;(0, 0);0;0;0;0;0;0;0;0;0;0;0;();(-2000.0, -2000.0);
03:23:21:238;03:23:21:124;1448289560.75;(0, 0);0;0;0;0;0;0;0;0;0;0;0;();(-2000.0, -2000.0);
03:23:21:254;03:23:21:124;1448289560.75;(0, 0);0;0;0;0;0;0;0;0;0;0;0;();(-2000.0, -2000.0);
03:23:21:271;03:23:21:256;1448289560.89;(0, 0);0;0;0;0;0;0;0;0;0;0;0;();(-2000.0, -2000.0);
03:23:21:287;03:23:21:256;1448289560.89;(0, 0);0;0;0;0;0;0;0;0;0;0;0;();(-2000.0, -2000.0);
03:23:21:321;03:23:21:256;1448289560.89;(0, 0);0;0;0;0;0;0;0;0;0;0;0;();(-2000.0, -2000.0);
03:23:21:337;03:23:21:256;1448289560.89;(0, 0);0;0;0;0;0;0;0;0;0;0;0;();(-2000.0, -2000.0);
03:23:21:353;03:23:21:256;1448289560.89;(0, 0);0;0;0;0;0;0;0;0;0;0;0;();(-2000.0, -2000.0);
03:23:21:370;03:23:21:256;1448289560.89;(0, 0);0;0;0;0;0;0;0;0;0;0;0;();(-2000.0, -2000.0);
03:23:21:387;03:23:21:256;1448289560.89;(0, 0);0;0;0;0;0;0;0;0;0;0;0;();(-2000.0, -2000.0);
03:23:21:420;03:23:21:389;1448289561.02;(0, 0);0;0;0;0;0;0;0;0;0;0;0;();(-2000.0, -2000.0);
03:23:21:436;03:23:21:389;1448289561.02;(0, 0);0;0;0;0;0;0;0;0;0;0;0;();(-2000.0, -2000.0);
03:23:21:453;03:23:21:389;1448289561.02;(0, 0);0;0;0;0;0;0;0;0;0;0;0;();(-2000.0, -2000.0);
03:23:21:469;03:23:21:389;1448289561.02;(0, 0);0;0;0;0;0;0;0;0;0;0;0;();(-2000.0, -2000.0);
03:23:21:486;03:23:21:389;1448289561.02;(0, 0);0;0;0;0;0;0;0;0;0;0;0;();(-2000.0, -2000.0);
03:23:21:519;03:23:21:389;1448289561.02;(0, 0);0;0;0;0;0;0;0;0;0;0;0;();(-2000.0, -2000.0);
03:23:21:535;03:23:21:520;1448289561.15;(0, 0);0;0;0;0;0;0;0;0;0;0;0;();(-2000.0, -2000.0);
03:23:21:552;03:23:21:520;1448289561.15;(0, 0);0;0;0;0;0;0;0;0;0;0;0;();(-2000.0, -2000.0);
03:23:21:569;03:23:21:520;1448289561.15;(0, 0);0;0;0;0;0;0;0;0;0;0;0;();(-2000.0, -2000.0);
03:23:21:585;03:23:21:520;1448289561.15;(0, 0);0;0;0;0;0;0;0;0;0;0;0;();(-2000.0, -2000.0);
03:23:21:618;03:23:21:520;1448289561.15;(0, 0);0;0;0;0;0;0;0;0;0;0;0;();(-2000.0, -2000.0);
03:23:21:634;03:23:21:520;1448289561.15;(0, 0);0;0;0;0;0;0;0;0;0;0;0;();(-2000.0, -2000.0);
03:23:21:652;03:23:21:520;1448289561.15;(0, 0);0;0;0;0;0;0;0;0;0;0;0;();(-2000.0, -2000.0);
03:23:21:668;03:23:21:652;1448289561.29;(0, 0);0;0;0;0;0;0;0;0;0;0;0;();(-2000.0, -2000.0);
03:23:21:685;03:23:21:652;1448289561.29;(0, 0);0;0;0;0;0;0;0;0;0;0;0;();(-2000.0, -2000.0);
03:23:21:717;03:23:21:652;1448289561.29;(0, 0);0;0;0;0;0;0;0;0;0;0;0;();(-2000.0, -2000.0);
03:23:21:734;03:23:21:652;1448289561.29;(0, 0);0;0;0;0;0;0;0;0;0;0;0;();(-2000.0, -2000.0);
03:23:21:750;03:23:21:652;1448289561.29;(0, 0);0;0;0;0;0;0;0;0;0;0;0;();(-2000.0, -2000.0);
03:23:21:768;03:23:21:652;1448289561.29;(0, 0);0;0;0;0;0;0;0;0;0;0;0;();(-2000.0, -2000.0);
03:23:21:801;03:23:21:792;1448289561.42;(0, 0);0;0;0;0;0;0;0;0;0;0;0;();(-2000.0, -2000.0);
03:23:21:817;03:23:21:792;1448289561.42;(0, 0);0;0;0;0;0;0;0;0;0;0;0;();(-2000.0, -2000.0);
03:23:21:834;03:23:21:792;1448289561.42;(0, 0);0;0;0;0;0;0;0;0;0;0;0;();(-2000.0, -2000.0);
03:23:21:850;03:23:21:792;1448289561.42;(0, 0);0;0;0;0;0;0;0;0;0;0;0;();(-2000.0, -2000.0);
03:23:21:866;03:23:21:792;1448289561.42;(0, 0);0;0;0;0;0;0;0;0;0;0;0;();(-2000.0, -2000.0);
03:23:21:899;03:23:21:792;1448289561.42;(0, 0);0;0;0;0;0;0;0;0;0;0;0;();(-2000.0, -2000.0);
03:23:21:917;03:23:21:792;1448289561.42;(0, 0);0;0;0;0;0;0;0;0;0;0;0;();(-2000.0, -2000.0);
03:23:21:933;03:23:21:922;1448289561.55;(0, 0);0;0;0;0;0;0;0;0;0;0;0;();(-2000.0, -2000.0);
03:23:21:950;03:23:21:922;1448289561.55;(0, 0);0;0;0;0;0;0;0;0;0;0;0;();(-2000.0, -2000.0);
03:23:21:966;03:23:21:922;1448289561.55;(0, 0);0;0;0;0;0;0;0;0;0;0;0;();(-2000.0, -2000.0);
03:23:21:999;03:23:21:922;1448289561.55;(0, 0);0;0;0;0;0;0;0;0;0;0;0;();(-2000.0, -2000.0);
03:23:22:015;03:23:21:922;1448289561.55;(0, 0);0;0;0;0;0;0;0;0;0;0;0;();(-2000.0, -2000.0);
03:23:22:032;03:23:21:922;1448289561.55;(0, 0);0;0;0;0;0;0;0;0;0;0;0;();(-2000.0, -2000.0);
03:23:22:049;03:23:21:922;1448289561.55;(0, 0);0;0;0;0;0;0;0;0;0;0;0;();(-2000.0, -2000.0);
03:23:22:065;03:23:22:052;1448289561.69;(0, 0);0;0;0;0;0;0;0;0;0;0;0;();(-2000.0, -2000.0);
03:23:22:098;03:23:22:052;1448289561.69;(0, 0);0;0;0;0;0;0;0;0;0;0;0;();(-2000.0, -2000.0);
03:23:22:115;03:23:22:052;1448289561.69;(0, 0);0;0;0;0;0;0;0;0;0;0;0;();(-2000.0, -2000.0);
03:23:22:131;03:23:22:052;1448289561.69;(0, 0);0;0;0;0;0;0;0;0;0;0;0;();(-2000.0, -2000.0);
03:23:22:148;03:23:22:052;1448289561.69;(0, 0);0;0;0;0;0;0;0;0;0;0;0;();(-2000.0, -2000.0);
03:23:22:164;03:23:22:052;1448289561.69;(0, 0);0;0;0;0;0;0;0;0;0;0;0;();(-2000.0, -2000.0);
03:23:22:198;03:23:22:183;1448289561.82;(0, 0);0;0;0;0;0;0;0;0;0;0;0;();(-2000.0, -2000.0);
03:23:22:215;03:23:22:183;1448289561.82;(0, 0);0;0;0;0;0;0;0;0;0;0;0;();(-2000.0, -2000.0);
03:23:22:231;03:23:22:183;1448289561.82;(0, 0);0;0;0;0;0;0;0;0;0;0;0;();(-2000.0, -2000.0);
03:23:22:247;03:23:22:183;1448289561.82;(0, 0);0;0;0;0;0;0;0;0;0;0;0;();(-2000.0, -2000.0);
03:23:22:264;03:23:22:183;1448289561.82;(0, 0);0;0;0;0;0;0;0;0;0;0;0;();(-2000.0, -2000.0);
03:23:22:297;03:23:22:183;1448289561.82;(0, 0);0;0;0;0;0;0;0;0;0;0;0;();(-2000.0, -2000.0);
03:23:22:314;03:23:22:183;1448289561.82;(0, 0);0;0;0;0;0;0;0;0;0;0;0;();(-2000.0, -2000.0);
03:23:22:330;03:23:22:316;1448289561.95;(0, 0);0;0;0;0;0;0;0;0;0;0;0;();(-2000.0, -2000.0);
03:23:22:347;03:23:22:316;1448289561.95;(0, 0);0;0;0;0;0;0;0;0;0;0;0;();(-2000.0, -2000.0);
03:23:22:364;03:23:22:316;1448289561.95;(0, 0);0;0;0;0;0;0;0;0;0;0;0;();(-2000.0, -2000.0);
03:23:22:396;03:23:22:316;1448289561.95;(0, 0);0;0;0;0;0;0;0;0;0;0;0;();(-2000.0, -2000.0);
03:23:22:413;03:23:22:316;1448289561.95;(0, 0);0;0;0;0;0;0;0;0;0;0;0;();(-2000.0, -2000.0);
03:23:22:429;03:23:22:316;1448289561.95;(0, 0);0;0;0;0;0;0;0;0;0;0;0;();(-2000.0, -2000.0);
03:23:22:446;03:23:22:316;1448289561.95;(0, 0);0;0;0;0;0;0;0;0;0;0;0;();(-2000.0, -2000.0);
03:23:22:479;03:23:22:451;1448289562.09;(0, 0);0;0;0;0;0;0;0;0;0;0;0;();(-2000.0, -2000.0);
03:23:22:496;03:23:22:451;1448289562.09;(0, 0);0;0;0;0;0;0;0;0;0;0;0;();(-2000.0, -2000.0);
03:23:22:512;03:23:22:451;1448289562.09;(0, 0);0;0;0;0;0;0;0;0;0;0;0;();(-2000.0, -2000.0);
03:23:22:529;03:23:22:451;1448289562.09;(0, 0);0;0;0;0;0;0;0;0;0;0;0;();(-2000.0, -2000.0);
03:23:22:545;03:23:22:451;1448289562.09;(0, 0);0;0;0;0;0;0;0;0;0;0;0;();(-2000.0, -2000.0);
03:23:22:579;03:23:22:451;1448289562.09;(0, 0);0;0;0;0;0;0;0;0;0;0;0;();(-2000.0, -2000.0);
03:23:22:595;03:23:22:588;1448289562.22;(0, 0);0;0;0;0;0;0;0;0;0;0;0;();(-2000.0, -2000.0);
03:23:22:612;03:23:22:588;1448289562.22;(0, 0);0;0;0;0;0;0;0;0;0;0;0;();(-2000.0, -2000.0);
03:23:22:628;03:23:22:588;1448289562.22;(0, 0);0;0;0;0;0;0;0;0;0;0;0;();(-2000.0, -2000.0);
03:23:22:645;03:23:22:588;1448289562.22;(0, 0);0;0;0;0;0;0;0;0;0;0;0;();(-2000.0, -2000.0);
03:23:22:678;03:23:22:588;1448289562.22;(0, 0);0;0;0;0;0;0;0;0;0;0;0;();(-2000.0, -2000.0);
03:23:22:695;03:23:22:588;1448289562.22;(0, 0);0;0;0;0;0;0;0;0;0;0;0;();(-2000.0, -2000.0);
03:23:22:711;03:23:22:588;1448289562.22;(0, 0);0;0;0;0;0;0;0;0;0;0;0;();(-2000.0, -2000.0);
03:23:22:728;03:23:22:716;1448289562.35;(0, 0);0;0;0;0;0;0;0;0;0;0;0;();(-2000.0, -2000.0);
03:23:22:744;03:23:22:716;1448289562.35;(0, 0);0;0;0;0;0;0;0;0;0;0;0;();(-2000.0, -2000.0);
03:23:22:778;03:23:22:716;1448289562.35;(0, 0);0;0;0;0;0;0;0;0;0;0;0;();(-2000.0, -2000.0);
03:23:22:795;03:23:22:716;1448289562.35;(0, 0);0;0;0;0;0;0;0;0;0;0;0;();(-2000.0, -2000.0);
03:23:22:811;03:23:22:716;1448289562.35;(0, 0);0;0;0;0;0;0;0;0;0;0;0;();(-2000.0, -2000.0);
03:23:22:828;03:23:22:716;1448289562.35;(0, 0);0;0;0;0;0;0;0;0;0;0;0;();(-2000.0, -2000.0);
03:23:22:845;03:23:22:716;1448289562.35;(0, 0);0;0;0;0;0;0;0;0;0;0;0;();(-2000.0, -2000.0);
03:23:22:878;03:23:22:848;1448289562.49;(0, 0);0;0;0;0;0;0;0;0;0;0;0;();(-2000.0, -2000.0);
03:23:22:894;03:23:22:848;1448289562.49;(0, 0);0;0;0;0;0;0;0;0;0;0;0;();(-2000.0, -2000.0);
03:23:22:911;03:23:22:848;1448289562.49;(0, 0);0;0;0;0;0;0;0;0;0;0;0;();(-2000.0, -2000.0);
03:23:22:927;03:23:22:848;1448289562.49;(0, 0);0;0;0;0;0;0;0;0;0;0;0;();(-2000.0, -2000.0);
03:23:22:960;03:23:22:848;1448289562.49;(0, 0);0;0;0;0;0;0;0;0;0;0;0;();(-2000.0, -2000.0);
03:23:22:977;03:23:22:848;1448289562.49;(0, 0);0;0;0;0;0;0;0;0;0;0;0;();(-2000.0, -2000.0);
03:23:22:994;03:23:22:981;1448289562.62;(0, 0);0;0;0;0;0;0;0;0;0;0;0;();(-2000.0, -2000.0);
03:23:23:010;03:23:22:981;1448289562.62;(0, 0);0;0;0;0;0;0;0;0;0;0;0;();(-2000.0, -2000.0);
03:23:23:027;03:23:22:981;1448289562.62;(0, 0);0;0;0;0;0;0;0;0;0;0;0;();(-2000.0, -2000.0);
03:23:23:060;03:23:22:981;1448289562.62;(0, 0);0;0;0;0;0;0;0;0;0;0;0;();(-2000.0, -2000.0);
03:23:23:076;03:23:22:981;1448289562.62;(0, 0);0;0;0;0;0;0;0;0;0;0;0;();(-2000.0, -2000.0);
03:23:23:093;03:23:22:981;1448289562.62;(0, 0);0;0;0;0;0;0;0;0;0;0;0;();(-2000.0, -2000.0);
03:23:23:110;03:23:22:981;1448289562.62;(0, 0);0;0;0;0;0;0;0;0;0;0;0;();(-2000.0, -2000.0);
03:23:23:126;03:23:23:115;1448289562.75;(0, 0);0;0;0;0;0;0;0;0;0;0;0;();(-2000.0, -2000.0);
03:23:23:160;03:23:23:115;1448289562.75;(0, 0);0;0;0;0;0;0;0;0;0;0;0;();(-2000.0, -2000.0);
03:23:23:176;03:23:23:115;1448289562.75;(0, 0);0;0;0;0;0;0;0;0;0;0;0;();(-2000.0, -2000.0);
03:23:23:192;03:23:23:115;1448289562.75;(0, 0);0;0;0;0;0;0;0;0;0;0;0;();(-2000.0, -2000.0);
03:23:23:209;03:23:23:115;1448289562.75;(0, 0);0;0;0;0;0;0;0;0;0;0;0;();(-2000.0, -2000.0);
03:23:23:226;03:23:23:115;1448289562.75;(0, 0);0;0;0;0;0;0;0;0;0;0;0;();(-2000.0, -2000.0);
03:23:23:259;03:23:23:248;1448289562.89;(0, 0);0;0;0;0;0;0;0;0;0;0;0;();(-2000.0, -2000.0);
03:23:23:275;03:23:23:248;1448289562.89;(0, 0);0;0;0;0;0;0;0;0;0;0;0;();(-2000.0, -2000.0);
03:23:23:292;03:23:23:248;1448289562.89;(0, 0);0;0;0;0;0;0;0;0;0;0;0;();(-2000.0, -2000.0);
03:23:23:308;03:23:23:248;1448289562.89;(0, 0);0;0;0;0;0;0;0;0;0;0;0;();(-2000.0, -2000.0);
03:23:23:325;03:23:23:248;1448289562.89;(0, 0);0;0;0;0;0;0;0;0;0;0;0;();(-2000.0, -2000.0);
03:23:23:358;03:23:23:248;1448289562.89;(0, 0);0;0;0;0;0;0;0;0;0;0;0;();(-2000.0, -2000.0);
03:23:23:375;03:23:23:248;1448289562.89;(0, 0);0;0;0;0;0;0;0;0;0;0;0;();(-2000.0, -2000.0);
03:23:23:391;03:23:23:380;1448289563.02;(0, 0);0;0;0;0;0;0;0;0;0;0;0;();(-2000.0, -2000.0);
03:23:23:408;03:23:23:380;1448289563.02;(0, 0);0;0;0;0;0;0;0;0;0;0;0;();(-2000.0, -2000.0);
03:23:23:441;03:23:23:380;1448289563.02;(0, 0);0;0;0;0;0;0;0;0;0;0;0;();(-2000.0, -2000.0);
03:23:23:457;03:23:23:380;1448289563.02;(0, 0);0;0;0;0;0;0;0;0;0;0;0;();(-2000.0, -2000.0);
03:23:23:474;03:23:23:380;1448289563.02;(0, 0);0;0;0;0;0;0;0;0;0;0;0;();(-2000.0, -2000.0);
03:23:23:490;03:23:23:380;1448289563.02;(0, 0);0;0;0;0;0;0;0;0;0;0;0;();(-2000.0, -2000.0);
03:23:23:508;03:23:23:380;1448289563.02;(0, 0);0;0;0;0;0;0;0;0;0;0;0;();(-2000.0, -2000.0);
03:23:23:540;03:23:23:512;1448289563.15;(0, 0);0;0;0;0;0;0;0;0;0;0;0;();(-2000.0, -2000.0);
03:23:23:557;03:23:23:512;1448289563.15;(0, 0);0;0;0;0;0;0;0;0;0;0;0;();(-2000.0, -2000.0);
03:23:23:573;03:23:23:512;1448289563.15;(0, 0);0;0;0;0;0;0;0;0;0;0;0;();(-2000.0, -2000.0);
03:23:23:590;03:23:23:512;1448289563.15;(0, 0);0;0;0;0;0;0;0;0;0;0;0;();(-2000.0, -2000.0);
03:23:23:606;03:23:23:512;1448289563.15;(0, 0);0;0;0;0;0;0;0;0;0;0;0;();(-2000.0, -2000.0);
03:23:23:639;03:23:23:512;1448289563.15;(0, 0);0;0;0;0;0;0;0;0;0;0;0;();(-2000.0, -2000.0);
03:23:23:656;03:23:23:648;1448289563.29;(0, 0);0;0;0;0;0;0;0;0;0;0;0;();(-2000.0, -2000.0);
03:23:23:672;03:23:23:648;1448289563.29;(0, 0);0;0;0;0;0;0;0;0;0;0;0;();(-2000.0, -2000.0);
03:23:23:689;03:23:23:648;1448289563.29;(0, 0);0;0;0;0;0;0;0;0;0;0;0;();(-2000.0, -2000.0);
03:23:23:705;03:23:23:648;1448289563.29;(0, 0);0;0;0;0;0;0;0;0;0;0;0;();(-2000.0, -2000.0);
03:23:23:738;03:23:23:648;1448289563.29;(0, 0);0;0;0;0;0;0;0;0;0;0;0;();(-2000.0, -2000.0);
03:23:23:756;03:23:23:648;1448289563.29;(0, 0);0;0;0;0;0;0;0;0;0;0;0;();(-2000.0, -2000.0);
03:23:23:772;03:23:23:648;1448289563.29;(0, 0);0;0;0;0;0;0;0;0;0;0;0;();(-2000.0, -2000.0);
03:23:23:788;03:23:23:779;1448289563.42;(0, 0);0;0;0;0;0;0;0;0;0;0;0;();(-2000.0, -2000.0);
03:23:23:805;03:23:23:779;1448289563.42;(0, 0);0;0;0;0;0;0;0;0;0;0;0;();(-2000.0, -2000.0);
03:23:23:838;03:23:23:779;1448289563.42;(0, 0);0;0;0;0;0;0;0;0;0;0;0;();(-2000.0, -2000.0);
03:23:23:855;03:23:23:779;1448289563.42;(0, 0);0;0;0;0;0;0;0;0;0;0;0;();(-2000.0, -2000.0);
03:23:23:871;03:23:23:779;1448289563.42;(0, 0);0;0;0;0;0;0;0;0;0;0;0;();(-2000.0, -2000.0);
03:23:23:888;03:23:23:779;1448289563.42;(0, 0);0;0;0;0;0;0;0;0;0;0;0;();(-2000.0, -2000.0);
03:23:23:904;03:23:23:779;1448289563.42;(0, 0);0;0;0;0;0;0;0;0;0;0;0;();(-2000.0, -2000.0);
03:23:23:942;03:23:23:911;1448289563.55;(0, 0);0;0;0;0;0;0;0;0;0;0;0;();(-2000.0, -2000.0);
03:23:23:954;03:23:23:911;1448289563.55;(0, 0);0;0;0;0;0;0;0;0;0;0;0;();(-2000.0, -2000.0);
03:23:23:971;03:23:23:911;1448289563.55;(0, 0);0;0;0;0;0;0;0;0;0;0;0;();(-2000.0, -2000.0);
03:23:23:987;03:23:23:911;1448289563.55;(0, 0);0;0;0;0;0;0;0;0;0;0;0;();(-2000.0, -2000.0);
03:23:24:021;03:23:23:911;1448289563.55;(0, 0);0;0;0;0;0;0;0;0;0;0;0;();(-2000.0, -2000.0);
03:23:24:037;03:23:23:911;1448289563.55;(0, 0);0;0;0;0;0;0;0;0;0;0;0;();(-2000.0, -2000.0);
03:23:24:053;03:23:24:044;1448289563.69;(0, 0);0;0;0;0;0;0;0;0;0;0;0;();(-2000.0, -2000.0);
03:23:24:070;03:23:24:044;1448289563.69;(0, 0);0;0;0;0;0;0;0;0;0;0;0;();(-2000.0, -2000.0);
03:23:24:086;03:23:24:044;1448289563.69;(0, 0);0;0;0;0;0;0;0;0;0;0;0;();(-2000.0, -2000.0);
03:23:24:119;03:23:24:044;1448289563.69;(0, 0);0;0;0;0;0;0;0;0;0;0;0;();(-2000.0, -2000.0);
03:23:24:136;03:23:24:044;1448289563.69;(0, 0);0;0;0;0;0;0;0;0;0;0;0;();(-2000.0, -2000.0);
03:23:24:152;03:23:24:044;1448289563.69;(0, 0);0;0;0;0;0;0;0;0;0;0;0;();(-2000.0, -2000.0);
03:23:24:169;03:23:24:044;1448289563.69;(0, 0);0;0;0;0;0;0;0;0;0;0;0;();(-2000.0, -2000.0);
03:23:24:186;03:23:24:175;1448289563.82;(0, 0);0;0;0;0;0;0;0;0;0;0;0;();(-2000.0, -2000.0);
03:23:24:219;03:23:24:175;1448289563.82;(0, 0);0;0;0;0;0;0;0;0;0;0;0;();(-2000.0, -2000.0);
03:23:24:236;03:23:24:175;1448289563.82;(0, 0);0;0;0;0;0;0;0;0;0;0;0;();(-2000.0, -2000.0);
03:23:24:252;03:23:24:175;1448289563.82;(0, 0);0;0;0;0;0;0;0;0;0;0;0;();(-2000.0, -2000.0);
03:23:24:269;03:23:24:175;1448289563.82;(0, 0);0;0;0;0;0;0;0;0;0;0;0;();(-2000.0, -2000.0);
03:23:24:285;03:23:24:175;1448289563.82;(0, 0);0;0;0;0;0;0;0;0;0;0;0;();(-2000.0, -2000.0);
03:23:24:318;03:23:24:310;1448289563.95;(0, 0);0;0;0;0;0;0;0;0;0;0;0;();(-2000.0, -2000.0);
03:23:24:335;03:23:24:310;1448289563.95;(0, 0);0;0;0;0;0;0;0;0;0;0;0;();(-2000.0, -2000.0);
03:23:24:351;03:23:24:310;1448289563.95;(0, 0);0;0;0;0;0;0;0;0;0;0;0;();(-2000.0, -2000.0);
03:23:24:368;03:23:24:310;1448289563.95;(0, 0);0;0;0;0;0;0;0;0;0;0;0;();(-2000.0, -2000.0);
03:23:24:385;03:23:24:310;1448289563.95;(0, 0);0;0;0;0;0;0;0;0;0;0;0;();(-2000.0, -2000.0);
03:23:24:418;03:23:24:310;1448289563.95;(0, 0);0;0;0;0;0;0;0;0;0;0;0;();(-2000.0, -2000.0);
03:23:24:434;03:23:24:310;1448289563.95;(0, 0);0;0;0;0;0;0;0;0;0;0;0;();(-2000.0, -2000.0);
03:23:24:451;03:23:24:439;1448289564.09;(0, 0);0;0;0;0;0;0;0;0;0;0;0;();(-2000.0, -2000.0);
03:23:24:467;03:23:24:439;1448289564.09;(0, 0);0;0;0;0;0;0;0;0;0;0;0;();(-2000.0, -2000.0);
03:23:24:484;03:23:24:439;1448289564.09;(0, 0);0;0;0;0;0;0;0;0;0;0;0;();(-2000.0, -2000.0);
03:23:24:517;03:23:24:439;1448289564.09;(0, 0);0;0;0;0;0;0;0;0;0;0;0;();(-2000.0, -2000.0);
03:23:24:534;03:23:24:439;1448289564.09;(0, 0);0;0;0;0;0;0;0;0;0;0;0;();(-2000.0, -2000.0);
03:23:24:550;03:23:24:439;1448289564.09;(0, 0);0;0;0;0;0;0;0;0;0;0;0;();(-2000.0, -2000.0);
03:23:24:567;03:23:24:439;1448289564.09;(0, 0);0;0;0;0;0;0;0;0;0;0;0;();(-2000.0, -2000.0);
03:23:24:600;03:23:24:575;1448289564.22;(0, 0);0;0;0;0;0;0;0;0;0;0;0;();(-2000.0, -2000.0);
03:23:24:616;03:23:24:575;1448289564.22;(0, 0);0;0;0;0;0;0;0;0;0;0;0;();(-2000.0, -2000.0);
03:23:24:633;03:23:24:575;1448289564.22;(0, 0);0;0;0;0;0;0;0;0;0;0;0;();(-2000.0, -2000.0);
03:23:24:650;03:23:24:575;1448289564.22;(0, 0);0;0;0;0;0;0;0;0;0;0;0;();(-2000.0, -2000.0);
03:23:24:666;03:23:24:575;1448289564.22;(0, 0);0;0;0;0;0;0;0;0;0;0;0;();(-2000.0, -2000.0);
03:23:24:699;03:23:24:575;1448289564.22;(0, 0);0;0;0;0;0;0;0;0;0;0;0;();(-2000.0, -2000.0);
03:23:24:716;03:23:24:707;1448289564.35;(0, 0);0;0;0;0;0;0;0;0;0;0;0;();(-2000.0, -2000.0);
03:23:24:733;03:23:24:707;1448289564.35;(0, 0);0;0;0;0;0;0;0;0;0;0;0;();(-2000.0, -2000.0);
03:23:24:749;03:23:24:707;1448289564.35;(0, 0);0;0;0;0;0;0;0;0;0;0;0;();(-2000.0, -2000.0);
03:23:24:766;03:23:24:707;1448289564.35;(0, 0);0;0;0;0;0;0;0;0;0;0;0;();(-2000.0, -2000.0);
03:23:24:798;03:23:24:707;1448289564.35;(0, 0);0;0;0;0;0;0;0;0;0;0;0;();(-2000.0, -2000.0);
03:23:24:815;03:23:24:707;1448289564.35;(0, 0);0;0;0;0;0;0;0;0;0;0;0;();(-2000.0, -2000.0);
03:23:24:832;03:23:24:707;1448289564.35;(0, 0);0;0;0;0;0;0;0;0;0;0;0;();(-2000.0, -2000.0);
03:23:24:848;03:23:24:839;1448289564.49;(0, 0);0;0;0;0;0;0;0;0;0;0;0;();(-2000.0, -2000.0);
03:23:24:865;03:23:24:839;1448289564.49;(0, 0);0;0;0;0;0;0;0;0;0;0;0;();(-2000.0, -2000.0);
03:23:24:898;03:23:24:839;1448289564.49;(0, 0);0;0;0;0;0;0;0;0;0;0;0;();(-2000.0, -2000.0);
03:23:24:915;03:23:24:839;1448289564.49;(0, 0);0;0;0;0;0;0;0;0;0;0;0;();(-2000.0, -2000.0);
03:23:24:931;03:23:24:839;1448289564.49;(0, 0);0;0;0;0;0;0;0;0;0;0;0;();(-2000.0, -2000.0);
03:23:24:948;03:23:24:839;1448289564.49;(0, 0);0;0;0;0;0;0;0;0;0;0;0;();(-2000.0, -2000.0);
03:23:24:964;03:23:24:839;1448289564.49;(0, 0);0;0;0;0;0;0;0;0;0;0;0;();(-2000.0, -2000.0);
03:23:24:999;03:23:24:971;1448289564.62;(0, 0);0;0;0;0;0;0;0;0;0;0;0;();(-2000.0, -2000.0);
03:23:25:014;03:23:24:971;1448289564.62;(0, 0);0;0;0;0;0;0;0;0;0;0;0;();(-2000.0, -2000.0);
03:23:25:030;03:23:24:971;1448289564.62;(0, 0);0;0;0;0;0;0;0;0;0;0;0;();(-2000.0, -2000.0);
03:23:25:047;03:23:24:971;1448289564.62;(0, 0);0;0;0;0;0;0;0;0;0;0;0;();(-2000.0, -2000.0);
03:23:25:064;03:23:24:971;1448289564.62;(0, 0);0;0;0;0;0;0;0;0;0;0;0;();(-2000.0, -2000.0);
03:23:25:097;03:23:24:971;1448289564.62;(0, 0);0;0;0;0;0;0;0;0;0;0;0;();(-2000.0, -2000.0);
03:23:25:113;03:23:25:103;1448289564.75;(0, 0);0;0;0;0;0;0;0;0;0;0;0;();(-2000.0, -2000.0);
03:23:25:130;03:23:25:103;1448289564.75;(0, 0);0;0;0;0;0;0;0;0;0;0;0;();(-2000.0, -2000.0);
03:23:25:146;03:23:25:103;1448289564.75;(0, 0);0;0;0;0;0;0;0;0;0;0;0;();(-2000.0, -2000.0);
03:23:25:179;03:23:25:103;1448289564.75;(0, 0);0;0;0;0;0;0;0;0;0;0;0;();(-2000.0, -2000.0);
03:23:25:196;03:23:25:103;1448289564.75;(0, 0);0;0;0;0;0;0;0;0;0;0;0;();(-2000.0, -2000.0);
03:23:25:213;03:23:25:103;1448289564.75;(0, 0);0;0;0;0;0;0;0;0;0;0;0;();(-2000.0, -2000.0);
03:23:25:229;03:23:25:103;1448289564.75;(0, 0);0;0;0;0;0;0;0;0;0;0;0;();(-2000.0, -2000.0);
03:23:25:247;03:23:25:239;1448289564.89;(0, 0);0;0;0;0;0;0;0;0;0;0;0;();(-2000.0, -2000.0);
03:23:25:279;03:23:25:239;1448289564.89;(0, 0);0;0;0;0;0;0;0;0;0;0;0;();(-2000.0, -2000.0);
03:23:25:295;03:23:25:239;1448289564.89;(0, 0);0;0;0;0;0;0;0;0;0;0;0;();(-2000.0, -2000.0);
03:23:25:312;03:23:25:239;1448289564.89;(0, 0);0;0;0;0;0;0;0;0;0;0;0;();(-2000.0, -2000.0);
03:23:25:329;03:23:25:239;1448289564.89;(0, 0);0;0;0;0;0;0;0;0;0;0;0;();(-2000.0, -2000.0);
03:23:25:346;03:23:25:239;1448289564.89;(0, 0);0;0;0;0;0;0;0;0;0;0;0;();(-2000.0, -2000.0);
03:23:25:379;03:23:25:239;1448289564.89;(0, 0);0;0;0;0;0;0;0;0;0;0;0;();(-2000.0, -2000.0);
03:23:25:395;03:23:25:376;1448289565.02;(0, 0);0;0;0;0;0;0;0;0;0;0;0;();(-2000.0, -2000.0);
03:23:25:412;03:23:25:376;1448289565.02;(0, 0);0;0;0;0;0;0;0;0;0;0;0;();(-2000.0, -2000.0);
03:23:25:428;03:23:25:376;1448289565.02;(0, 0);0;0;0;0;0;0;0;0;0;0;0;();(-2000.0, -2000.0);
03:23:25:445;03:23:25:376;1448289565.02;(0, 0);0;0;0;0;0;0;0;0;0;0;0;();(-2000.0, -2000.0);
03:23:25:478;03:23:25:376;1448289565.02;(0, 0);0;0;0;0;0;0;0;0;0;0;0;();(-2000.0, -2000.0);
03:23:25:494;03:23:25:376;1448289565.02;(0, 0);0;0;0;0;0;0;0;0;0;0;0;();(-2000.0, -2000.0);
03:23:25:511;03:23:25:503;1448289565.15;(0, 0);0;0;0;0;0;0;0;0;0;0;0;();(-2000.0, -2000.0);
03:23:25:527;03:23:25:503;1448289565.15;(0, 0);0;0;0;0;0;0;0;0;0;0;0;();(-2000.0, -2000.0);
03:23:25:545;03:23:25:503;1448289565.15;(0, 0);0;0;0;0;0;0;0;0;0;0;0;();(-2000.0, -2000.0);
03:23:25:578;03:23:25:503;1448289565.15;(0, 0);0;0;0;0;0;0;0;0;0;0;0;();(-2000.0, -2000.0);
03:23:25:594;03:23:25:503;1448289565.15;(0, 0);0;0;0;0;0;0;0;0;0;0;0;();(-2000.0, -2000.0);
03:23:25:611;03:23:25:503;1448289565.15;(0, 0);0;0;0;0;0;0;0;0;0;0;0;();(-2000.0, -2000.0);
03:23:25:627;03:23:25:503;1448289565.15;(0, 0);0;0;0;0;0;0;0;0;0;0;0;();(-2000.0, -2000.0);
03:23:25:644;03:23:25:635;1448289565.29;(0, 0);0;0;0;0;0;0;0;0;0;0;0;();(-2000.0, -2000.0);
03:23:25:677;03:23:25:635;1448289565.29;(0, 0);0;0;0;0;0;0;0;0;0;0;0;();(-2000.0, -2000.0);
03:23:25:694;03:23:25:635;1448289565.29;(0, 0);0;0;0;0;0;0;0;0;0;0;0;();(-2000.0, -2000.0);
03:23:25:710;03:23:25:635;1448289565.29;(0, 0);0;0;0;0;0;0;0;0;0;0;0;();(-2000.0, -2000.0);
03:23:25:727;03:23:25:635;1448289565.29;(0, 0);0;0;0;0;0;0;0;0;0;0;0;();(-2000.0, -2000.0);
03:23:25:760;03:23:25:635;1448289565.29;(0, 0);0;0;0;0;0;0;0;0;0;0;0;();(-2000.0, -2000.0);
03:23:25:777;03:23:25:768;1448289565.42;(0, 0);0;0;0;0;0;0;0;0;0;0;0;();(-2000.0, -2000.0);
03:23:25:793;03:23:25:768;1448289565.42;(0, 0);0;0;0;0;0;0;0;0;0;0;0;();(-2000.0, -2000.0);
03:23:25:809;03:23:25:768;1448289565.42;(0, 0);0;0;0;0;0;0;0;0;0;0;0;();(-2000.0, -2000.0);
03:23:25:826;03:23:25:768;1448289565.42;(0, 0);0;0;0;0;0;0;0;0;0;0;0;();(-2000.0, -2000.0);
03:23:25:859;03:23:25:768;1448289565.42;(0, 0);0;0;0;0;0;0;0;0;0;0;0;();(-2000.0, -2000.0);
03:23:25:876;03:23:25:768;1448289565.42;(0, 0);0;0;0;0;0;0;0;0;0;0;0;();(-2000.0, -2000.0);
03:23:25:892;03:23:25:768;1448289565.42;(0, 0);0;0;0;0;0;0;0;0;0;0;0;();(-2000.0, -2000.0);
03:23:25:909;03:23:25:903;1448289565.55;(0, 0);0;0;0;0;0;0;0;0;0;0;0;();(-2000.0, -2000.0);
03:23:25:925;03:23:25:903;1448289565.55;(0, 0);0;0;0;0;0;0;0;0;0;0;0;();(-2000.0, -2000.0);
03:23:25:959;03:23:25:903;1448289565.55;(0, 0);0;0;0;0;0;0;0;0;0;0;0;();(-2000.0, -2000.0);
03:23:25:975;03:23:25:903;1448289565.55;(0, 0);0;0;0;0;0;0;0;0;0;0;0;();(-2000.0, -2000.0);
03:23:25:992;03:23:25:903;1448289565.55;(0, 0);0;0;0;0;0;0;0;0;0;0;0;();(-2000.0, -2000.0);
03:23:26:009;03:23:25:903;1448289565.55;(0, 0);0;0;0;0;0;0;0;0;0;0;0;();(-2000.0, -2000.0);
03:23:26:025;03:23:25:903;1448289565.55;(0, 0);0;0;0;0;0;0;0;0;0;0;0;();(-2000.0, -2000.0);
03:23:26:058;03:23:26:035;1448289565.69;(0, 0);0;0;0;0;0;0;0;0;0;0;0;();(-2000.0, -2000.0);
03:23:26:075;03:23:26:035;1448289565.69;(0, 0);0;0;0;0;0;0;0;0;0;0;0;();(-2000.0, -2000.0);
03:23:26:092;03:23:26:035;1448289565.69;(0, 0);0;0;0;0;0;0;0;0;0;0;0;();(-2000.0, -2000.0);
03:23:26:108;03:23:26:035;1448289565.69;(0, 0);0;0;0;0;0;0;0;0;0;0;0;();(-2000.0, -2000.0);
03:23:26:125;03:23:26:035;1448289565.69;(0, 0);0;0;0;0;0;0;0;0;0;0;0;();(-2000.0, -2000.0);
03:23:26:158;03:23:26:035;1448289565.69;(0, 0);0;0;0;0;0;0;0;0;0;0;0;();(-2000.0, -2000.0);
03:23:26:174;03:23:26:167;1448289565.82;(0, 0);0;0;0;0;0;0;0;0;0;0;0;();(-2000.0, -2000.0);
03:23:26:191;03:23:26:167;1448289565.82;(0, 0);0;0;0;0;0;0;0;0;0;0;0;();(-2000.0, -2000.0);
03:23:26:208;03:23:26:167;1448289565.82;(0, 0);0;0;0;0;0;0;0;0;0;0;0;();(-2000.0, -2000.0);
03:23:26:241;03:23:26:167;1448289565.82;(0, 0);0;0;0;0;0;0;0;0;0;0;0;();(-2000.0, -2000.0);
03:23:26:257;03:23:26:167;1448289565.82;(0, 0);0;0;0;0;0;0;0;0;0;0;0;();(-2000.0, -2000.0);
03:23:26:274;03:23:26:167;1448289565.82;(0, 0);0;0;0;0;0;0;0;0;0;0;0;();(-2000.0, -2000.0);
03:23:26:290;03:23:26:167;1448289565.82;(0, 0);0;0;0;0;0;0;0;0;0;0;0;();(-2000.0, -2000.0);
03:23:26:307;03:23:26:299;1448289565.95;(0, 0);0;0;0;0;0;0;0;0;0;0;0;();(-2000.0, -2000.0);
03:23:26:340;03:23:26:299;1448289565.95;(0, 0);0;0;0;0;0;0;0;0;0;0;0;();(-2000.0, -2000.0);
03:23:26:357;03:23:26:299;1448289565.95;(0, 0);0;0;0;0;0;0;0;0;0;0;0;();(-2000.0, -2000.0);
03:23:26:373;03:23:26:299;1448289565.95;(0, 0);0;0;0;0;0;0;0;0;0;0;0;();(-2000.0, -2000.0);
03:23:26:390;03:23:26:299;1448289565.95;(0, 0);0;0;0;0;0;0;0;0;0;0;0;();(-2000.0, -2000.0);
03:23:26:406;03:23:26:299;1448289565.95;(0, 0);0;0;0;0;0;0;0;0;0;0;0;();(-2000.0, -2000.0);
03:23:26:439;03:23:26:431;1448289566.09;(0, 0);0;0;0;0;0;0;0;0;0;0;0;();(-2000.0, -2000.0);
03:23:26:456;03:23:26:431;1448289566.09;(0, 0);0;0;0;0;0;0;0;0;0;0;0;();(-2000.0, -2000.0);
03:23:26:472;03:23:26:431;1448289566.09;(0, 0);0;0;0;0;0;0;0;0;0;0;0;();(-2000.0, -2000.0);
03:23:26:489;03:23:26:431;1448289566.09;(0, 0);0;0;0;0;0;0;0;0;0;0;0;();(-2000.0, -2000.0);
03:23:26:506;03:23:26:431;1448289566.09;(0, 0);0;0;0;0;0;0;0;0;0;0;0;();(-2000.0, -2000.0);
03:23:26:539;03:23:26:431;1448289566.09;(0, 0);0;0;0;0;0;0;0;0;0;0;0;();(-2000.0, -2000.0);
03:23:26:555;03:23:26:431;1448289566.09;(0, 0);0;0;0;0;0;0;0;0;0;0;0;();(-2000.0, -2000.0);
03:23:26:572;03:23:26:567;1448289566.22;(0, 0);0;0;0;0;0;0;0;0;0;0;0;();(-2000.0, -2000.0);
03:23:26:588;03:23:26:567;1448289566.22;(0, 0);0;0;0;0;0;0;0;0;0;0;0;();(-2000.0, -2000.0);
03:23:26:605;03:23:26:567;1448289566.22;(0, 0);0;0;0;0;0;0;0;0;0;0;0;();(-2000.0, -2000.0);
03:23:26:638;03:23:26:567;1448289566.22;(0, 0);0;0;0;0;0;0;0;0;0;0;0;();(-2000.0, -2000.0);
03:23:26:655;03:23:26:567;1448289566.22;(0, 0);0;0;0;0;0;0;0;0;0;0;0;();(-2000.0, -2000.0);
03:23:26:671;03:23:26:567;1448289566.22;(0, 0);0;0;0;0;0;0;0;0;0;0;0;();(-2000.0, -2000.0);
03:23:26:688;03:23:26:567;1448289566.22;(0, 0);0;0;0;0;0;0;0;0;0;0;0;();(-2000.0, -2000.0);
03:23:26:705;03:23:26:567;1448289566.22;(0, 0);0;0;0;0;0;0;0;0;0;0;0;();(-2000.0, -2000.0);
03:23:26:738;03:23:26:702;1448289566.35;(0, 0);0;0;0;0;0;0;0;0;0;0;0;();(-2000.0, -2000.0);
03:23:26:754;03:23:26:702;1448289566.35;(0, 0);0;0;0;0;0;0;0;0;0;0;0;();(-2000.0, -2000.0);
03:23:26:771;03:23:26:702;1448289566.35;(0, 0);0;0;0;0;0;0;0;0;0;0;0;();(-2000.0, -2000.0);
03:23:26:787;03:23:26:702;1448289566.35;(0, 0);0;0;0;0;0;0;0;0;0;0;0;();(-2000.0, -2000.0);
03:23:26:820;03:23:26:702;1448289566.35;(0, 0);0;0;0;0;0;0;0;0;0;0;0;();(-2000.0, -2000.0);
03:23:26:837;03:23:26:832;1448289566.49;(0, 0);0;0;0;0;0;0;0;0;0;0;0;();(-2000.0, -2000.0);
03:23:26:854;03:23:26:832;1448289566.49;(0, 0);0;0;0;0;0;0;0;0;0;0;0;();(-2000.0, -2000.0);
03:23:26:870;03:23:26:832;1448289566.49;(0, 0);0;0;0;0;0;0;0;0;0;0;0;();(-2000.0, -2000.0);
03:23:26:887;03:23:26:832;1448289566.49;(0, 0);0;0;0;0;0;0;0;0;0;0;0;();(-2000.0, -2000.0);
03:23:26:920;03:23:26:832;1448289566.49;(0, 0);0;0;0;0;0;0;0;0;0;0;0;();(-2000.0, -2000.0);
03:23:26:937;03:23:26:832;1448289566.49;(0, 0);0;0;0;0;0;0;0;0;0;0;0;();(-2000.0, -2000.0);
03:23:26:953;03:23:26:832;1448289566.49;(0, 0);0;0;0;0;0;0;0;0;0;0;0;();(-2000.0, -2000.0);
03:23:26:969;03:23:26:964;1448289566.62;(0, 0);0;0;0;0;0;0;0;0;0;0;0;();(-2000.0, -2000.0);
03:23:26:986;03:23:26:964;1448289566.62;(0, 0);0;0;0;0;0;0;0;0;0;0;0;();(-2000.0, -2000.0);
03:23:27:019;03:23:26:964;1448289566.62;(0, 0);0;0;0;0;0;0;0;0;0;0;0;();(-2000.0, -2000.0);
03:23:27:036;03:23:26:964;1448289566.62;(0, 0);0;0;0;0;0;0;0;0;0;0;0;();(-2000.0, -2000.0);
03:23:27:052;03:23:26:964;1448289566.62;(0, 0);0;0;0;0;0;0;0;0;0;0;0;();(-2000.0, -2000.0);
03:23:27:069;03:23:26:964;1448289566.62;(0, 0);0;0;0;0;0;0;0;0;0;0;0;();(-2000.0, -2000.0);
03:23:27:086;03:23:26:964;1448289566.62;(0, 0);0;0;0;0;0;0;0;0;0;0;0;();(-2000.0, -2000.0);
03:23:27:119;03:23:27:095;1448289566.75;(0, 0);0;0;0;0;0;0;0;0;0;0;0;();(-2000.0, -2000.0);
03:23:27:135;03:23:27:095;1448289566.75;(0, 0);0;0;0;0;0;0;0;0;0;0;0;();(-2000.0, -2000.0);
03:23:27:151;03:23:27:095;1448289566.75;(0, 0);0;0;0;0;0;0;0;0;0;0;0;();(-2000.0, -2000.0);
03:23:27:167;03:23:27:095;1448289566.75;(0, 0);0;0;0;0;0;0;0;0;0;0;0;();(-2000.0, -2000.0);
03:23:27:185;03:23:27:095;1448289566.75;(0, 0);0;0;0;0;0;0;0;0;0;0;0;();(-2000.0, -2000.0);
03:23:27:217;03:23:27:095;1448289566.75;(0, 0);0;0;0;0;0;0;0;0;0;0;0;();(-2000.0, -2000.0);
03:23:27:234;03:23:27:227;1448289566.89;(0, 0);0;0;0;0;0;0;0;0;0;0;0;();(-2000.0, -2000.0);
03:23:27:251;03:23:27:227;1448289566.89;(0, 0);0;0;0;0;0;0;0;0;0;0;0;();(-2000.0, -2000.0);
03:23:27:267;03:23:27:227;1448289566.89;(0, 0);0;0;0;0;0;0;0;0;0;0;0;();(-2000.0, -2000.0);
03:23:27:285;03:23:27:227;1448289566.89;(0, 0);0;0;0;0;0;0;0;0;0;0;0;();(-2000.0, -2000.0);
03:23:27:318;03:23:27:227;1448289566.89;(0, 0);0;0;0;0;0;0;0;0;0;0;0;();(-2000.0, -2000.0);
03:23:27:334;03:23:27:227;1448289566.89;(0, 0);0;0;0;0;0;0;0;0;0;0;0;();(-2000.0, -2000.0);
03:23:27:350;03:23:27:227;1448289566.89;(0, 0);0;0;0;0;0;0;0;0;0;0;0;();(-2000.0, -2000.0);
03:23:27:367;03:23:27:227;1448289566.89;(0, 0);0;0;0;0;0;0;0;0;0;0;0;();(-2000.0, -2000.0);
03:23:27:384;03:23:27:364;1448289567.02;(0, 0);0;0;0;0;0;0;0;0;0;0;0;();(-2000.0, -2000.0);
03:23:27:417;03:23:27:364;1448289567.02;(0, 0);0;0;0;0;0;0;0;0;0;0;0;();(-2000.0, -2000.0);
03:23:27:433;03:23:27:364;1448289567.02;(0, 0);0;0;0;0;0;0;0;0;0;0;0;();(-2000.0, -2000.0);
03:23:27:450;03:23:27:364;1448289567.02;(0, 0);0;0;0;0;0;0;0;0;0;0;0;();(-2000.0, -2000.0);
03:23:27:466;03:23:27:364;1448289567.02;(0, 0);0;0;0;0;0;0;0;0;0;0;0;();(-2000.0, -2000.0);
03:23:27:500;03:23:27:495;1448289567.15;(0, 0);0;0;0;0;0;0;0;0;0;0;0;();(-2000.0, -2000.0);
03:23:27:516;03:23:27:495;1448289567.15;(0, 0);0;0;0;0;0;0;0;0;0;0;0;();(-2000.0, -2000.0);
03:23:27:532;03:23:27:495;1448289567.15;(0, 0);0;0;0;0;0;0;0;0;0;0;0;();(-2000.0, -2000.0);
03:23:27:549;03:23:27:495;1448289567.15;(0, 0);0;0;0;0;0;0;0;0;0;0;0;();(-2000.0, -2000.0);
03:23:27:566;03:23:27:495;1448289567.15;(0, 0);0;0;0;0;0;0;0;0;0;0;0;();(-2000.0, -2000.0);
03:23:27:599;03:23:27:495;1448289567.15;(0, 0);0;0;0;0;0;0;0;0;0;0;0;();(-2000.0, -2000.0);
03:23:27:615;03:23:27:495;1448289567.15;(0, 0);0;0;0;0;0;0;0;0;0;0;0;();(-2000.0, -2000.0);
03:23:27:632;03:23:27:627;1448289567.29;(0, 0);0;0;0;0;0;0;0;0;0;0;0;();(-2000.0, -2000.0);
03:23:27:649;03:23:27:627;1448289567.29;(0, 0);0;0;0;0;0;0;0;0;0;0;0;();(-2000.0, -2000.0);
03:23:27:665;03:23:27:627;1448289567.29;(0, 0);0;0;0;0;0;0;0;0;0;0;0;();(-2000.0, -2000.0);
03:23:27:698;03:23:27:627;1448289567.29;(0, 0);0;0;0;0;0;0;0;0;0;0;0;();(-2000.0, -2000.0);
03:23:27:715;03:23:27:627;1448289567.29;(0, 0);0;0;0;0;0;0;0;0;0;0;0;();(-2000.0, -2000.0);
03:23:27:731;03:23:27:627;1448289567.29;(0, 0);0;0;0;0;0;0;0;0;0;0;0;();(-2000.0, -2000.0);
03:23:27:748;03:23:27:627;1448289567.29;(0, 0);0;0;0;0;0;0;0;0;0;0;0;();(-2000.0, -2000.0);
03:23:27:764;03:23:27:759;1448289567.42;(0, 0);0;0;0;0;0;0;0;0;0;0;0;();(-2000.0, -2000.0);
03:23:27:798;03:23:27:759;1448289567.42;(0, 0);0;0;0;0;0;0;0;0;0;0;0;();(-2000.0, -2000.0);
03:23:27:815;03:23:27:759;1448289567.42;(0, 0);0;0;0;0;0;0;0;0;0;0;0;();(-2000.0, -2000.0);
03:23:27:831;03:23:27:759;1448289567.42;(0, 0);0;0;0;0;0;0;0;0;0;0;0;();(-2000.0, -2000.0);
03:23:27:847;03:23:27:759;1448289567.42;(0, 0);0;0;0;0;0;0;0;0;0;0;0;();(-2000.0, -2000.0);
03:23:27:864;03:23:27:759;1448289567.42;(0, 0);0;0;0;0;0;0;0;0;0;0;0;();(-2000.0, -2000.0);
03:23:27:897;03:23:27:891;1448289567.55;(0, 0);0;0;0;0;0;0;0;0;0;0;0;();(-2000.0, -2000.0);
03:23:27:913;03:23:27:891;1448289567.55;(0, 0);0;0;0;0;0;0;0;0;0;0;0;();(-2000.0, -2000.0);
03:23:27:930;03:23:27:891;1448289567.55;(0, 0);0;0;0;0;0;0;0;0;0;0;0;();(-2000.0, -2000.0);
03:23:27:947;03:23:27:891;1448289567.55;(0, 0);0;0;0;0;0;0;0;0;0;0;0;();(-2000.0, -2000.0);
03:23:27:980;03:23:27:891;1448289567.55;(0, 0);0;0;0;0;0;0;0;0;0;0;0;();(-2000.0, -2000.0);
03:23:27:996;03:23:27:891;1448289567.55;(0, 0);0;0;0;0;0;0;0;0;0;0;0;();(-2000.0, -2000.0);
03:23:28:013;03:23:27:891;1448289567.55;(0, 0);0;0;0;0;0;0;0;0;0;0;0;();(-2000.0, -2000.0);
03:23:28:029;03:23:27:891;1448289567.55;(0, 0);0;0;0;0;0;0;0;0;0;0;0;();(-2000.0, -2000.0);
03:23:28:046;03:23:27:891;1448289567.55;(0, 0);0;0;0;0;0;0;0;0;0;0;0;();(-2000.0, -2000.0);
03:23:28:079;03:23:27:891;1448289567.55;(0, 0);0;0;0;0;0;0;0;0;0;0;0;();(-2000.0, -2000.0);
03:23:28:096;03:23:27:891;1448289567.55;(0, 0);0;0;0;0;0;0;0;0;0;0;0;();(-2000.0, -2000.0);
03:23:28:112;03:23:27:891;1448289567.55;(0, 0);0;0;0;0;0;0;0;0;0;0;0;();(-2000.0, -2000.0);
03:23:28:129;03:23:27:891;1448289567.55;(0, 0);0;0;0;0;0;0;0;0;0;0;0;();(-2000.0, -2000.0);
03:23:28:146;03:23:27:891;1448289567.55;(0, 0);0;0;0;0;0;0;0;0;0;0;0;();(-2000.0, -2000.0);
03:23:28:179;03:23:28:160;1448289567.82;(0, 0);0;0;0;0;0;0;0;0;0;0;0;();(-2000.0, -2000.0);
03:23:28:195;03:23:28:160;1448289567.82;(0, 0);0;0;0;0;0;0;0;0;0;0;0;();(-2000.0, -2000.0);
03:23:28:212;03:23:28:160;1448289567.82;(0, 0);0;0;0;0;0;0;0;0;0;0;0;();(-2000.0, -2000.0);
03:23:28:229;03:23:28:160;1448289567.82;(0, 0);0;0;0;0;0;0;0;0;0;0;0;();(-2000.0, -2000.0);
03:23:28:245;03:23:28:160;1448289567.82;(0, 0);0;0;0;0;0;0;0;0;0;0;0;();(-2000.0, -2000.0);
03:23:28:279;03:23:28:160;1448289567.82;(0, 0);0;0;0;0;0;0;0;0;0;0;0;();(-2000.0, -2000.0);
03:23:28:296;03:23:28:160;1448289567.82;(0, 0);0;0;0;0;0;0;0;0;0;0;0;();(-2000.0, -2000.0);
03:23:28:312;03:23:28:293;1448289567.95;(0, 0);0;0;0;0;0;0;0;0;0;0;0;();(-2000.0, -2000.0);
03:23:28:329;03:23:28:293;1448289567.95;(0, 0);0;0;0;0;0;0;0;0;0;0;0;();(-2000.0, -2000.0);
03:23:28:345;03:23:28:293;1448289567.95;(0, 0);0;0;0;0;0;0;0;0;0;0;0;();(-2000.0, -2000.0);
03:23:28:379;03:23:28:293;1448289567.95;(0, 0);0;0;0;0;0;0;0;0;0;0;0;();(-2000.0, -2000.0);
03:23:28:395;03:23:28:293;1448289567.95;(0, 0);0;0;0;0;0;0;0;0;0;0;0;();(-2000.0, -2000.0);
03:23:28:412;03:23:28:293;1448289567.95;(0, 0);0;0;0;0;0;0;0;0;0;0;0;();(-2000.0, -2000.0);
03:23:28:429;03:23:28:425;1448289568.09;(0, 0);0;0;0;0;0;0;0;0;0;0;0;();(-2000.0, -2000.0);
03:23:28:445;03:23:28:425;1448289568.09;(0, 0);0;0;0;0;0;0;0;0;0;0;0;();(-2000.0, -2000.0);
03:23:28:478;03:23:28:425;1448289568.09;(0, 0);0;0;0;0;0;0;0;0;0;0;0;();(-2000.0, -2000.0);
03:23:28:494;03:23:28:425;1448289568.09;(0, 0);0;0;0;0;0;0;0;0;0;0;0;();(-2000.0, -2000.0);
03:23:28:510;03:23:28:425;1448289568.09;(0, 0);0;0;0;0;0;0;0;0;0;0;0;();(-2000.0, -2000.0);
03:23:28:527;03:23:28:425;1448289568.09;(0, 0);0;0;0;0;0;0;0;0;0;0;0;();(-2000.0, -2000.0);
03:23:28:560;03:23:28:556;1448289568.22;(0, 0);0;0;0;0;0;0;0;0;0;0;0;();(-2000.0, -2000.0);
03:23:28:577;03:23:28:556;1448289568.22;(0, 0);0;0;0;0;0;0;0;0;0;0;0;();(-2000.0, -2000.0);
03:23:28:593;03:23:28:556;1448289568.22;(0, 0);0;0;0;0;0;0;0;0;0;0;0;();(-2000.0, -2000.0);
03:23:28:610;03:23:28:556;1448289568.22;(0, 0);0;0;0;0;0;0;0;0;0;0;0;();(-2000.0, -2000.0);
03:23:28:626;03:23:28:556;1448289568.22;(0, 0);0;0;0;0;0;0;0;0;0;0;0;();(-2000.0, -2000.0);
03:23:28:659;03:23:28:556;1448289568.22;(0, 0);0;0;0;0;0;0;0;0;0;0;0;();(-2000.0, -2000.0);
03:23:28:676;03:23:28:556;1448289568.22;(0, 0);0;0;0;0;0;0;0;0;0;0;0;();(-2000.0, -2000.0);
03:23:28:692;03:23:28:556;1448289568.22;(0, 0);0;0;0;0;0;0;0;0;0;0;0;();(-2000.0, -2000.0);
03:23:28:709;03:23:28:693;1448289568.35;(0, 0);0;0;0;0;0;0;0;0;0;0;0;();(-2000.0, -2000.0);
03:23:28:725;03:23:28:693;1448289568.35;(0, 0);0;0;0;0;0;0;0;0;0;0;0;();(-2000.0, -2000.0);
03:23:28:759;03:23:28:693;1448289568.35;(0, 0);0;0;0;0;0;0;0;0;0;0;0;();(-2000.0, -2000.0);
03:23:28:775;03:23:28:693;1448289568.35;(0, 0);0;0;0;0;0;0;0;0;0;0;0;();(-2000.0, -2000.0);
03:23:28:792;03:23:28:693;1448289568.35;(0, 0);0;0;0;0;0;0;0;0;0;0;0;();(-2000.0, -2000.0);
03:23:28:808;03:23:28:693;1448289568.35;(0, 0);0;0;0;0;0;0;0;0;0;0;0;();(-2000.0, -2000.0);
03:23:28:825;03:23:28:693;1448289568.35;(0, 0);0;0;0;0;0;0;0;0;0;0;0;();(-2000.0, -2000.0);
03:23:28:858;03:23:28:825;1448289568.49;(0, 0);0;0;0;0;0;0;0;0;0;0;0;();(-2000.0, -2000.0);
03:23:28:874;03:23:28:825;1448289568.49;(0, 0);0;0;0;0;0;0;0;0;0;0;0;();(-2000.0, -2000.0);
03:23:28:891;03:23:28:825;1448289568.49;(0, 0);0;0;0;0;0;0;0;0;0;0;0;();(-2000.0, -2000.0);
03:23:28:908;03:23:28:825;1448289568.49;(0, 0);0;0;0;0;0;0;0;0;0;0;0;();(-2000.0, -2000.0);
03:23:28:924;03:23:28:825;1448289568.49;(0, 0);0;0;0;0;0;0;0;0;0;0;0;();(-2000.0, -2000.0);
03:23:28:957;03:23:28:825;1448289568.49;(0, 0);0;0;0;0;0;0;0;0;0;0;0;();(-2000.0, -2000.0);
03:23:28:974;03:23:28:965;1448289568.62;(0, 0);0;0;0;0;0;0;0;0;0;0;0;();(-2000.0, -2000.0);
03:23:28:990;03:23:28:965;1448289568.62;(0, 0);0;0;0;0;0;0;0;0;0;0;0;();(-2000.0, -2000.0);
03:23:29:007;03:23:28:965;1448289568.62;(0, 0);0;0;0;0;0;0;0;0;0;0;0;();(-2000.0, -2000.0);
03:23:29:024;03:23:28:965;1448289568.62;(0, 0);0;0;0;0;0;0;0;0;0;0;0;();(-2000.0, -2000.0);
03:23:29:057;03:23:28:965;1448289568.62;(0, 0);0;0;0;0;0;0;0;0;0;0;0;();(-2000.0, -2000.0);
03:23:29:073;03:23:28:965;1448289568.62;(0, 0);0;0;0;0;0;0;0;0;0;0;0;();(-2000.0, -2000.0);
03:23:29:091;03:23:28:965;1448289568.62;(0, 0);0;0;0;0;0;0;0;0;0;0;0;();(-2000.0, -2000.0);
03:23:29:107;03:23:29:088;1448289568.75;(0, 0);0;0;0;0;0;0;0;0;0;0;0;();(-2000.0, -2000.0);
03:23:29:139;03:23:29:088;1448289568.75;(0, 0);0;0;0;0;0;0;0;0;0;0;0;();(-2000.0, -2000.0);
03:23:29:156;03:23:29:088;1448289568.75;(0, 0);0;0;0;0;0;0;0;0;0;0;0;();(-2000.0, -2000.0);
03:23:29:173;03:23:29:088;1448289568.75;(0, 0);0;0;0;0;0;0;0;0;0;0;0;();(-2000.0, -2000.0);
03:23:29:189;03:23:29:088;1448289568.75;(0, 0);0;0;0;0;0;0;0;0;0;0;0;();(-2000.0, -2000.0);
03:23:29:206;03:23:29:088;1448289568.75;(0, 0);0;0;0;0;0;0;0;0;0;0;0;();(-2000.0, -2000.0);
03:23:29:239;03:23:29:219;1448289568.89;(0, 0);0;0;0;0;0;0;0;0;0;0;0;();(-2000.0, -2000.0);
03:23:29:256;03:23:29:219;1448289568.89;(0, 0);0;0;0;0;0;0;0;0;0;0;0;();(-2000.0, -2000.0);
03:23:29:272;03:23:29:219;1448289568.89;(0, 0);0;0;0;0;0;0;0;0;0;0;0;();(-2000.0, -2000.0);
03:23:29:289;03:23:29:219;1448289568.89;(0, 0);0;0;0;0;0;0;0;0;0;0;0;();(-2000.0, -2000.0);
03:23:29:305;03:23:29:219;1448289568.89;(0, 0);0;0;0;0;0;0;0;0;0;0;0;();(-2000.0, -2000.0);
03:23:29:339;03:23:29:219;1448289568.89;(0, 0);0;0;0;0;0;0;0;0;0;0;0;();(-2000.0, -2000.0);
03:23:29:355;03:23:29:219;1448289568.89;(0, 0);0;0;0;0;0;0;0;0;0;0;0;();(-2000.0, -2000.0);
03:23:29:371;03:23:29:357;1448289569.02;(0, 0);0;0;0;0;0;0;0;0;0;0;0;();(-2000.0, -2000.0);
03:23:29:388;03:23:29:357;1448289569.02;(0, 0);0;0;0;0;0;0;0;0;0;0;0;();(-2000.0, -2000.0);
03:23:29:405;03:23:29:357;1448289569.02;(0, 0);0;0;0;0;0;0;0;0;0;0;0;();(-2000.0, -2000.0);
03:23:29:438;03:23:29:357;1448289569.02;(0, 0);0;0;0;0;0;0;0;0;0;0;0;();(-2000.0, -2000.0);
03:23:29:454;03:23:29:357;1448289569.02;(0, 0);0;0;0;0;0;0;0;0;0;0;0;();(-2000.0, -2000.0);
03:23:29:471;03:23:29:357;1448289569.02;(0, 0);0;0;0;0;0;0;0;0;0;0;0;();(-2000.0, -2000.0);
03:23:29:487;03:23:29:357;1448289569.02;(0, 0);0;0;0;0;0;0;0;0;0;0;0;();(-2000.0, -2000.0);
03:23:29:504;03:23:29:488;1448289569.15;(0, 0);0;0;0;0;0;0;0;0;0;0;0;();(-2000.0, -2000.0);
03:23:29:537;03:23:29:488;1448289569.15;(0, 0);0;0;0;0;0;0;0;0;0;0;0;();(-2000.0, -2000.0);
03:23:29:554;03:23:29:488;1448289569.15;(0, 0);0;0;0;0;0;0;0;0;0;0;0;();(-2000.0, -2000.0);
03:23:29:570;03:23:29:488;1448289569.15;(0, 0);0;0;0;0;0;0;0;0;0;0;0;();(-2000.0, -2000.0);
03:23:29:587;03:23:29:488;1448289569.15;(0, 0);0;0;0;0;0;0;0;0;0;0;0;();(-2000.0, -2000.0);
03:23:29:620;03:23:29:488;1448289569.15;(0, 0);0;0;0;0;0;0;0;0;0;0;0;();(-2000.0, -2000.0);
03:23:29:636;03:23:29:621;1448289569.29;(0, 0);0;0;0;0;0;0;0;0;0;0;0;();(-2000.0, -2000.0);
03:23:29:653;03:23:29:621;1448289569.29;(0, 0);0;0;0;0;0;0;0;0;0;0;0;();(-2000.0, -2000.0);
03:23:29:669;03:23:29:621;1448289569.29;(0, 0);0;0;0;0;0;0;0;0;0;0;0;();(-2000.0, -2000.0);
03:23:29:686;03:23:29:621;1448289569.29;(0, 0);0;0;0;0;0;0;0;0;0;0;0;();(-2000.0, -2000.0);
03:23:29:719;03:23:29:621;1448289569.29;(0, 0);0;0;0;0;0;0;0;0;0;0;0;();(-2000.0, -2000.0);
03:23:29:736;03:23:29:621;1448289569.29;(0, 0);0;0;0;0;0;0;0;0;0;0;0;();(-2000.0, -2000.0);
03:23:29:752;03:23:29:621;1448289569.29;(0, 0);0;0;0;0;0;0;0;0;0;0;0;();(-2000.0, -2000.0);
03:23:29:769;03:23:29:755;1448289569.42;(0, 0);0;0;0;0;0;0;0;0;0;0;0;();(-2000.0, -2000.0);
03:23:29:786;03:23:29:755;1448289569.42;(0, 0);0;0;0;0;0;0;0;0;0;0;0;();(-2000.0, -2000.0);
03:23:29:819;03:23:29:755;1448289569.42;(0, 0);0;0;0;0;0;0;0;0;0;0;0;();(-2000.0, -2000.0);
03:23:29:835;03:23:29:755;1448289569.42;(0, 0);0;0;0;0;0;0;0;0;0;0;0;();(-2000.0, -2000.0);
03:23:29:852;03:23:29:755;1448289569.42;(0, 0);0;0;0;0;0;0;0;0;0;0;0;();(-2000.0, -2000.0);
03:23:29:869;03:23:29:755;1448289569.42;(0, 0);0;0;0;0;0;0;0;0;0;0;0;();(-2000.0, -2000.0);
03:23:29:886;03:23:29:755;1448289569.42;(0, 0);0;0;0;0;0;0;0;0;0;0;0;();(-2000.0, -2000.0);
03:23:29:918;03:23:29:883;1448289569.55;(0, 0);0;0;0;0;0;0;0;0;0;0;0;();(-2000.0, -2000.0);
03:23:29:934;03:23:29:883;1448289569.55;(0, 0);0;0;0;0;0;0;0;0;0;0;0;();(-2000.0, -2000.0);
03:23:29:951;03:23:29:883;1448289569.55;(0, 0);0;0;0;0;0;0;0;0;0;0;0;();(-2000.0, -2000.0);
03:23:29:968;03:23:29:883;1448289569.55;(0, 0);0;0;0;0;0;0;0;0;0;0;0;();(-2000.0, -2000.0);
03:23:29:984;03:23:29:883;1448289569.55;(0, 0);0;0;0;0;0;0;0;0;0;0;0;();(-2000.0, -2000.0);
03:23:30:019;03:23:29:883;1448289569.55;(0, 0);0;0;0;0;0;0;0;0;0;0;0;();(-2000.0, -2000.0);
03:23:30:034;03:23:30:017;1448289569.69;(0, 0);0;0;0;0;0;0;0;0;0;0;0;();(-2000.0, -2000.0);
03:23:30:052;03:23:30:017;1448289569.69;(0, 0);0;0;0;0;0;0;0;0;0;0;0;();(-2000.0, -2000.0);
03:23:30:068;03:23:30:017;1448289569.69;(0, 0);0;0;0;0;0;0;0;0;0;0;0;();(-2000.0, -2000.0);
03:23:30:084;03:23:30:017;1448289569.69;(0, 0);0;0;0;0;0;0;0;0;0;0;0;();(-2000.0, -2000.0);
03:23:30:117;03:23:30:017;1448289569.69;(0, 0);0;0;0;0;0;0;0;0;0;0;0;();(-2000.0, -2000.0);
03:23:30:133;03:23:30:017;1448289569.69;(0, 0);0;0;0;0;0;0;0;0;0;0;0;();(-2000.0, -2000.0);
03:23:30:150;03:23:30:017;1448289569.69;(0, 0);0;0;0;0;0;0;0;0;0;0;0;();(-2000.0, -2000.0);
03:23:30:167;03:23:30:153;1448289569.82;(0, 0);0;0;0;0;0;0;0;0;0;0;0;();(-2000.0, -2000.0);
03:23:30:184;03:23:30:153;1448289569.82;(0, 0);0;0;0;0;0;0;0;0;0;0;0;();(-2000.0, -2000.0);
03:23:30:216;03:23:30:153;1448289569.82;(0, 0);0;0;0;0;0;0;0;0;0;0;0;();(-2000.0, -2000.0);
03:23:30:233;03:23:30:153;1448289569.82;(0, 0);0;0;0;0;0;0;0;0;0;0;0;();(-2000.0, -2000.0);
03:23:30:249;03:23:30:153;1448289569.82;(0, 0);0;0;0;0;0;0;0;0;0;0;0;();(-2000.0, -2000.0);
03:23:30:266;03:23:30:153;1448289569.82;(0, 0);0;0;0;0;0;0;0;0;0;0;0;();(-2000.0, -2000.0);
03:23:30:299;03:23:30:283;1448289569.95;(0, 0);0;0;0;0;0;0;0;0;0;0;0;();(-2000.0, -2000.0);
03:23:30:316;03:23:30:283;1448289569.95;(0, 0);0;0;0;0;0;0;0;0;0;0;0;();(-2000.0, -2000.0);
03:23:30:332;03:23:30:283;1448289569.95;(0, 0);0;0;0;0;0;0;0;0;0;0;0;();(-2000.0, -2000.0);
03:23:30:349;03:23:30:283;1448289569.95;(0, 0);0;0;0;0;0;0;0;0;0;0;0;();(-2000.0, -2000.0);
03:23:30:365;03:23:30:283;1448289569.95;(0, 0);0;0;0;0;0;0;0;0;0;0;0;();(-2000.0, -2000.0);
03:23:30:399;03:23:30:283;1448289569.95;(0, 0);0;0;0;0;0;0;0;0;0;0;0;();(-2000.0, -2000.0);
03:23:30:415;03:23:30:283;1448289569.95;(0, 0);0;0;0;0;0;0;0;0;0;0;0;();(-2000.0, -2000.0);
03:23:30:432;03:23:30:416;1448289570.09;(0, 0);0;0;0;0;0;0;0;0;0;0;0;();(-2000.0, -2000.0);
03:23:30:448;03:23:30:416;1448289570.09;(0, 0);0;0;0;0;0;0;0;0;0;0;0;();(-2000.0, -2000.0);
03:23:30:465;03:23:30:416;1448289570.09;(0, 0);0;0;0;0;0;0;0;0;0;0;0;();(-2000.0, -2000.0);
03:23:30:498;03:23:30:416;1448289570.09;(0, 0);0;0;0;0;0;0;0;0;0;0;0;();(-2000.0, -2000.0);
03:23:30:515;03:23:30:416;1448289570.09;(0, 0);0;0;0;0;0;0;0;0;0;0;0;();(-2000.0, -2000.0);
03:23:30:531;03:23:30:416;1448289570.09;(0, 0);0;0;0;0;0;0;0;0;0;0;0;();(-2000.0, -2000.0);
03:23:30:548;03:23:30:416;1448289570.09;(0, 0);0;0;0;0;0;0;0;0;0;0;0;();(-2000.0, -2000.0);
03:23:30:564;03:23:30:548;1448289570.22;(0, 0);0;0;0;0;0;0;0;0;0;0;0;();(-2000.0, -2000.0);
03:23:30:598;03:23:30:548;1448289570.22;(0, 0);0;0;0;0;0;0;0;0;0;0;0;();(-2000.0, -2000.0);
03:23:30:614;03:23:30:548;1448289570.22;(0, 0);0;0;0;0;0;0;0;0;0;0;0;();(-2000.0, -2000.0);
03:23:30:631;03:23:30:548;1448289570.22;(0, 0);0;0;0;0;0;0;0;0;0;0;0;();(-2000.0, -2000.0);
03:23:30:647;03:23:30:548;1448289570.22;(0, 0);0;0;0;0;0;0;0;0;0;0;0;();(-2000.0, -2000.0);
03:23:30:664;03:23:30:548;1448289570.22;(0, 0);0;0;0;0;0;0;0;0;0;0;0;();(-2000.0, -2000.0);
03:23:30:697;03:23:30:679;1448289570.35;(0, 0);0;0;0;0;0;0;0;0;0;0;0;();(-2000.0, -2000.0);
03:23:30:713;03:23:30:679;1448289570.35;(0, 0);0;0;0;0;0;0;0;0;0;0;0;();(-2000.0, -2000.0);
03:23:30:730;03:23:30:679;1448289570.35;(0, 0);0;0;0;0;0;0;0;0;0;0;0;();(-2000.0, -2000.0);
03:23:30:746;03:23:30:679;1448289570.35;(0, 0);0;0;0;0;0;0;0;0;0;0;0;();(-2000.0, -2000.0);
03:23:30:780;03:23:30:679;1448289570.35;(0, 0);0;0;0;0;0;0;0;0;0;0;0;();(-2000.0, -2000.0);
03:23:30:796;03:23:30:679;1448289570.35;(0, 0);0;0;0;0;0;0;0;0;0;0;0;();(-2000.0, -2000.0);
03:23:30:813;03:23:30:679;1448289570.35;(0, 0);0;0;0;0;0;0;0;0;0;0;0;();(-2000.0, -2000.0);
03:23:30:829;03:23:30:816;1448289570.49;(0, 0);0;0;0;0;0;0;0;0;0;0;0;();(-2000.0, -2000.0);
03:23:30:846;03:23:30:816;1448289570.49;(0, 0);0;0;0;0;0;0;0;0;0;0;0;();(-2000.0, -2000.0);
03:23:30:879;03:23:30:816;1448289570.49;(0, 0);0;0;0;0;0;0;0;0;0;0;0;();(-2000.0, -2000.0);
03:23:30:895;03:23:30:816;1448289570.49;(0, 0);0;0;0;0;0;0;0;0;0;0;0;();(-2000.0, -2000.0);
03:23:30:912;03:23:30:816;1448289570.49;(0, 0);0;0;0;0;0;0;0;0;0;0;0;();(-2000.0, -2000.0);
03:23:30:929;03:23:30:816;1448289570.49;(0, 0);0;0;0;0;0;0;0;0;0;0;0;();(-2000.0, -2000.0);
03:23:30:945;03:23:30:816;1448289570.49;(0, 0);0;0;0;0;0;0;0;0;0;0;0;();(-2000.0, -2000.0);
03:23:30:978;03:23:30:949;1448289570.62;(0, 0);0;0;0;0;0;0;0;0;0;0;0;();(-2000.0, -2000.0);
03:23:30:995;03:23:30:949;1448289570.62;(0, 0);0;0;0;0;0;0;0;0;0;0;0;();(-2000.0, -2000.0);
03:23:31:011;03:23:30:949;1448289570.62;(0, 0);0;0;0;0;0;0;0;0;0;0;0;();(-2000.0, -2000.0);
03:23:31:028;03:23:30:949;1448289570.62;(0, 0);0;0;0;0;0;0;0;0;0;0;0;();(-2000.0, -2000.0);
03:23:31:044;03:23:30:949;1448289570.62;(0, 0);0;0;0;0;0;0;0;0;0;0;0;();(-2000.0, -2000.0);
03:23:31:078;03:23:30:949;1448289570.62;(0, 0);0;0;0;0;0;0;0;0;0;0;0;();(-2000.0, -2000.0);
03:23:31:094;03:23:31:081;1448289570.75;(0, 0);0;0;0;0;0;0;0;0;0;0;0;();(-2000.0, -2000.0);
03:23:31:111;03:23:31:081;1448289570.75;(0, 0);0;0;0;0;0;0;0;0;0;0;0;();(-2000.0, -2000.0);
03:23:31:128;03:23:31:081;1448289570.75;(0, 0);0;0;0;0;0;0;0;0;0;0;0;();(-2000.0, -2000.0);
03:23:31:145;03:23:31:081;1448289570.75;(0, 0);0;0;0;0;0;0;0;0;0;0;0;();(-2000.0, -2000.0);
03:23:31:178;03:23:31:081;1448289570.75;(0, 0);0;0;0;0;0;0;0;0;0;0;0;();(-2000.0, -2000.0);
03:23:31:195;03:23:31:081;1448289570.75;(0, 0);0;0;0;0;0;0;0;0;0;0;0;();(-2000.0, -2000.0);
03:23:31:211;03:23:31:081;1448289570.75;(0, 0);0;0;0;0;0;0;0;0;0;0;0;();(-2000.0, -2000.0);
03:23:31:228;03:23:31:081;1448289570.75;(0, 0);0;0;0;0;0;0;0;0;0;0;0;();(-2000.0, -2000.0);
03:23:31:261;03:23:31:081;1448289570.75;(0, 0);0;0;0;0;0;0;0;0;0;0;0;();(-2000.0, -2000.0);
03:23:31:278;03:23:31:081;1448289570.75;(0, 0);0;0;0;0;0;0;0;0;0;0;0;();(-2000.0, -2000.0);
03:23:31:294;03:23:31:281;1448289570.89;(0, 0);0;0;0;0;0;0;0;0;0;0;0;();(-2000.0, -2000.0);
03:23:31:311;03:23:31:281;1448289570.89;(0, 0);0;0;0;0;0;0;0;0;0;0;0;();(-2000.0, -2000.0);
03:23:31:327;03:23:31:281;1448289570.89;(0, 0);0;0;0;0;0;0;0;0;0;0;0;();(-2000.0, -2000.0);
03:23:31:360;03:23:31:281;1448289570.89;(0, 0);0;0;0;0;0;0;0;0;0;0;0;();(-2000.0, -2000.0);
03:23:31:377;03:23:31:281;1448289570.89;(0, 0);0;0;0;0;0;0;0;0;0;0;0;();(-2000.0, -2000.0);
03:23:31:394;03:23:31:281;1448289570.89;(0, 0);0;0;0;0;0;0;0;0;0;0;0;();(-2000.0, -2000.0);
03:23:31:410;03:23:31:281;1448289570.89;(0, 0);0;0;0;0;0;0;0;0;0;0;0;();(-2000.0, -2000.0);
03:23:31:427;03:23:31:415;1448289571.02;(0, 0);0;0;0;0;0;0;0;0;0;0;0;();(-2000.0, -2000.0);
03:23:31:459;03:23:31:415;1448289571.02;(0, 0);0;0;0;0;0;0;0;0;0;0;0;();(-2000.0, -2000.0);
03:23:31:476;03:23:31:415;1448289571.02;(0, 0);0;0;0;0;0;0;0;0;0;0;0;();(-2000.0, -2000.0);
03:23:31:492;03:23:31:480;1448289571.15;(0, 0);0;0;0;0;0;0;0;0;0;0;0;();(-2000.0, -2000.0);
03:23:31:509;03:23:31:480;1448289571.15;(0, 0);0;0;0;0;0;0;0;0;0;0;0;();(-2000.0, -2000.0);
03:23:31:526;03:23:31:480;1448289571.15;(0, 0);0;0;0;0;0;0;0;0;0;0;0;();(-2000.0, -2000.0);
03:23:31:559;03:23:31:480;1448289571.15;(0, 0);0;0;0;0;0;0;0;0;0;0;0;();(-2000.0, -2000.0);
03:23:31:576;03:23:31:480;1448289571.15;(0, 0);0;0;0;0;0;0;0;0;0;0;0;();(-2000.0, -2000.0);
03:23:31:592;03:23:31:480;1448289571.15;(0, 0);0;0;0;0;0;0;0;0;0;0;0;();(-2000.0, -2000.0);
03:23:31:609;03:23:31:480;1448289571.15;(0, 0);0;0;0;0;0;0;0;0;0;0;0;();(-2000.0, -2000.0);
03:23:31:625;03:23:31:612;1448289571.29;(0, 0);0;0;0;0;0;0;0;0;0;0;0;();(-2000.0, -2000.0);
03:23:31:658;03:23:31:612;1448289571.29;(0, 0);0;0;0;0;0;0;0;0;0;0;0;();(-2000.0, -2000.0);
03:23:31:675;03:23:31:612;1448289571.29;(0, 0);0;0;0;0;0;0;0;0;0;0;0;();(-2000.0, -2000.0);
03:23:31:692;03:23:31:612;1448289571.29;(0, 0);0;0;0;0;0;0;0;0;0;0;0;();(-2000.0, -2000.0);
03:23:31:707;03:23:31:612;1448289571.29;(0, 0);0;0;0;0;0;0;0;0;0;0;0;();(-2000.0, -2000.0);
03:23:31:725;03:23:31:612;1448289571.29;(0, 0);0;0;0;0;0;0;0;0;0;0;0;();(-2000.0, -2000.0);
03:23:31:757;03:23:31:743;1448289571.42;(0, 0);0;0;0;0;0;0;0;0;0;0;0;();(-2000.0, -2000.0);
03:23:31:774;03:23:31:743;1448289571.42;(0, 0);0;0;0;0;0;0;0;0;0;0;0;();(-2000.0, -2000.0);
03:23:31:796;03:23:31:743;1448289571.42;(0, 0);0;0;0;0;0;0;0;0;0;0;0;();(-2000.0, -2000.0);
03:23:31:807;03:23:31:743;1448289571.42;(0, 0);0;0;0;0;0;0;0;0;0;0;0;();(-2000.0, -2000.0);
03:23:31:840;03:23:31:743;1448289571.42;(0, 0);0;0;0;0;0;0;0;0;0;0;0;();(-2000.0, -2000.0);
03:23:31:856;03:23:31:743;1448289571.42;(0, 0);0;0;0;0;0;0;0;0;0;0;0;();(-2000.0, -2000.0);
03:23:31:873;03:23:31:743;1448289571.42;(0, 0);0;0;0;0;0;0;0;0;0;0;0;();(-2000.0, -2000.0);
03:23:31:890;03:23:31:876;1448289571.55;(0, 0);0;0;0;0;0;0;0;0;0;0;0;();(-2000.0, -2000.0);
03:23:31:907;03:23:31:876;1448289571.55;(0, 0);0;0;0;0;0;0;0;0;0;0;0;();(-2000.0, -2000.0);
03:23:31:939;03:23:31:876;1448289571.55;(0, 0);0;0;0;0;0;0;0;0;0;0;0;();(-2000.0, -2000.0);
03:23:31:957;03:23:31:876;1448289571.55;(0, 0);0;0;0;0;0;0;0;0;0;0;0;();(-2000.0, -2000.0);
03:23:31:972;03:23:31:876;1448289571.55;(0, 0);0;0;0;0;0;0;0;0;0;0;0;();(-2000.0, -2000.0);
03:23:31:989;03:23:31:876;1448289571.55;(0, 0);0;0;0;0;0;0;0;0;0;0;0;();(-2000.0, -2000.0);
03:23:32:006;03:23:31:876;1448289571.55;(0, 0);0;0;0;0;0;0;0;0;0;0;0;();(-2000.0, -2000.0);
03:23:32:039;03:23:31:876;1448289571.55;(0, 0);0;0;0;0;0;0;0;0;0;0;0;();(-2000.0, -2000.0);
03:23:32:227;03:23:32:223;1448289571.82;(0, 0);0;0;0;0;0;0;0;0;0;0;0;();(-2000.0, -2000.0);
03:23:32:235;03:23:32:223;1448289571.82;(0, 0);0;0;0;0;0;0;0;0;0;0;0;();(-2000.0, -2000.0);
03:23:32:244;03:23:32:223;1448289571.82;(0, 0);0;0;0;0;0;0;0;0;0;0;0;();(-2000.0, -2000.0);
03:23:32:251;03:23:32:223;1448289571.82;(0, 0);0;0;0;0;0;0;0;0;0;0;0;();(-2000.0, -2000.0);
03:23:32:259;03:23:32:223;1448289571.82;(0, 0);0;0;0;0;0;0;0;0;0;0;0;();(-2000.0, -2000.0);
03:23:32:266;03:23:32:223;1448289571.82;(0, 0);0;0;0;0;0;0;0;0;0;0;0;();(-2000.0, -2000.0);
03:23:32:274;03:23:32:223;1448289571.82;(0, 0);0;0;0;0;0;0;0;0;0;0;0;();(-2000.0, -2000.0);
03:23:32:282;03:23:32:223;1448289571.82;(0, 0);0;0;0;0;0;0;0;0;0;0;0;();(-2000.0, -2000.0);
03:23:32:289;03:23:32:223;1448289571.82;(0, 0);0;0;0;0;0;0;0;0;0;0;0;();(-2000.0, -2000.0);
03:23:32:297;03:23:32:223;1448289571.82;(0, 0);0;0;0;0;0;0;0;0;0;0;0;();(-2000.0, -2000.0);
03:23:32:309;03:23:32:223;1448289571.82;(0, 0);0;0;0;0;0;0;0;0;0;0;0;();(-2000.0, -2000.0);
03:23:32:317;03:23:32:223;1448289571.82;(0, 0);0;0;0;0;0;0;0;0;0;0;0;();(-2000.0, -2000.0);
03:23:32:324;03:23:32:223;1448289571.82;(0, 0);0;0;0;0;0;0;0;0;0;0;0;();(-2000.0, -2000.0);
03:23:32:332;03:23:32:223;1448289571.82;(0, 0);0;0;0;0;0;0;0;0;0;0;0;();(-2000.0, -2000.0);
03:23:32:342;03:23:32:223;1448289571.82;(0, 0);0;0;0;0;0;0;0;0;0;0;0;();(-2000.0, -2000.0);
03:23:32:358;03:23:32:340;1448289571.95;(0, 0);0;0;0;0;0;0;0;0;0;0;0;();(-2000.0, -2000.0);
03:23:32:374;03:23:32:340;1448289571.95;(0, 0);0;0;0;0;0;0;0;0;0;0;0;();(-2000.0, -2000.0);
03:23:32:391;03:23:32:340;1448289571.95;(0, 0);0;0;0;0;0;0;0;0;0;0;0;();(-2000.0, -2000.0);
03:23:32:408;03:23:32:340;1448289571.95;(0, 0);0;0;0;0;0;0;0;0;0;0;0;();(-2000.0, -2000.0);
03:23:32:424;03:23:32:340;1448289571.95;(0, 0);0;0;0;0;0;0;0;0;0;0;0;();(-2000.0, -2000.0);
03:23:32:457;03:23:32:340;1448289571.95;(0, 0);0;0;0;0;0;0;0;0;0;0;0;();(-2000.0, -2000.0);
03:23:32:474;03:23:32:340;1448289571.95;(0, 0);0;0;0;0;0;0;0;0;0;0;0;();(-2000.0, -2000.0);
03:23:32:490;03:23:32:477;1448289572.09;(0, 0);0;0;0;0;0;0;0;0;0;0;0;();(-2000.0, -2000.0);
03:23:32:507;03:23:32:477;1448289572.09;(0, 0);0;0;0;0;0;0;0;0;0;0;0;();(-2000.0, -2000.0);
03:23:32:540;03:23:32:477;1448289572.09;(0, 0);0;0;0;0;0;0;0;0;0;0;0;();(-2000.0, -2000.0);
03:23:32:557;03:23:32:477;1448289572.09;(0, 0);0;0;0;0;0;0;0;0;0;0;0;();(-2000.0, -2000.0);
03:23:32:573;03:23:32:477;1448289572.09;(0, 0);0;0;0;0;0;0;0;0;0;0;0;();(-2000.0, -2000.0);
03:23:32:590;03:23:32:477;1448289572.09;(0, 0);0;0;0;0;0;0;0;0;0;0;0;();(-2000.0, -2000.0);
03:23:32:607;03:23:32:477;1448289572.09;(0, 0);0;0;0;0;0;0;0;0;0;0;0;();(-2000.0, -2000.0);
03:23:32:639;03:23:32:608;1448289572.22;(0, 0);0;0;0;0;0;0;0;0;0;0;0;();(-2000.0, -2000.0);
03:23:32:659;03:23:32:608;1448289572.22;(0, 0);0;0;0;0;0;0;0;0;0;0;0;();(-2000.0, -2000.0);
03:23:32:674;03:23:32:608;1448289572.22;(0, 0);0;0;0;0;0;0;0;0;0;0;0;();(-2000.0, -2000.0);
03:23:32:691;03:23:32:608;1448289572.22;(0, 0);0;0;0;0;0;0;0;0;0;0;0;();(-2000.0, -2000.0);
03:23:32:707;03:23:32:608;1448289572.22;(0, 0);0;0;0;0;0;0;0;0;0;0;0;();(-2000.0, -2000.0);
03:23:32:740;03:23:32:608;1448289572.22;(0, 0);0;0;0;0;0;0;0;0;0;0;0;();(-2000.0, -2000.0);
03:23:32:758;03:23:32:745;1448289572.35;(0, 0);0;0;0;0;0;0;0;0;0;0;0;();(-2000.0, -2000.0);
03:23:32:773;03:23:32:745;1448289572.35;(0, 0);0;0;0;0;0;0;0;0;0;0;0;();(-2000.0, -2000.0);
03:23:32:790;03:23:32:745;1448289572.35;(0, 0);0;0;0;0;0;0;0;0;0;0;0;();(-2000.0, -2000.0);
03:23:32:806;03:23:32:745;1448289572.35;(0, 0);0;0;0;0;0;0;0;0;0;0;0;();(-2000.0, -2000.0);
03:23:32:840;03:23:32:745;1448289572.35;(0, 0);0;0;0;0;0;0;0;0;0;0;0;();(-2000.0, -2000.0);
03:23:32:857;03:23:32:745;1448289572.35;(0, 0);0;0;0;0;0;0;0;0;0;0;0;();(-2000.0, -2000.0);
03:23:32:873;03:23:32:745;1448289572.35;(0, 0);0;0;0;0;0;0;0;0;0;0;0;();(-2000.0, -2000.0);
03:23:32:889;03:23:32:872;1448289572.49;(0, 0);0;0;0;0;0;0;0;0;0;0;0;();(-2000.0, -2000.0);
03:23:32:906;03:23:32:872;1448289572.49;(0, 0);0;0;0;0;0;0;0;0;0;0;0;();(-2000.0, -2000.0);
03:23:32:939;03:23:32:872;1448289572.49;(0, 0);0;0;0;0;0;0;0;0;0;0;0;();(-2000.0, -2000.0);
03:23:32:956;03:23:32:872;1448289572.49;(0, 0);0;0;0;0;0;0;0;0;0;0;0;();(-2000.0, -2000.0);
03:23:32:973;03:23:32:872;1448289572.49;(0, 0);0;0;0;0;0;0;0;0;0;0;0;();(-2000.0, -2000.0);
03:23:32:988;03:23:32:872;1448289572.49;(0, 0);0;0;0;0;0;0;0;0;0;0;0;();(-2000.0, -2000.0);
03:23:33:006;03:23:32:872;1448289572.49;(0, 0);0;0;0;0;0;0;0;0;0;0;0;();(-2000.0, -2000.0);
03:23:33:039;03:23:33:004;1448289572.62;(0, 0);0;0;0;0;0;0;0;0;0;0;0;();(-2000.0, -2000.0);
03:23:33:055;03:23:33:004;1448289572.62;(0, 0);0;0;0;0;0;0;0;0;0;0;0;();(-2000.0, -2000.0);
03:23:33:072;03:23:33:004;1448289572.62;(0, 0);0;0;0;0;0;0;0;0;0;0;0;();(-2000.0, -2000.0);
03:23:33:088;03:23:33:004;1448289572.62;(0, 0);0;0;0;0;0;0;0;0;0;0;0;();(-2000.0, -2000.0);
03:23:33:105;03:23:33:004;1448289572.62;(0, 0);0;0;0;0;0;0;0;0;0;0;0;();(-2000.0, -2000.0);
03:23:33:139;03:23:33:004;1448289572.62;(0, 0);0;0;0;0;0;0;0;0;0;0;0;();(-2000.0, -2000.0);
03:23:33:155;03:23:33:136;1448289572.75;(0, 0);0;0;0;0;0;0;0;0;0;0;0;();(-2000.0, -2000.0);
03:23:33:171;03:23:33:136;1448289572.75;(0, 0);0;0;0;0;0;0;0;0;0;0;0;();(-2000.0, -2000.0);
03:23:33:188;03:23:33:136;1448289572.75;(0, 0);0;0;0;0;0;0;0;0;0;0;0;();(-2000.0, -2000.0);
03:23:33:204;03:23:33:136;1448289572.75;(0, 0);0;0;0;0;0;0;0;0;0;0;0;();(-2000.0, -2000.0);
03:23:33:237;03:23:33:136;1448289572.75;(0, 0);0;0;0;0;0;0;0;0;0;0;0;();(-2000.0, -2000.0);
03:23:33:254;03:23:33:136;1448289572.75;(0, 0);0;0;0;0;0;0;0;0;0;0;0;();(-2000.0, -2000.0);
03:23:33:271;03:23:33:136;1448289572.75;(0, 0);0;0;0;0;0;0;0;0;0;0;0;();(-2000.0, -2000.0);
03:23:33:288;03:23:33:272;1448289572.89;(0, 0);0;0;0;0;0;0;0;0;0;0;0;();(-2000.0, -2000.0);
03:23:33:320;03:23:33:272;1448289572.89;(0, 0);0;0;0;0;0;0;0;0;0;0;0;();(-2000.0, -2000.0);
03:23:33:336;03:23:33:272;1448289572.89;(0, 0);0;0;0;0;0;0;0;0;0;0;0;();(-2000.0, -2000.0);
03:23:33:353;03:23:33:272;1448289572.89;(0, 0);0;0;0;0;0;0;0;0;0;0;0;();(-2000.0, -2000.0);
03:23:33:370;03:23:33:272;1448289572.89;(0, 0);0;0;0;0;0;0;0;0;0;0;0;();(-2000.0, -2000.0);
03:23:33:386;03:23:33:272;1448289572.89;(0, 0);0;0;0;0;0;0;0;0;0;0;0;();(-2000.0, -2000.0);
03:23:33:420;03:23:33:403;1448289573.02;(0, 0);0;0;0;0;0;0;0;0;0;0;0;();(-2000.0, -2000.0);
03:23:33:436;03:23:33:403;1448289573.02;(0, 0);0;0;0;0;0;0;0;0;0;0;0;();(-2000.0, -2000.0);
03:23:33:452;03:23:33:403;1448289573.02;(0, 0);0;0;0;0;0;0;0;0;0;0;0;();(-2000.0, -2000.0);
03:23:33:470;03:23:33:403;1448289573.02;(0, 0);0;0;0;0;0;0;0;0;0;0;0;();(-2000.0, -2000.0);
03:23:33:487;03:23:33:403;1448289573.02;(0, 0);0;0;0;0;0;0;0;0;0;0;0;();(-2000.0, -2000.0);
03:23:33:519;03:23:33:403;1448289573.02;(0, 0);0;0;0;0;0;0;0;0;0;0;0;();(-2000.0, -2000.0);
03:23:33:535;03:23:33:403;1448289573.02;(0, 0);0;0;0;0;0;0;0;0;0;0;0;();(-2000.0, -2000.0);
03:23:33:552;03:23:33:537;1448289573.15;(0, 0);0;0;0;0;0;0;0;0;0;0;0;();(-2000.0, -2000.0);
03:23:33:568;03:23:33:537;1448289573.15;(0, 0);0;0;0;0;0;0;0;0;0;0;0;();(-2000.0, -2000.0);
03:23:33:586;03:23:33:537;1448289573.15;(0, 0);0;0;0;0;0;0;0;0;0;0;0;();(-2000.0, -2000.0);
03:23:33:679;03:23:33:670;1448289573.29;(0, 0);0;0;0;0;0;0;0;0;0;0;0;();(-2000.0, -2000.0);
03:23:33:971;03:23:33:936;1448289573.55;(0, 0);0;0;0;0;0;0;0;0;0;0;0;();(-2000.0, -2000.0);
03:23:33:995;03:23:33:936;1448289573.55;(0, 0);0;0;0;0;0;0;0;0;0;0;0;();(-2000.0, -2000.0);
03:23:34:014;03:23:33:936;1448289573.55;(0, 0);0;0;0;0;0;0;0;0;0;0;0;();(-2000.0, -2000.0);
03:23:34:033;03:23:33:936;1448289573.55;(0, 0);0;0;0;0;0;0;0;0;0;0;0;();(-2000.0, -2000.0);
03:23:34:045;03:23:33:936;1448289573.55;(0, 0);0;0;0;0;0;0;0;0;0;0;0;();(-2000.0, -2000.0);
03:23:34:053;03:23:33:936;1448289573.55;(0, 0);0;0;0;0;0;0;0;0;0;0;0;();(-2000.0, -2000.0);
03:23:34:061;03:23:33:936;1448289573.55;(0, 0);0;0;0;0;0;0;0;0;0;0;0;();(-2000.0, -2000.0);
03:23:34:068;03:23:33:936;1448289573.55;(0, 0);0;0;0;0;0;0;0;0;0;0;0;();(-2000.0, -2000.0);
03:23:34:076;03:23:34:068;1448289573.69;(0, 0);0;0;0;0;0;0;0;0;0;0;0;();(-2000.0, -2000.0);
03:23:34:083;03:23:34:068;1448289573.69;(0, 0);0;0;0;0;0;0;0;0;0;0;0;();(-2000.0, -2000.0);
03:23:34:091;03:23:34:068;1448289573.69;(0, 0);0;0;0;0;0;0;0;0;0;0;0;();(-2000.0, -2000.0);
03:23:34:098;03:23:34:068;1448289573.69;(0, 0);0;0;0;0;0;0;0;0;0;0;0;();(-2000.0, -2000.0);
03:23:34:105;03:23:34:068;1448289573.69;(0, 0);0;0;0;0;0;0;0;0;0;0;0;();(-2000.0, -2000.0);
03:23:34:112;03:23:34:068;1448289573.69;(0, 0);0;0;0;0;0;0;0;0;0;0;0;();(-2000.0, -2000.0);
03:23:34:119;03:23:34:068;1448289573.69;(0, 0);0;0;0;0;0;0;0;0;0;0;0;();(-2000.0, -2000.0);
03:23:34:127;03:23:34:068;1448289573.69;(0, 0);0;0;0;0;0;0;0;0;0;0;0;();(-2000.0, -2000.0);
03:23:34:134;03:23:34:068;1448289573.69;(0, 0);0;0;0;0;0;0;0;0;0;0;0;();(-2000.0, -2000.0);
03:23:34:141;03:23:34:068;1448289573.69;(0, 0);0;0;0;0;0;0;0;0;0;0;0;();(-2000.0, -2000.0);
03:23:34:148;03:23:34:068;1448289573.69;(0, 0);0;0;0;0;0;0;0;0;0;0;0;();(-2000.0, -2000.0);
03:23:34:155;03:23:34:068;1448289573.69;(0, 0);0;0;0;0;0;0;0;0;0;0;0;();(-2000.0, -2000.0);
03:23:34:168;03:23:34:068;1448289573.69;(0, 0);0;0;0;0;0;0;0;0;0;0;0;();(-2000.0, -2000.0);
03:23:34:175;03:23:34:068;1448289573.69;(0, 0);0;0;0;0;0;0;0;0;0;0;0;();(-2000.0, -2000.0);
03:23:34:183;03:23:34:068;1448289573.69;(0, 0);0;0;0;0;0;0;0;0;0;0;0;();(-2000.0, -2000.0);
03:23:34:190;03:23:34:068;1448289573.69;(0, 0);0;0;0;0;0;0;0;0;0;0;0;();(-2000.0, -2000.0);
03:23:34:197;03:23:34:068;1448289573.69;(0, 0);0;0;0;0;0;0;0;0;0;0;0;();(-2000.0, -2000.0);
03:23:34:205;03:23:34:200;1448289573.82;(0, 0);0;0;0;0;0;0;0;0;0;0;0;();(-2000.0, -2000.0);
03:23:34:214;03:23:34:200;1448289573.82;(0, 0);0;0;0;0;0;0;0;0;0;0;0;();(-2000.0, -2000.0);
03:23:34:221;03:23:34:200;1448289573.82;(0, 0);0;0;0;0;0;0;0;0;0;0;0;();(-2000.0, -2000.0);
03:23:34:228;03:23:34:200;1448289573.82;(0, 0);0;0;0;0;0;0;0;0;0;0;0;();(-2000.0, -2000.0);
03:23:34:237;03:23:34:200;1448289573.82;(0, 0);0;0;0;0;0;0;0;0;0;0;0;();(-2000.0, -2000.0);
03:23:34:254;03:23:34:200;1448289573.82;(0, 0);0;0;0;0;0;0;0;0;0;0;0;();(-2000.0, -2000.0);
03:23:34:271;03:23:34:200;1448289573.82;(0, 0);0;0;0;0;0;0;0;0;0;0;0;();(-2000.0, -2000.0);
03:23:34:304;03:23:34:200;1448289573.82;(0, 0);0;0;0;0;0;0;0;0;0;0;0;();(-2000.0, -2000.0);
03:23:34:320;03:23:34:200;1448289573.82;(0, 0);0;0;0;0;0;0;0;0;0;0;0;();(-2000.0, -2000.0);
03:23:34:337;03:23:34:331;1448289573.95;(0, 0);0;0;0;0;0;0;0;0;0;0;0;();(-2000.0, -2000.0);
03:23:34:354;03:23:34:331;1448289573.95;(0, 0);0;0;0;0;0;0;0;0;0;0;0;();(-2000.0, -2000.0);
03:23:34:370;03:23:34:331;1448289573.95;(0, 0);0;0;0;0;0;0;0;0;0;0;0;();(-2000.0, -2000.0);
03:23:34:403;03:23:34:331;1448289573.95;(0, 0);0;0;0;0;0;0;0;0;0;0;0;();(-2000.0, -2000.0);
03:23:34:421;03:23:34:331;1448289573.95;(0, 0);0;0;0;0;0;0;0;0;0;0;0;();(-2000.0, -2000.0);
03:23:34:436;03:23:34:331;1448289573.95;(0, 0);0;0;0;0;0;0;0;0;0;0;0;();(-2000.0, -2000.0);
03:23:34:453;03:23:34:331;1448289573.95;(0, 0);0;0;0;0;0;0;0;0;0;0;0;();(-2000.0, -2000.0);
03:23:34:469;03:23:34:463;1448289574.09;(0, 0);0;0;0;0;0;0;0;0;0;0;0;();(-2000.0, -2000.0);
03:23:34:503;03:23:34:463;1448289574.09;(0, 0);0;0;0;0;0;0;0;0;0;0;0;();(-2000.0, -2000.0);
03:23:34:519;03:23:34:463;1448289574.09;(0, 0);0;0;0;0;0;0;0;0;0;0;0;();(-2000.0, -2000.0);
03:23:34:536;03:23:34:463;1448289574.09;(0, 0);0;0;0;0;0;0;0;0;0;0;0;();(-2000.0, -2000.0);
03:23:34:552;03:23:34:463;1448289574.09;(0, 0);0;0;0;0;0;0;0;0;0;0;0;();(-2000.0, -2000.0);
03:23:34:569;03:23:34:463;1448289574.09;(0, 0);0;0;0;0;0;0;0;0;0;0;0;();(-2000.0, -2000.0);
03:23:34:602;03:23:34:463;1448289574.09;(0, 0);0;0;0;0;0;0;0;0;0;0;0;();(-2000.0, -2000.0);
03:23:34:619;03:23:34:604;1448289574.22;(0, 0);0;0;0;0;0;0;0;0;0;0;0;();(-2000.0, -2000.0);
03:23:34:635;03:23:34:604;1448289574.22;(0, 0);0;0;0;0;0;0;0;0;0;0;0;();(-2000.0, -2000.0);
03:23:34:652;03:23:34:604;1448289574.22;(0, 0);0;0;0;0;0;0;0;0;0;0;0;();(-2000.0, -2000.0);
03:23:34:668;03:23:34:604;1448289574.22;(0, 0);0;0;0;0;0;0;0;0;0;0;0;();(-2000.0, -2000.0);
03:23:34:702;03:23:34:604;1448289574.22;(0, 0);0;0;0;0;0;0;0;0;0;0;0;();(-2000.0, -2000.0);
03:23:34:718;03:23:34:604;1448289574.22;(0, 0);0;0;0;0;0;0;0;0;0;0;0;();(-2000.0, -2000.0);
03:23:34:735;03:23:34:604;1448289574.22;(0, 0);0;0;0;0;0;0;0;0;0;0;0;();(-2000.0, -2000.0);
03:23:34:752;03:23:34:733;1448289574.35;(0, 0);0;0;0;0;0;0;0;0;0;0;0;();(-2000.0, -2000.0);
03:23:34:785;03:23:34:733;1448289574.35;(0, 0);0;0;0;0;0;0;0;0;0;0;0;();(-2000.0, -2000.0);
03:23:34:802;03:23:34:733;1448289574.35;(0, 0);0;0;0;0;0;0;0;0;0;0;0;();(-2000.0, -2000.0);
03:23:34:817;03:23:34:733;1448289574.35;(0, 0);0;0;0;0;0;0;0;0;0;0;0;();(-2000.0, -2000.0);
03:23:34:833;03:23:34:733;1448289574.35;(0, 0);0;0;0;0;0;0;0;0;0;0;0;();(-2000.0, -2000.0);
03:23:34:850;03:23:34:733;1448289574.35;(0, 0);0;0;0;0;0;0;0;0;0;0;0;();(-2000.0, -2000.0);
03:23:34:885;03:23:34:863;1448289574.49;(0, 0);0;0;0;0;0;0;0;0;0;0;0;();(-2000.0, -2000.0);
03:23:34:900;03:23:34:863;1448289574.49;(0, 0);0;0;0;0;0;0;0;0;0;0;0;();(-2000.0, -2000.0);
03:23:34:916;03:23:34:863;1448289574.49;(0, 0);0;0;0;0;0;0;0;0;0;0;0;();(-2000.0, -2000.0);
03:23:34:933;03:23:34:863;1448289574.49;(0, 0);0;0;0;0;0;0;0;0;0;0;0;();(-2000.0, -2000.0);
03:23:34:949;03:23:34:863;1448289574.49;(0, 0);0;0;0;0;0;0;0;0;0;0;0;();(-2000.0, -2000.0);
03:23:34:983;03:23:34:863;1448289574.49;(0, 0);0;0;0;0;0;0;0;0;0;0;0;();(-2000.0, -2000.0);
03:23:35:000;03:23:34:863;1448289574.49;(0, 0);0;0;0;0;0;0;0;0;0;0;0;();(-2000.0, -2000.0);
03:23:35:016;03:23:34:998;1448289574.62;(0, 0);0;0;0;0;0;0;0;0;0;0;0;();(-2000.0, -2000.0);
03:23:35:032;03:23:34:998;1448289574.62;(0, 0);0;0;0;0;0;0;0;0;0;0;0;();(-2000.0, -2000.0);
03:23:35:049;03:23:34:998;1448289574.62;(0, 0);0;0;0;0;0;0;0;0;0;0;0;();(-2000.0, -2000.0);
03:23:35:082;03:23:34:998;1448289574.62;(0, 0);0;0;0;0;0;0;0;0;0;0;0;();(-2000.0, -2000.0);
03:23:35:099;03:23:34:998;1448289574.62;(0, 0);0;0;0;0;0;0;0;0;0;0;0;();(-2000.0, -2000.0);
03:23:35:115;03:23:34:998;1448289574.62;(0, 0);0;0;0;0;0;0;0;0;0;0;0;();(-2000.0, -2000.0);
03:23:35:132;03:23:35:127;1448289574.75;(0, 0);0;0;0;0;0;0;0;0;0;0;0;();(-2000.0, -2000.0);
03:23:35:148;03:23:35:127;1448289574.75;(0, 0);0;0;0;0;0;0;0;0;0;0;0;();(-2000.0, -2000.0);
03:23:35:182;03:23:35:127;1448289574.75;(0, 0);0;0;0;0;0;0;0;0;0;0;0;();(-2000.0, -2000.0);
03:23:35:198;03:23:35:127;1448289574.75;(0, 0);0;0;0;0;0;0;0;0;0;0;0;();(-2000.0, -2000.0);
03:23:35:215;03:23:35:127;1448289574.75;(0, 0);0;0;0;0;0;0;0;0;0;0;0;();(-2000.0, -2000.0);
03:23:35:231;03:23:35:127;1448289574.75;(0, 0);0;0;0;0;0;0;0;0;0;0;0;();(-2000.0, -2000.0);
03:23:35:247;03:23:35:127;1448289574.75;(0, 0);0;0;0;0;0;0;0;0;0;0;0;();(-2000.0, -2000.0);
03:23:35:281;03:23:35:263;1448289574.89;(0, 0);0;0;0;0;0;0;0;0;0;0;0;();(-2000.0, -2000.0);
03:23:35:297;03:23:35:263;1448289574.89;(0, 0);0;0;0;0;0;0;0;0;0;0;0;();(-2000.0, -2000.0);
03:23:35:314;03:23:35:263;1448289574.89;(0, 0);0;0;0;0;0;0;0;0;0;0;0;();(-2000.0, -2000.0);
03:23:35:330;03:23:35:263;1448289574.89;(0, 0);0;0;0;0;0;0;0;0;0;0;0;();(-2000.0, -2000.0);
03:23:35:363;03:23:35:263;1448289574.89;(0, 0);0;0;0;0;0;0;0;0;0;0;0;();(-2000.0, -2000.0);
03:23:35:380;03:23:35:263;1448289574.89;(0, 0);0;0;0;0;0;0;0;0;0;0;0;();(-2000.0, -2000.0);
03:23:35:397;03:23:35:263;1448289574.89;(0, 0);0;0;0;0;0;0;0;0;0;0;0;();(-2000.0, -2000.0);
03:23:35:413;03:23:35:396;1448289575.02;(0, 0);0;0;0;0;0;0;0;0;0;0;0;();(-2000.0, -2000.0);
03:23:35:430;03:23:35:396;1448289575.02;(0, 0);0;0;0;0;0;0;0;0;0;0;0;();(-2000.0, -2000.0);
03:23:35:463;03:23:35:396;1448289575.02;(0, 0);0;0;0;0;0;0;0;0;0;0;0;();(-2000.0, -2000.0);
03:23:35:480;03:23:35:396;1448289575.02;(0, 0);0;0;0;0;0;0;0;0;0;0;0;();(-2000.0, -2000.0);
03:23:35:497;03:23:35:396;1448289575.02;(0, 0);0;0;0;0;0;0;0;0;0;0;0;();(-2000.0, -2000.0);
03:23:35:513;03:23:35:396;1448289575.02;(0, 0);0;0;0;0;0;0;0;0;0;0;0;();(-2000.0, -2000.0);
03:23:35:531;03:23:35:396;1448289575.02;(0, 0);0;0;0;0;0;0;0;0;0;0;0;();(-2000.0, -2000.0);
03:23:35:563;03:23:35:528;1448289575.15;(0, 0);0;0;0;0;0;0;0;0;0;0;0;();(-2000.0, -2000.0);
03:23:35:579;03:23:35:528;1448289575.15;(0, 0);0;0;0;0;0;0;0;0;0;0;0;();(-2000.0, -2000.0);
03:23:35:596;03:23:35:528;1448289575.15;(0, 0);0;0;0;0;0;0;0;0;0;0;0;();(-2000.0, -2000.0);
03:23:35:612;03:23:35:528;1448289575.15;(0, 0);0;0;0;0;0;0;0;0;0;0;0;();(-2000.0, -2000.0);
03:23:35:629;03:23:35:528;1448289575.15;(0, 0);0;0;0;0;0;0;0;0;0;0;0;();(-2000.0, -2000.0);
03:23:35:662;03:23:35:528;1448289575.15;(0, 0);0;0;0;0;0;0;0;0;0;0;0;();(-2000.0, -2000.0);
03:23:35:679;03:23:35:661;1448289575.29;(0, 0);0;0;0;0;0;0;0;0;0;0;0;();(-2000.0, -2000.0);
