%Timestamp,timestamp_write;timestamp_gotpupil;eyetrackertime;norm_pos;diameter;confidence;timestamp_gotbitdata;CRC;SEQ;AnalogOutp1;AnalogOutp2;AnalogOutp3;AnalogOutp4;AnalogOutp5;AnalogOutp6;DigitalOutp1;DigitalOutp2;igitalOutp3;DigitalOutp4;nplanes;lastaction;lastactiondetails;lastactionairplanenumber;positivescore;negativescore;collidedairplanenumbers;targetpositions;collision_point
11:53:24:542;1448276964.2;(0.6619302749633789, 0.2460630628797743);19.769235611;0.684977900642;;;;;;;;;;;;;;0;0;0;;0;0;();();(0.0, 0.0);
11:53:24:552;1448276964.2;(0.6619302749633789, 0.2460630628797743);19.769235611;0.684977900642;;;;;;;;;;;;;;0;0;0;;0;0;();();(-2000.0, -2000.0);
11:53:24:555;1448276964.2;(0.6619302749633789, 0.2460630628797743);19.769235611;0.684977900642;;;;;;;;;;;;;;0;0;0;;0;0;();();(-2000.0, -2000.0);
11:53:24:558;1448276964.2;(0.6619302749633789, 0.2460630628797743);19.769235611;0.684977900642;;;;;;;;;;;;;;0;0;0;;0;0;();();(-2000.0, -2000.0);
11:53:24:560;1448276964.2;(0.6619302749633789, 0.2460630628797743);19.769235611;0.684977900642;;;;;;;;;;;;;;0;0;0;;0;0;();();(-2000.0, -2000.0);
11:53:24:562;1448276964.2;(0.6619302749633789, 0.2460630628797743);19.769235611;0.684977900642;;;;;;;;;;;;;;0;0;0;;0;0;();();(-2000.0, -2000.0);
11:53:24:565;1448276964.2;(0.6619302749633789, 0.2460630628797743);19.769235611;0.684977900642;;;;;;;;;;;;;;0;0;0;;0;0;();();(-2000.0, -2000.0);
11:53:24:567;1448276964.2;(0.6619302749633789, 0.2460630628797743);19.769235611;0.684977900642;;;;;;;;;;;;;;0;0;0;;0;0;();();(-2000.0, -2000.0);
11:53:24:569;1448276964.2;(0.6619302749633789, 0.2460630628797743);19.769235611;0.684977900642;;;;;;;;;;;;;;0;0;0;;0;0;();();(-2000.0, -2000.0);
11:53:24:571;1448276964.2;(0.6619302749633789, 0.2460630628797743);19.769235611;0.684977900642;;;;;;;;;;;;;;0;0;0;;0;0;();();(-2000.0, -2000.0);
11:53:24:574;1448276964.2;(0.6619302749633789, 0.2460630628797743);19.769235611;0.684977900642;;;;;;;;;;;;;;0;0;0;;0;0;();();(-2000.0, -2000.0);
11:53:24:576;1448276964.2;(0.6619302749633789, 0.2460630628797743);19.769235611;0.684977900642;;;;;;;;;;;;;;0;0;0;;0;0;();();(-2000.0, -2000.0);
11:53:24:578;1448276964.2;(0.6619302749633789, 0.2460630628797743);19.769235611;0.684977900642;;;;;;;;;;;;;;0;0;0;;0;0;();();(-2000.0, -2000.0);
11:53:24:580;1448276964.2;(0.6619302749633789, 0.2460630628797743);19.769235611;0.684977900642;;;;;;;;;;;;;;0;0;0;;0;0;();();(-2000.0, -2000.0);
11:53:24:583;1448276964.2;(0.6619302749633789, 0.2460630628797743);19.769235611;0.684977900642;;;;;;;;;;;;;;0;0;0;;0;0;();();(-2000.0, -2000.0);
11:53:24:585;1448276964.2;(0.6619302749633789, 0.2460630628797743);19.769235611;0.684977900642;;;;;;;;;;;;;;0;0;0;;0;0;();();(-2000.0, -2000.0);
11:53:24:708;11:53:24:670;1448276964.34;(0, 0);0;0;;;;;;;;;;;;;;0;0;0;;0;0;();();(-2000.0, -2000.0);
11:53:24:710;11:53:24:670;1448276964.34;(0, 0);0;0;;;;;;;;;;;;;;0;0;0;;0;0;();();(-2000.0, -2000.0);
11:53:24:712;11:53:24:670;1448276964.34;(0, 0);0;0;;;;;;;;;;;;;;0;0;0;;0;0;();();(-2000.0, -2000.0);
11:53:24:714;11:53:24:670;1448276964.34;(0, 0);0;0;;;;;;;;;;;;;;0;0;0;;0;0;();();(-2000.0, -2000.0);
11:53:24:716;11:53:24:670;1448276964.34;(0, 0);0;0;;;;;;;;;;;;;;0;0;0;;0;0;();();(-2000.0, -2000.0);
11:53:24:718;11:53:24:670;1448276964.34;(0, 0);0;0;;;;;;;;;;;;;;0;0;0;;0;0;();();(-2000.0, -2000.0);
11:53:24:720;11:53:24:670;1448276964.34;(0, 0);0;0;;;;;;;;;;;;;;0;0;0;;0;0;();();(-2000.0, -2000.0);
11:53:24:721;11:53:24:670;1448276964.34;(0, 0);0;0;;;;;;;;;;;;;;0;0;0;;0;0;();();(-2000.0, -2000.0);
11:53:24:723;11:53:24:670;1448276964.34;(0, 0);0;0;;;;;;;;;;;;;;0;0;0;;0;0;();();(-2000.0, -2000.0);
11:53:30:004;11:53:29:985;1448276969.67;(0.3454946517944336, 0.20689239501953127);20.6808662415;0.626483096472;;;;;;;;;;;;;;2;0;0;;0;0;();();(-2000.0, -2000.0);
11:53:30:011;11:53:29:985;1448276969.67;(0.3454946517944336, 0.20689239501953127);20.6808662415;0.626483096472;;;;;;;;;;;;;;2;0;0;;0;0;();();(-2000.0, -2000.0);
11:53:30:016;11:53:29:985;1448276969.67;(0.3454946517944336, 0.20689239501953127);20.6808662415;0.626483096472;;;;;;;;;;;;;;2;0;0;;0;0;();();(-2000.0, -2000.0);
11:53:30:018;11:53:29:985;1448276969.67;(0.3454946517944336, 0.20689239501953127);20.6808662415;0.626483096472;;;;;;;;;;;;;;2;0;0;;0;0;();();(-2000.0, -2000.0);
11:53:30:019;11:53:29:985;1448276969.67;(0.3454946517944336, 0.20689239501953127);20.6808662415;0.626483096472;;;;;;;;;;;;;;2;0;0;;0;0;();();(-2000.0, -2000.0);
11:53:30:020;11:53:29:985;1448276969.67;(0.3454946517944336, 0.20689239501953127);20.6808662415;0.626483096472;;;;;;;;;;;;;;2;0;0;;0;0;();();(-2000.0, -2000.0);
11:53:30:021;11:53:29:985;1448276969.67;(0.3454946517944336, 0.20689239501953127);20.6808662415;0.626483096472;;;;;;;;;;;;;;2;0;0;;0;0;();();(-2000.0, -2000.0);
11:53:30:022;11:53:29:985;1448276969.67;(0.3454946517944336, 0.20689239501953127);20.6808662415;0.626483096472;;;;;;;;;;;;;;2;0;0;;0;0;();();(-2000.0, -2000.0);
11:53:30:023;11:53:29:985;1448276969.67;(0.3454946517944336, 0.20689239501953127);20.6808662415;0.626483096472;;;;;;;;;;;;;;2;0;0;;0;0;();();(-2000.0, -2000.0);
11:53:30:024;11:53:29:985;1448276969.67;(0.3454946517944336, 0.20689239501953127);20.6808662415;0.626483096472;;;;;;;;;;;;;;2;0;0;;0;0;();();(-2000.0, -2000.0);
11:53:30:025;11:53:29:985;1448276969.67;(0.3454946517944336, 0.20689239501953127);20.6808662415;0.626483096472;;;;;;;;;;;;;;2;0;0;;0;0;();();(-2000.0, -2000.0);
11:53:30:026;11:53:29:985;1448276969.67;(0.3454946517944336, 0.20689239501953127);20.6808662415;0.626483096472;;;;;;;;;;;;;;2;0;0;;0;0;();();(-2000.0, -2000.0);
11:53:30:027;11:53:29:985;1448276969.67;(0.3454946517944336, 0.20689239501953127);20.6808662415;0.626483096472;;;;;;;;;;;;;;2;0;0;;0;0;();();(-2000.0, -2000.0);
11:53:30:029;11:53:29:985;1448276969.67;(0.3454946517944336, 0.20689239501953127);20.6808662415;0.626483096472;;;;;;;;;;;;;;2;0;0;;0;0;();();(-2000.0, -2000.0);
11:53:30:030;11:53:29:985;1448276969.67;(0.3454946517944336, 0.20689239501953127);20.6808662415;0.626483096472;;;;;;;;;;;;;;2;0;0;;0;0;();();(-2000.0, -2000.0);
11:53:30:031;11:53:29:985;1448276969.67;(0.3454946517944336, 0.20689239501953127);20.6808662415;0.626483096472;;;;;;;;;;;;;;2;0;0;;0;0;();();(-2000.0, -2000.0);
11:53:30:055;11:53:30:046;1448276969.74;(0, 0);0;0;;;;;;;;;;;;;;2;0;0;;0;0;();();(-2000.0, -2000.0);
11:53:30:056;11:53:30:046;1448276969.74;(0, 0);0;0;;;;;;;;;;;;;;2;0;0;;0;0;();();(-2000.0, -2000.0);
11:53:30:057;11:53:30:046;1448276969.74;(0, 0);0;0;;;;;;;;;;;;;;2;0;0;;0;0;();();(-2000.0, -2000.0);
11:53:30:058;11:53:30:046;1448276969.74;(0, 0);0;0;;;;;;;;;;;;;;2;0;0;;0;0;();();(-2000.0, -2000.0);
11:53:30:059;11:53:30:046;1448276969.74;(0, 0);0;0;;;;;;;;;;;;;;2;0;0;;0;0;();();(-2000.0, -2000.0);
11:53:30:059;11:53:30:046;1448276969.74;(0, 0);0;0;;;;;;;;;;;;;;2;0;0;;0;0;();();(-2000.0, -2000.0);
11:53:30:060;11:53:30:046;1448276969.74;(0, 0);0;0;;;;;;;;;;;;;;2;0;0;;0;0;();();(-2000.0, -2000.0);
11:53:30:062;11:53:30:046;1448276969.74;(0, 0);0;0;;;;;;;;;;;;;;2;0;0;;0;0;();();(-2000.0, -2000.0);
11:53:30:090;11:53:30:046;1448276969.74;(0, 0);0;0;;;;;;;;;;;;;;2;0;0;;0;0;();();(-2000.0, -2000.0);
11:53:30:107;11:53:30:046;1448276969.74;(0, 0);0;0;;;;;;;;;;;;;;2;0;0;;0;0;();();(-2000.0, -2000.0);
11:53:30:123;11:53:30:114;1448276969.8;(0, 0);0;0;;;;;;;;;;;;;;2;0;0;;0;0;();();(-2000.0, -2000.0);
11:53:30:140;11:53:30:114;1448276969.8;(0, 0);0;0;;;;;;;;;;;;;;2;0;0;;0;0;();();(-2000.0, -2000.0);
11:53:30:158;11:53:30:114;1448276969.8;(0, 0);0;0;;;;;;;;;;;;;;2;0;0;;0;0;();();(-2000.0, -2000.0);
11:53:30:191;11:53:30:186;1448276969.87;(0, 0);0;0;;;;;;;;;;;;;;2;0;0;;0;0;();();(-2000.0, -2000.0);
11:53:30:208;11:53:30:186;1448276969.87;(0, 0);0;0;;;;;;;;;;;;;;2;0;0;;0;0;();();(-2000.0, -2000.0);
11:53:30:223;11:53:30:186;1448276969.87;(0, 0);0;0;;;;;;;;;;;;;;2;0;0;;0;0;();();(-2000.0, -2000.0);
11:53:30:241;11:53:30:186;1448276969.87;(0, 0);0;0;;;;;;;;;;;;;;2;0;0;;0;0;();();(-2000.0, -2000.0);
11:53:30:259;11:53:30:247;1448276969.94;(0, 0);0;0;;;;;;;;;;;;;;2;0;0;;0;0;();();(-2000.0, -2000.0);
11:53:30:291;11:53:30:247;1448276969.94;(0, 0);0;0;;;;;;;;;;;;;;2;0;0;;0;0;();();(-2000.0, -2000.0);
11:53:30:308;11:53:30:247;1448276969.94;(0, 0);0;0;;;;;;;;;;;;;;2;0;0;;0;0;();();(-2000.0, -2000.0);
11:53:30:324;11:53:30:309;1448276970.0;(0, 0);0;0;;;;;;;;;;;;;;2;0;0;;0;0;();();(-2000.0, -2000.0);
11:53:30:341;11:53:30:309;1448276970.0;(0, 0);0;0;;;;;;;;;;;;;;2;0;0;;0;0;();();(-2000.0, -2000.0);
11:53:30:358;11:53:30:309;1448276970.0;(0, 0);0;0;;;;;;;;;;;;;;2;0;0;;0;0;();();(-2000.0, -2000.0);
11:53:30:391;11:53:30:378;1448276970.07;(0.34654171466827394, 0.20854873657226558);25.2986717224;0.642188503554;;;;;;;;;;;;;;2;0;0;;0;0;();();(-2000.0, -2000.0);
11:53:30:407;11:53:30:378;1448276970.07;(0.34654171466827394, 0.20854873657226558);25.2986717224;0.642188503554;;;;;;;;;;;;;;2;0;0;;0;0;();();(-2000.0, -2000.0);
11:53:30:424;11:53:30:378;1448276970.07;(0.34654171466827394, 0.20854873657226558);25.2986717224;0.642188503554;;;;;;;;;;;;;;2;0;0;;0;0;();();(-2000.0, -2000.0);
11:53:30:440;11:53:30:378;1448276970.07;(0.34654171466827394, 0.20854873657226558);25.2986717224;0.642188503554;;;;;;;;;;;;;;2;0;0;;0;0;();();(-2000.0, -2000.0);
11:53:30:458;11:53:30:445;1448276970.14;(0, 0);0;0;;;;;;;;;;;;;;2;0;0;;0;0;();();(-2000.0, -2000.0);
11:53:30:491;11:53:30:445;1448276970.14;(0, 0);0;0;;;;;;;;;;;;;;2;0;0;;0;0;();();(-2000.0, -2000.0);
11:53:30:506;11:53:30:445;1448276970.14;(0, 0);0;0;;;;;;;;;;;;;;2;0;0;;0;0;();();(-2000.0, -2000.0);
11:53:30:524;11:53:30:509;1448276970.2;(0, 0);0;0;;;;;;;;;;;;;;2;0;0;;0;0;();();(-2000.0, -2000.0);
11:53:30:541;11:53:30:509;1448276970.2;(0, 0);0;0;;;;;;;;;;;;;;2;0;0;;0;0;();();(-2000.0, -2000.0);
11:53:30:574;11:53:30:509;1448276970.2;(0, 0);0;0;;;;;;;;;;;;;;2;0;0;;0;0;();();(-2000.0, -2000.0);
11:53:30:591;11:53:30:577;1448276970.27;(0.3534547805786133, 0.20921232435438364);29.2718067169;0.646622832167;;;;;;;;;;;;;;2;0;0;;0;0;();();(-2000.0, -2000.0);
11:53:30:607;11:53:30:577;1448276970.27;(0.3534547805786133, 0.20921232435438364);29.2718067169;0.646622832167;;;;;;;;;;;;;;2;0;0;;0;0;();();(-2000.0, -2000.0);
11:53:30:624;11:53:30:577;1448276970.27;(0.3534547805786133, 0.20921232435438364);29.2718067169;0.646622832167;;;;;;;;;;;;;;2;0;0;;0;0;();();(-2000.0, -2000.0);
11:53:30:641;11:53:30:577;1448276970.27;(0.3534547805786133, 0.20921232435438364);29.2718067169;0.646622832167;;;;;;;;;;;;;;2;0;0;;0;0;();();(-2000.0, -2000.0);
11:53:30:658;11:53:30:655;1448276970.34;(0.34554076194763184, 0.2079210069444445);24.2283477783;0.658196783409;;;;;;;;;;;;;;2;0;0;;0;0;();();(-2000.0, -2000.0);
11:53:30:691;11:53:30:655;1448276970.34;(0.34554076194763184, 0.2079210069444445);24.2283477783;0.658196783409;;;;;;;;;;;;;;2;0;0;;0;0;();();(-2000.0, -2000.0);
11:53:30:708;11:53:30:655;1448276970.34;(0.34554076194763184, 0.2079210069444445);24.2283477783;0.658196783409;;;;;;;;;;;;;;2;0;0;;0;0;();();(-2000.0, -2000.0);
11:53:30:724;11:53:30:710;1448276970.4;(0, 0);0;0;;;;;;;;;;;;;;2;0;0;;0;0;();();(-2000.0, -2000.0);
11:53:30:741;11:53:30:710;1448276970.4;(0, 0);0;0;;;;;;;;;;;;;;2;0;0;;0;0;();();(-2000.0, -2000.0);
11:53:30:758;11:53:30:710;1448276970.4;(0, 0);0;0;;;;;;;;;;;;;;2;0;0;;0;0;();();(-2000.0, -2000.0);
11:53:30:791;11:53:30:778;1448276970.47;(0.6381898880004883, 0.2033214992947049);35.8659248352;0.654703917427;;;;;;;;;;;;;;2;0;0;;0;0;();();(-2000.0, -2000.0);
11:53:30:807;11:53:30:778;1448276970.47;(0.6381898880004883, 0.2033214992947049);35.8659248352;0.654703917427;;;;;;;;;;;;;;2;0;0;;0;0;();();(-2000.0, -2000.0);
11:53:30:823;11:53:30:778;1448276970.47;(0.6381898880004883, 0.2033214992947049);35.8659248352;0.654703917427;;;;;;;;;;;;;;2;0;0;;0;0;();();(-2000.0, -2000.0);
11:53:30:841;11:53:30:778;1448276970.47;(0.6381898880004883, 0.2033214992947049);35.8659248352;0.654703917427;;;;;;;;;;;;;;2;0;0;;0;0;();();(-2000.0, -2000.0);
11:53:30:857;11:53:30:843;1448276970.54;(0, 0);0;0;;;;;;;;;;;;;;2;0;0;;0;0;();();(-2000.0, -2000.0);
11:53:30:891;11:53:30:843;1448276970.54;(0, 0);0;0;;;;;;;;;;;;;;2;0;0;;0;0;();();(-2000.0, -2000.0);
11:53:30:907;11:53:30:843;1448276970.54;(0, 0);0;0;;;;;;;;;;;;;;2;0;0;;0;0;();();(-2000.0, -2000.0);
11:53:30:924;11:53:30:909;1448276970.6;(0, 0);0;0;;;;;;;;;;;;;;2;0;0;;0;0;();();(-2000.0, -2000.0);
11:53:30:941;11:53:30:909;1448276970.6;(0, 0);0;0;;;;;;;;;;;;;;2;0;0;;0;0;();();(-2000.0, -2000.0);
11:53:30:958;11:53:30:909;1448276970.6;(0, 0);0;0;;;;;;;;;;;;;;2;0;0;;0;0;();();(-2000.0, -2000.0);
11:53:30:991;11:53:30:973;1448276970.67;(0, 0);0;0;;;;;;;;;;;;;;2;0;0;;0;0;();();(-2000.0, -2000.0);
11:53:31:008;11:53:30:973;1448276970.67;(0, 0);0;0;;;;;;;;;;;;;;2;0;0;;0;0;();();(-2000.0, -2000.0);
11:53:31:025;11:53:30:973;1448276970.67;(0, 0);0;0;;;;;;;;;;;;;;2;0;0;;0;0;();();(-2000.0, -2000.0);
11:53:31:041;11:53:30:973;1448276970.67;(0, 0);0;0;;;;;;;;;;;;;;2;0;0;;0;0;();();(-2000.0, -2000.0);
11:53:31:058;11:53:31:041;1448276970.74;(0, 0);0;0;;;;;;;;;;;;;;2;0;0;;0;0;();();(-2000.0, -2000.0);
11:53:31:093;11:53:31:041;1448276970.74;(0, 0);0;0;;;;;;;;;;;;;;2;0;0;;0;0;();();(-2000.0, -2000.0);
11:53:31:108;11:53:31:107;1448276970.8;(0.8814681053161622, 0.262266116672092);28.9706115723;0.608232229465;;;;;;;;;;;;;;2;0;0;;0;0;();();(-2000.0, -2000.0);
11:53:31:124;11:53:31:107;1448276970.8;(0.8814681053161622, 0.262266116672092);28.9706115723;0.608232229465;;;;;;;;;;;;;;2;0;0;;0;0;();();(-2000.0, -2000.0);
11:53:31:141;11:53:31:107;1448276970.8;(0.8814681053161622, 0.262266116672092);28.9706115723;0.608232229465;;;;;;;;;;;;;;2;0;0;;0;0;();();(-2000.0, -2000.0);
11:53:31:159;11:53:31:107;1448276970.8;(0.8814681053161622, 0.262266116672092);28.9706115723;0.608232229465;;;;;;;;;;;;;;2;0;0;;0;0;();();(-2000.0, -2000.0);
11:53:31:192;11:53:31:174;1448276970.87;(0, 0);0;0;;;;;;;;;;;;;;2;0;0;;0;0;();();(-2000.0, -2000.0);
11:53:31:208;11:53:31:174;1448276970.87;(0, 0);0;0;;;;;;;;;;;;;;2;0;0;;0;0;();();(-2000.0, -2000.0);
11:53:31:224;11:53:31:174;1448276970.87;(0, 0);0;0;;;;;;;;;;;;;;2;0;0;;0;0;();();(-2000.0, -2000.0);
11:53:31:241;11:53:31:174;1448276970.87;(0, 0);0;0;;;;;;;;;;;;;;2;0;0;;0;0;();();(-2000.0, -2000.0);
11:53:31:258;11:53:31:242;1448276970.94;(0, 0);0;0;;;;;;;;;;;;;;2;0;0;;0;0;();();(-2000.0, -2000.0);
11:53:31:292;11:53:31:242;1448276970.94;(0, 0);0;0;;;;;;;;;;;;;;2;0;0;;0;0;();();(-2000.0, -2000.0);
11:53:31:309;11:53:31:306;1448276971.0;(0, 0);0;0;;;;;;;;;;;;;;2;0;0;;0;0;();();(-2000.0, -2000.0);
11:53:31:324;11:53:31:306;1448276971.0;(0, 0);0;0;;;;;;;;;;;;;;2;0;0;;0;0;();();(-2000.0, -2000.0);
11:53:31:342;11:53:31:306;1448276971.0;(0, 0);0;0;;;;;;;;;;;;;;2;0;0;;0;0;();();(-2000.0, -2000.0);
11:53:31:358;11:53:31:306;1448276971.0;(0, 0);0;0;;;;;;;;;;;;;;2;0;0;;0;0;();();(-2000.0, -2000.0);
11:53:31:392;11:53:31:373;1448276971.07;(0, 0);0;0;;;;;;;;;;;;;;2;0;0;;0;0;();();(-2000.0, -2000.0);
11:53:31:408;11:53:31:373;1448276971.07;(0, 0);0;0;;;;;;;;;;;;;;2;0;0;;0;0;();();(-2000.0, -2000.0);
11:53:31:424;11:53:31:373;1448276971.07;(0, 0);0;0;;;;;;;;;;;;;;2;0;0;;0;0;();();(-2000.0, -2000.0);
11:53:31:442;11:53:31:438;1448276971.14;(0, 0);0;0;;;;;;;;;;;;;;2;0;0;;0;0;();();(-2000.0, -2000.0);
11:53:31:458;11:53:31:438;1448276971.14;(0, 0);0;0;;;;;;;;;;;;;;2;0;0;;0;0;();();(-2000.0, -2000.0);
11:53:31:490;11:53:31:438;1448276971.14;(0, 0);0;0;;;;;;;;;;;;;;2;0;0;;0;0;();();(-2000.0, -2000.0);
11:53:31:509;11:53:31:506;1448276971.2;(0, 0);0;0;;;;;;;;;;;;;;2;0;0;;0;0;();();(-2000.0, -2000.0);
11:53:31:525;11:53:31:506;1448276971.2;(0, 0);0;0;;;;;;;;;;;;;;2;0;0;;0;0;();();(-2000.0, -2000.0);
11:53:31:542;11:53:31:506;1448276971.2;(0, 0);0;0;;;;;;;;;;;;;;2;0;0;;0;0;();();(-2000.0, -2000.0);
11:53:31:558;11:53:31:506;1448276971.2;(0, 0);0;0;;;;;;;;;;;;;;2;0;0;;0;0;();();(-2000.0, -2000.0);
11:53:31:591;11:53:31:574;1448276971.27;(0, 0);0;0;;;;;;;;;;;;;;2;0;0;;0;0;();();(-2000.0, -2000.0);
11:53:31:608;11:53:31:574;1448276971.27;(0, 0);0;0;;;;;;;;;;;;;;2;0;0;;0;0;();();(-2000.0, -2000.0);
11:53:31:625;11:53:31:574;1448276971.27;(0, 0);0;0;;;;;;;;;;;;;;2;0;0;;0;0;();();(-2000.0, -2000.0);
11:53:31:642;11:53:31:638;1448276971.34;(0, 0);0;0;;;;;;;;;;;;;;2;0;0;;0;0;();();(-2000.0, -2000.0);
11:53:31:659;11:53:31:638;1448276971.34;(0, 0);0;0;;;;;;;;;;;;;;2;0;0;;0;0;();();(-2000.0, -2000.0);
11:53:31:692;11:53:31:638;1448276971.34;(0, 0);0;0;;;;;;;;;;;;;;2;0;0;;0;0;();();(-2000.0, -2000.0);
11:53:31:708;11:53:31:706;1448276971.4;(0, 0);0;0;;;;;;;;;;;;;;2;0;0;;0;0;();();(-2000.0, -2000.0);
11:53:31:725;11:53:31:706;1448276971.4;(0, 0);0;0;;;;;;;;;;;;;;2;0;0;;0;0;();();(-2000.0, -2000.0);
11:53:31:742;11:53:31:706;1448276971.4;(0, 0);0;0;;;;;;;;;;;;;;2;0;0;;0;0;();();(-2000.0, -2000.0);
11:53:31:758;11:53:31:706;1448276971.4;(0, 0);0;0;;;;;;;;;;;;;;2;0;0;;0;0;();();(-2000.0, -2000.0);
11:53:31:791;11:53:31:770;1448276971.47;(0, 0);0;0;;;;;;;;;;;;;;2;0;0;;0;0;();();(-2000.0, -2000.0);
11:53:31:808;11:53:31:770;1448276971.47;(0, 0);0;0;;;;;;;;;;;;;;2;0;0;;0;0;();();(-2000.0, -2000.0);
11:53:31:825;11:53:31:770;1448276971.47;(0, 0);0;0;;;;;;;;;;;;;;2;0;0;;0;0;();();(-2000.0, -2000.0);
11:53:31:842;11:53:31:837;1448276971.54;(0, 0);0;0;;;;;;;;;;;;;;2;0;0;;0;0;();();(-2000.0, -2000.0);
11:53:31:859;11:53:31:837;1448276971.54;(0, 0);0;0;;;;;;;;;;;;;;2;0;0;;0;0;();();(-2000.0, -2000.0);
11:53:31:892;11:53:31:837;1448276971.54;(0, 0);0;0;;;;;;;;;;;;;;2;0;0;;0;0;();();(-2000.0, -2000.0);
11:53:31:908;11:53:31:906;1448276971.6;(0, 0);0;0;;;;;;;;;;;;;;2;0;0;;0;0;();();(-2000.0, -2000.0);
11:53:31:925;11:53:31:906;1448276971.6;(0, 0);0;0;;;;;;;;;;;;;;2;0;0;;0;0;();();(-2000.0, -2000.0);
11:53:31:942;11:53:31:906;1448276971.6;(0, 0);0;0;;;;;;;;;;;;;;2;0;0;;0;0;();();(-2000.0, -2000.0);
11:53:31:958;11:53:31:906;1448276971.6;(0, 0);0;0;;;;;;;;;;;;;;2;0;0;;0;0;();();(-2000.0, -2000.0);
11:53:31:992;11:53:31:976;1448276971.67;(0.3405158281326294, 0.21150097317165795);19.9189586639;0.718581696308;;;;;;;;;;;;;;2;0;0;;0;0;();();(-2000.0, -2000.0);
11:53:32:008;11:53:31:976;1448276971.67;(0.3405158281326294, 0.21150097317165795);19.9189586639;0.718581696308;;;;;;;;;;;;;;2;0;0;;0;0;();();(-2000.0, -2000.0);
11:53:32:025;11:53:31:976;1448276971.67;(0.3405158281326294, 0.21150097317165795);19.9189586639;0.718581696308;;;;;;;;;;;;;;2;0;0;;0;0;();();(-2000.0, -2000.0);
11:53:32:042;11:53:32:041;1448276971.74;(0.5490433692932128, 0.27179319593641493);22.9109477997;0.634243676674;;;;;;;;;;;;;;2;0;0;;0;0;();();(-2000.0, -2000.0);
11:53:32:058;11:53:32:041;1448276971.74;(0.5490433692932128, 0.27179319593641493);22.9109477997;0.634243676674;;;;;;;;;;;;;;2;0;0;;0;0;();();(-2000.0, -2000.0);
11:53:32:092;11:53:32:041;1448276971.74;(0.5490433692932128, 0.27179319593641493);22.9109477997;0.634243676674;;;;;;;;;;;;;;2;0;0;;0;0;();();(-2000.0, -2000.0);
11:53:32:108;11:53:32:102;1448276971.8;(0, 0);0;0;;;;;;;;;;;;;;2;0;0;;0;0;();();(-2000.0, -2000.0);
11:53:32:125;11:53:32:102;1448276971.8;(0, 0);0;0;;;;;;;;;;;;;;2;0;0;;0;0;();();(-2000.0, -2000.0);
11:53:32:141;11:53:32:102;1448276971.8;(0, 0);0;0;;;;;;;;;;;;;;2;0;0;;0;0;();();(-2000.0, -2000.0);
11:53:32:158;11:53:32:102;1448276971.8;(0, 0);0;0;;;;;;;;;;;;;;2;0;0;;0;0;();();(-2000.0, -2000.0);
11:53:32:192;11:53:32:170;1448276971.87;(0, 0);0;0;;;;;;;;;;;;;;2;0;0;;0;0;();();(-2000.0, -2000.0);
11:53:32:208;11:53:32:170;1448276971.87;(0, 0);0;0;;;;;;;;;;;;;;2;0;0;;0;0;();();(-2000.0, -2000.0);
11:53:32:226;11:53:32:170;1448276971.87;(0, 0);0;0;;;;;;;;;;;;;;2;0;0;;0;0;();();(-2000.0, -2000.0);
11:53:32:243;11:53:32:238;1448276971.94;(0, 0);0;0;;;;;;;;;;;;;;2;0;0;;0;0;();();(-2000.0, -2000.0);
11:53:32:259;11:53:32:238;1448276971.94;(0, 0);0;0;;;;;;;;;;;;;;2;0;0;;0;0;();();(-2000.0, -2000.0);
11:53:32:292;11:53:32:238;1448276971.94;(0, 0);0;0;;;;;;;;;;;;;;2;0;0;;0;0;();();(-2000.0, -2000.0);
11:53:32:309;11:53:32:301;1448276972.0;(0, 0);0;0;;;;;;;;;;;;;;2;0;0;;0;0;();();(-2000.0, -2000.0);
11:53:32:325;11:53:32:301;1448276972.0;(0, 0);0;0;;;;;;;;;;;;;;2;0;0;;0;0;();();(-2000.0, -2000.0);
11:53:32:343;11:53:32:301;1448276972.0;(0, 0);0;0;;;;;;;;;;;;;;2;0;0;;0;0;();();(-2000.0, -2000.0);
11:53:32:359;11:53:32:301;1448276972.0;(0, 0);0;0;;;;;;;;;;;;;;2;0;0;;0;0;();();(-2000.0, -2000.0);
11:53:32:392;11:53:32:373;1448276972.07;(0, 0);0;0;;;;;;;;;;;;;;2;0;0;;0;0;();();(-2000.0, -2000.0);
11:53:32:410;11:53:32:373;1448276972.07;(0, 0);0;0;;;;;;;;;;;;;;2;0;0;;0;0;();();(-2000.0, -2000.0);
11:53:32:426;11:53:32:373;1448276972.07;(0, 0);0;0;;;;;;;;;;;;;;2;0;0;;0;0;();();(-2000.0, -2000.0);
11:53:32:443;11:53:32:373;1448276972.07;(0, 0);0;0;;;;;;;;;;;;;;2;0;0;;0;0;();();(-2000.0, -2000.0);
11:53:32:459;11:53:32:446;1448276972.14;(0, 0);0;0;;;;;;;;;;;;;;2;0;0;;0;0;();();(-2000.0, -2000.0);
11:53:32:491;11:53:32:446;1448276972.14;(0, 0);0;0;;;;;;;;;;;;;;2;0;0;;0;0;();();(-2000.0, -2000.0);
11:53:32:509;11:53:32:502;1448276972.2;(0, 0);0;0;;;;;;;;;;;;;;2;0;0;;0;0;();();(-2000.0, -2000.0);
11:53:32:526;11:53:32:502;1448276972.2;(0, 0);0;0;;;;;;;;;;;;;;2;0;0;;0;0;();();(-2000.0, -2000.0);
11:53:32:543;11:53:32:502;1448276972.2;(0, 0);0;0;;;;;;;;;;;;;;2;0;0;;0;0;();();(-2000.0, -2000.0);
11:53:32:559;11:53:32:502;1448276972.2;(0, 0);0;0;;;;;;;;;;;;;;2;0;0;;0;0;();();(-2000.0, -2000.0);
11:53:32:593;11:53:32:578;1448276972.27;(0, 0);0;0;;;;;;;;;;;;;;2;0;0;;0;0;();();(-2000.0, -2000.0);
11:53:32:609;11:53:32:578;1448276972.27;(0, 0);0;0;;;;;;;;;;;;;;2;0;0;;0;0;();();(-2000.0, -2000.0);
11:53:32:626;11:53:32:578;1448276972.27;(0, 0);0;0;;;;;;;;;;;;;;2;0;0;;0;0;();();(-2000.0, -2000.0);
11:53:32:642;11:53:32:578;1448276972.27;(0, 0);0;0;;;;;;;;;;;;;;2;0;0;;0;0;();();(-2000.0, -2000.0);
11:53:32:659;11:53:32:578;1448276972.27;(0, 0);0;0;;;;;;;;;;;;;;2;0;0;;0;0;();();(-2000.0, -2000.0);
11:53:32:692;11:53:32:578;1448276972.27;(0, 0);0;0;;;;;;;;;;;;;;2;0;0;;0;0;();();(-2000.0, -2000.0);
11:53:32:709;11:53:32:578;1448276972.27;(0, 0);0;0;;;;;;;;;;;;;;2;0;0;;0;0;();();(-2000.0, -2000.0);
11:53:32:726;11:53:32:711;1448276972.4;(0, 0);0;0;;;;;;;;;;;;;;2;0;0;;0;0;();();(-2000.0, -2000.0);
11:53:32:743;11:53:32:711;1448276972.4;(0, 0);0;0;;;;;;;;;;;;;;2;0;0;;0;0;();();(-2000.0, -2000.0);
11:53:32:760;11:53:32:711;1448276972.4;(0, 0);0;0;;;;;;;;;;;;;;2;0;0;;0;0;();();(-2000.0, -2000.0);
11:53:32:792;11:53:32:766;1448276972.47;(0, 0);0;0;;;;;;;;;;;;;;2;0;0;;0;0;();();(-2000.0, -2000.0);
11:53:32:809;11:53:32:766;1448276972.47;(0, 0);0;0;;;;;;;;;;;;;;2;0;0;;0;0;();();(-2000.0, -2000.0);
11:53:32:825;11:53:32:766;1448276972.47;(0, 0);0;0;;;;;;;;;;;;;;2;0;0;;0;0;();();(-2000.0, -2000.0);
11:53:32:843;11:53:32:833;1448276972.54;(0, 0);0;0;;;;;;;;;;;;;;2;0;0;;0;0;();();(-2000.0, -2000.0);
11:53:32:860;11:53:32:833;1448276972.54;(0, 0);0;0;;;;;;;;;;;;;;2;0;0;;0;0;();();(-2000.0, -2000.0);
11:53:32:893;11:53:32:833;1448276972.54;(0, 0);0;0;;;;;;;;;;;;;;2;0;0;;0;0;();();(-2000.0, -2000.0);
11:53:32:910;11:53:32:902;1448276972.6;(0, 0);0;0;;;;;;;;;;;;;;2;0;0;;0;0;();();(-2000.0, -2000.0);
11:53:32:926;11:53:32:902;1448276972.6;(0, 0);0;0;;;;;;;;;;;;;;2;0;0;;0;0;();();(-2000.0, -2000.0);
11:53:32:943;11:53:32:902;1448276972.6;(0, 0);0;0;;;;;;;;;;;;;;2;0;0;;0;0;();();(-2000.0, -2000.0);
11:53:32:959;11:53:32:902;1448276972.6;(0, 0);0;0;;;;;;;;;;;;;;2;0;0;;0;0;();();(-2000.0, -2000.0);
11:53:32:992;11:53:32:902;1448276972.6;(0, 0);0;0;;;;;;;;;;;;;;2;0;0;;0;0;();();(-2000.0, -2000.0);
11:53:33:009;11:53:32:902;1448276972.6;(0, 0);0;0;;;;;;;;;;;;;;2;0;0;;0;0;();();(-2000.0, -2000.0);
11:53:33:026;11:53:32:902;1448276972.6;(0, 0);0;0;;;;;;;;;;;;;;2;0;0;;0;0;();();(-2000.0, -2000.0);
11:53:33:043;11:53:33:034;1448276972.74;(0.6313094615936279, 0.1950838724772136);34.383140564;0.622829827341;;;;;;;;;;;;;;2;0;0;;0;0;();();(-2000.0, -2000.0);
11:53:33:059;11:53:33:034;1448276972.74;(0.6313094615936279, 0.1950838724772136);34.383140564;0.622829827341;;;;;;;;;;;;;;2;0;0;;0;0;();();(-2000.0, -2000.0);
11:53:33:091;11:53:33:034;1448276972.74;(0.6313094615936279, 0.1950838724772136);34.383140564;0.622829827341;;;;;;;;;;;;;;2;0;0;;0;0;();();(-2000.0, -2000.0);
11:53:33:109;11:53:33:034;1448276972.74;(0.6313094615936279, 0.1950838724772136);34.383140564;0.622829827341;;;;;;;;;;;;;;2;0;0;;0;0;();();(-2000.0, -2000.0);
11:53:33:126;11:53:33:034;1448276972.74;(0.6313094615936279, 0.1950838724772136);34.383140564;0.622829827341;;;;;;;;;;;;;;2;0;0;;0;0;();();(-2000.0, -2000.0);
11:53:33:143;11:53:33:034;1448276972.74;(0.6313094615936279, 0.1950838724772136);34.383140564;0.622829827341;;;;;;;;;;;;;;2;0;0;;0;0;();();(-2000.0, -2000.0);
11:53:33:159;11:53:33:034;1448276972.74;(0.6313094615936279, 0.1950838724772136);34.383140564;0.622829827341;;;;;;;;;;;;;;2;0;0;;0;0;();();(-2000.0, -2000.0);
11:53:33:193;11:53:33:168;1448276972.8;(0, 0);0;0;;;;;;;;;;;;;;2;0;0;;0;0;();();(-2000.0, -2000.0);
11:53:33:210;11:53:33:168;1448276972.8;(0, 0);0;0;;;;;;;;;;;;;;2;0;0;;0;0;();();(-2000.0, -2000.0);
11:53:33:227;11:53:33:168;1448276972.8;(0, 0);0;0;;;;;;;;;;;;;;2;0;0;;0;0;();();(-2000.0, -2000.0);
11:53:33:243;11:53:33:234;1448276972.94;(0, 0);0;0;;;;;;;;;;;;;;2;0;0;;0;0;();();(-2000.0, -2000.0);
11:53:33:260;11:53:33:234;1448276972.94;(0, 0);0;0;;;;;;;;;;;;;;2;0;0;;0;0;();();(-2000.0, -2000.0);
11:53:33:293;11:53:33:234;1448276972.94;(0, 0);0;0;;;;;;;;;;;;;;2;0;0;;0;0;();();(-2000.0, -2000.0);
11:53:33:310;11:53:33:298;1448276973.0;(0, 0);0;0;;;;;;;;;;;;;;2;0;0;;0;0;();();(-2000.0, -2000.0);
11:53:33:326;11:53:33:298;1448276973.0;(0, 0);0;0;;;;;;;;;;;;;;2;0;0;;0;0;();();(-2000.0, -2000.0);
11:53:33:343;11:53:33:298;1448276973.0;(0, 0);0;0;;;;;;;;;;;;;;2;0;0;;0;0;();();(-2000.0, -2000.0);
11:53:33:359;11:53:33:298;1448276973.0;(0, 0);0;0;;;;;;;;;;;;;;2;0;0;;0;0;();();(-2000.0, -2000.0);
11:53:33:394;11:53:33:298;1448276973.0;(0, 0);0;0;;;;;;;;;;;;;;2;0;0;;0;0;();();(-2000.0, -2000.0);
11:53:33:410;11:53:33:298;1448276973.0;(0, 0);0;0;;;;;;;;;;;;;;2;0;0;;0;0;();();(-2000.0, -2000.0);
11:53:33:428;11:53:33:298;1448276973.0;(0, 0);0;0;;;;;;;;;;;;;;2;0;0;;0;0;();();(-2000.0, -2000.0);
11:53:33:444;11:53:33:432;1448276973.14;(0, 0);0;0;;;;;;;;;;;;;;2;0;0;;0;0;();();(-2000.0, -2000.0);
11:53:33:460;11:53:33:432;1448276973.14;(0, 0);0;0;;;;;;;;;;;;;;2;0;0;;0;0;();();(-2000.0, -2000.0);
11:53:33:492;11:53:33:432;1448276973.14;(0, 0);0;0;;;;;;;;;;;;;;2;0;0;;0;0;();();(-2000.0, -2000.0);
11:53:33:510;11:53:33:432;1448276973.14;(0, 0);0;0;;;;;;;;;;;;;;2;0;0;;0;0;();();(-2000.0, -2000.0);
11:53:33:527;11:53:33:432;1448276973.14;(0, 0);0;0;;;;;;;;;;;;;;2;0;0;;0;0;();();(-2000.0, -2000.0);
11:53:33:544;11:53:33:432;1448276973.14;(0, 0);0;0;;;;;;;;;;;;;;2;0;0;;0;0;();();(-2000.0, -2000.0);
11:53:33:560;11:53:33:432;1448276973.14;(0, 0);0;0;;;;;;;;;;;;;;2;0;0;;0;0;();();(-2000.0, -2000.0);
11:53:33:593;11:53:33:566;1448276973.27;(0, 0);0;0;;;;;;;;;;;;;;2;0;0;;0;0;();();(-2000.0, -2000.0);
11:53:33:610;11:53:33:566;1448276973.27;(0, 0);0;0;;;;;;;;;;;;;;2;0;0;;0;0;();();(-2000.0, -2000.0);
11:53:33:626;11:53:33:566;1448276973.27;(0, 0);0;0;;;;;;;;;;;;;;2;0;0;;0;0;();();(-2000.0, -2000.0);
11:53:33:643;11:53:33:566;1448276973.27;(0, 0);0;0;;;;;;;;;;;;;;2;0;0;;0;0;();();(-2000.0, -2000.0);
11:53:33:660;11:53:33:566;1448276973.27;(0, 0);0;0;;;;;;;;;;;;;;2;0;0;;0;0;();();(-2000.0, -2000.0);
11:53:33:693;11:53:33:566;1448276973.27;(0, 0);0;0;;;;;;;;;;;;;;2;0;0;;0;0;();();(-2000.0, -2000.0);
11:53:33:710;11:53:33:700;1448276973.4;(0, 0);0;0;;;;;;;;;;;;;;2;0;0;;0;0;();();(-2000.0, -2000.0);
11:53:33:727;11:53:33:700;1448276973.4;(0, 0);0;0;;;;;;;;;;;;;;2;0;0;;0;0;();();(-2000.0, -2000.0);
11:53:33:743;11:53:33:700;1448276973.4;(0, 0);0;0;;;;;;;;;;;;;;2;0;0;;0;0;();();(-2000.0, -2000.0);
11:53:33:760;11:53:33:700;1448276973.4;(0, 0);0;0;;;;;;;;;;;;;;2;0;0;;0;0;();();(-2000.0, -2000.0);
11:53:33:792;11:53:33:700;1448276973.4;(0, 0);0;0;;;;;;;;;;;;;;2;0;0;;0;0;();();(-2000.0, -2000.0);
11:53:33:810;11:53:33:700;1448276973.4;(0, 0);0;0;;;;;;;;;;;;;;2;0;0;;0;0;();();(-2000.0, -2000.0);
11:53:33:825;11:53:33:700;1448276973.4;(0, 0);0;0;;;;;;;;;;;;;;2;0;0;;0;0;();();(-2000.0, -2000.0);
11:53:33:843;11:53:33:829;1448276973.47;(0, 0);0;0;;;;;;;;;;;;;;2;0;0;;0;0;();();(-2000.0, -2000.0);
11:53:33:860;11:53:33:829;1448276973.47;(0, 0);0;0;;;;;;;;;;;;;;2;0;0;;0;0;();();(-2000.0, -2000.0);
11:53:33:893;11:53:33:829;1448276973.47;(0, 0);0;0;;;;;;;;;;;;;;2;0;0;;0;0;();();(-2000.0, -2000.0);
11:53:33:910;11:53:33:893;1448276973.54;(0, 0);0;0;;;;;;;;;;;;;;2;0;0;;0;0;();();(-2000.0, -2000.0);
11:53:33:927;11:53:33:893;1448276973.54;(0, 0);0;0;;;;;;;;;;;;;;2;0;0;;0;0;();();(-2000.0, -2000.0);
11:53:33:944;11:53:33:893;1448276973.54;(0, 0);0;0;;;;;;;;;;;;;;2;0;0;;0;0;();();(-2000.0, -2000.0);
11:53:33:960;11:53:33:893;1448276973.54;(0, 0);0;0;;;;;;;;;;;;;;2;0;0;;0;0;();();(-2000.0, -2000.0);
11:53:33:993;11:53:33:971;1448276973.67;(0, 0);0;0;;;;;;;;;;;;;;2;0;0;;0;0;();();(-2000.0, -2000.0);
11:53:34:010;11:53:33:971;1448276973.67;(0, 0);0;0;;;;;;;;;;;;;;2;0;0;;0;0;();();(-2000.0, -2000.0);
11:53:34:027;11:53:33:971;1448276973.67;(0, 0);0;0;;;;;;;;;;;;;;2;0;0;;0;0;();();(-2000.0, -2000.0);
11:53:34:044;11:53:33:971;1448276973.67;(0, 0);0;0;;;;;;;;;;;;;;2;0;0;;0;0;();();(-2000.0, -2000.0);
11:53:34:061;11:53:33:971;1448276973.67;(0, 0);0;0;;;;;;;;;;;;;;2;0;0;;0;0;();();(-2000.0, -2000.0);
11:53:34:094;11:53:34:093;1448276973.74;(0.3148807048797607, 0.3544638315836589);33.0629768372;0.617170581085;;;;;;;;;;;;;;2;0;0;;0;0;();();(-2000.0, -2000.0);
11:53:34:111;11:53:34:093;1448276973.74;(0.3148807048797607, 0.3544638315836589);33.0629768372;0.617170581085;;;;;;;;;;;;;;2;0;0;;0;0;();();(-2000.0, -2000.0);
11:53:34:128;11:53:34:093;1448276973.74;(0.3148807048797607, 0.3544638315836589);33.0629768372;0.617170581085;;;;;;;;;;;;;;2;0;0;;0;0;();();(-2000.0, -2000.0);
11:53:34:144;11:53:34:093;1448276973.74;(0.3148807048797607, 0.3544638315836589);33.0629768372;0.617170581085;;;;;;;;;;;;;;2;0;0;;0;0;();();(-2000.0, -2000.0);
11:53:34:161;11:53:34:093;1448276973.74;(0.3148807048797607, 0.3544638315836589);33.0629768372;0.617170581085;;;;;;;;;;;;;;2;0;0;;0;0;();();(-2000.0, -2000.0);
11:53:34:178;11:53:34:164;1448276973.87;(0, 0);0;0;;;;;;;;;;;;;;2;0;0;;0;0;();();(-2000.0, -2000.0);
11:53:34:211;11:53:34:164;1448276973.87;(0, 0);0;0;;;;;;;;;;;;;;2;0;0;;0;0;();();(-2000.0, -2000.0);
11:53:34:227;11:53:34:164;1448276973.87;(0, 0);0;0;;;;;;;;;;;;;;2;0;0;;0;0;();();(-2000.0, -2000.0);
11:53:34:244;11:53:34:164;1448276973.87;(0, 0);0;0;;;;;;;;;;;;;;2;0;0;;0;0;();();(-2000.0, -2000.0);
11:53:34:261;11:53:34:164;1448276973.87;(0, 0);0;0;;;;;;;;;;;;;;2;0;0;;0;0;();();(-2000.0, -2000.0);
11:53:34:294;11:53:34:293;1448276974.0;(0, 0);0;0;;;;;;;;;;;;;;2;0;0;;0;0;();();(-2000.0, -2000.0);
11:53:34:310;11:53:34:293;1448276974.0;(0, 0);0;0;;;;;;;;;;;;;;2;0;0;;0;0;();();(-2000.0, -2000.0);
11:53:34:327;11:53:34:293;1448276974.0;(0, 0);0;0;;;;;;;;;;;;;;2;0;0;;0;0;();();(-2000.0, -2000.0);
11:53:34:344;11:53:34:293;1448276974.0;(0, 0);0;0;;;;;;;;;;;;;;2;0;0;;0;0;();();(-2000.0, -2000.0);
11:53:34:360;11:53:34:293;1448276974.0;(0, 0);0;0;;;;;;;;;;;;;;2;0;0;;0;0;();();(-2000.0, -2000.0);
11:53:34:378;11:53:34:361;1448276974.07;(0, 0);0;0;;;;;;;;;;;;;;2;0;0;;0;0;();();(-2000.0, -2000.0);
11:53:34:410;11:53:34:361;1448276974.07;(0, 0);0;0;;;;;;;;;;;;;;2;0;0;;0;0;();();(-2000.0, -2000.0);
11:53:34:428;11:53:34:426;1448276974.14;(0, 0);0;0;;;;;;;;;;;;;;2;0;0;;0;0;();();(-2000.0, -2000.0);
11:53:34:444;11:53:34:426;1448276974.14;(0, 0);0;0;;;;;;;;;;;;;;2;0;0;;0;0;();();(-2000.0, -2000.0);
11:53:34:461;11:53:34:426;1448276974.14;(0, 0);0;0;;;;;;;;;;;;;;2;0;0;;0;0;();();(-2000.0, -2000.0);
11:53:34:495;11:53:34:494;1448276974.2;(0, 0);0;0;;;;;;;;;;;;;;2;0;0;;0;0;();();(-2000.0, -2000.0);
11:53:34:510;11:53:34:494;1448276974.2;(0, 0);0;0;;;;;;;;;;;;;;2;0;0;;0;0;();();(-2000.0, -2000.0);
11:53:34:527;11:53:34:494;1448276974.2;(0, 0);0;0;;;;;;;;;;;;;;2;0;0;;0;0;();();(-2000.0, -2000.0);
11:53:34:544;11:53:34:494;1448276974.2;(0, 0);0;0;;;;;;;;;;;;;;2;0;0;;0;0;();();(-2000.0, -2000.0);
11:53:34:561;11:53:34:494;1448276974.2;(0, 0);0;0;;;;;;;;;;;;;;2;0;0;;0;0;();();(-2000.0, -2000.0);
11:53:34:578;11:53:34:494;1448276974.2;(0, 0);0;0;;;;;;;;;;;;;;2;0;0;;0;0;();();(-2000.0, -2000.0);
11:53:34:611;11:53:34:494;1448276974.2;(0, 0);0;0;;;;;;;;;;;;;;2;0;0;;0;0;();();(-2000.0, -2000.0);
11:53:34:628;11:53:34:628;1448276974.27;(0.35025725364685056, 0.2073976304796007);26.6149234772;0.646518873743;;;;;;;;;;;;;;2;0;0;;0;0;();();(-2000.0, -2000.0);
11:53:34:644;11:53:34:628;1448276974.27;(0.35025725364685056, 0.2073976304796007);26.6149234772;0.646518873743;;;;;;;;;;;;;;2;0;0;;0;0;();();(-2000.0, -2000.0);
11:53:34:661;11:53:34:628;1448276974.27;(0.35025725364685056, 0.2073976304796007);26.6149234772;0.646518873743;;;;;;;;;;;;;;2;0;0;;0;0;();();(-2000.0, -2000.0);
11:53:34:677;11:53:34:628;1448276974.27;(0.35025725364685056, 0.2073976304796007);26.6149234772;0.646518873743;;;;;;;;;;;;;;2;0;0;;0;0;();();(-2000.0, -2000.0);
11:53:34:714;11:53:34:693;1448276974.4;(0, 0);0;0;;;;;;;;;;;;;;4;0;0;;0;0;();();(-2000.0, -2000.0);
11:53:34:727;11:53:34:693;1448276974.4;(0, 0);0;0;;;;;;;;;;;;;;4;0;0;;0;0;();();(-2000.0, -2000.0);
11:53:34:744;11:53:34:693;1448276974.4;(0, 0);0;0;;;;;;;;;;;;;;4;0;0;;0;0;();();(-2000.0, -2000.0);
11:53:34:761;11:53:34:693;1448276974.4;(0, 0);0;0;;;;;;;;;;;;;;4;0;0;;0;0;();();(-2000.0, -2000.0);
11:53:34:778;11:53:34:693;1448276974.4;(0, 0);0;0;;;;;;;;;;;;;;4;0;0;;0;0;();();(-2000.0, -2000.0);
11:53:34:811;11:53:34:693;1448276974.4;(0, 0);0;0;;;;;;;;;;;;;;4;0;0;;0;0;();();(-2000.0, -2000.0);
11:53:34:828;11:53:34:825;1448276974.47;(0, 0);0;0;;;;;;;;;;;;;;4;0;0;;0;0;();();(-2000.0, -2000.0);
11:53:34:845;11:53:34:825;1448276974.47;(0, 0);0;0;;;;;;;;;;;;;;4;0;0;;0;0;();();(-2000.0, -2000.0);
11:53:34:861;11:53:34:825;1448276974.47;(0, 0);0;0;;;;;;;;;;;;;;4;0;0;;0;0;();();(-2000.0, -2000.0);
11:53:34:878;11:53:34:825;1448276974.47;(0, 0);0;0;;;;;;;;;;;;;;4;0;0;;0;0;();();(-2000.0, -2000.0);
11:53:34:912;11:53:34:891;1448276974.54;(0.3662132740020752, 0.20939483642578127);49.4268913269;0.644753686072;;;;;;;;;;;;;;4;0;0;;0;0;();();(-2000.0, -2000.0);
11:53:34:928;11:53:34:891;1448276974.54;(0.3662132740020752, 0.20939483642578127);49.4268913269;0.644753686072;;;;;;;;;;;;;;4;0;0;;0;0;();();(-2000.0, -2000.0);
11:53:34:944;11:53:34:891;1448276974.54;(0.3662132740020752, 0.20939483642578127);49.4268913269;0.644753686072;;;;;;;;;;;;;;4;0;0;;0;0;();();(-2000.0, -2000.0);
11:53:34:961;11:53:34:958;1448276974.6;(0, 0);0;0;;;;;;;;;;;;;;4;0;0;;0;0;();();(-2000.0, -2000.0);
11:53:34:978;11:53:34:958;1448276974.6;(0, 0);0;0;;;;;;;;;;;;;;4;0;0;;0;0;();();(-2000.0, -2000.0);
11:53:35:011;11:53:34:958;1448276974.6;(0, 0);0;0;;;;;;;;;;;;;;4;0;0;;0;0;();();(-2000.0, -2000.0);
11:53:35:028;11:53:35:026;1448276974.67;(0, 0);0;0;;;;;;;;;;;;;;4;0;0;;0;0;();();(-2000.0, -2000.0);
11:53:35:044;11:53:35:026;1448276974.67;(0, 0);0;0;;;;;;;;;;;;;;4;0;0;;0;0;();();(-2000.0, -2000.0);
11:53:35:062;11:53:35:026;1448276974.67;(0, 0);0;0;;;;;;;;;;;;;;4;0;0;;0;0;();();(-2000.0, -2000.0);
11:53:35:078;11:53:35:026;1448276974.67;(0, 0);0;0;;;;;;;;;;;;;;4;0;0;;0;0;();();(-2000.0, -2000.0);
11:53:35:111;11:53:35:090;1448276974.8;(0, 0);0;0;;;;;;;;;;;;;;4;0;0;;0;0;();();(-2000.0, -2000.0);
11:53:35:128;11:53:35:090;1448276974.8;(0, 0);0;0;;;;;;;;;;;;;;4;0;0;;0;0;();();(-2000.0, -2000.0);
11:53:35:144;11:53:35:090;1448276974.8;(0, 0);0;0;;;;;;;;;;;;;;4;0;0;;0;0;();();(-2000.0, -2000.0);
11:53:35:160;11:53:35:090;1448276974.8;(0, 0);0;0;;;;;;;;;;;;;;4;0;0;;0;0;();();(-2000.0, -2000.0);
11:53:35:178;11:53:35:090;1448276974.8;(0, 0);0;0;;;;;;;;;;;;;;4;0;0;;0;0;();();(-2000.0, -2000.0);
11:53:35:211;11:53:35:090;1448276974.8;(0, 0);0;0;;;;;;;;;;;;;;4;0;0;;0;0;();();(-2000.0, -2000.0);
11:53:35:229;11:53:35:222;1448276974.87;(0, 0);0;0;;;;;;;;;;;;;;4;0;0;;0;0;();();(-2000.0, -2000.0);
11:53:35:245;11:53:35:222;1448276974.87;(0, 0);0;0;;;;;;;;;;;;;;4;0;0;;0;0;();();(-2000.0, -2000.0);
11:53:35:261;11:53:35:222;1448276974.87;(0, 0);0;0;;;;;;;;;;;;;;4;0;0;;0;0;();();(-2000.0, -2000.0);
11:53:35:278;11:53:35:222;1448276974.87;(0, 0);0;0;;;;;;;;;;;;;;4;0;0;;0;0;();();(-2000.0, -2000.0);
11:53:35:311;11:53:35:290;1448276975.0;(0, 0);0;0;;;;;;;;;;;;;;4;0;0;;0;0;();();(-2000.0, -2000.0);
11:53:35:328;11:53:35:290;1448276975.0;(0, 0);0;0;;;;;;;;;;;;;;4;0;0;;0;0;();();(-2000.0, -2000.0);
11:53:35:344;11:53:35:290;1448276975.0;(0, 0);0;0;;;;;;;;;;;;;;4;0;0;;0;0;();();(-2000.0, -2000.0);
11:53:35:362;11:53:35:290;1448276975.0;(0, 0);0;0;;;;;;;;;;;;;;4;0;0;;0;0;();();(-2000.0, -2000.0);
11:53:35:378;11:53:35:290;1448276975.0;(0, 0);0;0;;;;;;;;;;;;;;4;0;0;;0;0;();();(-2000.0, -2000.0);
11:53:35:413;11:53:35:290;1448276975.0;(0, 0);0;0;;;;;;;;;;;;;;4;0;0;;0;0;();();(-2000.0, -2000.0);
11:53:35:428;11:53:35:422;1448276975.07;(0, 0);0;0;;;;;;;;;;;;;;4;0;0;;0;0;();();(-2000.0, -2000.0);
11:53:35:445;11:53:35:422;1448276975.07;(0, 0);0;0;;;;;;;;;;;;;;4;0;0;;0;0;();();(-2000.0, -2000.0);
11:53:35:461;11:53:35:422;1448276975.07;(0, 0);0;0;;;;;;;;;;;;;;4;0;0;;0;0;();();(-2000.0, -2000.0);
11:53:35:478;11:53:35:422;1448276975.07;(0, 0);0;0;;;;;;;;;;;;;;4;0;0;;0;0;();();(-2000.0, -2000.0);
11:53:35:512;11:53:35:495;1448276975.14;(0, 0);0;0;;;;;;;;;;;;;;4;0;0;;0;0;();();(-2000.0, -2000.0);
11:53:35:528;11:53:35:495;1448276975.14;(0, 0);0;0;;;;;;;;;;;;;;4;0;0;;0;0;();();(-2000.0, -2000.0);
11:53:35:545;11:53:35:495;1448276975.14;(0, 0);0;0;;;;;;;;;;;;;;4;0;0;;0;0;();();(-2000.0, -2000.0);
11:53:35:562;11:53:35:554;1448276975.2;(0, 0);0;0;;;;;;;;;;;;;;4;0;0;;0;0;();();(-2000.0, -2000.0);
11:53:35:579;11:53:35:554;1448276975.2;(0, 0);0;0;;;;;;;;;;;;;;4;0;0;;0;0;();();(-2000.0, -2000.0);
11:53:35:612;11:53:35:554;1448276975.2;(0, 0);0;0;;;;;;;;;;;;;;4;0;0;;0;0;();();(-2000.0, -2000.0);
11:53:35:628;11:53:35:624;1448276975.27;(0, 0);0;0;;;;;;;;;;;;;;4;0;0;;0;0;();();(-2000.0, -2000.0);
11:53:35:645;11:53:35:624;1448276975.27;(0, 0);0;0;;;;;;;;;;;;;;4;0;0;;0;0;();();(-2000.0, -2000.0);
11:53:35:663;11:53:35:624;1448276975.27;(0, 0);0;0;;;;;;;;;;;;;;4;0;0;;0;0;();();(-2000.0, -2000.0);
11:53:35:678;11:53:35:624;1448276975.27;(0, 0);0;0;;;;;;;;;;;;;;4;0;0;;0;0;();();(-2000.0, -2000.0);
11:53:35:712;11:53:35:691;1448276975.34;(0, 0);0;0;;;;;;;;;;;;;;4;0;0;;0;0;();();(-2000.0, -2000.0);
11:53:35:729;11:53:35:691;1448276975.34;(0, 0);0;0;;;;;;;;;;;;;;4;0;0;;0;0;();();(-2000.0, -2000.0);
11:53:35:745;11:53:35:691;1448276975.34;(0, 0);0;0;;;;;;;;;;;;;;4;0;0;;0;0;();();(-2000.0, -2000.0);
11:53:35:762;11:53:35:756;1448276975.4;(0, 0);0;0;;;;;;;;;;;;;;4;0;0;;0;0;();();(-2000.0, -2000.0);
11:53:35:778;11:53:35:756;1448276975.4;(0, 0);0;0;;;;;;;;;;;;;;4;0;0;;0;0;();();(-2000.0, -2000.0);
11:53:35:812;11:53:35:756;1448276975.4;(0, 0);0;0;;;;;;;;;;;;;;4;0;0;;0;0;();();(-2000.0, -2000.0);
11:53:35:828;11:53:35:822;1448276975.47;(0, 0);0;0;;;;;;;;;;;;;;4;0;0;;0;0;();();(-2000.0, -2000.0);
11:53:35:845;11:53:35:822;1448276975.47;(0, 0);0;0;;;;;;;;;;;;;;4;0;0;;0;0;();();(-2000.0, -2000.0);
11:53:35:862;11:53:35:822;1448276975.47;(0, 0);0;0;;;;;;;;;;;;;;4;0;0;;0;0;();();(-2000.0, -2000.0);
11:53:35:878;11:53:35:822;1448276975.47;(0, 0);0;0;;;;;;;;;;;;;;4;0;0;;0;0;();();(-2000.0, -2000.0);
11:53:35:912;11:53:35:886;1448276975.54;(0, 0);0;0;;;;;;;;;;;;;;4;0;0;;0;0;();();(-2000.0, -2000.0);
11:53:35:928;11:53:35:886;1448276975.54;(0, 0);0;0;;;;;;;;;;;;;;4;0;0;;0;0;();();(-2000.0, -2000.0);
11:53:35:945;11:53:35:886;1448276975.54;(0, 0);0;0;;;;;;;;;;;;;;4;0;0;;0;0;();();(-2000.0, -2000.0);
11:53:35:963;11:53:35:954;1448276975.6;(0, 0);0;0;;;;;;;;;;;;;;4;0;0;;0;0;();();(-2000.0, -2000.0);
11:53:35:978;11:53:35:954;1448276975.6;(0, 0);0;0;;;;;;;;;;;;;;4;0;0;;0;0;();();(-2000.0, -2000.0);
11:53:36:013;11:53:35:954;1448276975.6;(0, 0);0;0;;;;;;;;;;;;;;4;0;0;;0;0;();();(-2000.0, -2000.0);
11:53:36:029;11:53:36:022;1448276975.67;(0, 0);0;0;;;;;;;;;;;;;;4;0;0;;0;0;();();(-2000.0, -2000.0);
11:53:36:046;11:53:36:022;1448276975.67;(0, 0);0;0;;;;;;;;;;;;;;4;0;0;;0;0;();();(-2000.0, -2000.0);
11:53:36:062;11:53:36:022;1448276975.67;(0, 0);0;0;;;;;;;;;;;;;;4;0;0;;0;0;();();(-2000.0, -2000.0);
11:53:36:079;11:53:36:022;1448276975.67;(0, 0);0;0;;;;;;;;;;;;;;4;0;0;;0;0;();();(-2000.0, -2000.0);
11:53:36:112;11:53:36:086;1448276975.74;(0, 0);0;0;;;;;;;;;;;;;;4;0;0;;0;0;();();(-2000.0, -2000.0);
11:53:36:129;11:53:36:086;1448276975.74;(0, 0);0;0;;;;;;;;;;;;;;4;0;0;;0;0;();();(-2000.0, -2000.0);
11:53:36:146;11:53:36:086;1448276975.74;(0, 0);0;0;;;;;;;;;;;;;;4;0;0;;0;0;();();(-2000.0, -2000.0);
11:53:36:163;11:53:36:086;1448276975.74;(0, 0);0;0;;;;;;;;;;;;;;4;0;0;;0;0;();();(-2000.0, -2000.0);
11:53:36:179;11:53:36:163;1448276975.8;(0, 0);0;0;;;;;;;;;;;;;;4;0;0;;0;0;();();(-2000.0, -2000.0);
11:53:36:213;11:53:36:163;1448276975.8;(0, 0);0;0;;;;;;;;;;;;;;4;0;0;;0;0;();();(-2000.0, -2000.0);
11:53:36:229;11:53:36:218;1448276975.87;(0, 0);0;0;;;;;;;;;;;;;;4;0;0;;0;0;();();(-2000.0, -2000.0);
11:53:36:247;11:53:36:218;1448276975.87;(0, 0);0;0;;;;;;;;;;;;;;4;0;0;;0;0;();();(-2000.0, -2000.0);
11:53:36:263;11:53:36:218;1448276975.87;(0, 0);0;0;;;;;;;;;;;;;;4;0;0;;0;0;();();(-2000.0, -2000.0);
11:53:36:279;11:53:36:218;1448276975.87;(0, 0);0;0;;;;;;;;;;;;;;4;0;0;;0;0;();();(-2000.0, -2000.0);
11:53:36:313;11:53:36:286;1448276975.94;(0, 0);0;0;;;;;;;;;;;;;;4;0;0;;0;0;();();(-2000.0, -2000.0);
11:53:36:329;11:53:36:286;1448276975.94;(0, 0);0;0;;;;;;;;;;;;;;4;0;0;;0;0;();();(-2000.0, -2000.0);
11:53:36:346;11:53:36:286;1448276975.94;(0, 0);0;0;;;;;;;;;;;;;;4;0;0;;0;0;();();(-2000.0, -2000.0);
11:53:36:363;11:53:36:354;1448276976.0;(0, 0);0;0;;;;;;;;;;;;;;4;0;0;;0;0;();();(-2000.0, -2000.0);
11:53:36:379;11:53:36:354;1448276976.0;(0, 0);0;0;;;;;;;;;;;;;;4;0;0;;0;0;();();(-2000.0, -2000.0);
11:53:36:413;11:53:36:354;1448276976.0;(0, 0);0;0;;;;;;;;;;;;;;4;0;0;;0;0;();();(-2000.0, -2000.0);
11:53:36:429;11:53:36:418;1448276976.07;(0, 0);0;0;;;;;;;;;;;;;;4;0;0;;0;0;();();(-2000.0, -2000.0);
