%Timestamp,timestamp_write;timestamp_gotpupil;eyeTrackerTime;normPos;diameter;confidence;timestamp_gotbitdata;CRC;SEQ;AnalogOutp1;AnalogOutp2;AnalogOutp3;AnalogOutp4;AnalogOutp5;AnalogOutp6;DigitalOutp1;DigitalOutp2;DigitalOutp3;DigitalOutp4;nplanes;listofAirplanesonScreen;lastAction;lastActionDetails;lastActionAirplaneNumber;calculatedScore;positiveScore;negativeScore;collidedAirplaneNumbers;targetPositions;collisionPoint
08:38:33:615;1448308473.13;(0.5035528659820556, 0.36204198201497395);55.8421478271;1.0;;;;;;;;;;;;;;0;0;0;0;0;0;0;0;0;();(-2000.0, -2000.0);
08:38:33:630;08:38:33:614;1448308473.19;(0.5035802364349365, 0.36147490607367616);56.0436668396;1.0;;;;;;;;;;;;;;0;0;0;0;0;0;0;0;0;();(-2000.0, -2000.0);
08:38:33:634;08:38:33:614;1448308473.19;(0.5035802364349365, 0.36147490607367616);56.0436668396;1.0;;;;;;;;;;;;;;0;0;0;0;0;0;0;0;0;();(-2000.0, -2000.0);
08:38:33:639;08:38:33:614;1448308473.19;(0.5035802364349365, 0.36147490607367616);56.0436668396;1.0;;;;;;;;;;;;;;0;0;0;0;0;0;0;0;0;();(-2000.0, -2000.0);
08:38:33:643;08:38:33:614;1448308473.19;(0.5035802364349365, 0.36147490607367616);56.0436668396;1.0;;;;;;;;;;;;;;0;0;0;0;0;0;0;0;0;();(-2000.0, -2000.0);
08:38:33:648;08:38:33:614;1448308473.19;(0.5035802364349365, 0.36147490607367616);56.0436668396;1.0;;;;;;;;;;;;;;0;0;0;0;0;0;0;0;0;();(-2000.0, -2000.0);
08:38:33:652;08:38:33:614;1448308473.19;(0.5035802364349365, 0.36147490607367616);56.0436668396;1.0;;;;;;;;;;;;;;0;0;0;0;0;0;0;0;0;();(-2000.0, -2000.0);
08:38:33:657;08:38:33:614;1448308473.19;(0.5035802364349365, 0.36147490607367616);56.0436668396;1.0;;;;;;;;;;;;;;0;0;0;0;0;0;0;0;0;();(-2000.0, -2000.0);
08:38:33:661;08:38:33:614;1448308473.19;(0.5035802364349365, 0.36147490607367616);56.0436668396;1.0;;;;;;;;;;;;;;0;0;0;0;0;0;0;0;0;();(-2000.0, -2000.0);
08:38:33:664;08:38:33:614;1448308473.19;(0.5035802364349365, 0.36147490607367616);56.0436668396;1.0;;;;;;;;;;;;;;0;0;0;0;0;0;0;0;0;();(-2000.0, -2000.0);
08:38:33:669;08:38:33:664;1448308473.23;(0.503501558303833, 0.36289910210503473);55.8167037964;1.0;;;;;;;;;;;;;;0;0;0;0;0;0;0;0;0;();(-2000.0, -2000.0);
08:38:33:674;08:38:33:668;1448308473.26;(0.5033174514770508, 0.36293996175130205);56.0636634827;1.0;;;;;;;;;;;;;;0;0;0;0;0;0;0;0;0;();(-2000.0, -2000.0);
08:38:33:678;08:38:33:668;1448308473.26;(0.5033174514770508, 0.36293996175130205);56.0636634827;1.0;;;;;;;;;;;;;;0;0;0;0;0;0;0;0;0;();(-2000.0, -2000.0);
08:38:33:681;08:38:33:668;1448308473.26;(0.5033174514770508, 0.36293996175130205);56.0636634827;1.0;;;;;;;;;;;;;;0;0;0;0;0;0;0;0;0;();(-2000.0, -2000.0);
08:38:33:685;08:38:33:668;1448308473.26;(0.5033174514770508, 0.36293996175130205);56.0636634827;1.0;;;;;;;;;;;;;;0;0;0;0;0;0;0;0;0;();(-2000.0, -2000.0);
08:38:33:689;08:38:33:668;1448308473.26;(0.5033174514770508, 0.36293996175130205);56.0636634827;1.0;;;;;;;;;;;;;;0;0;0;0;0;0;0;0;0;();(-2000.0, -2000.0);
08:38:33:693;08:38:33:668;1448308473.26;(0.5033174514770508, 0.36293996175130205);56.0636634827;1.0;;;;;;;;;;;;;;0;0;0;0;0;0;0;0;0;();(-2000.0, -2000.0);
08:38:33:697;08:38:33:668;1448308473.26;(0.5033174514770508, 0.36293996175130205);56.0636634827;1.0;;;;;;;;;;;;;;0;0;0;0;0;0;0;0;0;();(-2000.0, -2000.0);
08:38:33:700;08:38:33:668;1448308473.26;(0.5033174514770508, 0.36293996175130205);56.0636634827;1.0;;;;;;;;;;;;;;0;0;0;0;0;0;0;0;0;();(-2000.0, -2000.0);
08:38:33:704;08:38:33:668;1448308473.26;(0.5033174514770508, 0.36293996175130205);56.0636634827;1.0;;;;;;;;;;;;;;0;0;0;0;0;0;0;0;0;();(-2000.0, -2000.0);
08:38:33:707;08:38:33:668;1448308473.26;(0.5033174514770508, 0.36293996175130205);56.0636634827;1.0;;;;;;;;;;;;;;0;0;0;0;0;0;0;0;0;();(-2000.0, -2000.0);
08:38:33:712;08:38:33:668;1448308473.26;(0.5033174514770508, 0.36293996175130205);56.0636634827;1.0;;;;;;;;;;;;;;0;0;0;0;0;0;0;0;0;();(-2000.0, -2000.0);
08:38:33:738;08:38:33:728;1448308473.33;(0.5036128997802735, 0.3637930976019965);56.0659294128;1.0;;;;;;;;;;;;;;0;0;0;0;0;0;0;0;0;();(-2000.0, -2000.0);
08:38:33:753;08:38:33:728;1448308473.33;(0.5036128997802735, 0.3637930976019965);56.0659294128;1.0;;;;;;;;;;;;;;0;0;0;0;0;0;0;0;0;();(-2000.0, -2000.0);
08:38:33:771;08:38:33:728;1448308473.33;(0.5036128997802735, 0.3637930976019965);56.0659294128;1.0;;;;;;;;;;;;;;0;0;0;0;0;0;0;0;0;();(-2000.0, -2000.0);
08:38:33:787;08:38:33:728;1448308473.33;(0.5036128997802735, 0.3637930976019965);56.0659294128;1.0;;;;;;;;;;;;;;0;0;0;0;0;0;0;0;0;();(-2000.0, -2000.0);
08:38:33:820;08:38:33:798;1448308473.39;(0.5042366027832031, 0.3634429083930122);56.2114944458;1.0;;;;;;;;;;;;;;0;0;0;0;0;0;0;0;0;();(-2000.0, -2000.0);
08:38:33:838;08:38:33:798;1448308473.39;(0.5042366027832031, 0.3634429083930122);56.2114944458;1.0;;;;;;;;;;;;;;0;0;0;0;0;0;0;0;0;();(-2000.0, -2000.0);
08:38:33:853;08:38:33:798;1448308473.39;(0.5042366027832031, 0.3634429083930122);56.2114944458;1.0;;;;;;;;;;;;;;0;0;0;0;0;0;0;0;0;();(-2000.0, -2000.0);
08:38:33:870;08:38:33:860;1448308473.46;(0.5037725925445556, 0.3636957804361979);56.0671768188;1.0;;;;;;;;;;;;;;0;0;0;0;0;0;0;0;0;();(-2000.0, -2000.0);
08:38:33:888;08:38:33:860;1448308473.46;(0.5037725925445556, 0.3636957804361979);56.0671768188;1.0;;;;;;;;;;;;;;0;0;0;0;0;0;0;0;0;();(-2000.0, -2000.0);
08:38:33:921;08:38:33:860;1448308473.46;(0.5037725925445556, 0.3636957804361979);56.0671768188;1.0;;;;;;;;;;;;;;0;0;0;0;0;0;0;0;0;();(-2000.0, -2000.0);
08:38:33:937;08:38:33:928;1448308473.53;(0.5034328937530518, 0.3634164598253038);56.1328811646;1.0;;;;;;;;;;;;;;0;0;0;0;0;0;0;0;0;();(-2000.0, -2000.0);
08:38:33:953;08:38:33:928;1448308473.53;(0.5034328937530518, 0.3634164598253038);56.1328811646;1.0;;;;;;;;;;;;;;0;0;0;0;0;0;0;0;0;();(-2000.0, -2000.0);
08:38:33:971;08:38:33:928;1448308473.53;(0.5034328937530518, 0.3634164598253038);56.1328811646;1.0;;;;;;;;;;;;;;0;0;0;0;0;0;0;0;0;();(-2000.0, -2000.0);
08:38:33:988;08:38:33:928;1448308473.53;(0.5034328937530518, 0.3634164598253038);56.1328811646;1.0;;;;;;;;;;;;;;0;0;0;0;0;0;0;0;0;();(-2000.0, -2000.0);
08:38:34:020;08:38:33:996;1448308473.59;(0.5034370422363281, 0.36459698147243924);56.1160697937;1.0;;;;;;;;;;;;;;0;0;0;0;0;0;0;0;0;();(-2000.0, -2000.0);
08:38:34:037;08:38:33:996;1448308473.59;(0.5034370422363281, 0.36459698147243924);56.1160697937;1.0;;;;;;;;;;;;;;0;0;0;0;0;0;0;0;0;();(-2000.0, -2000.0);
08:38:34:054;08:38:33:996;1448308473.59;(0.5034370422363281, 0.36459698147243924);56.1160697937;1.0;;;;;;;;;;;;;;0;0;0;0;0;0;0;0;0;();(-2000.0, -2000.0);
08:38:34:070;08:38:34:060;1448308473.66;(0.5032697200775147, 0.36434427897135413);56.0086288452;1.0;;;;;;;;;;;;;;0;0;0;0;0;0;0;0;0;();(-2000.0, -2000.0);
08:38:34:088;08:38:34:060;1448308473.66;(0.5032697200775147, 0.36434427897135413);56.0086288452;1.0;;;;;;;;;;;;;;0;0;0;0;0;0;0;0;0;();(-2000.0, -2000.0);
08:38:34:120;08:38:34:060;1448308473.66;(0.5032697200775147, 0.36434427897135413);56.0086288452;1.0;;;;;;;;;;;;;;0;0;0;0;0;0;0;0;0;();(-2000.0, -2000.0);
08:38:34:138;08:38:34:128;1448308473.73;(0.5030402660369873, 0.36384896172417536);55.7055664062;1.0;;;;;;;;;;;;;;0;0;0;0;0;0;0;0;0;();(-2000.0, -2000.0);
08:38:34:153;08:38:34:128;1448308473.73;(0.5030402660369873, 0.36384896172417536);55.7055664062;1.0;;;;;;;;;;;;;;0;0;0;0;0;0;0;0;0;();(-2000.0, -2000.0);
08:38:34:171;08:38:34:128;1448308473.73;(0.5030402660369873, 0.36384896172417536);55.7055664062;1.0;;;;;;;;;;;;;;0;0;0;0;0;0;0;0;0;();(-2000.0, -2000.0);
08:38:34:188;08:38:34:128;1448308473.73;(0.5030402660369873, 0.36384896172417536);55.7055664062;1.0;;;;;;;;;;;;;;0;0;0;0;0;0;0;0;0;();(-2000.0, -2000.0);
08:38:34:221;08:38:34:191;1448308473.76;(0.5029819011688232, 0.36401053534613714);55.7455635071;1.0;;;;;;;;;;;;;;0;0;0;0;0;0;0;0;0;();(-2000.0, -2000.0);
08:38:34:236;08:38:34:191;1448308473.76;(0.5029819011688232, 0.36401053534613714);55.7455635071;1.0;;;;;;;;;;;;;;0;0;0;0;0;0;0;0;0;();(-2000.0, -2000.0);
08:38:34:254;08:38:34:191;1448308473.76;(0.5029819011688232, 0.36401053534613714);55.7455635071;1.0;;;;;;;;;;;;;;0;0;0;0;0;0;0;0;0;();(-2000.0, -2000.0);
08:38:34:270;08:38:34:261;1448308473.83;(0.5032841682434082, 0.36469870673285587);55.3483009338;1.0;;;;;;;;;;;;;;0;0;0;0;0;0;0;0;0;();(-2000.0, -2000.0);
08:38:34:287;08:38:34:261;1448308473.83;(0.5032841682434082, 0.36469870673285587);55.3483009338;1.0;;;;;;;;;;;;;;0;0;0;0;0;0;0;0;0;();(-2000.0, -2000.0);
08:38:34:320;08:38:34:261;1448308473.83;(0.5032841682434082, 0.36469870673285587);55.3483009338;1.0;;;;;;;;;;;;;;0;0;0;0;0;0;0;0;0;();(-2000.0, -2000.0);
08:38:34:337;08:38:34:328;1448308473.89;(0.5035187244415283, 0.36436343722873266);54.9530258179;1.0;;;;;;;;;;;;;;0;0;0;0;0;0;0;0;0;();(-2000.0, -2000.0);
08:38:34:354;08:38:34:328;1448308473.89;(0.5035187244415283, 0.36436343722873266);54.9530258179;1.0;;;;;;;;;;;;;;0;0;0;0;0;0;0;0;0;();(-2000.0, -2000.0);
08:38:34:370;08:38:34:328;1448308473.89;(0.5035187244415283, 0.36436343722873266);54.9530258179;1.0;;;;;;;;;;;;;;0;0;0;0;0;0;0;0;0;();(-2000.0, -2000.0);
08:38:34:387;08:38:34:328;1448308473.89;(0.5035187244415283, 0.36436343722873266);54.9530258179;1.0;;;;;;;;;;;;;;0;0;0;0;0;0;0;0;0;();(-2000.0, -2000.0);
08:38:34:420;08:38:34:393;1448308473.96;(0.5038357734680176, 0.364096917046441);54.6967658997;1.0;;;;;;;;;;;;;;0;0;0;0;0;0;0;0;0;();(-2000.0, -2000.0);
08:38:34:438;08:38:34:393;1448308473.96;(0.5038357734680176, 0.364096917046441);54.6967658997;1.0;;;;;;;;;;;;;;0;0;0;0;0;0;0;0;0;();(-2000.0, -2000.0);
08:38:34:454;08:38:34:393;1448308473.96;(0.5038357734680176, 0.364096917046441);54.6967658997;1.0;;;;;;;;;;;;;;0;0;0;0;0;0;0;0;0;();(-2000.0, -2000.0);
08:38:34:472;08:38:34:468;1448308474.03;(0.504057788848877, 0.36426989237467444);54.4427719116;1.0;;;;;;;;;;;;;;0;0;0;0;0;0;0;0;0;();(-2000.0, -2000.0);
08:38:34:487;08:38:34:470;1448308474.06;(0.5039609909057617, 0.3647723727756076);54.2392997742;1.0;;;;;;;;;;;;;;0;0;0;0;0;0;0;0;0;();(-2000.0, -2000.0);
08:38:34:521;08:38:34:470;1448308474.06;(0.5039609909057617, 0.3647723727756076);54.2392997742;1.0;;;;;;;;;;;;;;0;0;0;0;0;0;0;0;0;();(-2000.0, -2000.0);
08:38:34:537;08:38:34:523;1448308474.09;(0.5038730144500733, 0.36472502814398866);54.5278892517;1.0;;;;;;;;;;;;;;0;0;0;0;0;0;0;0;0;();(-2000.0, -2000.0);
08:38:34:554;08:38:34:523;1448308474.09;(0.5038730144500733, 0.36472502814398866);54.5278892517;1.0;;;;;;;;;;;;;;0;0;0;0;0;0;0;0;0;();(-2000.0, -2000.0);
08:38:34:571;08:38:34:523;1448308474.09;(0.5038730144500733, 0.36472502814398866);54.5278892517;1.0;;;;;;;;;;;;;;0;0;0;0;0;0;0;0;0;();(-2000.0, -2000.0);
08:38:34:587;08:38:34:523;1448308474.09;(0.5038730144500733, 0.36472502814398866);54.5278892517;1.0;;;;;;;;;;;;;;0;0;0;0;0;0;0;0;0;();(-2000.0, -2000.0);
08:38:34:621;08:38:34:593;1448308474.19;(0.5040842056274414, 0.3639091067843967);54.4338417053;1.0;;;;;;;;;;;;;;0;0;0;0;0;0;0;0;0;();(-2000.0, -2000.0);
08:38:34:637;08:38:34:593;1448308474.19;(0.5040842056274414, 0.3639091067843967);54.4338417053;1.0;;;;;;;;;;;;;;0;0;0;0;0;0;0;0;0;();(-2000.0, -2000.0);
08:38:34:654;08:38:34:593;1448308474.19;(0.5040842056274414, 0.3639091067843967);54.4338417053;1.0;;;;;;;;;;;;;;0;0;0;0;0;0;0;0;0;();(-2000.0, -2000.0);
08:38:34:671;08:38:34:660;1448308474.26;(0.5040749073028564, 0.36442994011773);54.567024231;1.0;;;;;;;;;;;;;;0;0;0;0;0;0;0;0;0;();(-2000.0, -2000.0);
08:38:34:689;08:38:34:660;1448308474.26;(0.5040749073028564, 0.36442994011773);54.567024231;1.0;;;;;;;;;;;;;;0;0;0;0;0;0;0;0;0;();(-2000.0, -2000.0);
08:38:34:722;08:38:34:660;1448308474.26;(0.5040749073028564, 0.36442994011773);54.567024231;1.0;;;;;;;;;;;;;;0;0;0;0;0;0;0;0;0;();(-2000.0, -2000.0);
08:38:34:740;08:38:34:723;1448308474.29;(0.504092025756836, 0.36465797424316404);54.709602356;1.0;;;;;;;;;;;;;;0;0;0;0;0;0;0;0;0;();(-2000.0, -2000.0);
08:38:34:754;08:38:34:723;1448308474.29;(0.504092025756836, 0.36465797424316404);54.709602356;1.0;;;;;;;;;;;;;;0;0;0;0;0;0;0;0;0;();(-2000.0, -2000.0);
08:38:34:771;08:38:34:723;1448308474.29;(0.504092025756836, 0.36465797424316404);54.709602356;1.0;;;;;;;;;;;;;;0;0;0;0;0;0;0;0;0;();(-2000.0, -2000.0);
08:38:34:787;08:38:34:723;1448308474.29;(0.504092025756836, 0.36465797424316404);54.709602356;1.0;;;;;;;;;;;;;;0;0;0;0;0;0;0;0;0;();(-2000.0, -2000.0);
08:38:34:822;08:38:34:794;1448308474.39;(0.5037216663360595, 0.36475622389051654);55.1053314209;1.0;;;;;;;;;;;;;;0;0;0;0;0;0;0;0;0;();(-2000.0, -2000.0);
08:38:34:837;08:38:34:794;1448308474.39;(0.5037216663360595, 0.36475622389051654);55.1053314209;1.0;;;;;;;;;;;;;;0;0;0;0;0;0;0;0;0;();(-2000.0, -2000.0);
08:38:34:855;08:38:34:794;1448308474.39;(0.5037216663360595, 0.36475622389051654);55.1053314209;1.0;;;;;;;;;;;;;;0;0;0;0;0;0;0;0;0;();(-2000.0, -2000.0);
08:38:34:871;08:38:34:856;1448308474.43;(0.5029767990112305, 0.3651056077745226);55.2036170959;1.0;;;;;;;;;;;;;;0;0;0;0;0;0;0;0;0;();(-2000.0, -2000.0);
08:38:34:889;08:38:34:856;1448308474.43;(0.5029767990112305, 0.3651056077745226);55.2036170959;1.0;;;;;;;;;;;;;;0;0;0;0;0;0;0;0;0;();(-2000.0, -2000.0);
08:38:34:921;08:38:34:856;1448308474.43;(0.5029767990112305, 0.3651056077745226);55.2036170959;1.0;;;;;;;;;;;;;;0;0;0;0;0;0;0;0;0;();(-2000.0, -2000.0);
08:38:34:938;08:38:34:936;1448308474.49;(0, 0);0;0;;;;;;;;;;;;;;0;0;0;0;0;0;0;0;0;();(-2000.0, -2000.0);
08:38:34:954;08:38:34:936;1448308474.49;(0, 0);0;0;;;;;;;;;;;;;;0;0;0;0;0;0;0;0;0;();(-2000.0, -2000.0);
08:38:34:972;08:38:34:936;1448308474.49;(0, 0);0;0;;;;;;;;;;;;;;0;0;0;0;0;0;0;0;0;();(-2000.0, -2000.0);
08:38:34:987;08:38:34:936;1448308474.49;(0, 0);0;0;;;;;;;;;;;;;;0;0;0;0;0;0;0;0;0;();(-2000.0, -2000.0);
08:38:35:021;08:38:34:991;1448308474.56;(0, 0);0;0;;;;;;;;;;;;;;0;0;0;0;0;0;0;0;0;();(-2000.0, -2000.0);
08:38:35:038;08:38:34:991;1448308474.56;(0, 0);0;0;;;;;;;;;;;;;;0;0;0;0;0;0;0;0;0;();(-2000.0, -2000.0);
08:38:35:054;08:38:34:991;1448308474.56;(0, 0);0;0;;;;;;;;;;;;;;0;0;0;0;0;0;0;0;0;();(-2000.0, -2000.0);
08:38:35:072;08:38:35:058;1448308474.63;(0.49887866973876954, 0.36836997138129335);55.9330749512;1.0;;;;;;;;;;;;;;0;0;0;0;0;0;0;0;0;();(-2000.0, -2000.0);
08:38:35:088;08:38:35:058;1448308474.63;(0.49887866973876954, 0.36836997138129335);55.9330749512;1.0;;;;;;;;;;;;;;0;0;0;0;0;0;0;0;0;();(-2000.0, -2000.0);
08:38:35:122;08:38:35:058;1448308474.63;(0.49887866973876954, 0.36836997138129335);55.9330749512;1.0;;;;;;;;;;;;;;0;0;0;0;0;0;0;0;0;();(-2000.0, -2000.0);
08:38:35:138;08:38:35:125;1448308474.69;(0.5003259181976318, 0.366034189860026);56.2742156982;1.0;;;;;;;;;;;;;;0;0;0;0;0;0;0;0;0;();(-2000.0, -2000.0);
08:38:35:154;08:38:35:125;1448308474.69;(0.5003259181976318, 0.366034189860026);56.2742156982;1.0;;;;;;;;;;;;;;0;0;0;0;0;0;0;0;0;();(-2000.0, -2000.0);
08:38:35:171;08:38:35:125;1448308474.69;(0.5003259181976318, 0.366034189860026);56.2742156982;1.0;;;;;;;;;;;;;;0;0;0;0;0;0;0;0;0;();(-2000.0, -2000.0);
08:38:35:189;08:38:35:125;1448308474.69;(0.5003259181976318, 0.366034189860026);56.2742156982;1.0;;;;;;;;;;;;;;0;0;0;0;0;0;0;0;0;();(-2000.0, -2000.0);
08:38:35:205;08:38:35:192;1448308474.76;(0.5010693550109864, 0.3647826300726996);56.8567390442;1.0;;;;;;;;;;;;;;0;0;0;0;0;0;0;0;0;();(-2000.0, -2000.0);
08:38:35:238;08:38:35:192;1448308474.76;(0.5010693550109864, 0.3647826300726996);56.8567390442;1.0;;;;;;;;;;;;;;0;0;0;0;0;0;0;0;0;();(-2000.0, -2000.0);
08:38:35:255;08:38:35:192;1448308474.76;(0.5010693550109864, 0.3647826300726996);56.8567390442;1.0;;;;;;;;;;;;;;0;0;0;0;0;0;0;0;0;();(-2000.0, -2000.0);
08:38:35:272;08:38:35:258;1448308474.83;(0.5011343955993652, 0.36370985243055554);56.931022644;1.0;;;;;;;;;;;;;;0;0;0;0;0;0;0;0;0;();(-2000.0, -2000.0);
08:38:35:288;08:38:35:258;1448308474.83;(0.5011343955993652, 0.36370985243055554);56.931022644;1.0;;;;;;;;;;;;;;0;0;0;0;0;0;0;0;0;();(-2000.0, -2000.0);
08:38:35:322;08:38:35:258;1448308474.83;(0.5011343955993652, 0.36370985243055554);56.931022644;1.0;;;;;;;;;;;;;;0;0;0;0;0;0;0;0;0;();(-2000.0, -2000.0);
08:38:35:339;08:38:35:325;1448308474.89;(0.5016197681427002, 0.3630545298258464);57.3382987976;1.0;;;;;;;;;;;;;;0;0;0;0;0;0;0;0;0;();(-2000.0, -2000.0);
08:38:35:355;08:38:35:325;1448308474.89;(0.5016197681427002, 0.3630545298258464);57.3382987976;1.0;;;;;;;;;;;;;;0;0;0;0;0;0;0;0;0;();(-2000.0, -2000.0);
08:38:35:372;08:38:35:325;1448308474.89;(0.5016197681427002, 0.3630545298258464);57.3382987976;1.0;;;;;;;;;;;;;;0;0;0;0;0;0;0;0;0;();(-2000.0, -2000.0);
08:38:35:389;08:38:35:325;1448308474.89;(0.5016197681427002, 0.3630545298258464);57.3382987976;1.0;;;;;;;;;;;;;;0;0;0;0;0;0;0;0;0;();(-2000.0, -2000.0);
08:38:35:405;08:38:35:391;1448308474.96;(0.5016573905944824, 0.36250856187608504);57.431842804;1.0;;;;;;;;;;;;;;0;0;0;0;0;0;0;0;0;();(-2000.0, -2000.0);
08:38:35:439;08:38:35:391;1448308474.96;(0.5016573905944824, 0.36250856187608504);57.431842804;1.0;;;;;;;;;;;;;;0;0;0;0;0;0;0;0;0;();(-2000.0, -2000.0);
08:38:35:455;08:38:35:391;1448308474.96;(0.5016573905944824, 0.36250856187608504);57.431842804;1.0;;;;;;;;;;;;;;0;0;0;0;0;0;0;0;0;();(-2000.0, -2000.0);
08:38:35:473;08:38:35:458;1448308475.03;(0.5013668060302734, 0.36193695068359377);57.7205314636;1.0;;;;;;;;;;;;;;0;0;0;0;0;0;0;0;0;();(-2000.0, -2000.0);
08:38:35:488;08:38:35:458;1448308475.03;(0.5013668060302734, 0.36193695068359377);57.7205314636;1.0;;;;;;;;;;;;;;0;0;0;0;0;0;0;0;0;();(-2000.0, -2000.0);
08:38:35:506;08:38:35:458;1448308475.03;(0.5013668060302734, 0.36193695068359377);57.7205314636;1.0;;;;;;;;;;;;;;0;0;0;0;0;0;0;0;0;();(-2000.0, -2000.0);
08:38:35:538;08:38:35:520;1448308475.09;(0.5015376567840576, 0.3618294609917535);57.4540100098;1.0;;;;;;;;;;;;;;0;0;0;0;0;0;0;0;0;();(-2000.0, -2000.0);
08:38:35:555;08:38:35:520;1448308475.09;(0.5015376567840576, 0.3618294609917535);57.4540100098;1.0;;;;;;;;;;;;;;0;0;0;0;0;0;0;0;0;();(-2000.0, -2000.0);
08:38:35:571;08:38:35:520;1448308475.09;(0.5015376567840576, 0.3618294609917535);57.4540100098;1.0;;;;;;;;;;;;;;0;0;0;0;0;0;0;0;0;();(-2000.0, -2000.0);
08:38:35:588;08:38:35:520;1448308475.09;(0.5015376567840576, 0.3618294609917535);57.4540100098;1.0;;;;;;;;;;;;;;0;0;0;0;0;0;0;0;0;();(-2000.0, -2000.0);
08:38:35:622;08:38:35:591;1448308475.16;(0.5012176513671875, 0.36155196295844183);57.4346961975;1.0;;;;;;;;;;;;;;0;0;0;0;0;0;0;0;0;();(-2000.0, -2000.0);
08:38:35:639;08:38:35:591;1448308475.16;(0.5012176513671875, 0.36155196295844183);57.4346961975;1.0;;;;;;;;;;;;;;0;0;0;0;0;0;0;0;0;();(-2000.0, -2000.0);
08:38:35:656;08:38:35:591;1448308475.16;(0.5012176513671875, 0.36155196295844183);57.4346961975;1.0;;;;;;;;;;;;;;0;0;0;0;0;0;0;0;0;();(-2000.0, -2000.0);
08:38:35:673;08:38:35:659;1448308475.23;(0.5010062217712402, 0.36183501349555125);57.093788147;1.0;;;;;;;;;;;;;;0;0;0;0;0;0;0;0;0;();(-2000.0, -2000.0);
08:38:35:689;08:38:35:659;1448308475.23;(0.5010062217712402, 0.36183501349555125);57.093788147;1.0;;;;;;;;;;;;;;0;0;0;0;0;0;0;0;0;();(-2000.0, -2000.0);
08:38:35:705;08:38:35:659;1448308475.23;(0.5010062217712402, 0.36183501349555125);57.093788147;1.0;;;;;;;;;;;;;;0;0;0;0;0;0;0;0;0;();(-2000.0, -2000.0);
08:38:35:738;08:38:35:721;1448308475.29;(0.4775390625, 0.36781463623046873);56.8086662292;1.0;;;;;;;;;;;;;;0;0;0;0;0;0;0;0;0;();(-2000.0, -2000.0);
08:38:35:756;08:38:35:721;1448308475.29;(0.4775390625, 0.36781463623046873);56.8086662292;1.0;;;;;;;;;;;;;;0;0;0;0;0;0;0;0;0;();(-2000.0, -2000.0);
08:38:35:773;08:38:35:721;1448308475.29;(0.4775390625, 0.36781463623046873);56.8086662292;1.0;;;;;;;;;;;;;;0;0;0;0;0;0;0;0;0;();(-2000.0, -2000.0);
08:38:35:790;08:38:35:721;1448308475.29;(0.4775390625, 0.36781463623046873);56.8086662292;1.0;;;;;;;;;;;;;;0;0;0;0;0;0;0;0;0;();(-2000.0, -2000.0);
08:38:35:805;08:38:35:789;1448308475.36;(0.4782999515533447, 0.36787753634982634);56.6835479736;1.0;;;;;;;;;;;;;;0;0;0;0;0;0;0;0;0;();(-2000.0, -2000.0);
08:38:35:839;08:38:35:789;1448308475.36;(0.4782999515533447, 0.36787753634982634);56.6835479736;1.0;;;;;;;;;;;;;;0;0;0;0;0;0;0;0;0;();(-2000.0, -2000.0);
08:38:35:856;08:38:35:853;1448308475.43;(0.47812752723693847, 0.3676804012722439);56.4807128906;1.0;;;;;;;;;;;;;;0;0;0;0;0;0;0;0;0;();(-2000.0, -2000.0);
08:38:35:872;08:38:35:853;1448308475.43;(0.47812752723693847, 0.3676804012722439);56.4807128906;1.0;;;;;;;;;;;;;;0;0;0;0;0;0;0;0;0;();(-2000.0, -2000.0);
08:38:35:889;08:38:35:853;1448308475.43;(0.47812752723693847, 0.3676804012722439);56.4807128906;1.0;;;;;;;;;;;;;;0;0;0;0;0;0;0;0;0;();(-2000.0, -2000.0);
08:38:35:906;08:38:35:853;1448308475.43;(0.47812752723693847, 0.3676804012722439);56.4807128906;1.0;;;;;;;;;;;;;;0;0;0;0;0;0;0;0;0;();(-2000.0, -2000.0);
08:38:35:938;08:38:35:920;1448308475.49;(0.47779073715209963, 0.36794018215603297);56.4887886047;1.0;;;;;;;;;;;;;;0;0;0;0;0;0;0;0;0;();(-2000.0, -2000.0);
08:38:35:956;08:38:35:920;1448308475.49;(0.47779073715209963, 0.36794018215603297);56.4887886047;1.0;;;;;;;;;;;;;;0;0;0;0;0;0;0;0;0;();(-2000.0, -2000.0);
08:38:35:973;08:38:35:920;1448308475.49;(0.47779073715209963, 0.36794018215603297);56.4887886047;1.0;;;;;;;;;;;;;;0;0;0;0;0;0;0;0;0;();(-2000.0, -2000.0);
08:38:35:991;08:38:35:988;1448308475.56;(0.4775702953338623, 0.3679986317952474);56.4491882324;1.0;;;;;;;;;;;;;;0;0;0;0;0;0;0;0;0;();(-2000.0, -2000.0);
08:38:36:005;08:38:35:988;1448308475.56;(0.4775702953338623, 0.3679986317952474);56.4491882324;1.0;;;;;;;;;;;;;;0;0;0;0;0;0;0;0;0;();(-2000.0, -2000.0);
08:38:36:039;08:38:35:988;1448308475.56;(0.4775702953338623, 0.3679986317952474);56.4491882324;1.0;;;;;;;;;;;;;;0;0;0;0;0;0;0;0;0;();(-2000.0, -2000.0);
08:38:36:056;08:38:36:053;1448308475.63;(0.477491569519043, 0.3682250128851996);56.2949638367;1.0;;;;;;;;;;;;;;0;0;0;0;0;0;0;0;0;();(-2000.0, -2000.0);
08:38:36:073;08:38:36:053;1448308475.63;(0.477491569519043, 0.3682250128851996);56.2949638367;1.0;;;;;;;;;;;;;;0;0;0;0;0;0;0;0;0;();(-2000.0, -2000.0);
08:38:36:089;08:38:36:053;1448308475.63;(0.477491569519043, 0.3682250128851996);56.2949638367;1.0;;;;;;;;;;;;;;0;0;0;0;0;0;0;0;0;();(-2000.0, -2000.0);
08:38:36:105;08:38:36:053;1448308475.63;(0.477491569519043, 0.3682250128851996);56.2949638367;1.0;;;;;;;;;;;;;;0;0;0;0;0;0;0;0;0;();(-2000.0, -2000.0);
08:38:36:139;08:38:36:121;1448308475.69;(0.47747182846069336, 0.3678780449761285);56.2555847168;1.0;;;;;;;;;;;;;;0;0;0;0;0;0;0;0;0;();(-2000.0, -2000.0);
08:38:36:156;08:38:36:121;1448308475.69;(0.47747182846069336, 0.3678780449761285);56.2555847168;1.0;;;;;;;;;;;;;;0;0;0;0;0;0;0;0;0;();(-2000.0, -2000.0);
08:38:36:172;08:38:36:121;1448308475.69;(0.47747182846069336, 0.3678780449761285);56.2555847168;1.0;;;;;;;;;;;;;;0;0;0;0;0;0;0;0;0;();(-2000.0, -2000.0);
08:38:36:189;08:38:36:185;1448308475.76;(0.4775212287902832, 0.3676523844401042);56.5595779419;1.0;;;;;;;;;;;;;;0;0;0;0;0;0;0;0;0;();(-2000.0, -2000.0);
08:38:36:205;08:38:36:185;1448308475.76;(0.4775212287902832, 0.3676523844401042);56.5595779419;1.0;;;;;;;;;;;;;;0;0;0;0;0;0;0;0;0;();(-2000.0, -2000.0);
08:38:36:242;08:38:36:185;1448308475.76;(0.4775212287902832, 0.3676523844401042);56.5595779419;1.0;;;;;;;;;;;;;;0;0;0;0;0;0;0;0;0;();(-2000.0, -2000.0);
08:38:36:258;08:38:36:251;1448308475.79;(0.4774559497833252, 0.3673920101589627);56.3981056213;1.0;;;;;;;;;;;;;;0;0;0;0;0;0;0;0;0;();(-2000.0, -2000.0);
08:38:36:273;08:38:36:254;1448308475.83;(0.4773567199707031, 0.36791267395019533);56.5572395325;1.0;;;;;;;;;;;;;;0;0;0;0;0;0;0;0;0;();(-2000.0, -2000.0);
08:38:36:290;08:38:36:254;1448308475.83;(0.4773567199707031, 0.36791267395019533);56.5572395325;1.0;;;;;;;;;;;;;;0;0;0;0;0;0;0;0;0;();(-2000.0, -2000.0);
08:38:36:306;08:38:36:254;1448308475.83;(0.4773567199707031, 0.36791267395019533);56.5572395325;1.0;;;;;;;;;;;;;;0;0;0;0;0;0;0;0;0;();(-2000.0, -2000.0);
08:38:36:339;08:38:36:316;1448308475.89;(0.47738237380981446, 0.3683839162190755);57.014755249;1.0;;;;;;;;;;;;;;0;0;0;0;0;0;0;0;0;();(-2000.0, -2000.0);
08:38:36:357;08:38:36:316;1448308475.89;(0.47738237380981446, 0.3683839162190755);57.014755249;1.0;;;;;;;;;;;;;;0;0;0;0;0;0;0;0;0;();(-2000.0, -2000.0);
08:38:36:373;08:38:36:316;1448308475.89;(0.47738237380981446, 0.3683839162190755);57.014755249;1.0;;;;;;;;;;;;;;0;0;0;0;0;0;0;0;0;();(-2000.0, -2000.0);
08:38:36:390;08:38:36:385;1448308475.96;(0.4774181365966797, 0.36818474663628475);57.1056060791;1.0;;;;;;;;;;;;;;0;0;0;0;0;0;0;0;0;();(-2000.0, -2000.0);
08:38:36:406;08:38:36:385;1448308475.96;(0.4774181365966797, 0.36818474663628475);57.1056060791;1.0;;;;;;;;;;;;;;0;0;0;0;0;0;0;0;0;();(-2000.0, -2000.0);
08:38:36:440;08:38:36:385;1448308475.96;(0.4774181365966797, 0.36818474663628475);57.1056060791;1.0;;;;;;;;;;;;;;0;0;0;0;0;0;0;0;0;();(-2000.0, -2000.0);
08:38:36:456;08:38:36:453;1448308476.03;(0.47756614685058596, 0.36788402133517795);57.5250091553;1.0;;;;;;;;;;;;;;0;0;0;0;0;0;0;0;0;();(-2000.0, -2000.0);
08:38:36:473;08:38:36:453;1448308476.03;(0.47756614685058596, 0.36788402133517795);57.5250091553;1.0;;;;;;;;;;;;;;0;0;0;0;0;0;0;0;0;();(-2000.0, -2000.0);
08:38:36:490;08:38:36:453;1448308476.03;(0.47756614685058596, 0.36788402133517795);57.5250091553;1.0;;;;;;;;;;;;;;0;0;0;0;0;0;0;0;0;();(-2000.0, -2000.0);
08:38:36:507;08:38:36:453;1448308476.03;(0.47756614685058596, 0.36788402133517795);57.5250091553;1.0;;;;;;;;;;;;;;0;0;0;0;0;0;0;0;0;();(-2000.0, -2000.0);
08:38:36:540;08:38:36:516;1448308476.09;(0.4850893020629883, 0.36336496141221786);57.8141746521;1.0;;;;;;;;;;;;;;0;0;0;0;0;0;0;0;0;();(-2000.0, -2000.0);
08:38:36:556;08:38:36:516;1448308476.09;(0.4850893020629883, 0.36336496141221786);57.8141746521;1.0;;;;;;;;;;;;;;0;0;0;0;0;0;0;0;0;();(-2000.0, -2000.0);
08:38:36:573;08:38:36:516;1448308476.09;(0.4850893020629883, 0.36336496141221786);57.8141746521;1.0;;;;;;;;;;;;;;0;0;0;0;0;0;0;0;0;();(-2000.0, -2000.0);
08:38:36:590;08:38:36:584;1448308476.16;(0.4852787971496582, 0.36305592854817703);57.9827384949;1.0;;;;;;;;;;;;;;0;0;0;0;0;0;0;0;0;();(-2000.0, -2000.0);
08:38:36:607;08:38:36:584;1448308476.16;(0.4852787971496582, 0.36305592854817703);57.9827384949;1.0;;;;;;;;;;;;;;0;0;0;0;0;0;0;0;0;();(-2000.0, -2000.0);
08:38:36:640;08:38:36:584;1448308476.16;(0.4852787971496582, 0.36305592854817703);57.9827384949;1.0;;;;;;;;;;;;;;0;0;0;0;0;0;0;0;0;();(-2000.0, -2000.0);
08:38:36:657;08:38:36:648;1448308476.23;(0.4852770805358887, 0.3631983862982856);58.3412284851;1.0;;;;;;;;;;;;;;0;0;0;0;0;0;0;0;0;();(-2000.0, -2000.0);
08:38:36:673;08:38:36:648;1448308476.23;(0.4852770805358887, 0.3631983862982856);58.3412284851;1.0;;;;;;;;;;;;;;0;0;0;0;0;0;0;0;0;();(-2000.0, -2000.0);
08:38:36:690;08:38:36:648;1448308476.23;(0.4852770805358887, 0.3631983862982856);58.3412284851;1.0;;;;;;;;;;;;;;0;0;0;0;0;0;0;0;0;();(-2000.0, -2000.0);
08:38:36:706;08:38:36:648;1448308476.23;(0.4852770805358887, 0.3631983862982856);58.3412284851;1.0;;;;;;;;;;;;;;0;0;0;0;0;0;0;0;0;();(-2000.0, -2000.0);
08:38:36:740;08:38:36:724;1448308476.29;(0.48534321784973145, 0.36362007988823786);58.4336776733;1.0;;;;;;;;;;;;;;0;0;0;0;0;0;0;0;0;();(-2000.0, -2000.0);
08:38:36:757;08:38:36:724;1448308476.29;(0.48534321784973145, 0.36362007988823786);58.4336776733;1.0;;;;;;;;;;;;;;0;0;0;0;0;0;0;0;0;();(-2000.0, -2000.0);
08:38:36:773;08:38:36:724;1448308476.29;(0.48534321784973145, 0.36362007988823786);58.4336776733;1.0;;;;;;;;;;;;;;0;0;0;0;0;0;0;0;0;();(-2000.0, -2000.0);
08:38:36:790;08:38:36:784;1448308476.36;(0.485308837890625, 0.3633052825927734);58.261013031;1.0;;;;;;;;;;;;;;0;0;0;0;0;0;0;0;0;();(-2000.0, -2000.0);
08:38:36:807;08:38:36:784;1448308476.36;(0.485308837890625, 0.3633052825927734);58.261013031;1.0;;;;;;;;;;;;;;0;0;0;0;0;0;0;0;0;();(-2000.0, -2000.0);
08:38:36:840;08:38:36:784;1448308476.36;(0.485308837890625, 0.3633052825927734);58.261013031;1.0;;;;;;;;;;;;;;0;0;0;0;0;0;0;0;0;();(-2000.0, -2000.0);
08:38:36:857;08:38:36:848;1448308476.43;(0.48568902015686033, 0.3641089969211154);58.2614402771;1.0;;;;;;;;;;;;;;0;0;0;0;0;0;0;0;0;();(-2000.0, -2000.0);
08:38:36:872;08:38:36:848;1448308476.43;(0.48568902015686033, 0.3641089969211154);58.2614402771;1.0;;;;;;;;;;;;;;0;0;0;0;0;0;0;0;0;();(-2000.0, -2000.0);
08:38:36:890;08:38:36:848;1448308476.43;(0.48568902015686033, 0.3641089969211154);58.2614402771;1.0;;;;;;;;;;;;;;0;0;0;0;0;0;0;0;0;();(-2000.0, -2000.0);
08:38:36:907;08:38:36:848;1448308476.43;(0.48568902015686033, 0.3641089969211154);58.2614402771;1.0;;;;;;;;;;;;;;0;0;0;0;0;0;0;0;0;();(-2000.0, -2000.0);
08:38:36:940;08:38:36:920;1448308476.49;(0.49741668701171876, 0.40915679931640625);57.3562545776;1.0;;;;;;;;;;;;;;0;0;0;0;0;0;0;0;0;();(-2000.0, -2000.0);
08:38:36:956;08:38:36:920;1448308476.49;(0.49741668701171876, 0.40915679931640625);57.3562545776;1.0;;;;;;;;;;;;;;0;0;0;0;0;0;0;0;0;();(-2000.0, -2000.0);
08:38:36:973;08:38:36:920;1448308476.49;(0.49741668701171876, 0.40915679931640625);57.3562545776;1.0;;;;;;;;;;;;;;0;0;0;0;0;0;0;0;0;();(-2000.0, -2000.0);
08:38:36:992;08:38:36:980;1448308476.56;(0.49723238945007325, 0.4095200432671441);57.7087516785;1.0;;;;;;;;;;;;;;0;0;0;0;0;0;0;0;0;();(-2000.0, -2000.0);
08:38:37:009;08:38:36:980;1448308476.56;(0.49723238945007325, 0.4095200432671441);57.7087516785;1.0;;;;;;;;;;;;;;0;0;0;0;0;0;0;0;0;();(-2000.0, -2000.0);
08:38:37:039;08:38:36:980;1448308476.56;(0.49723238945007325, 0.4095200432671441);57.7087516785;1.0;;;;;;;;;;;;;;0;0;0;0;0;0;0;0;0;();(-2000.0, -2000.0);
08:38:37:057;08:38:37:048;1448308476.63;(0.49707708358764646, 0.4098798963758681);57.7480583191;1.0;;;;;;;;;;;;;;0;0;0;0;0;0;0;0;0;();(-2000.0, -2000.0);
08:38:37:073;08:38:37:048;1448308476.63;(0.49707708358764646, 0.4098798963758681);57.7480583191;1.0;;;;;;;;;;;;;;0;0;0;0;0;0;0;0;0;();(-2000.0, -2000.0);
08:38:37:089;08:38:37:048;1448308476.63;(0.49707708358764646, 0.4098798963758681);57.7480583191;1.0;;;;;;;;;;;;;;0;0;0;0;0;0;0;0;0;();(-2000.0, -2000.0);
08:38:37:106;08:38:37:048;1448308476.63;(0.49707708358764646, 0.4098798963758681);57.7480583191;1.0;;;;;;;;;;;;;;0;0;0;0;0;0;0;0;0;();(-2000.0, -2000.0);
08:38:37:140;08:38:37:128;1448308476.69;(0.4969172477722168, 0.4101228925916883);58.1215362549;1.0;;;;;;;;;;;;;;0;0;0;0;0;0;0;0;0;();(-2000.0, -2000.0);
08:38:37:157;08:38:37:128;1448308476.69;(0.4969172477722168, 0.4101228925916883);58.1215362549;1.0;;;;;;;;;;;;;;0;0;0;0;0;0;0;0;0;();(-2000.0, -2000.0);
08:38:37:173;08:38:37:128;1448308476.69;(0.4969172477722168, 0.4101228925916883);58.1215362549;1.0;;;;;;;;;;;;;;0;0;0;0;0;0;0;0;0;();(-2000.0, -2000.0);
08:38:37:190;08:38:37:180;1448308476.76;(0.49690885543823243, 0.4083385467529297);58.0239181519;1.0;;;;;;;;;;;;;;0;0;0;0;0;0;0;0;0;();(-2000.0, -2000.0);
08:38:37:206;08:38:37:180;1448308476.76;(0.49690885543823243, 0.4083385467529297);58.0239181519;1.0;;;;;;;;;;;;;;0;0;0;0;0;0;0;0;0;();(-2000.0, -2000.0);
08:38:37:240;08:38:37:180;1448308476.76;(0.49690885543823243, 0.4083385467529297);58.0239181519;1.0;;;;;;;;;;;;;;0;0;0;0;0;0;0;0;0;();(-2000.0, -2000.0);
08:38:37:257;08:38:37:248;1448308476.83;(0.5035230159759522, 0.40823482937282984);58.1445732117;1.0;;;;;;;;;;;;;;0;0;0;0;0;0;0;0;0;();(-2000.0, -2000.0);
08:38:37:273;08:38:37:248;1448308476.83;(0.5035230159759522, 0.40823482937282984);58.1445732117;1.0;;;;;;;;;;;;;;0;0;0;0;0;0;0;0;0;();(-2000.0, -2000.0);
08:38:37:290;08:38:37:248;1448308476.83;(0.5035230159759522, 0.40823482937282984);58.1445732117;1.0;;;;;;;;;;;;;;0;0;0;0;0;0;0;0;0;();(-2000.0, -2000.0);
08:38:37:306;08:38:37:248;1448308476.83;(0.5035230159759522, 0.40823482937282984);58.1445732117;1.0;;;;;;;;;;;;;;0;0;0;0;0;0;0;0;0;();(-2000.0, -2000.0);
08:38:37:341;08:38:37:312;1448308476.89;(0.5039732933044434, 0.4074294620090061);58.192653656;1.0;;;;;;;;;;;;;;0;0;0;0;0;0;0;0;0;();(-2000.0, -2000.0);
08:38:37:357;08:38:37:312;1448308476.89;(0.5039732933044434, 0.4074294620090061);58.192653656;1.0;;;;;;;;;;;;;;0;0;0;0;0;0;0;0;0;();(-2000.0, -2000.0);
08:38:37:374;08:38:37:312;1448308476.89;(0.5039732933044434, 0.4074294620090061);58.192653656;1.0;;;;;;;;;;;;;;0;0;0;0;0;0;0;0;0;();(-2000.0, -2000.0);
08:38:37:390;08:38:37:380;1448308476.96;(0.5043328762054443, 0.40716188218858507);58.0980224609;1.0;;;;;;;;;;;;;;0;0;0;0;0;0;0;0;0;();(-2000.0, -2000.0);
08:38:37:407;08:38:37:380;1448308476.96;(0.5043328762054443, 0.40716188218858507);58.0980224609;1.0;;;;;;;;;;;;;;0;0;0;0;0;0;0;0;0;();(-2000.0, -2000.0);
08:38:37:443;08:38:37:380;1448308476.96;(0.5043328762054443, 0.40716188218858507);58.0980224609;1.0;;;;;;;;;;;;;;0;0;0;0;0;0;0;0;0;();(-2000.0, -2000.0);
08:38:37:459;08:38:37:451;1448308477.03;(0.5046601295471191, 0.40731879340277777);57.952091217;1.0;;;;;;;;;;;;;;0;0;0;0;0;0;0;0;0;();(-2000.0, -2000.0);
08:38:37:474;08:38:37:451;1448308477.03;(0.5046601295471191, 0.40731879340277777);57.952091217;1.0;;;;;;;;;;;;;;0;0;0;0;0;0;0;0;0;();(-2000.0, -2000.0);
08:38:37:491;08:38:37:451;1448308477.03;(0.5046601295471191, 0.40731879340277777);57.952091217;1.0;;;;;;;;;;;;;;0;0;0;0;0;0;0;0;0;();(-2000.0, -2000.0);
08:38:37:508;08:38:37:451;1448308477.03;(0.5046601295471191, 0.40731879340277777);57.952091217;1.0;;;;;;;;;;;;;;0;0;0;0;0;0;0;0;0;();(-2000.0, -2000.0);
08:38:37:541;08:38:37:513;1448308477.09;(0.485398530960083, 0.41033198038736984);59.4809532166;0.927647042918;;;;;;;;;;;;;;0;0;0;0;0;0;0;0;0;();(-2000.0, -2000.0);
08:38:37:558;08:38:37:513;1448308477.09;(0.485398530960083, 0.41033198038736984);59.4809532166;0.927647042918;;;;;;;;;;;;;;0;0;0;0;0;0;0;0;0;();(-2000.0, -2000.0);
08:38:37:574;08:38:37:513;1448308477.09;(0.485398530960083, 0.41033198038736984);59.4809532166;0.927647042918;;;;;;;;;;;;;;0;0;0;0;0;0;0;0;0;();(-2000.0, -2000.0);
08:38:37:591;08:38:37:581;1448308477.16;(0.4744877338409424, 0.41071959601508246);58.0974769592;1.0;;;;;;;;;;;;;;0;0;0;0;0;0;0;0;0;();(-2000.0, -2000.0);
08:38:37:608;08:38:37:581;1448308477.16;(0.4744877338409424, 0.41071959601508246);58.0974769592;1.0;;;;;;;;;;;;;;0;0;0;0;0;0;0;0;0;();(-2000.0, -2000.0);
08:38:37:641;08:38:37:581;1448308477.16;(0.4744877338409424, 0.41071959601508246);58.0974769592;1.0;;;;;;;;;;;;;;0;0;0;0;0;0;0;0;0;();(-2000.0, -2000.0);
08:38:37:658;08:38:37:645;1448308477.23;(0.47432699203491213, 0.41241099039713547);57.9730110168;1.0;;;;;;;;;;;;;;0;0;0;0;0;0;0;0;0;();(-2000.0, -2000.0);
08:38:37:674;08:38:37:645;1448308477.23;(0.47432699203491213, 0.41241099039713547);57.9730110168;1.0;;;;;;;;;;;;;;0;0;0;0;0;0;0;0;0;();(-2000.0, -2000.0);
08:38:37:691;08:38:37:645;1448308477.23;(0.47432699203491213, 0.41241099039713547);57.9730110168;1.0;;;;;;;;;;;;;;0;0;0;0;0;0;0;0;0;();(-2000.0, -2000.0);
08:38:37:708;08:38:37:645;1448308477.23;(0.47432699203491213, 0.41241099039713547);57.9730110168;1.0;;;;;;;;;;;;;;0;0;0;0;0;0;0;0;0;();(-2000.0, -2000.0);
08:38:37:741;08:38:37:712;1448308477.29;(0.4737723350524902, 0.41322224934895835);57.9535827637;1.0;;;;;;;;;;;;;;0;0;0;0;0;0;0;0;0;();(-2000.0, -2000.0);
08:38:37:758;08:38:37:712;1448308477.29;(0.4737723350524902, 0.41322224934895835);57.9535827637;1.0;;;;;;;;;;;;;;0;0;0;0;0;0;0;0;0;();(-2000.0, -2000.0);
08:38:37:774;08:38:37:712;1448308477.29;(0.4737723350524902, 0.41322224934895835);57.9535827637;1.0;;;;;;;;;;;;;;0;0;0;0;0;0;0;0;0;();(-2000.0, -2000.0);
08:38:37:791;08:38:37:780;1448308477.36;(0.47356352806091306, 0.41321089002821176);57.7295036316;1.0;;;;;;;;;;;;;;0;0;0;0;0;0;0;0;0;();(-2000.0, -2000.0);
08:38:37:807;08:38:37:780;1448308477.36;(0.47356352806091306, 0.41321089002821176);57.7295036316;1.0;;;;;;;;;;;;;;0;0;0;0;0;0;0;0;0;();(-2000.0, -2000.0);
08:38:37:843;08:38:37:780;1448308477.36;(0.47356352806091306, 0.41321089002821176);57.7295036316;1.0;;;;;;;;;;;;;;0;0;0;0;0;0;0;0;0;();(-2000.0, -2000.0);
08:38:37:859;08:38:37:849;1448308477.43;(0.4735668182373047, 0.4131780412462023);57.6382255554;1.0;;;;;;;;;;;;;;0;0;0;0;0;0;0;0;0;();(-2000.0, -2000.0);
08:38:37:877;08:38:37:849;1448308477.43;(0.4735668182373047, 0.4131780412462023);57.6382255554;1.0;;;;;;;;;;;;;;0;0;0;0;0;0;0;0;0;();(-2000.0, -2000.0);
08:38:37:891;08:38:37:849;1448308477.43;(0.4735668182373047, 0.4131780412462023);57.6382255554;1.0;;;;;;;;;;;;;;0;0;0;0;0;0;0;0;0;();(-2000.0, -2000.0);
08:38:37:908;08:38:37:849;1448308477.43;(0.4735668182373047, 0.4131780412462023);57.6382255554;1.0;;;;;;;;;;;;;;0;0;0;0;0;0;0;0;0;();(-2000.0, -2000.0);
08:38:37:941;08:38:37:912;1448308477.49;(0.4738870620727539, 0.4129684872097439);57.4708442688;1.0;;;;;;;;;;;;;;0;0;0;0;0;0;0;0;0;();(-2000.0, -2000.0);
08:38:37:958;08:38:37:912;1448308477.49;(0.4738870620727539, 0.4129684872097439);57.4708442688;1.0;;;;;;;;;;;;;;0;0;0;0;0;0;0;0;0;();(-2000.0, -2000.0);
08:38:37:974;08:38:37:912;1448308477.49;(0.4738870620727539, 0.4129684872097439);57.4708442688;1.0;;;;;;;;;;;;;;0;0;0;0;0;0;0;0;0;();(-2000.0, -2000.0);
08:38:37:991;08:38:37:977;1448308477.56;(0.47424969673156736, 0.4127047220865886);57.0174331665;1.0;;;;;;;;;;;;;;0;0;0;0;0;0;0;0;0;();(-2000.0, -2000.0);
08:38:38:008;08:38:37:977;1448308477.56;(0.47424969673156736, 0.4127047220865886);57.0174331665;1.0;;;;;;;;;;;;;;0;0;0;0;0;0;0;0;0;();(-2000.0, -2000.0);
08:38:38:041;08:38:37:977;1448308477.56;(0.47424969673156736, 0.4127047220865886);57.0174331665;1.0;;;;;;;;;;;;;;0;0;0;0;0;0;0;0;0;();(-2000.0, -2000.0);
08:38:38:058;08:38:38:047;1448308477.63;(0.4858700752258301, 0.3971843719482422);56.7615814209;1.0;;;;;;;;;;;;;;0;0;0;0;0;0;0;0;0;();(-2000.0, -2000.0);
08:38:38:074;08:38:38:047;1448308477.63;(0.4858700752258301, 0.3971843719482422);56.7615814209;1.0;;;;;;;;;;;;;;0;0;0;0;0;0;0;0;0;();(-2000.0, -2000.0);
08:38:38:091;08:38:38:047;1448308477.63;(0.4858700752258301, 0.3971843719482422);56.7615814209;1.0;;;;;;;;;;;;;;0;0;0;0;0;0;0;0;0;();(-2000.0, -2000.0);
08:38:38:108;08:38:38:047;1448308477.63;(0.4858700752258301, 0.3971843719482422);56.7615814209;1.0;;;;;;;;;;;;;;0;0;0;0;0;0;0;0;0;();(-2000.0, -2000.0);
08:38:38:142;08:38:38:113;1448308477.69;(0.48503918647766114, 0.39681676228841145);56.2875480652;1.0;;;;;;;;;;;;;;0;0;0;0;0;0;0;0;0;();(-2000.0, -2000.0);
08:38:38:158;08:38:38:113;1448308477.69;(0.48503918647766114, 0.39681676228841145);56.2875480652;1.0;;;;;;;;;;;;;;0;0;0;0;0;0;0;0;0;();(-2000.0, -2000.0);
08:38:38:175;08:38:38:113;1448308477.69;(0.48503918647766114, 0.39681676228841145);56.2875480652;1.0;;;;;;;;;;;;;;0;0;0;0;0;0;0;0;0;();(-2000.0, -2000.0);
08:38:38:191;08:38:38:178;1448308477.76;(0, 0);0;0;;;;;;;;;;;;;;0;0;0;0;0;0;0;0;0;();(-2000.0, -2000.0);
08:38:38:208;08:38:38:178;1448308477.76;(0, 0);0;0;;;;;;;;;;;;;;0;0;0;0;0;0;0;0;0;();(-2000.0, -2000.0);
08:38:38:242;08:38:38:178;1448308477.76;(0, 0);0;0;;;;;;;;;;;;;;0;0;0;0;0;0;0;0;0;();(-2000.0, -2000.0);
08:38:38:258;08:38:38:178;1448308477.76;(0, 0);0;0;;;;;;;;;;;;;;0;0;0;0;0;0;0;0;0;();(-2000.0, -2000.0);
08:38:38:275;08:38:38:261;1448308477.83;(0.45558605194091795, 0.38779415554470487);50.6919250488;0.639499583539;;;;;;;;;;;;;;0;0;0;0;0;0;0;0;0;();(-2000.0, -2000.0);
08:38:38:292;08:38:38:261;1448308477.83;(0.45558605194091795, 0.38779415554470487);50.6919250488;0.639499583539;;;;;;;;;;;;;;0;0;0;0;0;0;0;0;0;();(-2000.0, -2000.0);
08:38:38:308;08:38:38:261;1448308477.83;(0.45558605194091795, 0.38779415554470487);50.6919250488;0.639499583539;;;;;;;;;;;;;;0;0;0;0;0;0;0;0;0;();(-2000.0, -2000.0);
08:38:38:341;08:38:38:311;1448308477.89;(0.4539999008178711, 0.3956970638699002);54.6486930847;1.0;;;;;;;;;;;;;;0;0;0;0;0;0;0;0;0;();(-2000.0, -2000.0);
08:38:38:358;08:38:38:311;1448308477.89;(0.4539999008178711, 0.3956970638699002);54.6486930847;1.0;;;;;;;;;;;;;;0;0;0;0;0;0;0;0;0;();(-2000.0, -2000.0);
08:38:38:374;08:38:38:311;1448308477.89;(0.4539999008178711, 0.3956970638699002);54.6486930847;1.0;;;;;;;;;;;;;;0;0;0;0;0;0;0;0;0;();(-2000.0, -2000.0);
08:38:38:391;08:38:38:377;1448308477.96;(0.45494956970214845, 0.3950910356309679);54.6833648682;1.0;;;;;;;;;;;;;;0;0;0;0;0;0;0;0;0;();(-2000.0, -2000.0);
08:38:38:409;08:38:38:377;1448308477.96;(0.45494956970214845, 0.3950910356309679);54.6833648682;1.0;;;;;;;;;;;;;;0;0;0;0;0;0;0;0;0;();(-2000.0, -2000.0);
08:38:38:442;08:38:38:377;1448308477.96;(0.45494956970214845, 0.3950910356309679);54.6833648682;1.0;;;;;;;;;;;;;;0;0;0;0;0;0;0;0;0;();(-2000.0, -2000.0);
08:38:38:458;08:38:38:445;1448308478.03;(0.4555808067321777, 0.3951154073079427);53.9810295105;1.0;;;;;;;;;;;;;;0;0;0;0;0;0;0;0;0;();(-2000.0, -2000.0);
08:38:38:475;08:38:38:445;1448308478.03;(0.4555808067321777, 0.3951154073079427);53.9810295105;1.0;;;;;;;;;;;;;;0;0;0;0;0;0;0;0;0;();(-2000.0, -2000.0);
08:38:38:492;08:38:38:445;1448308478.03;(0.4555808067321777, 0.3951154073079427);53.9810295105;1.0;;;;;;;;;;;;;;0;0;0;0;0;0;0;0;0;();(-2000.0, -2000.0);
08:38:38:509;08:38:38:445;1448308478.03;(0.4555808067321777, 0.3951154073079427);53.9810295105;1.0;;;;;;;;;;;;;;0;0;0;0;0;0;0;0;0;();(-2000.0, -2000.0);
08:38:38:541;08:38:38:513;1448308478.09;(0.45552725791931153, 0.3948253207736545);53.7098884583;1.0;;;;;;;;;;;;;;0;0;0;0;0;0;0;0;0;();(-2000.0, -2000.0);
08:38:38:558;08:38:38:513;1448308478.09;(0.45552725791931153, 0.3948253207736545);53.7098884583;1.0;;;;;;;;;;;;;;0;0;0;0;0;0;0;0;0;();(-2000.0, -2000.0);
08:38:38:575;08:38:38:513;1448308478.09;(0.45552725791931153, 0.3948253207736545);53.7098884583;1.0;;;;;;;;;;;;;;0;0;0;0;0;0;0;0;0;();(-2000.0, -2000.0);
08:38:38:592;08:38:38:584;1448308478.16;(0.45573673248291013, 0.39442600674099393);53.4522209167;1.0;;;;;;;;;;;;;;0;0;0;0;0;0;0;0;0;();(-2000.0, -2000.0);
08:38:38:608;08:38:38:584;1448308478.16;(0.45573673248291013, 0.39442600674099393);53.4522209167;1.0;;;;;;;;;;;;;;0;0;0;0;0;0;0;0;0;();(-2000.0, -2000.0);
08:38:38:642;08:38:38:584;1448308478.16;(0.45573673248291013, 0.39442600674099393);53.4522209167;1.0;;;;;;;;;;;;;;0;0;0;0;0;0;0;0;0;();(-2000.0, -2000.0);
08:38:38:658;08:38:38:646;1448308478.23;(0.4563958168029785, 0.394314956665039);53.3032646179;1.0;;;;;;;;;;;;;;0;0;0;0;0;0;0;0;0;();(-2000.0, -2000.0);
08:38:38:675;08:38:38:646;1448308478.23;(0.4563958168029785, 0.394314956665039);53.3032646179;1.0;;;;;;;;;;;;;;0;0;0;0;0;0;0;0;0;();(-2000.0, -2000.0);
08:38:38:691;08:38:38:646;1448308478.23;(0.4563958168029785, 0.394314956665039);53.3032646179;1.0;;;;;;;;;;;;;;0;0;0;0;0;0;0;0;0;();(-2000.0, -2000.0);
08:38:38:708;08:38:38:646;1448308478.23;(0.4563958168029785, 0.394314956665039);53.3032646179;1.0;;;;;;;;;;;;;;0;0;0;0;0;0;0;0;0;();(-2000.0, -2000.0);
08:38:38:744;08:38:38:711;1448308478.29;(0.4568692684173584, 0.39385036892361114);53.9008407593;1.0;;;;;;;;;;;;;;0;0;0;0;0;0;0;0;0;();(-2000.0, -2000.0);
08:38:38:761;08:38:38:711;1448308478.29;(0.4568692684173584, 0.39385036892361114);53.9008407593;1.0;;;;;;;;;;;;;;0;0;0;0;0;0;0;0;0;();(-2000.0, -2000.0);
08:38:38:777;08:38:38:711;1448308478.29;(0.4568692684173584, 0.39385036892361114);53.9008407593;1.0;;;;;;;;;;;;;;0;0;0;0;0;0;0;0;0;();(-2000.0, -2000.0);
08:38:38:791;08:38:38:783;1448308478.36;(0.45713167190551757, 0.3932582431369358);53.9202194214;1.0;;;;;;;;;;;;;;0;0;0;0;0;0;0;0;0;();(-2000.0, -2000.0);
08:38:38:809;08:38:38:783;1448308478.36;(0.45713167190551757, 0.3932582431369358);53.9202194214;1.0;;;;;;;;;;;;;;0;0;0;0;0;0;0;0;0;();(-2000.0, -2000.0);
08:38:38:844;08:38:38:838;1448308478.39;(0.4384297847747803, 0.3935106913248698);54.3365440369;1.0;;;;;;;;;;;;;;0;0;0;0;0;0;0;0;0;();(-2000.0, -2000.0);
08:38:38:859;08:38:38:840;1448308478.43;(0.42738492488861085, 0.39409230550130203);54.0274658203;1.0;;;;;;;;;;;;;;0;0;0;0;0;0;0;0;0;();(-2000.0, -2000.0);
08:38:38:875;08:38:38:840;1448308478.43;(0.42738492488861085, 0.39409230550130203);54.0274658203;1.0;;;;;;;;;;;;;;0;0;0;0;0;0;0;0;0;();(-2000.0, -2000.0);
08:38:38:892;08:38:38:840;1448308478.43;(0.42738492488861085, 0.39409230550130203);54.0274658203;1.0;;;;;;;;;;;;;;0;0;0;0;0;0;0;0;0;();(-2000.0, -2000.0);
08:38:38:908;08:38:38:840;1448308478.43;(0.42738492488861085, 0.39409230550130203);54.0274658203;1.0;;;;;;;;;;;;;;0;0;0;0;0;0;0;0;0;();(-2000.0, -2000.0);
08:38:38:942;08:38:38:910;1448308478.49;(0.4262693405151367, 0.3934522416856554);54.3121528625;1.0;;;;;;;;;;;;;;0;0;0;0;0;0;0;0;0;();(-2000.0, -2000.0);
08:38:38:959;08:38:38:910;1448308478.49;(0.4262693405151367, 0.3934522416856554);54.3121528625;1.0;;;;;;;;;;;;;;0;0;0;0;0;0;0;0;0;();(-2000.0, -2000.0);
08:38:38:975;08:38:38:971;1448308478.53;(0.4257728338241577, 0.3937248229980469);54.4114494324;1.0;;;;;;;;;;;;;;0;0;0;0;0;0;0;0;0;();(-2000.0, -2000.0);
08:38:38:992;08:38:38:973;1448308478.56;(0.42577495574951174, 0.3937185923258464);54.6696968079;1.0;;;;;;;;;;;;;;0;0;0;0;0;0;0;0;0;();(-2000.0, -2000.0);
08:38:39:009;08:38:38:973;1448308478.56;(0.42577495574951174, 0.3937185923258464);54.6696968079;1.0;;;;;;;;;;;;;;0;0;0;0;0;0;0;0;0;();(-2000.0, -2000.0);
08:38:39:043;08:38:39:040;1448308478.59;(0.4258507251739502, 0.39390034145779085);54.4326477051;1.0;;;;;;;;;;;;;;0;0;0;0;0;0;0;0;0;();(-2000.0, -2000.0);
08:38:39:059;08:38:39:041;1448308478.63;(0.42573118209838867, 0.3936723073323568);54.385269165;1.0;;;;;;;;;;;;;;0;0;0;0;0;0;0;0;0;();(-2000.0, -2000.0);
08:38:39:075;08:38:39:041;1448308478.63;(0.42573118209838867, 0.3936723073323568);54.385269165;1.0;;;;;;;;;;;;;;0;0;0;0;0;0;0;0;0;();(-2000.0, -2000.0);
08:38:39:092;08:38:39:041;1448308478.63;(0.42573118209838867, 0.3936723073323568);54.385269165;1.0;;;;;;;;;;;;;;0;0;0;0;0;0;0;0;0;();(-2000.0, -2000.0);
08:38:39:109;08:38:39:105;1448308478.69;(0.4260385274887085, 0.39425159030490453);54.5605735779;1.0;;;;;;;;;;;;;;0;0;0;0;0;0;0;0;0;();(-2000.0, -2000.0);
08:38:39:143;08:38:39:105;1448308478.69;(0.4260385274887085, 0.39425159030490453);54.5605735779;1.0;;;;;;;;;;;;;;0;0;0;0;0;0;0;0;0;();(-2000.0, -2000.0);
08:38:39:159;08:38:39:105;1448308478.69;(0.4260385274887085, 0.39425159030490453);54.5605735779;1.0;;;;;;;;;;;;;;0;0;0;0;0;0;0;0;0;();(-2000.0, -2000.0);
08:38:39:176;08:38:39:172;1448308478.76;(0.4259251356124878, 0.3938965267605252);54.2646217346;1.0;;;;;;;;;;;;;;0;0;0;0;0;0;0;0;0;();(-2000.0, -2000.0);
08:38:39:192;08:38:39:172;1448308478.76;(0.4259251356124878, 0.3938965267605252);54.2646217346;1.0;;;;;;;;;;;;;;0;0;0;0;0;0;0;0;0;();(-2000.0, -2000.0);
08:38:39:209;08:38:39:172;1448308478.76;(0.4259251356124878, 0.3938965267605252);54.2646217346;1.0;;;;;;;;;;;;;;0;0;0;0;0;0;0;0;0;();(-2000.0, -2000.0);
08:38:39:245;08:38:39:241;1448308478.83;(0.4259632587432861, 0.3944200727674696);54.372127533;1.0;;;;;;;;;;;;;;0;0;0;0;0;0;0;0;0;();(-2000.0, -2000.0);
08:38:39:259;08:38:39:241;1448308478.83;(0.4259632587432861, 0.3944200727674696);54.372127533;1.0;;;;;;;;;;;;;;0;0;0;0;0;0;0;0;0;();(-2000.0, -2000.0);
08:38:39:275;08:38:39:241;1448308478.83;(0.4259632587432861, 0.3944200727674696);54.372127533;1.0;;;;;;;;;;;;;;0;0;0;0;0;0;0;0;0;();(-2000.0, -2000.0);
08:38:39:292;08:38:39:241;1448308478.83;(0.4259632587432861, 0.3944200727674696);54.372127533;1.0;;;;;;;;;;;;;;0;0;0;0;0;0;0;0;0;();(-2000.0, -2000.0);
08:38:39:307;08:38:39:304;1448308478.89;(0.4252476215362549, 0.3954644521077474);54.5650596619;1.0;;;;;;;;;;;;;;0;0;0;0;0;0;0;0;0;();(-2000.0, -2000.0);
08:38:39:325;08:38:39:304;1448308478.89;(0.4252476215362549, 0.3954644521077474);54.5650596619;1.0;;;;;;;;;;;;;;0;0;0;0;0;0;0;0;0;();(-2000.0, -2000.0);
08:38:39:360;08:38:39:304;1448308478.89;(0.4252476215362549, 0.3954644521077474);54.5650596619;1.0;;;;;;;;;;;;;;0;0;0;0;0;0;0;0;0;();(-2000.0, -2000.0);
08:38:39:378;08:38:39:304;1448308478.89;(0.4252476215362549, 0.3954644521077474);54.5650596619;1.0;;;;;;;;;;;;;;0;0;0;0;0;0;0;0;0;();(-2000.0, -2000.0);
08:38:39:395;08:38:39:384;1448308478.96;(0.4252691984176636, 0.39576195610894094);54.8102836609;1.0;;;;;;;;;;;;;;0;0;0;0;0;0;0;0;0;();(-2000.0, -2000.0);
08:38:39:412;08:38:39:384;1448308478.96;(0.4252691984176636, 0.39576195610894094);54.8102836609;1.0;;;;;;;;;;;;;;0;0;0;0;0;0;0;0;0;();(-2000.0, -2000.0);
08:38:39:426;08:38:39:384;1448308478.96;(0.4252691984176636, 0.39576195610894094);54.8102836609;1.0;;;;;;;;;;;;;;0;0;0;0;0;0;0;0;0;();(-2000.0, -2000.0);
08:38:39:459;08:38:39:436;1448308479.03;(0.42511422634124757, 0.39553036159939237);54.6452865601;1.0;;;;;;;;;;;;;;0;0;0;0;0;0;0;0;0;();(-2000.0, -2000.0);
08:38:39:476;08:38:39:436;1448308479.03;(0.42511422634124757, 0.39553036159939237);54.6452865601;1.0;;;;;;;;;;;;;;0;0;0;0;0;0;0;0;0;();(-2000.0, -2000.0);
08:38:39:493;08:38:39:436;1448308479.03;(0.42511422634124757, 0.39553036159939237);54.6452865601;1.0;;;;;;;;;;;;;;0;0;0;0;0;0;0;0;0;();(-2000.0, -2000.0);
08:38:39:509;08:38:39:504;1448308479.09;(0.42512218952178954, 0.3959115770128038);54.8319320679;1.0;;;;;;;;;;;;;;0;0;0;0;0;0;0;0;0;();(-2000.0, -2000.0);
08:38:39:542;08:38:39:504;1448308479.09;(0.42512218952178954, 0.3959115770128038);54.8319320679;1.0;;;;;;;;;;;;;;0;0;0;0;0;0;0;0;0;();(-2000.0, -2000.0);
08:38:39:559;08:38:39:504;1448308479.09;(0.42512218952178954, 0.3959115770128038);54.8319320679;1.0;;;;;;;;;;;;;;0;0;0;0;0;0;0;0;0;();(-2000.0, -2000.0);
08:38:39:576;08:38:39:572;1448308479.16;(0.4252405881881714, 0.395773442586263);55.0114326477;1.0;;;;;;;;;;;;;;0;0;0;0;0;0;0;0;0;();(-2000.0, -2000.0);
08:38:39:592;08:38:39:572;1448308479.16;(0.4252405881881714, 0.395773442586263);55.0114326477;1.0;;;;;;;;;;;;;;0;0;0;0;0;0;0;0;0;();(-2000.0, -2000.0);
08:38:39:610;08:38:39:572;1448308479.16;(0.4252405881881714, 0.395773442586263);55.0114326477;1.0;;;;;;;;;;;;;;0;0;0;0;0;0;0;0;0;();(-2000.0, -2000.0);
08:38:39:626;08:38:39:572;1448308479.16;(0.4252405881881714, 0.395773442586263);55.0114326477;1.0;;;;;;;;;;;;;;0;0;0;0;0;0;0;0;0;();(-2000.0, -2000.0);
08:38:39:659;08:38:39:636;1448308479.23;(0.425238037109375, 0.3962515513102214);54.9799461365;1.0;;;;;;;;;;;;;;0;0;0;0;0;0;0;0;0;();(-2000.0, -2000.0);
08:38:39:676;08:38:39:636;1448308479.23;(0.425238037109375, 0.3962515513102214);54.9799461365;1.0;;;;;;;;;;;;;;0;0;0;0;0;0;0;0;0;();(-2000.0, -2000.0);
08:38:39:693;08:38:39:636;1448308479.23;(0.425238037109375, 0.3962515513102214);54.9799461365;1.0;;;;;;;;;;;;;;0;0;0;0;0;0;0;0;0;();(-2000.0, -2000.0);
08:38:39:709;08:38:39:705;1448308479.29;(0.42524654865264894, 0.39607128567165795);54.9140663147;1.0;;;;;;;;;;;;;;0;0;0;0;0;0;0;0;0;();(-2000.0, -2000.0);
08:38:39:725;08:38:39:705;1448308479.29;(0.42524654865264894, 0.39607128567165795);54.9140663147;1.0;;;;;;;;;;;;;;0;0;0;0;0;0;0;0;0;();(-2000.0, -2000.0);
08:38:39:759;08:38:39:705;1448308479.29;(0.42524654865264894, 0.39607128567165795);54.9140663147;1.0;;;;;;;;;;;;;;0;0;0;0;0;0;0;0;0;();(-2000.0, -2000.0);
08:38:39:776;08:38:39:768;1448308479.36;(0.42487785816192625, 0.3958264668782552);55.3528366089;1.0;;;;;;;;;;;;;;0;0;0;0;0;0;0;0;0;();(-2000.0, -2000.0);
08:38:39:792;08:38:39:768;1448308479.36;(0.42487785816192625, 0.3958264668782552);55.3528366089;1.0;;;;;;;;;;;;;;0;0;0;0;0;0;0;0;0;();(-2000.0, -2000.0);
08:38:39:808;08:38:39:768;1448308479.36;(0.42487785816192625, 0.3958264668782552);55.3528366089;1.0;;;;;;;;;;;;;;0;0;0;0;0;0;0;0;0;();(-2000.0, -2000.0);
08:38:39:825;08:38:39:768;1448308479.36;(0.42487785816192625, 0.3958264668782552);55.3528366089;1.0;;;;;;;;;;;;;;0;0;0;0;0;0;0;0;0;();(-2000.0, -2000.0);
08:38:39:858;08:38:39:838;1448308479.39;(0.424748969078064, 0.39573343065049915);55.7155685425;1.0;;;;;;;;;;;;;;0;0;0;0;0;0;0;0;0;();(-2000.0, -2000.0);
08:38:39:875;08:38:39:838;1448308479.39;(0.424748969078064, 0.39573343065049915);55.7155685425;1.0;;;;;;;;;;;;;;0;0;0;0;0;0;0;0;0;();(-2000.0, -2000.0);
08:38:39:893;08:38:39:838;1448308479.39;(0.424748969078064, 0.39573343065049915);55.7155685425;1.0;;;;;;;;;;;;;;0;0;0;0;0;0;0;0;0;();(-2000.0, -2000.0);
08:38:39:909;08:38:39:906;1448308479.49;(0.4295026779174805, 0.3922165764702691);56.2643432617;1.0;;;;;;;;;;;;;;0;0;0;0;0;0;0;0;0;();(-2000.0, -2000.0);
08:38:39:925;08:38:39:906;1448308479.49;(0.4295026779174805, 0.3922165764702691);56.2643432617;1.0;;;;;;;;;;;;;;0;0;0;0;0;0;0;0;0;();(-2000.0, -2000.0);
08:38:39:960;08:38:39:906;1448308479.49;(0.4295026779174805, 0.3922165764702691);56.2643432617;1.0;;;;;;;;;;;;;;0;0;0;0;0;0;0;0;0;();(-2000.0, -2000.0);
08:38:39:978;08:38:39:969;1448308479.56;(0.42966084480285643, 0.3911288367377387);56.7801551819;1.0;;;;;;;;;;;;;;0;0;0;0;0;0;0;0;0;();(-2000.0, -2000.0);
08:38:39:995;08:38:39:969;1448308479.56;(0.42966084480285643, 0.3911288367377387);56.7801551819;1.0;;;;;;;;;;;;;;0;0;0;0;0;0;0;0;0;();(-2000.0, -2000.0);
08:38:40:011;08:38:39:969;1448308479.56;(0.42966084480285643, 0.3911288367377387);56.7801551819;1.0;;;;;;;;;;;;;;0;0;0;0;0;0;0;0;0;();(-2000.0, -2000.0);
08:38:40:026;08:38:39:969;1448308479.56;(0.42966084480285643, 0.3911288367377387);56.7801551819;1.0;;;;;;;;;;;;;;0;0;0;0;0;0;0;0;0;();(-2000.0, -2000.0);
08:38:40:059;08:38:40:036;1448308479.63;(0.4296562910079956, 0.3911137474907769);56.8746452332;1.0;;;;;;;;;;;;;;0;0;0;0;0;0;0;0;0;();(-2000.0, -2000.0);
08:38:40:076;08:38:40:036;1448308479.63;(0.4296562910079956, 0.3911137474907769);56.8746452332;1.0;;;;;;;;;;;;;;0;0;0;0;0;0;0;0;0;();(-2000.0, -2000.0);
08:38:40:092;08:38:40:036;1448308479.63;(0.4296562910079956, 0.3911137474907769);56.8746452332;1.0;;;;;;;;;;;;;;0;0;0;0;0;0;0;0;0;();(-2000.0, -2000.0);
08:38:40:112;08:38:40:104;1448308479.69;(0.42948641777038576, 0.39138895670572915);56.9332695007;1.0;;;;;;;;;;;;;;0;0;0;0;0;0;0;0;0;();(-2000.0, -2000.0);
08:38:40:129;08:38:40:104;1448308479.69;(0.42948641777038576, 0.39138895670572915);56.9332695007;1.0;;;;;;;;;;;;;;0;0;0;0;0;0;0;0;0;();(-2000.0, -2000.0);
08:38:40:160;08:38:40:104;1448308479.69;(0.42948641777038576, 0.39138895670572915);56.9332695007;1.0;;;;;;;;;;;;;;0;0;0;0;0;0;0;0;0;();(-2000.0, -2000.0);
08:38:40:176;08:38:40:168;1448308479.76;(0.4293334484100342, 0.39168086581759987);57.3869171143;1.0;;;;;;;;;;;;;;0;0;0;0;0;0;0;0;0;();(-2000.0, -2000.0);
08:38:40:193;08:38:40:168;1448308479.76;(0.4293334484100342, 0.39168086581759987);57.3869171143;1.0;;;;;;;;;;;;;;0;0;0;0;0;0;0;0;0;();(-2000.0, -2000.0);
08:38:40:210;08:38:40:168;1448308479.76;(0.4293334484100342, 0.39168086581759987);57.3869171143;1.0;;;;;;;;;;;;;;0;0;0;0;0;0;0;0;0;();(-2000.0, -2000.0);
08:38:40:226;08:38:40:168;1448308479.76;(0.4293334484100342, 0.39168086581759987);57.3869171143;1.0;;;;;;;;;;;;;;0;0;0;0;0;0;0;0;0;();(-2000.0, -2000.0);
08:38:40:260;08:38:40:236;1448308479.83;(0.4289602041244507, 0.39176445007324223);57.4845466614;1.0;;;;;;;;;;;;;;0;0;0;0;0;0;0;0;0;();(-2000.0, -2000.0);
08:38:40:277;08:38:40:236;1448308479.83;(0.4289602041244507, 0.39176445007324223);57.4845466614;1.0;;;;;;;;;;;;;;0;0;0;0;0;0;0;0;0;();(-2000.0, -2000.0);
08:38:40:293;08:38:40:236;1448308479.83;(0.4289602041244507, 0.39176445007324223);57.4845466614;1.0;;;;;;;;;;;;;;0;0;0;0;0;0;0;0;0;();(-2000.0, -2000.0);
08:38:40:310;08:38:40:302;1448308479.89;(0.428708815574646, 0.39087465074327254);57.4120368958;1.0;;;;;;;;;;;;;;0;0;0;0;0;0;0;0;0;();(-2000.0, -2000.0);
08:38:40:327;08:38:40:302;1448308479.89;(0.428708815574646, 0.39087465074327254);57.4120368958;1.0;;;;;;;;;;;;;;0;0;0;0;0;0;0;0;0;();(-2000.0, -2000.0);
08:38:40:360;08:38:40:302;1448308479.89;(0.428708815574646, 0.39087465074327254);57.4120368958;1.0;;;;;;;;;;;;;;0;0;0;0;0;0;0;0;0;();(-2000.0, -2000.0);
08:38:40:376;08:38:40:370;1448308479.96;(0.43049962520599366, 0.39136916266547306);58.1510543823;0.868224838632;;;;;;;;;;;;;;0;0;0;0;0;0;0;0;0;();(-2000.0, -2000.0);
08:38:40:393;08:38:40:370;1448308479.96;(0.43049962520599366, 0.39136916266547306);58.1510543823;0.868224838632;;;;;;;;;;;;;;0;0;0;0;0;0;0;0;0;();(-2000.0, -2000.0);
08:38:40:410;08:38:40:370;1448308479.96;(0.43049962520599366, 0.39136916266547306);58.1510543823;0.868224838632;;;;;;;;;;;;;;0;0;0;0;0;0;0;0;0;();(-2000.0, -2000.0);
08:38:40:426;08:38:40:370;1448308479.96;(0.43049962520599366, 0.39136916266547306);58.1510543823;0.868224838632;;;;;;;;;;;;;;0;0;0;0;0;0;0;0;0;();(-2000.0, -2000.0);
08:38:40:460;08:38:40:431;1448308479.99;(0.4642046928405762, 0.39894426133897565);57.5432319641;1.0;;;;;;;;;;;;;;0;0;0;0;0;0;0;0;0;();(-2000.0, -2000.0);
08:38:40:477;08:38:40:431;1448308479.99;(0.4642046928405762, 0.39894426133897565);57.5432319641;1.0;;;;;;;;;;;;;;0;0;0;0;0;0;0;0;0;();(-2000.0, -2000.0);
08:38:40:493;08:38:40:431;1448308479.99;(0.4642046928405762, 0.39894426133897565);57.5432319641;1.0;;;;;;;;;;;;;;0;0;0;0;0;0;0;0;0;();(-2000.0, -2000.0);
08:38:40:512;08:38:40:504;1448308480.06;(0.4963993549346924, 0.3979791429307725);57.7659797668;0.982134855976;;;;;;;;;;;;;;0;0;0;0;0;0;0;0;0;();(-2000.0, -2000.0);
08:38:40:529;08:38:40:513;1448308480.09;(0.4967985153198242, 0.3980387369791667);57.6947555542;1.0;;;;;;;;;;;;;;0;0;0;0;0;0;0;0;0;();(-2000.0, -2000.0);
08:38:40:562;08:38:40:513;1448308480.09;(0.4967985153198242, 0.3980387369791667);57.6947555542;1.0;;;;;;;;;;;;;;0;0;0;0;0;0;0;0;0;();(-2000.0, -2000.0);
08:38:40:579;08:38:40:570;1448308480.16;(0.4966318607330322, 0.39834942287868924);57.3969993591;1.0;;;;;;;;;;;;;;0;0;0;0;0;0;0;0;0;();(-2000.0, -2000.0);
08:38:40:595;08:38:40:570;1448308480.16;(0.4966318607330322, 0.39834942287868924);57.3969993591;1.0;;;;;;;;;;;;;;0;0;0;0;0;0;0;0;0;();(-2000.0, -2000.0);
08:38:40:612;08:38:40:570;1448308480.16;(0.4966318607330322, 0.39834942287868924);57.3969993591;1.0;;;;;;;;;;;;;;0;0;0;0;0;0;0;0;0;();(-2000.0, -2000.0);
08:38:40:627;08:38:40:570;1448308480.16;(0.4966318607330322, 0.39834942287868924);57.3969993591;1.0;;;;;;;;;;;;;;0;0;0;0;0;0;0;0;0;();(-2000.0, -2000.0);
08:38:40:659;08:38:40:633;1448308480.23;(0.49649848937988283, 0.39812639024522567);57.3535728455;1.0;;;;;;;;;;;;;;0;0;0;0;0;0;0;0;0;();(-2000.0, -2000.0);
08:38:40:676;08:38:40:633;1448308480.23;(0.49649848937988283, 0.39812639024522567);57.3535728455;1.0;;;;;;;;;;;;;;0;0;0;0;0;0;0;0;0;();(-2000.0, -2000.0);
08:38:40:692;08:38:40:633;1448308480.23;(0.49649848937988283, 0.39812639024522567);57.3535728455;1.0;;;;;;;;;;;;;;0;0;0;0;0;0;0;0;0;();(-2000.0, -2000.0);
08:38:40:710;08:38:40:700;1448308480.29;(0.5282985210418701, 0.3835927327473958);58.3348083496;1.0;;;;;;;;;;;;;;0;0;0;0;0;0;0;0;0;();(-2000.0, -2000.0);
08:38:40:727;08:38:40:700;1448308480.29;(0.5282985210418701, 0.3835927327473958);58.3348083496;1.0;;;;;;;;;;;;;;0;0;0;0;0;0;0;0;0;();(-2000.0, -2000.0);
08:38:40:762;08:38:40:700;1448308480.29;(0.5282985210418701, 0.3835927327473958);58.3348083496;1.0;;;;;;;;;;;;;;0;0;0;0;0;0;0;0;0;();(-2000.0, -2000.0);
08:38:40:779;08:38:40:770;1448308480.36;(0.5337495326995849, 0.38075171576605904);57.1977920532;1.0;;;;;;;;;;;;;;0;0;0;0;0;0;0;0;0;();(-2000.0, -2000.0);
08:38:40:796;08:38:40:770;1448308480.36;(0.5337495326995849, 0.38075171576605904);57.1977920532;1.0;;;;;;;;;;;;;;0;0;0;0;0;0;0;0;0;();(-2000.0, -2000.0);
08:38:40:812;08:38:40:770;1448308480.36;(0.5337495326995849, 0.38075171576605904);57.1977920532;1.0;;;;;;;;;;;;;;0;0;0;0;0;0;0;0;0;();(-2000.0, -2000.0);
08:38:40:828;08:38:40:770;1448308480.36;(0.5337495326995849, 0.38075171576605904);57.1977920532;1.0;;;;;;;;;;;;;;0;0;0;0;0;0;0;0;0;();(-2000.0, -2000.0);
08:38:40:860;08:38:40:832;1448308480.43;(0.5338977813720703, 0.38116115993923616);57.1923408508;1.0;;;;;;;;;;;;;;0;0;0;0;0;0;0;0;0;();(-2000.0, -2000.0);
08:38:40:877;08:38:40:832;1448308480.43;(0.5338977813720703, 0.38116115993923616);57.1923408508;1.0;;;;;;;;;;;;;;0;0;0;0;0;0;0;0;0;();(-2000.0, -2000.0);
08:38:40:896;08:38:40:832;1448308480.43;(0.5338977813720703, 0.38116115993923616);57.1923408508;1.0;;;;;;;;;;;;;;0;0;0;0;0;0;0;0;0;();(-2000.0, -2000.0);
08:38:40:913;08:38:40:902;1448308480.49;(0.5341984272003174, 0.3811122046576606);57.6499786377;1.0;;;;;;;;;;;;;;0;0;0;0;0;0;0;0;0;();(-2000.0, -2000.0);
08:38:40:929;08:38:40:902;1448308480.49;(0.5341984272003174, 0.3811122046576606);57.6499786377;1.0;;;;;;;;;;;;;;0;0;0;0;0;0;0;0;0;();(-2000.0, -2000.0);
08:38:40:960;08:38:40:902;1448308480.49;(0.5341984272003174, 0.3811122046576606);57.6499786377;1.0;;;;;;;;;;;;;;0;0;0;0;0;0;0;0;0;();(-2000.0, -2000.0);
08:38:40:977;08:38:40:965;1448308480.56;(0.533987283706665, 0.3811924404568142);57.3596229553;1.0;;;;;;;;;;;;;;0;0;0;0;0;0;0;0;0;();(-2000.0, -2000.0);
08:38:40:994;08:38:40:965;1448308480.56;(0.533987283706665, 0.3811924404568142);57.3596229553;1.0;;;;;;;;;;;;;;0;0;0;0;0;0;0;0;0;();(-2000.0, -2000.0);
08:38:41:010;08:38:40:965;1448308480.56;(0.533987283706665, 0.3811924404568142);57.3596229553;1.0;;;;;;;;;;;;;;0;0;0;0;0;0;0;0;0;();(-2000.0, -2000.0);
08:38:41:027;08:38:40:965;1448308480.56;(0.533987283706665, 0.3811924404568142);57.3596229553;1.0;;;;;;;;;;;;;;0;0;0;0;0;0;0;0;0;();(-2000.0, -2000.0);
08:38:41:061;08:38:41:032;1448308480.63;(0.5340988636016846, 0.38159086439344614);57.9629096985;1.0;;;;;;;;;;;;;;0;0;0;0;0;0;0;0;0;();(-2000.0, -2000.0);
08:38:41:077;08:38:41:032;1448308480.63;(0.5340988636016846, 0.38159086439344614);57.9629096985;1.0;;;;;;;;;;;;;;0;0;0;0;0;0;0;0;0;();(-2000.0, -2000.0);
08:38:41:094;08:38:41:032;1448308480.63;(0.5340988636016846, 0.38159086439344614);57.9629096985;1.0;;;;;;;;;;;;;;0;0;0;0;0;0;0;0;0;();(-2000.0, -2000.0);
08:38:41:111;08:38:41:098;1448308480.69;(0.5339040279388427, 0.38131573994954426);57.7874145508;1.0;;;;;;;;;;;;;;0;0;0;0;0;0;0;0;0;();(-2000.0, -2000.0);
08:38:41:127;08:38:41:098;1448308480.69;(0.5339040279388427, 0.38131573994954426);57.7874145508;1.0;;;;;;;;;;;;;;0;0;0;0;0;0;0;0;0;();(-2000.0, -2000.0);
08:38:41:163;08:38:41:098;1448308480.69;(0.5339040279388427, 0.38131573994954426);57.7874145508;1.0;;;;;;;;;;;;;;0;0;0;0;0;0;0;0;0;();(-2000.0, -2000.0);
08:38:41:180;08:38:41:166;1448308480.76;(0.5338676929473877, 0.381059816148546);58.112197876;1.0;;;;;;;;;;;;;;0;0;0;0;0;0;0;0;0;();(-2000.0, -2000.0);
08:38:41:193;08:38:41:166;1448308480.76;(0.5338676929473877, 0.381059816148546);58.112197876;1.0;;;;;;;;;;;;;;0;0;0;0;0;0;0;0;0;();(-2000.0, -2000.0);
08:38:41:210;08:38:41:166;1448308480.76;(0.5338676929473877, 0.381059816148546);58.112197876;1.0;;;;;;;;;;;;;;0;0;0;0;0;0;0;0;0;();(-2000.0, -2000.0);
08:38:41:227;08:38:41:166;1448308480.76;(0.5338676929473877, 0.381059816148546);58.112197876;1.0;;;;;;;;;;;;;;0;0;0;0;0;0;0;0;0;();(-2000.0, -2000.0);
08:38:41:260;08:38:41:232;1448308480.83;(0.5542547225952148, 0.3662595536973742);59.7285041809;1.0;;;;;;;;;;;;;;0;0;0;0;0;0;0;0;0;();(-2000.0, -2000.0);
08:38:41:277;08:38:41:232;1448308480.83;(0.5542547225952148, 0.3662595536973742);59.7285041809;1.0;;;;;;;;;;;;;;0;0;0;0;0;0;0;0;0;();(-2000.0, -2000.0);
08:38:41:294;08:38:41:232;1448308480.83;(0.5542547225952148, 0.3662595536973742);59.7285041809;1.0;;;;;;;;;;;;;;0;0;0;0;0;0;0;0;0;();(-2000.0, -2000.0);
08:38:41:312;08:38:41:298;1448308480.89;(0.5618642330169678, 0.36048088073730467);58.1514549255;1.0;;;;;;;;;;;;;;0;0;0;0;0;0;0;0;0;();(-2000.0, -2000.0);
08:38:41:327;08:38:41:298;1448308480.89;(0.5618642330169678, 0.36048088073730467);58.1514549255;1.0;;;;;;;;;;;;;;0;0;0;0;0;0;0;0;0;();(-2000.0, -2000.0);
08:38:41:361;08:38:41:298;1448308480.89;(0.5618642330169678, 0.36048088073730467);58.1514549255;1.0;;;;;;;;;;;;;;0;0;0;0;0;0;0;0;0;();(-2000.0, -2000.0);
08:38:41:377;08:38:41:365;1448308480.96;(0.5619941234588623, 0.3610822465684679);58.1952781677;1.0;;;;;;;;;;;;;;0;0;0;0;0;0;0;0;0;();(-2000.0, -2000.0);
08:38:41:394;08:38:41:365;1448308480.96;(0.5619941234588623, 0.3610822465684679);58.1952781677;1.0;;;;;;;;;;;;;;0;0;0;0;0;0;0;0;0;();(-2000.0, -2000.0);
08:38:41:411;08:38:41:365;1448308480.96;(0.5619941234588623, 0.3610822465684679);58.1952781677;1.0;;;;;;;;;;;;;;0;0;0;0;0;0;0;0;0;();(-2000.0, -2000.0);
08:38:41:427;08:38:41:365;1448308480.96;(0.5619941234588623, 0.3610822465684679);58.1952781677;1.0;;;;;;;;;;;;;;0;0;0;0;0;0;0;0;0;();(-2000.0, -2000.0);
08:38:41:461;08:38:41:427;1448308480.99;(0.5617204666137695, 0.36137521531846784);58.3796768188;1.0;;;;;;;;;;;;;;0;0;0;0;0;0;0;0;0;();(-2000.0, -2000.0);
08:38:41:477;08:38:41:427;1448308480.99;(0.5617204666137695, 0.36137521531846784);58.3796768188;1.0;;;;;;;;;;;;;;0;0;0;0;0;0;0;0;0;();(-2000.0, -2000.0);
08:38:41:494;08:38:41:427;1448308480.99;(0.5617204666137695, 0.36137521531846784);58.3796768188;1.0;;;;;;;;;;;;;;0;0;0;0;0;0;0;0;0;();(-2000.0, -2000.0);
08:38:41:511;08:38:41:500;1448308481.09;(0.5613513469696045, 0.361905754937066);58.3021125793;1.0;;;;;;;;;;;;;;0;0;0;0;0;0;0;0;0;();(-2000.0, -2000.0);
08:38:41:527;08:38:41:500;1448308481.09;(0.5613513469696045, 0.361905754937066);58.3021125793;1.0;;;;;;;;;;;;;;0;0;0;0;0;0;0;0;0;();(-2000.0, -2000.0);
08:38:41:561;08:38:41:500;1448308481.09;(0.5613513469696045, 0.361905754937066);58.3021125793;1.0;;;;;;;;;;;;;;0;0;0;0;0;0;0;0;0;();(-2000.0, -2000.0);
08:38:41:577;08:38:41:565;1448308481.16;(0.5615610122680664, 0.36178427802191837);58.1782073975;1.0;;;;;;;;;;;;;;0;0;0;0;0;0;0;0;0;();(-2000.0, -2000.0);
08:38:41:594;08:38:41:565;1448308481.16;(0.5615610122680664, 0.36178427802191837);58.1782073975;1.0;;;;;;;;;;;;;;0;0;0;0;0;0;0;0;0;();(-2000.0, -2000.0);
08:38:41:611;08:38:41:565;1448308481.16;(0.5615610122680664, 0.36178427802191837);58.1782073975;1.0;;;;;;;;;;;;;;0;0;0;0;0;0;0;0;0;();(-2000.0, -2000.0);
08:38:41:628;08:38:41:565;1448308481.16;(0.5615610122680664, 0.36178427802191837);58.1782073975;1.0;;;;;;;;;;;;;;0;0;0;0;0;0;0;0;0;();(-2000.0, -2000.0);
08:38:41:661;08:38:41:628;1448308481.19;(0.5618141174316407, 0.36170887417263453);57.7679328918;1.0;;;;;;;;;;;;;;0;0;0;0;0;0;0;0;0;();(-2000.0, -2000.0);
08:38:41:677;08:38:41:628;1448308481.19;(0.5618141174316407, 0.36170887417263453);57.7679328918;1.0;;;;;;;;;;;;;;0;0;0;0;0;0;0;0;0;();(-2000.0, -2000.0);
08:38:41:694;08:38:41:628;1448308481.19;(0.5618141174316407, 0.36170887417263453);57.7679328918;1.0;;;;;;;;;;;;;;0;0;0;0;0;0;0;0;0;();(-2000.0, -2000.0);
08:38:41:711;08:38:41:699;1448308481.29;(0.5620068073272705, 0.36232333713107634);57.8074111938;1.0;;;;;;;;;;;;;;0;0;0;0;0;0;0;0;0;();(-2000.0, -2000.0);
08:38:41:728;08:38:41:699;1448308481.29;(0.5620068073272705, 0.36232333713107634);57.8074111938;1.0;;;;;;;;;;;;;;0;0;0;0;0;0;0;0;0;();(-2000.0, -2000.0);
08:38:41:761;08:38:41:699;1448308481.29;(0.5620068073272705, 0.36232333713107634);57.8074111938;1.0;;;;;;;;;;;;;;0;0;0;0;0;0;0;0;0;();(-2000.0, -2000.0);
08:38:41:778;08:38:41:764;1448308481.36;(0.5621265888214111, 0.36233016120062933);57.3793334961;1.0;;;;;;;;;;;;;;0;0;0;0;0;0;0;0;0;();(-2000.0, -2000.0);
08:38:41:794;08:38:41:764;1448308481.36;(0.5621265888214111, 0.36233016120062933);57.3793334961;1.0;;;;;;;;;;;;;;0;0;0;0;0;0;0;0;0;();(-2000.0, -2000.0);
08:38:41:811;08:38:41:764;1448308481.36;(0.5621265888214111, 0.36233016120062933);57.3793334961;1.0;;;;;;;;;;;;;;0;0;0;0;0;0;0;0;0;();(-2000.0, -2000.0);
08:38:41:828;08:38:41:764;1448308481.36;(0.5621265888214111, 0.36233016120062933);57.3793334961;1.0;;;;;;;;;;;;;;0;0;0;0;0;0;0;0;0;();(-2000.0, -2000.0);
08:38:41:861;08:38:41:827;1448308481.39;(0.5622564792633057, 0.3623222351074219);57.3874511719;1.0;;;;;;;;;;;;;;0;0;0;0;0;0;0;0;0;();(-2000.0, -2000.0);
08:38:41:878;08:38:41:827;1448308481.39;(0.5622564792633057, 0.3623222351074219);57.3874511719;1.0;;;;;;;;;;;;;;0;0;0;0;0;0;0;0;0;();(-2000.0, -2000.0);
08:38:41:894;08:38:41:827;1448308481.39;(0.5622564792633057, 0.3623222351074219);57.3874511719;1.0;;;;;;;;;;;;;;0;0;0;0;0;0;0;0;0;();(-2000.0, -2000.0);
08:38:41:911;08:38:41:897;1448308481.46;(0.5624134540557861, 0.3628929562038845);57.3868789673;1.0;;;;;;;;;;;;;;0;0;0;0;0;0;0;0;0;();(-2000.0, -2000.0);
08:38:41:927;08:38:41:897;1448308481.46;(0.5624134540557861, 0.3628929562038845);57.3868789673;1.0;;;;;;;;;;;;;;0;0;0;0;0;0;0;0;0;();(-2000.0, -2000.0);
08:38:41:961;08:38:41:897;1448308481.46;(0.5624134540557861, 0.3628929562038845);57.3868789673;1.0;;;;;;;;;;;;;;0;0;0;0;0;0;0;0;0;();(-2000.0, -2000.0);
08:38:41:978;08:38:41:964;1448308481.53;(0.555291223526001, 0.3631830003526476);55.5994262695;1.0;;;;;;;;;;;;;;0;0;0;0;0;0;0;0;0;();(-2000.0, -2000.0);
08:38:41:995;08:38:41:964;1448308481.53;(0.555291223526001, 0.3631830003526476);55.5994262695;1.0;;;;;;;;;;;;;;0;0;0;0;0;0;0;0;0;();(-2000.0, -2000.0);
08:38:42:011;08:38:41:964;1448308481.53;(0.555291223526001, 0.3631830003526476);55.5994262695;1.0;;;;;;;;;;;;;;0;0;0;0;0;0;0;0;0;();(-2000.0, -2000.0);
08:38:42:028;08:38:41:964;1448308481.53;(0.555291223526001, 0.3631830003526476);55.5994262695;1.0;;;;;;;;;;;;;;0;0;0;0;0;0;0;0;0;();(-2000.0, -2000.0);
08:38:42:063;08:38:42:031;1448308481.59;(0, 0);0;0;;;;;;;;;;;;;;0;0;0;0;0;0;0;0;0;();(-2000.0, -2000.0);
08:38:42:081;08:38:42:031;1448308481.59;(0, 0);0;0;;;;;;;;;;;;;;0;0;0;0;0;0;0;0;0;();(-2000.0, -2000.0);
08:38:42:097;08:38:42:091;1448308481.63;(0, 0);0;0;;;;;;;;;;;;;;0;0;0;0;0;0;0;0;0;();(-2000.0, -2000.0);
08:38:42:113;08:38:42:093;1448308481.66;(0.4996832847595215, 0.37959853278266054);54.9449577332;0.67458676943;;;;;;;;;;;;;;0;0;0;0;0;0;0;0;0;();(-2000.0, -2000.0);
08:38:42:128;08:38:42:093;1448308481.66;(0.4996832847595215, 0.37959853278266054);54.9449577332;0.67458676943;;;;;;;;;;;;;;0;0;0;0;0;0;0;0;0;();(-2000.0, -2000.0);
08:38:42:162;08:38:42:159;1448308481.69;(0.5010912895202637, 0.37837329440646705);56.1985321045;1.0;;;;;;;;;;;;;;0;0;0;0;0;0;0;0;0;();(-2000.0, -2000.0);
08:38:42:178;08:38:42:160;1448308481.73;(0.5016444683074951, 0.3772098541259765);56.4181175232;1.0;;;;;;;;;;;;;;0;0;0;0;0;0;0;0;0;();(-2000.0, -2000.0);
08:38:42:195;08:38:42:160;1448308481.73;(0.5016444683074951, 0.3772098541259765);56.4181175232;1.0;;;;;;;;;;;;;;0;0;0;0;0;0;0;0;0;();(-2000.0, -2000.0);
08:38:42:212;08:38:42:160;1448308481.73;(0.5016444683074951, 0.3772098541259765);56.4181175232;1.0;;;;;;;;;;;;;;0;0;0;0;0;0;0;0;0;();(-2000.0, -2000.0);
08:38:42:229;08:38:42:225;1448308481.76;(0.5023143291473389, 0.3758395724826389);56.6218070984;1.0;;;;;;;;;;;;;;0;0;0;0;0;0;0;0;0;();(-2000.0, -2000.0);
08:38:42:261;08:38:42:226;1448308481.79;(0.502714204788208, 0.3752026028103299);56.7902793884;1.0;;;;;;;;;;;;;;0;0;0;0;0;0;0;0;0;();(-2000.0, -2000.0);
08:38:42:278;08:38:42:226;1448308481.79;(0.502714204788208, 0.3752026028103299);56.7902793884;1.0;;;;;;;;;;;;;;0;0;0;0;0;0;0;0;0;();(-2000.0, -2000.0);
08:38:42:296;08:38:42:292;1448308481.83;(0.5030137538909912, 0.37446907891167536);56.5997810364;1.0;;;;;;;;;;;;;;0;0;0;0;0;0;0;0;0;();(-2000.0, -2000.0);
08:38:42:311;08:38:42:299;1448308481.89;(0.5031861305236817, 0.37404869927300344);56.4341239929;1.0;;;;;;;;;;;;;;0;0;0;0;0;0;0;0;0;();(-2000.0, -2000.0);
08:38:42:328;08:38:42:299;1448308481.89;(0.5031861305236817, 0.37404869927300344);56.4341239929;1.0;;;;;;;;;;;;;;0;0;0;0;0;0;0;0;0;();(-2000.0, -2000.0);
08:38:42:362;08:38:42:299;1448308481.89;(0.5031861305236817, 0.37404869927300344);56.4341239929;1.0;;;;;;;;;;;;;;0;0;0;0;0;0;0;0;0;();(-2000.0, -2000.0);
08:38:42:378;08:38:42:361;1448308481.93;(0.5031492710113525, 0.3736488342285156);56.49766922;1.0;;;;;;;;;;;;;;0;0;0;0;0;0;0;0;0;();(-2000.0, -2000.0);
08:38:42:395;08:38:42:361;1448308481.93;(0.5031492710113525, 0.3736488342285156);56.49766922;1.0;;;;;;;;;;;;;;0;0;0;0;0;0;0;0;0;();(-2000.0, -2000.0);
08:38:42:412;08:38:42:361;1448308481.93;(0.5031492710113525, 0.3736488342285156);56.49766922;1.0;;;;;;;;;;;;;;0;0;0;0;0;0;0;0;0;();(-2000.0, -2000.0);
08:38:42:428;08:38:42:424;1448308481.99;(0.5033478260040283, 0.37356219821506076);56.7499008179;1.0;;;;;;;;;;;;;;0;0;0;0;0;0;0;0;0;();(-2000.0, -2000.0);
08:38:42:461;08:38:42:424;1448308481.99;(0.5033478260040283, 0.37356219821506076);56.7499008179;1.0;;;;;;;;;;;;;;0;0;0;0;0;0;0;0;0;();(-2000.0, -2000.0);
08:38:42:479;08:38:42:424;1448308481.99;(0.5033478260040283, 0.37356219821506076);56.7499008179;1.0;;;;;;;;;;;;;;0;0;0;0;0;0;0;0;0;();(-2000.0, -2000.0);
08:38:42:496;08:38:42:492;1448308482.03;(0.5035224914550781, 0.3729155646430121);56.7583084106;1.0;;;;;;;;;;;;;;0;0;0;0;0;0;0;0;0;();(-2000.0, -2000.0);
08:38:42:512;08:38:42:494;1448308482.06;(0.5038943767547608, 0.37292370266384545);56.4259414673;1.0;;;;;;;;;;;;;;0;0;0;0;0;0;0;0;0;();(-2000.0, -2000.0);
08:38:42:528;08:38:42:494;1448308482.06;(0.5038943767547608, 0.37292370266384545);56.4259414673;1.0;;;;;;;;;;;;;;0;0;0;0;0;0;0;0;0;();(-2000.0, -2000.0);
08:38:42:562;08:38:42:558;1448308482.09;(0.5041241645812988, 0.3727955712212456);56.5980453491;1.0;;;;;;;;;;;;;;0;0;0;0;0;0;0;0;0;();(-2000.0, -2000.0);
08:38:42:578;08:38:42:560;1448308482.13;(0.5042901039123535, 0.3723996056450738);56.2264900208;1.0;;;;;;;;;;;;;;0;0;0;0;0;0;0;0;0;();(-2000.0, -2000.0);
08:38:42:595;08:38:42:560;1448308482.13;(0.5042901039123535, 0.3723996056450738);56.2264900208;1.0;;;;;;;;;;;;;;0;0;0;0;0;0;0;0;0;();(-2000.0, -2000.0);
08:38:42:612;08:38:42:560;1448308482.13;(0.5042901039123535, 0.3723996056450738);56.2264900208;1.0;;;;;;;;;;;;;;0;0;0;0;0;0;0;0;0;();(-2000.0, -2000.0);
08:38:42:629;08:38:42:625;1448308482.19;(0.50255126953125, 0.3961810217963324);55.1686630249;1.0;;;;;;;;;;;;;;0;0;0;0;0;0;0;0;0;();(-2000.0, -2000.0);
08:38:42:662;08:38:42:625;1448308482.19;(0.50255126953125, 0.3961810217963324);55.1686630249;1.0;;;;;;;;;;;;;;0;0;0;0;0;0;0;0;0;();(-2000.0, -2000.0);
08:38:42:678;08:38:42:625;1448308482.19;(0.50255126953125, 0.3961810217963324);55.1686630249;1.0;;;;;;;;;;;;;;0;0;0;0;0;0;0;0;0;();(-2000.0, -2000.0);
08:38:42:696;08:38:42:692;1448308482.26;(0.5018095016479492, 0.3959434085422092);55.0254745483;1.0;;;;;;;;;;;;;;0;0;0;0;0;0;0;0;0;();(-2000.0, -2000.0);
08:38:42:712;08:38:42:694;1448308482.29;(0.5018485069274903, 0.39640456305609806);54.7559165955;1.0;;;;;;;;;;;;;;0;0;0;0;0;0;0;0;0;();(-2000.0, -2000.0);
08:38:42:728;08:38:42:694;1448308482.29;(0.5018485069274903, 0.39640456305609806);54.7559165955;1.0;;;;;;;;;;;;;;0;0;0;0;0;0;0;0;0;();(-2000.0, -2000.0);
08:38:42:762;08:38:42:694;1448308482.29;(0.5018485069274903, 0.39640456305609806);54.7559165955;1.0;;;;;;;;;;;;;;0;0;0;0;0;0;0;0;0;();(-2000.0, -2000.0);
08:38:42:777;08:38:42:761;1448308482.33;(0.5017628192901611, 0.3969645182291667);54.5838737488;1.0;;;;;;;;;;;;;;0;0;0;0;0;0;0;0;0;();(-2000.0, -2000.0);
08:38:42:794;08:38:42:761;1448308482.33;(0.5017628192901611, 0.3969645182291667);54.5838737488;1.0;;;;;;;;;;;;;;0;0;0;0;0;0;0;0;0;();(-2000.0, -2000.0);
08:38:42:812;08:38:42:761;1448308482.33;(0.5017628192901611, 0.3969645182291667);54.5838737488;1.0;;;;;;;;;;;;;;0;0;0;0;0;0;0;0;0;();(-2000.0, -2000.0);
08:38:42:828;08:38:42:825;1448308482.39;(0.5017548561096191, 0.39739422268337676);53.9941368103;1.0;;;;;;;;;;;;;;0;0;0;0;0;0;0;0;0;();(-2000.0, -2000.0);
08:38:42:862;08:38:42:825;1448308482.39;(0.5017548561096191, 0.39739422268337676);53.9941368103;1.0;;;;;;;;;;;;;;0;0;0;0;0;0;0;0;0;();(-2000.0, -2000.0);
08:38:42:878;08:38:42:825;1448308482.39;(0.5017548561096191, 0.39739422268337676);53.9941368103;1.0;;;;;;;;;;;;;;0;0;0;0;0;0;0;0;0;();(-2000.0, -2000.0);
08:38:42:894;08:38:42:889;1448308482.46;(0.5019665241241456, 0.39756469726562504);53.815864563;1.0;;;;;;;;;;;;;;0;0;0;0;0;0;0;0;0;();(-2000.0, -2000.0);
08:38:42:912;08:38:42:889;1448308482.46;(0.5019665241241456, 0.39756469726562504);53.815864563;1.0;;;;;;;;;;;;;;0;0;0;0;0;0;0;0;0;();(-2000.0, -2000.0);
08:38:42:929;08:38:42:889;1448308482.46;(0.5019665241241456, 0.39756469726562504);53.815864563;1.0;;;;;;;;;;;;;;0;0;0;0;0;0;0;0;0;();(-2000.0, -2000.0);
08:38:42:962;08:38:42:889;1448308482.46;(0.5019665241241456, 0.39756469726562504);53.815864563;1.0;;;;;;;;;;;;;;0;0;0;0;0;0;0;0;0;();(-2000.0, -2000.0);
08:38:42:979;08:38:42:966;1448308482.53;(0.5022964000701904, 0.3971009148491753);53.4880027771;1.0;;;;;;;;;;;;;;0;0;0;0;0;0;0;0;0;();(-2000.0, -2000.0);
08:38:42:995;08:38:42:966;1448308482.53;(0.5022964000701904, 0.3971009148491753);53.4880027771;1.0;;;;;;;;;;;;;;0;0;0;0;0;0;0;0;0;();(-2000.0, -2000.0);
08:38:43:012;08:38:42:966;1448308482.53;(0.5022964000701904, 0.3971009148491753);53.4880027771;1.0;;;;;;;;;;;;;;0;0;0;0;0;0;0;0;0;();(-2000.0, -2000.0);
08:38:43:028;08:38:43:025;1448308482.56;(0.5025025367736816, 0.39699766370985246);53.3221206665;1.0;;;;;;;;;;;;;;0;0;0;0;0;0;0;0;0;();(-2000.0, -2000.0);
08:38:43:045;08:38:43:029;1448308482.59;(0.5020280361175538, 0.39746848212348085);53.2085952759;1.0;;;;;;;;;;;;;;0;0;0;0;0;0;0;0;0;();(-2000.0, -2000.0);
08:38:43:080;08:38:43:029;1448308482.59;(0.5020280361175538, 0.39746848212348085);53.2085952759;1.0;;;;;;;;;;;;;;0;0;0;0;0;0;0;0;0;();(-2000.0, -2000.0);
08:38:43:097;08:38:43:090;1448308482.66;(0, 0);0;0;;;;;;;;;;;;;;0;0;0;0;0;0;0;0;0;();(-2000.0, -2000.0);
08:38:43:115;08:38:43:090;1448308482.66;(0, 0);0;0;;;;;;;;;;;;;;0;0;0;0;0;0;0;0;0;();(-2000.0, -2000.0);
08:38:43:131;08:38:43:090;1448308482.66;(0, 0);0;0;;;;;;;;;;;;;;0;0;0;0;0;0;0;0;0;();(-2000.0, -2000.0);
08:38:43:146;08:38:43:090;1448308482.66;(0, 0);0;0;;;;;;;;;;;;;;0;0;0;0;0;0;0;0;0;();(-2000.0, -2000.0);
08:38:43:178;08:38:43:156;1448308482.73;(0, 0);0;0;;;;;;;;;;;;;;0;0;0;0;0;0;0;0;0;();(-2000.0, -2000.0);
08:38:43:196;08:38:43:156;1448308482.73;(0, 0);0;0;;;;;;;;;;;;;;0;0;0;0;0;0;0;0;0;();(-2000.0, -2000.0);
08:38:43:212;08:38:43:156;1448308482.73;(0, 0);0;0;;;;;;;;;;;;;;0;0;0;0;0;0;0;0;0;();(-2000.0, -2000.0);
08:38:43:229;08:38:43:156;1448308482.73;(0, 0);0;0;;;;;;;;;;;;;;0;0;0;0;0;0;0;0;0;();(-2000.0, -2000.0);
08:38:43:246;08:38:43:234;1448308482.79;(0, 0);0;0;;;;;;;;;;;;;;0;0;0;0;0;0;0;0;0;();(-2000.0, -2000.0);
08:38:43:279;08:38:43:234;1448308482.79;(0, 0);0;0;;;;;;;;;;;;;;0;0;0;0;0;0;0;0;0;();(-2000.0, -2000.0);
08:38:43:296;08:38:43:292;1448308482.86;(0.49446978569030764, 0.3890666961669922);52.3528823853;0.900520910324;;;;;;;;;;;;;;0;0;0;0;0;0;0;0;0;();(-2000.0, -2000.0);
08:38:43:312;08:38:43:292;1448308482.86;(0.49446978569030764, 0.3890666961669922);52.3528823853;0.900520910324;;;;;;;;;;;;;;0;0;0;0;0;0;0;0;0;();(-2000.0, -2000.0);
08:38:43:329;08:38:43:292;1448308482.86;(0.49446978569030764, 0.3890666961669922);52.3528823853;0.900520910324;;;;;;;;;;;;;;0;0;0;0;0;0;0;0;0;();(-2000.0, -2000.0);
08:38:43:346;08:38:43:292;1448308482.86;(0.49446978569030764, 0.3890666961669922);52.3528823853;0.900520910324;;;;;;;;;;;;;;0;0;0;0;0;0;0;0;0;();(-2000.0, -2000.0);
08:38:43:379;08:38:43:357;1448308482.93;(0.49494166374206544, 0.38945994906955295);53.458065033;1.0;;;;;;;;;;;;;;0;0;0;0;0;0;0;0;0;();(-2000.0, -2000.0);
08:38:43:396;08:38:43:357;1448308482.93;(0.49494166374206544, 0.38945994906955295);53.458065033;1.0;;;;;;;;;;;;;;0;0;0;0;0;0;0;0;0;();(-2000.0, -2000.0);
08:38:43:413;08:38:43:357;1448308482.93;(0.49494166374206544, 0.38945994906955295);53.458065033;1.0;;;;;;;;;;;;;;0;0;0;0;0;0;0;0;0;();(-2000.0, -2000.0);
08:38:43:429;08:38:43:421;1448308482.99;(0.4957143306732178, 0.38819164699978304);53.7210235596;1.0;;;;;;;;;;;;;;0;0;0;0;0;0;0;0;0;();(-2000.0, -2000.0);
08:38:43:446;08:38:43:421;1448308482.99;(0.4957143306732178, 0.38819164699978304);53.7210235596;1.0;;;;;;;;;;;;;;0;0;0;0;0;0;0;0;0;();(-2000.0, -2000.0);
08:38:43:479;08:38:43:421;1448308482.99;(0.4957143306732178, 0.38819164699978304);53.7210235596;1.0;;;;;;;;;;;;;;0;0;0;0;0;0;0;0;0;();(-2000.0, -2000.0);
08:38:43:496;08:38:43:488;1448308483.06;(0.4963329315185547, 0.3874532063802083);54.0559463501;1.0;;;;;;;;;;;;;;0;0;0;0;0;0;0;0;0;();(-2000.0, -2000.0);
08:38:43:513;08:38:43:488;1448308483.06;(0.4963329315185547, 0.3874532063802083);54.0559463501;1.0;;;;;;;;;;;;;;0;0;0;0;0;0;0;0;0;();(-2000.0, -2000.0);
08:38:43:529;08:38:43:488;1448308483.06;(0.4963329315185547, 0.3874532063802083);54.0559463501;1.0;;;;;;;;;;;;;;0;0;0;0;0;0;0;0;0;();(-2000.0, -2000.0);
08:38:43:546;08:38:43:488;1448308483.06;(0.4963329315185547, 0.3874532063802083);54.0559463501;1.0;;;;;;;;;;;;;;0;0;0;0;0;0;0;0;0;();(-2000.0, -2000.0);
08:38:43:579;08:38:43:552;1448308483.13;(0.4965571403503418, 0.38686349656846786);54.6122741699;1.0;;;;;;;;;;;;;;0;0;0;0;0;0;0;0;0;();(-2000.0, -2000.0);
08:38:43:596;08:38:43:552;1448308483.13;(0.4965571403503418, 0.38686349656846786);54.6122741699;1.0;;;;;;;;;;;;;;0;0;0;0;0;0;0;0;0;();(-2000.0, -2000.0);
08:38:43:613;08:38:43:552;1448308483.13;(0.4965571403503418, 0.38686349656846786);54.6122741699;1.0;;;;;;;;;;;;;;0;0;0;0;0;0;0;0;0;();(-2000.0, -2000.0);
08:38:43:629;08:38:43:620;1448308483.19;(0.4969635009765625, 0.3861677381727431);55.1416969299;1.0;;;;;;;;;;;;;;0;0;0;0;0;0;0;0;0;();(-2000.0, -2000.0);
08:38:43:646;08:38:43:620;1448308483.19;(0.4969635009765625, 0.3861677381727431);55.1416969299;1.0;;;;;;;;;;;;;;0;0;0;0;0;0;0;0;0;();(-2000.0, -2000.0);
08:38:43:680;08:38:43:620;1448308483.19;(0.4969635009765625, 0.3861677381727431);55.1416969299;1.0;;;;;;;;;;;;;;0;0;0;0;0;0;0;0;0;();(-2000.0, -2000.0);
08:38:43:696;08:38:43:688;1448308483.26;(0.49736676216125486, 0.38554534912109373);56.0467834473;1.0;;;;;;;;;;;;;;0;0;0;0;0;0;0;0;0;();(-2000.0, -2000.0);
08:38:43:713;08:38:43:688;1448308483.26;(0.49736676216125486, 0.38554534912109373);56.0467834473;1.0;;;;;;;;;;;;;;0;0;0;0;0;0;0;0;0;();(-2000.0, -2000.0);
08:38:43:730;08:38:43:688;1448308483.26;(0.49736676216125486, 0.38554534912109373);56.0467834473;1.0;;;;;;;;;;;;;;0;0;0;0;0;0;0;0;0;();(-2000.0, -2000.0);
08:38:43:746;08:38:43:688;1448308483.26;(0.49736676216125486, 0.38554534912109373);56.0467834473;1.0;;;;;;;;;;;;;;0;0;0;0;0;0;0;0;0;();(-2000.0, -2000.0);
08:38:43:779;08:38:43:753;1448308483.33;(0.49764013290405273, 0.3854409535725911);56.7868843079;1.0;;;;;;;;;;;;;;0;0;0;0;0;0;0;0;0;();(-2000.0, -2000.0);
08:38:43:796;08:38:43:753;1448308483.33;(0.49764013290405273, 0.3854409535725911);56.7868843079;1.0;;;;;;;;;;;;;;0;0;0;0;0;0;0;0;0;();(-2000.0, -2000.0);
08:38:43:813;08:38:43:753;1448308483.33;(0.49764013290405273, 0.3854409535725911);56.7868843079;1.0;;;;;;;;;;;;;;0;0;0;0;0;0;0;0;0;();(-2000.0, -2000.0);
08:38:43:829;08:38:43:821;1448308483.39;(0.4979390144348145, 0.3848377227783203);57.6561012268;1.0;;;;;;;;;;;;;;0;0;0;0;0;0;0;0;0;();(-2000.0, -2000.0);
08:38:43:846;08:38:43:821;1448308483.39;(0.4979390144348145, 0.3848377227783203);57.6561012268;1.0;;;;;;;;;;;;;;0;0;0;0;0;0;0;0;0;();(-2000.0, -2000.0);
08:38:43:879;08:38:43:821;1448308483.39;(0.4979390144348145, 0.3848377227783203);57.6561012268;1.0;;;;;;;;;;;;;;0;0;0;0;0;0;0;0;0;();(-2000.0, -2000.0);
08:38:43:896;08:38:43:887;1448308483.46;(0.4972343444824219, 0.3853864457872179);57.695690155;1.0;;;;;;;;;;;;;;0;0;0;0;0;0;0;0;0;();(-2000.0, -2000.0);
08:38:43:913;08:38:43:887;1448308483.46;(0.4972343444824219, 0.3853864457872179);57.695690155;1.0;;;;;;;;;;;;;;0;0;0;0;0;0;0;0;0;();(-2000.0, -2000.0);
08:38:43:929;08:38:43:887;1448308483.46;(0.4972343444824219, 0.3853864457872179);57.695690155;1.0;;;;;;;;;;;;;;0;0;0;0;0;0;0;0;0;();(-2000.0, -2000.0);
08:38:43:945;08:38:43:887;1448308483.46;(0.4972343444824219, 0.3853864457872179);57.695690155;1.0;;;;;;;;;;;;;;0;0;0;0;0;0;0;0;0;();(-2000.0, -2000.0);
08:38:43:979;08:38:43:953;1448308483.53;(0, 0);0;0;;;;;;;;;;;;;;0;0;0;0;0;0;0;0;0;();(-2000.0, -2000.0);
08:38:43:997;08:38:43:953;1448308483.53;(0, 0);0;0;;;;;;;;;;;;;;0;0;0;0;0;0;0;0;0;();(-2000.0, -2000.0);
08:38:44:013;08:38:43:953;1448308483.53;(0, 0);0;0;;;;;;;;;;;;;;0;0;0;0;0;0;0;0;0;();(-2000.0, -2000.0);
08:38:44:030;08:38:44:021;1448308483.59;(0, 0);0;0;;;;;;;;;;;;;;0;0;0;0;0;0;0;0;0;();(-2000.0, -2000.0);
08:38:44:047;08:38:44:021;1448308483.59;(0, 0);0;0;;;;;;;;;;;;;;0;0;0;0;0;0;0;0;0;();(-2000.0, -2000.0);
08:38:44:080;08:38:44:021;1448308483.59;(0, 0);0;0;;;;;;;;;;;;;;0;0;0;0;0;0;0;0;0;();(-2000.0, -2000.0);
08:38:44:097;08:38:44:085;1448308483.66;(0.46416635513305665, 0.41002477010091143);58.0224227905;1.0;;;;;;;;;;;;;;0;0;0;0;0;0;0;0;0;();(-2000.0, -2000.0);
08:38:44:113;08:38:44:085;1448308483.66;(0.46416635513305665, 0.41002477010091143);58.0224227905;1.0;;;;;;;;;;;;;;0;0;0;0;0;0;0;0;0;();(-2000.0, -2000.0);
08:38:44:130;08:38:44:085;1448308483.66;(0.46416635513305665, 0.41002477010091143);58.0224227905;1.0;;;;;;;;;;;;;;0;0;0;0;0;0;0;0;0;();(-2000.0, -2000.0);
08:38:44:147;08:38:44:085;1448308483.66;(0.46416635513305665, 0.41002477010091143);58.0224227905;1.0;;;;;;;;;;;;;;0;0;0;0;0;0;0;0;0;();(-2000.0, -2000.0);
08:38:44:180;08:38:44:153;1448308483.73;(0.4651949882507324, 0.40902574327256946);58.1032562256;1.0;;;;;;;;;;;;;;0;0;0;0;0;0;0;0;0;();(-2000.0, -2000.0);
08:38:44:197;08:38:44:153;1448308483.73;(0.4651949882507324, 0.40902574327256946);58.1032562256;1.0;;;;;;;;;;;;;;0;0;0;0;0;0;0;0;0;();(-2000.0, -2000.0);
08:38:44:213;08:38:44:153;1448308483.73;(0.4651949882507324, 0.40902574327256946);58.1032562256;1.0;;;;;;;;;;;;;;0;0;0;0;0;0;0;0;0;();(-2000.0, -2000.0);
08:38:44:230;08:38:44:217;1448308483.79;(0.465460205078125, 0.4090597788492839);58.0081787109;1.0;;;;;;;;;;;;;;0;0;0;0;0;0;0;0;0;();(-2000.0, -2000.0);
08:38:44:247;08:38:44:217;1448308483.79;(0.465460205078125, 0.4090597788492839);58.0081787109;1.0;;;;;;;;;;;;;;0;0;0;0;0;0;0;0;0;();(-2000.0, -2000.0);
08:38:44:280;08:38:44:217;1448308483.79;(0.465460205078125, 0.4090597788492839);58.0081787109;1.0;;;;;;;;;;;;;;0;0;0;0;0;0;0;0;0;();(-2000.0, -2000.0);
08:38:44:296;08:38:44:290;1448308483.86;(0.46583237648010256, 0.40903934902615013);57.6347618103;1.0;;;;;;;;;;;;;;0;0;0;0;0;0;0;0;0;();(-2000.0, -2000.0);
08:38:44:313;08:38:44:290;1448308483.86;(0.46583237648010256, 0.40903934902615013);57.6347618103;1.0;;;;;;;;;;;;;;0;0;0;0;0;0;0;0;0;();(-2000.0, -2000.0);
08:38:44:330;08:38:44:290;1448308483.86;(0.46583237648010256, 0.40903934902615013);57.6347618103;1.0;;;;;;;;;;;;;;0;0;0;0;0;0;0;0;0;();(-2000.0, -2000.0);
08:38:44:346;08:38:44:290;1448308483.86;(0.46583237648010256, 0.40903934902615013);57.6347618103;1.0;;;;;;;;;;;;;;0;0;0;0;0;0;0;0;0;();(-2000.0, -2000.0);
08:38:44:379;08:38:44:353;1448308483.93;(0.4657437324523926, 0.40930942959255645);57.6077919006;1.0;;;;;;;;;;;;;;0;0;0;0;0;0;0;0;0;();(-2000.0, -2000.0);
08:38:44:397;08:38:44:353;1448308483.93;(0.4657437324523926, 0.40930942959255645);57.6077919006;1.0;;;;;;;;;;;;;;0;0;0;0;0;0;0;0;0;();(-2000.0, -2000.0);
08:38:44:414;08:38:44:353;1448308483.93;(0.4657437324523926, 0.40930942959255645);57.6077919006;1.0;;;;;;;;;;;;;;0;0;0;0;0;0;0;0;0;();(-2000.0, -2000.0);
08:38:44:430;08:38:44:418;1448308483.99;(0.4657255172729492, 0.4092604743109809);57.7887878418;1.0;;;;;;;;;;;;;;0;0;0;0;0;0;0;0;0;();(-2000.0, -2000.0);
08:38:44:447;08:38:44:418;1448308483.99;(0.4657255172729492, 0.4092604743109809);57.7887878418;1.0;;;;;;;;;;;;;;0;0;0;0;0;0;0;0;0;();(-2000.0, -2000.0);
08:38:44:480;08:38:44:418;1448308483.99;(0.4657255172729492, 0.4092604743109809);57.7887878418;1.0;;;;;;;;;;;;;;0;0;0;0;0;0;0;0;0;();(-2000.0, -2000.0);
08:38:44:497;08:38:44:484;1448308484.06;(0.4549102306365967, 0.41022699144151475);57.8842658997;1.0;;;;;;;;;;;;;;0;0;0;0;0;0;0;0;0;();(-2000.0, -2000.0);
08:38:44:513;08:38:44:484;1448308484.06;(0.4549102306365967, 0.41022699144151475);57.8842658997;1.0;;;;;;;;;;;;;;0;0;0;0;0;0;0;0;0;();(-2000.0, -2000.0);
08:38:44:530;08:38:44:484;1448308484.06;(0.4549102306365967, 0.41022699144151475);57.8842658997;1.0;;;;;;;;;;;;;;0;0;0;0;0;0;0;0;0;();(-2000.0, -2000.0);
08:38:44:547;08:38:44:484;1448308484.06;(0.4549102306365967, 0.41022699144151475);57.8842658997;1.0;;;;;;;;;;;;;;0;0;0;0;0;0;0;0;0;();(-2000.0, -2000.0);
08:38:44:580;08:38:44:551;1448308484.13;(0.4553441047668457, 0.41047787136501734);57.3133087158;1.0;;;;;;;;;;;;;;0;0;0;0;0;0;0;0;0;();(-2000.0, -2000.0);
08:38:44:596;08:38:44:551;1448308484.13;(0.4553441047668457, 0.41047787136501734);57.3133087158;1.0;;;;;;;;;;;;;;0;0;0;0;0;0;0;0;0;();(-2000.0, -2000.0);
08:38:44:613;08:38:44:551;1448308484.13;(0.4553441047668457, 0.41047787136501734);57.3133087158;1.0;;;;;;;;;;;;;;0;0;0;0;0;0;0;0;0;();(-2000.0, -2000.0);
08:38:44:631;08:38:44:617;1448308484.19;(0.4542554378509521, 0.41043684217664933);56.6253852844;0.988606190416;;;;;;;;;;;;;;0;0;0;0;0;0;0;0;0;();(-2000.0, -2000.0);
08:38:44:647;08:38:44:617;1448308484.19;(0.4542554378509521, 0.41043684217664933);56.6253852844;0.988606190416;;;;;;;;;;;;;;0;0;0;0;0;0;0;0;0;();(-2000.0, -2000.0);
08:38:44:680;08:38:44:617;1448308484.19;(0.4542554378509521, 0.41043684217664933);56.6253852844;0.988606190416;;;;;;;;;;;;;;0;0;0;0;0;0;0;0;0;();(-2000.0, -2000.0);
08:38:44:697;08:38:44:685;1448308484.26;(0.4145920753479004, 0.3997691260443793);56.0333213806;1.0;;;;;;;;;;;;;;0;0;0;0;0;0;0;0;0;();(-2000.0, -2000.0);
08:38:44:713;08:38:44:685;1448308484.26;(0.4145920753479004, 0.3997691260443793);56.0333213806;1.0;;;;;;;;;;;;;;0;0;0;0;0;0;0;0;0;();(-2000.0, -2000.0);
08:38:44:731;08:38:44:685;1448308484.26;(0.4145920753479004, 0.3997691260443793);56.0333213806;1.0;;;;;;;;;;;;;;0;0;0;0;0;0;0;0;0;();(-2000.0, -2000.0);
08:38:44:747;08:38:44:685;1448308484.26;(0.4145920753479004, 0.3997691260443793);56.0333213806;1.0;;;;;;;;;;;;;;0;0;0;0;0;0;0;0;0;();(-2000.0, -2000.0);
08:38:44:780;08:38:44:751;1448308484.33;(0.4133298397064209, 0.40020230611165364);55.8480110168;1.0;;;;;;;;;;;;;;0;0;0;0;0;0;0;0;0;();(-2000.0, -2000.0);
08:38:44:797;08:38:44:751;1448308484.33;(0.4133298397064209, 0.40020230611165364);55.8480110168;1.0;;;;;;;;;;;;;;0;0;0;0;0;0;0;0;0;();(-2000.0, -2000.0);
08:38:44:814;08:38:44:751;1448308484.33;(0.4133298397064209, 0.40020230611165364);55.8480110168;1.0;;;;;;;;;;;;;;0;0;0;0;0;0;0;0;0;();(-2000.0, -2000.0);
08:38:44:831;08:38:44:818;1448308484.39;(0.4133893013000488, 0.401057857937283);55.0598945618;1.0;;;;;;;;;;;;;;0;0;0;0;0;0;0;0;0;();(-2000.0, -2000.0);
08:38:44:847;08:38:44:818;1448308484.39;(0.4133893013000488, 0.401057857937283);55.0598945618;1.0;;;;;;;;;;;;;;0;0;0;0;0;0;0;0;0;();(-2000.0, -2000.0);
08:38:44:880;08:38:44:818;1448308484.39;(0.4133893013000488, 0.401057857937283);55.0598945618;1.0;;;;;;;;;;;;;;0;0;0;0;0;0;0;0;0;();(-2000.0, -2000.0);
08:38:44:898;08:38:44:884;1448308484.46;(0.41380064487457274, 0.4011737399631077);54.1509933472;1.0;;;;;;;;;;;;;;0;0;0;0;0;0;0;0;0;();(-2000.0, -2000.0);
08:38:44:914;08:38:44:884;1448308484.46;(0.41380064487457274, 0.4011737399631077);54.1509933472;1.0;;;;;;;;;;;;;;0;0;0;0;0;0;0;0;0;();(-2000.0, -2000.0);
08:38:44:931;08:38:44:884;1448308484.46;(0.41380064487457274, 0.4011737399631077);54.1509933472;1.0;;;;;;;;;;;;;;0;0;0;0;0;0;0;0;0;();(-2000.0, -2000.0);
08:38:44:947;08:38:44:884;1448308484.46;(0.41380064487457274, 0.4011737399631077);54.1509933472;1.0;;;;;;;;;;;;;;0;0;0;0;0;0;0;0;0;();(-2000.0, -2000.0);
08:38:44:980;08:38:44:951;1448308484.53;(0.413722825050354, 0.4017196231418185);53.7878265381;1.0;;;;;;;;;;;;;;0;0;0;0;0;0;0;0;0;();(-2000.0, -2000.0);
08:38:44:997;08:38:44:951;1448308484.53;(0.413722825050354, 0.4017196231418185);53.7878265381;1.0;;;;;;;;;;;;;;0;0;0;0;0;0;0;0;0;();(-2000.0, -2000.0);
08:38:45:016;08:38:45:013;1448308484.59;(0.4088115215301514, 0.40054219563802085);53.9201126099;1.0;;;;;;;;;;;;;;0;0;0;0;0;0;0;0;0;();(-2000.0, -2000.0);
08:38:45:030;08:38:45:013;1448308484.59;(0.4088115215301514, 0.40054219563802085);53.9201126099;1.0;;;;;;;;;;;;;;0;0;0;0;0;0;0;0;0;();(-2000.0, -2000.0);
08:38:45:047;08:38:45:013;1448308484.59;(0.4088115215301514, 0.40054219563802085);53.9201126099;1.0;;;;;;;;;;;;;;0;0;0;0;0;0;0;0;0;();(-2000.0, -2000.0);
08:38:45:080;08:38:45:013;1448308484.59;(0.4088115215301514, 0.40054219563802085);53.9201126099;1.0;;;;;;;;;;;;;;0;0;0;0;0;0;0;0;0;();(-2000.0, -2000.0);
08:38:45:097;08:38:45:084;1448308484.66;(0.3863653659820557, 0.39378649393717446);53.0622406006;1.0;;;;;;;;;;;;;;0;0;0;0;0;0;0;0;0;();(-2000.0, -2000.0);
08:38:45:114;08:38:45:084;1448308484.66;(0.3863653659820557, 0.39378649393717446);53.0622406006;1.0;;;;;;;;;;;;;;0;0;0;0;0;0;0;0;0;();(-2000.0, -2000.0);
08:38:45:131;08:38:45:084;1448308484.66;(0.3863653659820557, 0.39378649393717446);53.0622406006;1.0;;;;;;;;;;;;;;0;0;0;0;0;0;0;0;0;();(-2000.0, -2000.0);
08:38:45:147;08:38:45:084;1448308484.66;(0.3863653659820557, 0.39378649393717446);53.0622406006;1.0;;;;;;;;;;;;;;0;0;0;0;0;0;0;0;0;();(-2000.0, -2000.0);
08:38:45:180;08:38:45:151;1448308484.73;(0.3858436107635498, 0.39465234544542105);52.9423904419;1.0;;;;;;;;;;;;;;0;0;0;0;0;0;0;0;0;();(-2000.0, -2000.0);
08:38:45:197;08:38:45:151;1448308484.73;(0.3858436107635498, 0.39465234544542105);52.9423904419;1.0;;;;;;;;;;;;;;0;0;0;0;0;0;0;0;0;();(-2000.0, -2000.0);
08:38:45:217;08:38:45:213;1448308484.79;(0.38555667400360105, 0.39459563361273875);52.3216934204;1.0;;;;;;;;;;;;;;0;0;0;0;0;0;0;0;0;();(-2000.0, -2000.0);
08:38:45:230;08:38:45:213;1448308484.79;(0.38555667400360105, 0.39459563361273875);52.3216934204;1.0;;;;;;;;;;;;;;0;0;0;0;0;0;0;0;0;();(-2000.0, -2000.0);
08:38:45:247;08:38:45:213;1448308484.79;(0.38555667400360105, 0.39459563361273875);52.3216934204;1.0;;;;;;;;;;;;;;0;0;0;0;0;0;0;0;0;();(-2000.0, -2000.0);
08:38:45:281;08:38:45:213;1448308484.79;(0.38555667400360105, 0.39459563361273875);52.3216934204;1.0;;;;;;;;;;;;;;0;0;0;0;0;0;0;0;0;();(-2000.0, -2000.0);
08:38:45:298;08:38:45:285;1448308484.86;(0.3855648756027222, 0.39498176574707033);52.2682952881;1.0;;;;;;;;;;;;;;0;0;0;0;0;0;0;0;0;();(-2000.0, -2000.0);
08:38:45:314;08:38:45:285;1448308484.86;(0.3855648756027222, 0.39498176574707033);52.2682952881;1.0;;;;;;;;;;;;;;0;0;0;0;0;0;0;0;0;();(-2000.0, -2000.0);
08:38:45:331;08:38:45:285;1448308484.86;(0.3855648756027222, 0.39498176574707033);52.2682952881;1.0;;;;;;;;;;;;;;0;0;0;0;0;0;0;0;0;();(-2000.0, -2000.0);
08:38:45:348;08:38:45:344;1448308484.93;(0.38574068546295165, 0.395636961195204);52.3568687439;1.0;;;;;;;;;;;;;;0;0;0;0;0;0;0;0;0;();(-2000.0, -2000.0);
08:38:45:381;08:38:45:344;1448308484.93;(0.38574068546295165, 0.395636961195204);52.3568687439;1.0;;;;;;;;;;;;;;0;0;0;0;0;0;0;0;0;();(-2000.0, -2000.0);
08:38:45:397;08:38:45:344;1448308484.93;(0.38574068546295165, 0.395636961195204);52.3568687439;1.0;;;;;;;;;;;;;;0;0;0;0;0;0;0;0;0;();(-2000.0, -2000.0);
08:38:45:415;08:38:45:411;1448308484.96;(0.3873169183731079, 0.38553827073838975);51.9874763489;1.0;;;;;;;;;;;;;;0;0;0;0;0;0;0;0;0;();(-2000.0, -2000.0);
08:38:45:431;08:38:45:417;1448308484.99;(0.39207584857940675, 0.35536287095811636);52.2161140442;1.0;;;;;;;;;;;;;;0;0;0;0;0;0;0;0;0;();(-2000.0, -2000.0);
08:38:45:448;08:38:45:417;1448308484.99;(0.39207584857940675, 0.35536287095811636);52.2161140442;1.0;;;;;;;;;;;;;;0;0;0;0;0;0;0;0;0;();(-2000.0, -2000.0);
08:38:45:481;08:38:45:417;1448308484.99;(0.39207584857940675, 0.35536287095811636);52.2161140442;1.0;;;;;;;;;;;;;;0;0;0;0;0;0;0;0;0;();(-2000.0, -2000.0);
08:38:45:498;08:38:45:485;1448308485.06;(0.39039385318756104, 0.354982418484158);51.886051178;1.0;;;;;;;;;;;;;;0;0;0;0;0;0;0;0;0;();(-2000.0, -2000.0);
08:38:45:514;08:38:45:485;1448308485.06;(0.39039385318756104, 0.354982418484158);51.886051178;1.0;;;;;;;;;;;;;;0;0;0;0;0;0;0;0;0;();(-2000.0, -2000.0);
08:38:45:531;08:38:45:485;1448308485.06;(0.39039385318756104, 0.354982418484158);51.886051178;1.0;;;;;;;;;;;;;;0;0;0;0;0;0;0;0;0;();(-2000.0, -2000.0);
08:38:45:549;08:38:45:545;1448308485.13;(0.3894344806671143, 0.35470487806532114);51.3607139587;1.0;;;;;;;;;;;;;;0;0;0;0;0;0;0;0;0;();(-2000.0, -2000.0);
08:38:45:581;08:38:45:545;1448308485.13;(0.3894344806671143, 0.35470487806532114);51.3607139587;1.0;;;;;;;;;;;;;;0;0;0;0;0;0;0;0;0;();(-2000.0, -2000.0);
08:38:45:598;08:38:45:545;1448308485.13;(0.3894344806671143, 0.35470487806532114);51.3607139587;1.0;;;;;;;;;;;;;;0;0;0;0;0;0;0;0;0;();(-2000.0, -2000.0);
08:38:45:615;08:38:45:611;1448308485.16;(0.3895249605178833, 0.3541951921251085);51.5096054077;1.0;;;;;;;;;;;;;;0;0;0;0;0;0;0;0;0;();(-2000.0, -2000.0);
08:38:45:631;08:38:45:613;1448308485.19;(0.3878074884414673, 0.3528989579942491);52.0043487549;0.837831455317;;;;;;;;;;;;;;0;0;0;0;0;0;0;0;0;();(-2000.0, -2000.0);
08:38:45:648;08:38:45:613;1448308485.19;(0.3878074884414673, 0.3528989579942491);52.0043487549;0.837831455317;;;;;;;;;;;;;;0;0;0;0;0;0;0;0;0;();(-2000.0, -2000.0);
08:38:45:681;08:38:45:676;1448308485.26;(0.3724912881851196, 0.34520492553710935);50.9727783203;1.0;;;;;;;;;;;;;;0;0;0;0;0;0;0;0;0;();(-2000.0, -2000.0);
08:38:45:698;08:38:45:676;1448308485.26;(0.3724912881851196, 0.34520492553710935);50.9727783203;1.0;;;;;;;;;;;;;;0;0;0;0;0;0;0;0;0;();(-2000.0, -2000.0);
08:38:45:714;08:38:45:676;1448308485.26;(0.3724912881851196, 0.34520492553710935);50.9727783203;1.0;;;;;;;;;;;;;;0;0;0;0;0;0;0;0;0;();(-2000.0, -2000.0);
08:38:45:731;08:38:45:676;1448308485.26;(0.3724912881851196, 0.34520492553710935);50.9727783203;1.0;;;;;;;;;;;;;;0;0;0;0;0;0;0;0;0;();(-2000.0, -2000.0);
08:38:45:749;08:38:45:745;1448308485.33;(0.37222263813018797, 0.34568481445312504);50.8797149658;1.0;;;;;;;;;;;;;;0;0;0;0;0;0;0;0;0;();(-2000.0, -2000.0);
08:38:45:781;08:38:45:745;1448308485.33;(0.37222263813018797, 0.34568481445312504);50.8797149658;1.0;;;;;;;;;;;;;;0;0;0;0;0;0;0;0;0;();(-2000.0, -2000.0);
08:38:45:798;08:38:45:745;1448308485.33;(0.37222263813018797, 0.34568481445312504);50.8797149658;1.0;;;;;;;;;;;;;;0;0;0;0;0;0;0;0;0;();(-2000.0, -2000.0);
08:38:45:815;08:38:45:811;1448308485.36;(0.37210352420806886, 0.3459171719021268);51.0156402588;1.0;;;;;;;;;;;;;;0;0;0;0;0;0;0;0;0;();(-2000.0, -2000.0);
08:38:45:831;08:38:45:813;1448308485.39;(0.37214324474334715, 0.3460977342393663);50.8686599731;1.0;;;;;;;;;;;;;;0;0;0;0;0;0;0;0;0;();(-2000.0, -2000.0);
08:38:45:848;08:38:45:813;1448308485.39;(0.37214324474334715, 0.3460977342393663);50.8686599731;1.0;;;;;;;;;;;;;;0;0;0;0;0;0;0;0;0;();(-2000.0, -2000.0);
08:38:45:881;08:38:45:876;1448308485.46;(0.3714808702468872, 0.3467992570665147);50.8756217957;1.0;;;;;;;;;;;;;;0;0;0;0;0;0;0;0;0;();(-2000.0, -2000.0);
08:38:45:898;08:38:45:876;1448308485.46;(0.3714808702468872, 0.3467992570665147);50.8756217957;1.0;;;;;;;;;;;;;;0;0;0;0;0;0;0;0;0;();(-2000.0, -2000.0);
08:38:45:915;08:38:45:876;1448308485.46;(0.3714808702468872, 0.3467992570665147);50.8756217957;1.0;;;;;;;;;;;;;;0;0;0;0;0;0;0;0;0;();(-2000.0, -2000.0);
08:38:45:931;08:38:45:876;1448308485.46;(0.3714808702468872, 0.3467992570665147);50.8756217957;1.0;;;;;;;;;;;;;;0;0;0;0;0;0;0;0;0;();(-2000.0, -2000.0);
08:38:45:948;08:38:45:944;1448308485.53;(0.3710777997970581, 0.3469346364339193);50.8602104187;1.0;;;;;;;;;;;;;;0;0;0;0;0;0;0;0;0;();(-2000.0, -2000.0);
08:38:45:981;08:38:45:944;1448308485.53;(0.3710777997970581, 0.3469346364339193);50.8602104187;1.0;;;;;;;;;;;;;;0;0;0;0;0;0;0;0;0;();(-2000.0, -2000.0);
08:38:45:998;08:38:45:944;1448308485.53;(0.3710777997970581, 0.3469346364339193);50.8602104187;1.0;;;;;;;;;;;;;;0;0;0;0;0;0;0;0;0;();(-2000.0, -2000.0);
08:38:46:014;08:38:46:008;1448308485.59;(0.3784991025924683, 0.3735914018419054);50.3994674683;1.0;;;;;;;;;;;;;;0;0;0;0;0;0;0;0;0;();(-2000.0, -2000.0);
08:38:46:030;08:38:46:008;1448308485.59;(0.3784991025924683, 0.3735914018419054);50.3994674683;1.0;;;;;;;;;;;;;;0;0;0;0;0;0;0;0;0;();(-2000.0, -2000.0);
08:38:46:048;08:38:46:008;1448308485.59;(0.3784991025924683, 0.3735914018419054);50.3994674683;1.0;;;;;;;;;;;;;;0;0;0;0;0;0;0;0;0;();(-2000.0, -2000.0);
08:38:46:081;08:38:46:076;1448308485.66;(0.378387975692749, 0.37436400519477);50.2578964233;1.0;;;;;;;;;;;;;;0;0;0;0;0;0;0;0;0;();(-2000.0, -2000.0);
08:38:46:097;08:38:46:076;1448308485.66;(0.378387975692749, 0.37436400519477);50.2578964233;1.0;;;;;;;;;;;;;;0;0;0;0;0;0;0;0;0;();(-2000.0, -2000.0);
08:38:46:115;08:38:46:076;1448308485.66;(0.378387975692749, 0.37436400519477);50.2578964233;1.0;;;;;;;;;;;;;;0;0;0;0;0;0;0;0;0;();(-2000.0, -2000.0);
08:38:46:131;08:38:46:076;1448308485.66;(0.378387975692749, 0.37436400519477);50.2578964233;1.0;;;;;;;;;;;;;;0;0;0;0;0;0;0;0;0;();(-2000.0, -2000.0);
08:38:46:147;08:38:46:144;1448308485.73;(0.37814209461212156, 0.374505615234375);50.0167236328;1.0;;;;;;;;;;;;;;0;0;0;0;0;0;0;0;0;();(-2000.0, -2000.0);
08:38:46:183;08:38:46:144;1448308485.73;(0.37814209461212156, 0.374505615234375);50.0167236328;1.0;;;;;;;;;;;;;;0;0;0;0;0;0;0;0;0;();(-2000.0, -2000.0);
08:38:46:200;08:38:46:144;1448308485.73;(0.37814209461212156, 0.374505615234375);50.0167236328;1.0;;;;;;;;;;;;;;0;0;0;0;0;0;0;0;0;();(-2000.0, -2000.0);
08:38:46:217;08:38:46:209;1448308485.79;(0.3894165515899658, 0.3491144392225477);49.7194786072;1.0;;;;;;;;;;;;;;0;0;0;0;0;0;0;0;0;();(-2000.0, -2000.0);
08:38:46:233;08:38:46:209;1448308485.79;(0.3894165515899658, 0.3491144392225477);49.7194786072;1.0;;;;;;;;;;;;;;0;0;0;0;0;0;0;0;0;();(-2000.0, -2000.0);
08:38:46:250;08:38:46:209;1448308485.79;(0.3894165515899658, 0.3491144392225477);49.7194786072;1.0;;;;;;;;;;;;;;0;0;0;0;0;0;0;0;0;();(-2000.0, -2000.0);
08:38:46:282;08:38:46:276;1448308485.86;(0.3885887384414673, 0.3488026512993707);49.8465843201;1.0;;;;;;;;;;;;;;0;0;0;0;0;0;0;0;0;();(-2000.0, -2000.0);
08:38:46:298;08:38:46:276;1448308485.86;(0.3885887384414673, 0.3488026512993707);49.8465843201;1.0;;;;;;;;;;;;;;0;0;0;0;0;0;0;0;0;();(-2000.0, -2000.0);
08:38:46:315;08:38:46:276;1448308485.86;(0.3885887384414673, 0.3488026512993707);49.8465843201;1.0;;;;;;;;;;;;;;0;0;0;0;0;0;0;0;0;();(-2000.0, -2000.0);
08:38:46:332;08:38:46:276;1448308485.86;(0.3885887384414673, 0.3488026512993707);49.8465843201;1.0;;;;;;;;;;;;;;0;0;0;0;0;0;0;0;0;();(-2000.0, -2000.0);
08:38:46:348;08:38:46:345;1448308485.93;(0.3877797365188599, 0.3486241234673394);49.5078353882;1.0;;;;;;;;;;;;;;0;0;0;0;0;0;0;0;0;();(-2000.0, -2000.0);
08:38:46:384;08:38:46:345;1448308485.93;(0.3877797365188599, 0.3486241234673394);49.5078353882;1.0;;;;;;;;;;;;;;0;0;0;0;0;0;0;0;0;();(-2000.0, -2000.0);
08:38:46:401;08:38:46:345;1448308485.93;(0.3877797365188599, 0.3486241234673394);49.5078353882;1.0;;;;;;;;;;;;;;0;0;0;0;0;0;0;0;0;();(-2000.0, -2000.0);
08:38:46:415;08:38:46:409;1448308485.99;(0.3872408151626587, 0.34875564575195317);49.388633728;1.0;;;;;;;;;;;;;;0;0;0;0;0;0;0;0;0;();(-2000.0, -2000.0);
08:38:46:432;08:38:46:409;1448308485.99;(0.3872408151626587, 0.34875564575195317);49.388633728;1.0;;;;;;;;;;;;;;0;0;0;0;0;0;0;0;0;();(-2000.0, -2000.0);
08:38:46:449;08:38:46:409;1448308485.99;(0.3872408151626587, 0.34875564575195317);49.388633728;1.0;;;;;;;;;;;;;;0;0;0;0;0;0;0;0;0;();(-2000.0, -2000.0);
08:38:46:482;08:38:46:477;1448308486.06;(0.38736007213592527, 0.34869261847601996);49.8096122742;1.0;;;;;;;;;;;;;;0;0;0;0;0;0;0;0;0;();(-2000.0, -2000.0);
08:38:46:498;08:38:46:477;1448308486.06;(0.38736007213592527, 0.34869261847601996);49.8096122742;1.0;;;;;;;;;;;;;;0;0;0;0;0;0;0;0;0;();(-2000.0, -2000.0);
08:38:46:515;08:38:46:477;1448308486.06;(0.38736007213592527, 0.34869261847601996);49.8096122742;1.0;;;;;;;;;;;;;;0;0;0;0;0;0;0;0;0;();(-2000.0, -2000.0);
08:38:46:532;08:38:46:477;1448308486.06;(0.38736007213592527, 0.34869261847601996);49.8096122742;1.0;;;;;;;;;;;;;;0;0;0;0;0;0;0;0;0;();(-2000.0, -2000.0);
08:38:46:548;08:38:46:541;1448308486.13;(0.3858318567276001, 0.3618272993299696);49.8486175537;1.0;;;;;;;;;;;;;;0;0;0;0;0;0;0;0;0;();(-2000.0, -2000.0);
08:38:46:582;08:38:46:541;1448308486.13;(0.3858318567276001, 0.3618272993299696);49.8486175537;1.0;;;;;;;;;;;;;;0;0;0;0;0;0;0;0;0;();(-2000.0, -2000.0);
08:38:46:599;08:38:46:541;1448308486.13;(0.3858318567276001, 0.3618272993299696);49.8486175537;1.0;;;;;;;;;;;;;;0;0;0;0;0;0;0;0;0;();(-2000.0, -2000.0);
08:38:46:615;08:38:46:608;1448308486.19;(0.3849244356155396, 0.3616989135742188);50.1211662292;1.0;;;;;;;;;;;;;;0;0;0;0;0;0;0;0;0;();(-2000.0, -2000.0);
08:38:46:632;08:38:46:608;1448308486.19;(0.3849244356155396, 0.3616989135742188);50.1211662292;1.0;;;;;;;;;;;;;;0;0;0;0;0;0;0;0;0;();(-2000.0, -2000.0);
08:38:46:649;08:38:46:608;1448308486.19;(0.3849244356155396, 0.3616989135742188);50.1211662292;1.0;;;;;;;;;;;;;;0;0;0;0;0;0;0;0;0;();(-2000.0, -2000.0);
08:38:46:682;08:38:46:672;1448308486.26;(0.38475637435913085, 0.36152068244086366);50.5333824158;1.0;;;;;;;;;;;;;;0;0;0;0;0;0;0;0;0;();(-2000.0, -2000.0);
08:38:46:699;08:38:46:672;1448308486.26;(0.38475637435913085, 0.36152068244086366);50.5333824158;1.0;;;;;;;;;;;;;;0;0;0;0;0;0;0;0;0;();(-2000.0, -2000.0);
08:38:46:715;08:38:46:672;1448308486.26;(0.38475637435913085, 0.36152068244086366);50.5333824158;1.0;;;;;;;;;;;;;;0;0;0;0;0;0;0;0;0;();(-2000.0, -2000.0);
08:38:46:732;08:38:46:672;1448308486.26;(0.38475637435913085, 0.36152068244086366);50.5333824158;1.0;;;;;;;;;;;;;;0;0;0;0;0;0;0;0;0;();(-2000.0, -2000.0);
08:38:46:749;08:38:46:741;1448308486.33;(0.38457937240600587, 0.3612848493787978);50.4203491211;1.0;;;;;;;;;;;;;;0;0;0;0;0;0;0;0;0;();(-2000.0, -2000.0);
08:38:46:782;08:38:46:741;1448308486.33;(0.38457937240600587, 0.3612848493787978);50.4203491211;1.0;;;;;;;;;;;;;;0;0;0;0;0;0;0;0;0;();(-2000.0, -2000.0);
08:38:46:799;08:38:46:741;1448308486.33;(0.38457937240600587, 0.3612848493787978);50.4203491211;1.0;;;;;;;;;;;;;;0;0;0;0;0;0;0;0;0;();(-2000.0, -2000.0);
08:38:46:815;08:38:46:808;1448308486.39;(0.3840759515762329, 0.3612480163574219);50.6857070923;1.0;;;;;;;;;;;;;;0;0;0;0;0;0;0;0;0;();(-2000.0, -2000.0);
08:38:46:832;08:38:46:808;1448308486.39;(0.3840759515762329, 0.3612480163574219);50.6857070923;1.0;;;;;;;;;;;;;;0;0;0;0;0;0;0;0;0;();(-2000.0, -2000.0);
08:38:46:849;08:38:46:808;1448308486.39;(0.3840759515762329, 0.3612480163574219);50.6857070923;1.0;;;;;;;;;;;;;;0;0;0;0;0;0;0;0;0;();(-2000.0, -2000.0);
08:38:46:882;08:38:46:872;1448308486.46;(0, 0);0;0;;;;;;;;;;;;;;0;0;0;0;0;0;0;0;0;();(-2000.0, -2000.0);
08:38:46:898;08:38:46:872;1448308486.46;(0, 0);0;0;;;;;;;;;;;;;;0;0;0;0;0;0;0;0;0;();(-2000.0, -2000.0);
08:38:46:915;08:38:46:872;1448308486.46;(0, 0);0;0;;;;;;;;;;;;;;0;0;0;0;0;0;0;0;0;();(-2000.0, -2000.0);
08:38:46:932;08:38:46:872;1448308486.46;(0, 0);0;0;;;;;;;;;;;;;;0;0;0;0;0;0;0;0;0;();(-2000.0, -2000.0);
08:38:46:949;08:38:46:940;1448308486.53;(0.3806419610977173, 0.41204096476236984);49.8840332031;1.0;;;;;;;;;;;;;;0;0;0;0;0;0;0;0;0;();(-2000.0, -2000.0);
08:38:46:966;08:38:46:940;1448308486.53;(0.3806419610977173, 0.41204096476236984);49.8840332031;1.0;;;;;;;;;;;;;;0;0;0;0;0;0;0;0;0;();(-2000.0, -2000.0);
08:38:46:999;08:38:46:940;1448308486.53;(0.3806419610977173, 0.41204096476236984);49.8840332031;1.0;;;;;;;;;;;;;;0;0;0;0;0;0;0;0;0;();(-2000.0, -2000.0);
08:38:47:016;08:38:47:004;1448308486.59;(0.3809748649597168, 0.40744171142578123);50.0684585571;1.0;;;;;;;;;;;;;;0;0;0;0;0;0;0;0;0;();(-2000.0, -2000.0);
08:38:47:032;08:38:47:004;1448308486.59;(0.3809748649597168, 0.40744171142578123);50.0684585571;1.0;;;;;;;;;;;;;;0;0;0;0;0;0;0;0;0;();(-2000.0, -2000.0);
08:38:47:049;08:38:47:004;1448308486.59;(0.3809748649597168, 0.40744171142578123);50.0684585571;1.0;;;;;;;;;;;;;;0;0;0;0;0;0;0;0;0;();(-2000.0, -2000.0);
08:38:47:082;08:38:47:072;1448308486.66;(0.38084912300109863, 0.40566707187228734);50.1782913208;1.0;;;;;;;;;;;;;;0;0;0;0;0;0;0;0;0;();(-2000.0, -2000.0);
08:38:47:099;08:38:47:072;1448308486.66;(0.38084912300109863, 0.40566707187228734);50.1782913208;1.0;;;;;;;;;;;;;;0;0;0;0;0;0;0;0;0;();(-2000.0, -2000.0);
08:38:47:115;08:38:47:072;1448308486.66;(0.38084912300109863, 0.40566707187228734);50.1782913208;1.0;;;;;;;;;;;;;;0;0;0;0;0;0;0;0;0;();(-2000.0, -2000.0);
08:38:47:132;08:38:47:072;1448308486.66;(0.38084912300109863, 0.40566707187228734);50.1782913208;1.0;;;;;;;;;;;;;;0;0;0;0;0;0;0;0;0;();(-2000.0, -2000.0);
08:38:47:149;08:38:47:141;1448308486.73;(0.380894136428833, 0.40523088243272565);49.9759979248;1.0;;;;;;;;;;;;;;0;0;0;0;0;0;0;0;0;();(-2000.0, -2000.0);
08:38:47:166;08:38:47:141;1448308486.73;(0.380894136428833, 0.40523088243272565);49.9759979248;1.0;;;;;;;;;;;;;;0;0;0;0;0;0;0;0;0;();(-2000.0, -2000.0);
08:38:47:199;08:38:47:141;1448308486.73;(0.380894136428833, 0.40523088243272565);49.9759979248;1.0;;;;;;;;;;;;;;0;0;0;0;0;0;0;0;0;();(-2000.0, -2000.0);
08:38:47:216;08:38:47:204;1448308486.79;(0.3828363656997681, 0.4138360341389974);50.0268058777;0.898902119318;;;;;;;;;;;;;;0;0;0;0;0;0;0;0;0;();(-2000.0, -2000.0);
08:38:47:232;08:38:47:204;1448308486.79;(0.3828363656997681, 0.4138360341389974);50.0268058777;0.898902119318;;;;;;;;;;;;;;0;0;0;0;0;0;0;0;0;();(-2000.0, -2000.0);
08:38:47:249;08:38:47:204;1448308486.79;(0.3828363656997681, 0.4138360341389974);50.0268058777;0.898902119318;;;;;;;;;;;;;;0;0;0;0;0;0;0;0;0;();(-2000.0, -2000.0);
08:38:47:266;08:38:47:204;1448308486.79;(0.3828363656997681, 0.4138360341389974);50.0268058777;0.898902119318;;;;;;;;;;;;;;0;0;0;0;0;0;0;0;0;();(-2000.0, -2000.0);
08:38:47:299;08:38:47:273;1448308486.86;(0.38181796073913576, 0.414975823296441);49.8649711609;1.0;;;;;;;;;;;;;;0;0;0;0;0;0;0;0;0;();(-2000.0, -2000.0);
08:38:47:316;08:38:47:273;1448308486.86;(0.38181796073913576, 0.414975823296441);49.8649711609;1.0;;;;;;;;;;;;;;0;0;0;0;0;0;0;0;0;();(-2000.0, -2000.0);
08:38:47:332;08:38:47:273;1448308486.86;(0.38181796073913576, 0.414975823296441);49.8649711609;1.0;;;;;;;;;;;;;;0;0;0;0;0;0;0;0;0;();(-2000.0, -2000.0);
08:38:47:350;08:38:47:336;1448308486.93;(0.38157703876495364, 0.41509246826171875);50.0235710144;1.0;;;;;;;;;;;;;;0;0;0;0;0;0;0;0;0;();(-2000.0, -2000.0);
08:38:47:366;08:38:47:336;1448308486.93;(0.38157703876495364, 0.41509246826171875);50.0235710144;1.0;;;;;;;;;;;;;;0;0;0;0;0;0;0;0;0;();(-2000.0, -2000.0);
08:38:47:399;08:38:47:336;1448308486.93;(0.38157703876495364, 0.41509246826171875);50.0235710144;1.0;;;;;;;;;;;;;;0;0;0;0;0;0;0;0;0;();(-2000.0, -2000.0);
08:38:47:416;08:38:47:404;1448308486.99;(0.3813504695892334, 0.4154920366075304);49.8897094727;1.0;;;;;;;;;;;;;;0;0;0;0;0;0;0;0;0;();(-2000.0, -2000.0);
08:38:47:433;08:38:47:404;1448308486.99;(0.3813504695892334, 0.4154920366075304);49.8897094727;1.0;;;;;;;;;;;;;;0;0;0;0;0;0;0;0;0;();(-2000.0, -2000.0);
08:38:47:450;08:38:47:404;1448308486.99;(0.3813504695892334, 0.4154920366075304);49.8897094727;1.0;;;;;;;;;;;;;;0;0;0;0;0;0;0;0;0;();(-2000.0, -2000.0);
08:38:47:466;08:38:47:404;1448308486.99;(0.3813504695892334, 0.4154920366075304);49.8897094727;1.0;;;;;;;;;;;;;;0;0;0;0;0;0;0;0;0;();(-2000.0, -2000.0);
08:38:47:499;08:38:47:472;1448308487.06;(0.38148975372314453, 0.4150605943467882);49.7633666992;1.0;;;;;;;;;;;;;;0;0;0;0;0;0;0;0;0;();(-2000.0, -2000.0);
08:38:47:516;08:38:47:472;1448308487.06;(0.38148975372314453, 0.4150605943467882);49.7633666992;1.0;;;;;;;;;;;;;;0;0;0;0;0;0;0;0;0;();(-2000.0, -2000.0);
08:38:47:533;08:38:47:472;1448308487.06;(0.38148975372314453, 0.4150605943467882);49.7633666992;1.0;;;;;;;;;;;;;;0;0;0;0;0;0;0;0;0;();(-2000.0, -2000.0);
08:38:47:552;08:38:47:537;1448308487.13;(0.38120017051696775, 0.41478919982910156);49.9461784363;1.0;;;;;;;;;;;;;;0;0;0;0;0;0;0;0;0;();(-2000.0, -2000.0);
08:38:47:569;08:38:47:537;1448308487.13;(0.38120017051696775, 0.41478919982910156);49.9461784363;1.0;;;;;;;;;;;;;;0;0;0;0;0;0;0;0;0;();(-2000.0, -2000.0);
08:38:47:599;08:38:47:537;1448308487.13;(0.38120017051696775, 0.41478919982910156);49.9461784363;1.0;;;;;;;;;;;;;;0;0;0;0;0;0;0;0;0;();(-2000.0, -2000.0);
08:38:47:616;08:38:47:603;1448308487.16;(0.4001732587814331, 0.41924752129448783);50.9545478821;0.943380365541;;;;;;;;;;;;;;0;0;0;0;0;0;0;0;0;();(-2000.0, -2000.0);
08:38:47:633;08:38:47:603;1448308487.16;(0.4001732587814331, 0.41924752129448783);50.9545478821;0.943380365541;;;;;;;;;;;;;;0;0;0;0;0;0;0;0;0;();(-2000.0, -2000.0);
08:38:47:649;08:38:47:603;1448308487.16;(0.4001732587814331, 0.41924752129448783);50.9545478821;0.943380365541;;;;;;;;;;;;;;0;0;0;0;0;0;0;0;0;();(-2000.0, -2000.0);
08:38:47:666;08:38:47:603;1448308487.16;(0.4001732587814331, 0.41924752129448783);50.9545478821;0.943380365541;;;;;;;;;;;;;;0;0;0;0;0;0;0;0;0;();(-2000.0, -2000.0);
08:38:47:700;08:38:47:671;1448308487.26;(0.5229213237762451, 0.39107712639702696);50.2084541321;1.0;;;;;;;;;;;;;;0;0;0;0;0;0;0;0;0;();(-2000.0, -2000.0);
08:38:47:715;08:38:47:671;1448308487.26;(0.5229213237762451, 0.39107712639702696);50.2084541321;1.0;;;;;;;;;;;;;;0;0;0;0;0;0;0;0;0;();(-2000.0, -2000.0);
08:38:47:733;08:38:47:671;1448308487.26;(0.5229213237762451, 0.39107712639702696);50.2084541321;1.0;;;;;;;;;;;;;;0;0;0;0;0;0;0;0;0;();(-2000.0, -2000.0);
08:38:47:749;08:38:47:736;1448308487.33;(0.553965711593628, 0.3571385277642144);49.6099662781;1.0;;;;;;;;;;;;;;0;0;0;0;0;0;0;0;0;();(-2000.0, -2000.0);
08:38:47:767;08:38:47:736;1448308487.33;(0.553965711593628, 0.3571385277642144);49.6099662781;1.0;;;;;;;;;;;;;;0;0;0;0;0;0;0;0;0;();(-2000.0, -2000.0);
08:38:47:799;08:38:47:736;1448308487.33;(0.553965711593628, 0.3571385277642144);49.6099662781;1.0;;;;;;;;;;;;;;0;0;0;0;0;0;0;0;0;();(-2000.0, -2000.0);
08:38:47:816;08:38:47:800;1448308487.39;(0.5557093620300293, 0.35590404934353304);49.8658332825;1.0;;;;;;;;;;;;;;0;0;0;0;0;0;0;0;0;();(-2000.0, -2000.0);
08:38:47:833;08:38:47:800;1448308487.39;(0.5557093620300293, 0.35590404934353304);49.8658332825;1.0;;;;;;;;;;;;;;0;0;0;0;0;0;0;0;0;();(-2000.0, -2000.0);
08:38:47:849;08:38:47:800;1448308487.39;(0.5557093620300293, 0.35590404934353304);49.8658332825;1.0;;;;;;;;;;;;;;0;0;0;0;0;0;0;0;0;();(-2000.0, -2000.0);
08:38:47:866;08:38:47:800;1448308487.39;(0.5557093620300293, 0.35590404934353304);49.8658332825;1.0;;;;;;;;;;;;;;0;0;0;0;0;0;0;0;0;();(-2000.0, -2000.0);
08:38:47:899;08:38:47:869;1448308487.46;(0.5565665245056153, 0.3553766886393229);50.4449310303;1.0;;;;;;;;;;;;;;0;0;0;0;0;0;0;0;0;();(-2000.0, -2000.0);
08:38:47:917;08:38:47:869;1448308487.46;(0.5565665245056153, 0.3553766886393229);50.4449310303;1.0;;;;;;;;;;;;;;0;0;0;0;0;0;0;0;0;();(-2000.0, -2000.0);
08:38:47:933;08:38:47:869;1448308487.46;(0.5565665245056153, 0.3553766886393229);50.4449310303;1.0;;;;;;;;;;;;;;0;0;0;0;0;0;0;0;0;();(-2000.0, -2000.0);
08:38:47:950;08:38:47:943;1448308487.53;(0.5572967052459716, 0.3555251651340061);50.8231277466;1.0;;;;;;;;;;;;;;0;0;0;0;0;0;0;0;0;();(-2000.0, -2000.0);
08:38:47:966;08:38:47:943;1448308487.53;(0.5572967052459716, 0.3555251651340061);50.8231277466;1.0;;;;;;;;;;;;;;0;0;0;0;0;0;0;0;0;();(-2000.0, -2000.0);
08:38:48:002;08:38:47:943;1448308487.53;(0.5572967052459716, 0.3555251651340061);50.8231277466;1.0;;;;;;;;;;;;;;0;0;0;0;0;0;0;0;0;();(-2000.0, -2000.0);
08:38:48:019;08:38:48:012;1448308487.59;(0.5582268238067627, 0.35427563985188804);51.1417808533;1.0;;;;;;;;;;;;;;0;0;0;0;0;0;0;0;0;();(-2000.0, -2000.0);
08:38:48:033;08:38:48:012;1448308487.59;(0.5582268238067627, 0.35427563985188804);51.1417808533;1.0;;;;;;;;;;;;;;0;0;0;0;0;0;0;0;0;();(-2000.0, -2000.0);
08:38:48:050;08:38:48:012;1448308487.59;(0.5582268238067627, 0.35427563985188804);51.1417808533;1.0;;;;;;;;;;;;;;0;0;0;0;0;0;0;0;0;();(-2000.0, -2000.0);
08:38:48:067;08:38:48:012;1448308487.59;(0.5582268238067627, 0.35427563985188804);51.1417808533;1.0;;;;;;;;;;;;;;0;0;0;0;0;0;0;0;0;();(-2000.0, -2000.0);
08:38:48:100;08:38:48:071;1448308487.66;(0.5982742309570312, 0.299444580078125);51.0621681213;1.0;;;;;;;;;;;;;;0;0;0;0;0;0;0;0;0;();(-2000.0, -2000.0);
08:38:48:116;08:38:48:071;1448308487.66;(0.5982742309570312, 0.299444580078125);51.0621681213;1.0;;;;;;;;;;;;;;0;0;0;0;0;0;0;0;0;();(-2000.0, -2000.0);
08:38:48:136;08:38:48:071;1448308487.66;(0.5982742309570312, 0.299444580078125);51.0621681213;1.0;;;;;;;;;;;;;;0;0;0;0;0;0;0;0;0;();(-2000.0, -2000.0);
08:38:48:152;08:38:48:133;1448308487.73;(0.5993824005126953, 0.2984180874294705);50.9637870789;1.0;;;;;;;;;;;;;;0;0;0;0;0;0;0;0;0;();(-2000.0, -2000.0);
08:38:48:168;08:38:48:133;1448308487.73;(0.5993824005126953, 0.2984180874294705);50.9637870789;1.0;;;;;;;;;;;;;;0;0;0;0;0;0;0;0;0;();(-2000.0, -2000.0);
08:38:48:200;08:38:48:133;1448308487.73;(0.5993824005126953, 0.2984180874294705);50.9637870789;1.0;;;;;;;;;;;;;;0;0;0;0;0;0;0;0;0;();(-2000.0, -2000.0);
08:38:48:219;08:38:48:203;1448308487.79;(0.5997012615203857, 0.29853922526041665);50.8253860474;1.0;;;;;;;;;;;;;;0;0;0;0;0;0;0;0;0;();(-2000.0, -2000.0);
08:38:48:235;08:38:48:203;1448308487.79;(0.5997012615203857, 0.29853922526041665);50.8253860474;1.0;;;;;;;;;;;;;;0;0;0;0;0;0;0;0;0;();(-2000.0, -2000.0);
08:38:48:250;08:38:48:203;1448308487.79;(0.5997012615203857, 0.29853922526041665);50.8253860474;1.0;;;;;;;;;;;;;;0;0;0;0;0;0;0;0;0;();(-2000.0, -2000.0);
08:38:48:267;08:38:48:203;1448308487.79;(0.5997012615203857, 0.29853922526041665);50.8253860474;1.0;;;;;;;;;;;;;;0;0;0;0;0;0;0;0;0;();(-2000.0, -2000.0);
08:38:48:300;08:38:48:270;1448308487.86;(0.5999536514282227, 0.29793133205837674);51.622341156;1.0;;;;;;;;;;;;;;0;0;0;0;0;0;0;0;0;();(-2000.0, -2000.0);
08:38:48:317;08:38:48:270;1448308487.86;(0.5999536514282227, 0.29793133205837674);51.622341156;1.0;;;;;;;;;;;;;;0;0;0;0;0;0;0;0;0;();(-2000.0, -2000.0);
08:38:48:335;08:38:48:270;1448308487.86;(0.5999536514282227, 0.29793133205837674);51.622341156;1.0;;;;;;;;;;;;;;0;0;0;0;0;0;0;0;0;();(-2000.0, -2000.0);
08:38:48:352;08:38:48:341;1448308487.93;(0.6000778675079346, 0.29789394802517366);51.7479629517;1.0;;;;;;;;;;;;;;0;0;0;0;0;0;0;0;0;();(-2000.0, -2000.0);
08:38:48:369;08:38:48:341;1448308487.93;(0.6000778675079346, 0.29789394802517366);51.7479629517;1.0;;;;;;;;;;;;;;0;0;0;0;0;0;0;0;0;();(-2000.0, -2000.0);
08:38:48:402;08:38:48:341;1448308487.93;(0.6000778675079346, 0.29789394802517366);51.7479629517;1.0;;;;;;;;;;;;;;0;0;0;0;0;0;0;0;0;();(-2000.0, -2000.0);
08:38:48:419;08:38:48:406;1448308487.99;(0.5752768516540527, 0.31918674045138884);50.1587257385;0.993557410839;;;;;;;;;;;;;;0;0;0;0;0;0;0;0;0;();(-2000.0, -2000.0);
08:38:48:435;08:38:48:406;1448308487.99;(0.5752768516540527, 0.31918674045138884);50.1587257385;0.993557410839;;;;;;;;;;;;;;0;0;0;0;0;0;0;0;0;();(-2000.0, -2000.0);
08:38:48:452;08:38:48:406;1448308487.99;(0.5752768516540527, 0.31918674045138884);50.1587257385;0.993557410839;;;;;;;;;;;;;;0;0;0;0;0;0;0;0;0;();(-2000.0, -2000.0);
08:38:48:470;08:38:48:463;1448308488.03;(0.5411527633666993, 0.3335859086778429);49.6578941345;1.0;;;;;;;;;;;;;;0;0;0;0;0;0;0;0;0;();(-2000.0, -2000.0);
08:38:48:500;08:38:48:463;1448308488.03;(0.5411527633666993, 0.3335859086778429);49.6578941345;1.0;;;;;;;;;;;;;;0;0;0;0;0;0;0;0;0;();(-2000.0, -2000.0);
08:38:48:517;08:38:48:463;1448308488.03;(0.5411527633666993, 0.3335859086778429);49.6578941345;1.0;;;;;;;;;;;;;;0;0;0;0;0;0;0;0;0;();(-2000.0, -2000.0);
08:38:48:537;08:38:48:533;1448308488.13;(0.5016988277435303, 0.3450576782226562);51.8985061646;1.0;;;;;;;;;;;;;;0;0;0;0;0;0;0;0;0;();(-2000.0, -2000.0);
08:38:48:550;08:38:48:533;1448308488.13;(0.5016988277435303, 0.3450576782226562);51.8985061646;1.0;;;;;;;;;;;;;;0;0;0;0;0;0;0;0;0;();(-2000.0, -2000.0);
08:38:48:567;08:38:48:533;1448308488.13;(0.5016988277435303, 0.3450576782226562);51.8985061646;1.0;;;;;;;;;;;;;;0;0;0;0;0;0;0;0;0;();(-2000.0, -2000.0);
08:38:48:600;08:38:48:533;1448308488.13;(0.5016988277435303, 0.3450576782226562);51.8985061646;1.0;;;;;;;;;;;;;;0;0;0;0;0;0;0;0;0;();(-2000.0, -2000.0);
08:38:48:617;08:38:48:603;1448308488.19;(0.5012379169464112, 0.34576746622721355);51.9549293518;1.0;;;;;;;;;;;;;;0;0;0;0;0;0;0;0;0;();(-2000.0, -2000.0);
08:38:48:634;08:38:48:603;1448308488.19;(0.5012379169464112, 0.34576746622721355);51.9549293518;1.0;;;;;;;;;;;;;;0;0;0;0;0;0;0;0;0;();(-2000.0, -2000.0);
08:38:48:650;08:38:48:603;1448308488.19;(0.5012379169464112, 0.34576746622721355);51.9549293518;1.0;;;;;;;;;;;;;;0;0;0;0;0;0;0;0;0;();(-2000.0, -2000.0);
08:38:48:668;08:38:48:665;1448308488.26;(0.5010982513427734, 0.34616190592447915);51.7791290283;1.0;;;;;;;;;;;;;;0;0;0;0;0;0;0;0;0;();(-2000.0, -2000.0);
08:38:48:700;08:38:48:665;1448308488.26;(0.5010982513427734, 0.34616190592447915);51.7791290283;1.0;;;;;;;;;;;;;;0;0;0;0;0;0;0;0;0;();(-2000.0, -2000.0);
08:38:48:717;08:38:48:665;1448308488.26;(0.5010982513427734, 0.34616190592447915);51.7791290283;1.0;;;;;;;;;;;;;;0;0;0;0;0;0;0;0;0;();(-2000.0, -2000.0);
08:38:48:735;08:38:48:731;1448308488.29;(0.5013067245483398, 0.34609438578287766);51.6656074524;1.0;;;;;;;;;;;;;;0;0;0;0;0;0;0;0;0;();(-2000.0, -2000.0);
08:38:48:750;08:38:48:733;1448308488.33;(0.5014675617218017, 0.34660004509819875);51.7572212219;1.0;;;;;;;;;;;;;;0;0;0;0;0;0;0;0;0;();(-2000.0, -2000.0);
08:38:48:767;08:38:48:733;1448308488.33;(0.5014675617218017, 0.34660004509819875);51.7572212219;1.0;;;;;;;;;;;;;;0;0;0;0;0;0;0;0;0;();(-2000.0, -2000.0);
08:38:48:800;08:38:48:797;1448308488.39;(0.5016315937042236, 0.34626905653211804);51.2359085083;1.0;;;;;;;;;;;;;;0;0;0;0;0;0;0;0;0;();(-2000.0, -2000.0);
08:38:48:817;08:38:48:797;1448308488.39;(0.5016315937042236, 0.34626905653211804);51.2359085083;1.0;;;;;;;;;;;;;;0;0;0;0;0;0;0;0;0;();(-2000.0, -2000.0);
08:38:48:834;08:38:48:797;1448308488.39;(0.5016315937042236, 0.34626905653211804);51.2359085083;1.0;;;;;;;;;;;;;;0;0;0;0;0;0;0;0;0;();(-2000.0, -2000.0);
08:38:48:850;08:38:48:797;1448308488.39;(0.5016315937042236, 0.34626905653211804);51.2359085083;1.0;;;;;;;;;;;;;;0;0;0;0;0;0;0;0;0;();(-2000.0, -2000.0);
08:38:48:869;08:38:48:865;1448308488.46;(0.5015768527984619, 0.34654824998643663);51.5410003662;1.0;;;;;;;;;;;;;;0;0;0;0;0;0;0;0;0;();(-2000.0, -2000.0);
08:38:48:900;08:38:48:865;1448308488.46;(0.5015768527984619, 0.34654824998643663);51.5410003662;1.0;;;;;;;;;;;;;;0;0;0;0;0;0;0;0;0;();(-2000.0, -2000.0);
08:38:48:917;08:38:48:865;1448308488.46;(0.5015768527984619, 0.34654824998643663);51.5410003662;1.0;;;;;;;;;;;;;;0;0;0;0;0;0;0;0;0;();(-2000.0, -2000.0);
08:38:48:936;08:38:48:933;1448308488.53;(0.5074057102203369, 0.3528706868489583);51.4541130066;1.0;;;;;;;;;;;;;;0;0;0;0;0;0;0;0;0;();(-2000.0, -2000.0);
08:38:48:950;08:38:48:933;1448308488.53;(0.5074057102203369, 0.3528706868489583);51.4541130066;1.0;;;;;;;;;;;;;;0;0;0;0;0;0;0;0;0;();(-2000.0, -2000.0);
08:38:48:968;08:38:48:933;1448308488.53;(0.5074057102203369, 0.3528706868489583);51.4541130066;1.0;;;;;;;;;;;;;;0;0;0;0;0;0;0;0;0;();(-2000.0, -2000.0);
08:38:49:000;08:38:48:933;1448308488.53;(0.5074057102203369, 0.3528706868489583);51.4541130066;1.0;;;;;;;;;;;;;;0;0;0;0;0;0;0;0;0;();(-2000.0, -2000.0);
08:38:49:018;08:38:48:933;1448308488.53;(0.5074057102203369, 0.3528706868489583);51.4541130066;1.0;;;;;;;;;;;;;;0;0;0;0;0;0;0;0;0;();(-2000.0, -2000.0);
