%Timestamp,timestamp_write;timestamp_gotpupil;eyetrackertime;norm_pos;diameter;confidence;timestamp_gotbitdata;CRC;SEQ;AnalogOutp1;AnalogOutp2;AnalogOutp3;AnalogOutp4;AnalogOutp5;AnalogOutp6;DigitalOutp1;DigitalOutp2;igitalOutp3;DigitalOutp4;nplanes;lastaction;lastactiondetails;lastactionairplanenumber;positivescore;negativescore;collidedairplanenumbers;targetpositions;collision_point
12:00:30:908;1448277390.6;(0.3207080841064453, 0.2027717590332031);18.8126239777;0.855015689315;;;;;;;;;;;;;;0;0;0;;0;0;();();(0.0, 0.0);
12:00:30:915;1448277390.6;(0.3207080841064453, 0.2027717590332031);18.8126239777;0.855015689315;;;;;;;;;;;;;;0;0;0;;0;0;();();(-2000.0, -2000.0);
12:00:30:918;1448277390.6;(0.3207080841064453, 0.2027717590332031);18.8126239777;0.855015689315;;;;;;;;;;;;;;0;0;0;;0;0;();();(-2000.0, -2000.0);
12:00:30:920;1448277390.6;(0.3207080841064453, 0.2027717590332031);18.8126239777;0.855015689315;;;;;;;;;;;;;;0;0;0;;0;0;();();(-2000.0, -2000.0);
12:00:30:922;1448277390.6;(0.3207080841064453, 0.2027717590332031);18.8126239777;0.855015689315;;;;;;;;;;;;;;0;0;0;;0;0;();();(-2000.0, -2000.0);
12:00:30:925;1448277390.6;(0.3207080841064453, 0.2027717590332031);18.8126239777;0.855015689315;;;;;;;;;;;;;;0;0;0;;0;0;();();(-2000.0, -2000.0);
12:00:30:927;1448277390.6;(0.3207080841064453, 0.2027717590332031);18.8126239777;0.855015689315;;;;;;;;;;;;;;0;0;0;;0;0;();();(-2000.0, -2000.0);
12:00:30:929;1448277390.6;(0.3207080841064453, 0.2027717590332031);18.8126239777;0.855015689315;;;;;;;;;;;;;;0;0;0;;0;0;();();(-2000.0, -2000.0);
12:00:30:931;1448277390.6;(0.3207080841064453, 0.2027717590332031);18.8126239777;0.855015689315;;;;;;;;;;;;;;0;0;0;;0;0;();();(-2000.0, -2000.0);
12:00:30:933;1448277390.6;(0.3207080841064453, 0.2027717590332031);18.8126239777;0.855015689315;;;;;;;;;;;;;;0;0;0;;0;0;();();(-2000.0, -2000.0);
12:00:30:935;1448277390.6;(0.3207080841064453, 0.2027717590332031);18.8126239777;0.855015689315;;;;;;;;;;;;;;0;0;0;;0;0;();();(-2000.0, -2000.0);
12:00:30:938;1448277390.6;(0.3207080841064453, 0.2027717590332031);18.8126239777;0.855015689315;;;;;;;;;;;;;;0;0;0;;0;0;();();(-2000.0, -2000.0);
12:00:30:940;1448277390.6;(0.3207080841064453, 0.2027717590332031);18.8126239777;0.855015689315;;;;;;;;;;;;;;0;0;0;;0;0;();();(-2000.0, -2000.0);
12:00:30:942;1448277390.6;(0.3207080841064453, 0.2027717590332031);18.8126239777;0.855015689315;;;;;;;;;;;;;;0;0;0;;0;0;();();(-2000.0, -2000.0);
12:00:30:944;1448277390.6;(0.3207080841064453, 0.2027717590332031);18.8126239777;0.855015689315;;;;;;;;;;;;;;0;0;0;;0;0;();();(-2000.0, -2000.0);
12:00:30:945;1448277390.6;(0.3207080841064453, 0.2027717590332031);18.8126239777;0.855015689315;;;;;;;;;;;;;;0;0;0;;0;0;();();(-2000.0, -2000.0);
12:00:30:946;1448277390.6;(0.3207080841064453, 0.2027717590332031);18.8126239777;0.855015689315;;;;;;;;;;;;;;0;0;0;;0;0;();();(-2000.0, -2000.0);
12:00:30:947;1448277390.6;(0.3207080841064453, 0.2027717590332031);18.8126239777;0.855015689315;;;;;;;;;;;;;;0;0;0;;0;0;();();(-2000.0, -2000.0);
12:00:30:948;1448277390.6;(0.3207080841064453, 0.2027717590332031);18.8126239777;0.855015689315;;;;;;;;;;;;;;0;0;0;;0;0;();();(-2000.0, -2000.0);
12:00:30:967;12:00:30:963;1448277390.67;(0.32118327617645265, 0.203462897406684);21.3675956726;0.747478610534;;;;;;;;;;;;;;0;0;0;;0;0;();();(-2000.0, -2000.0);
12:00:31:001;12:00:30:963;1448277390.67;(0.32118327617645265, 0.203462897406684);21.3675956726;0.747478610534;;;;;;;;;;;;;;0;0;0;;0;0;();();(-2000.0, -2000.0);
12:00:31:018;12:00:30:963;1448277390.67;(0.32118327617645265, 0.203462897406684);21.3675956726;0.747478610534;;;;;;;;;;;;;;0;0;0;;0;0;();();(-2000.0, -2000.0);
12:00:31:035;12:00:30:963;1448277390.67;(0.32118327617645265, 0.203462897406684);21.3675956726;0.747478610534;;;;;;;;;;;;;;0;0;0;;0;0;();();(-2000.0, -2000.0);
12:00:31:051;12:00:30:963;1448277390.67;(0.32118327617645265, 0.203462897406684);21.3675956726;0.747478610534;;;;;;;;;;;;;;0;0;0;;0;0;();();(-2000.0, -2000.0);
12:00:36:251;12:00:36:209;1448277395.87;(0, 0);0;0;;;;;;;;;;;;;;2;0;0;;0;0;();();(-2000.0, -2000.0);
12:00:36:255;12:00:36:209;1448277395.87;(0, 0);0;0;;;;;;;;;;;;;;2;0;0;;0;0;();();(-2000.0, -2000.0);
12:00:36:257;12:00:36:209;1448277395.87;(0, 0);0;0;;;;;;;;;;;;;;2;0;0;;0;0;();();(-2000.0, -2000.0);
12:00:36:259;12:00:36:209;1448277395.87;(0, 0);0;0;;;;;;;;;;;;;;2;0;0;;0;0;();();(-2000.0, -2000.0);
12:00:36:260;12:00:36:209;1448277395.87;(0, 0);0;0;;;;;;;;;;;;;;2;0;0;;0;0;();();(-2000.0, -2000.0);
12:00:36:261;12:00:36:209;1448277395.87;(0, 0);0;0;;;;;;;;;;;;;;2;0;0;;0;0;();();(-2000.0, -2000.0);
12:00:36:262;12:00:36:209;1448277395.87;(0, 0);0;0;;;;;;;;;;;;;;2;0;0;;0;0;();();(-2000.0, -2000.0);
12:00:36:263;12:00:36:209;1448277395.87;(0, 0);0;0;;;;;;;;;;;;;;2;0;0;;0;0;();();(-2000.0, -2000.0);
12:00:36:264;12:00:36:209;1448277395.87;(0, 0);0;0;;;;;;;;;;;;;;2;0;0;;0;0;();();(-2000.0, -2000.0);
12:00:36:265;12:00:36:209;1448277395.87;(0, 0);0;0;;;;;;;;;;;;;;2;0;0;;0;0;();();(-2000.0, -2000.0);
12:00:36:266;12:00:36:209;1448277395.87;(0, 0);0;0;;;;;;;;;;;;;;2;0;0;;0;0;();();(-2000.0, -2000.0);
12:00:36:267;12:00:36:209;1448277395.87;(0, 0);0;0;;;;;;;;;;;;;;2;0;0;;0;0;();();(-2000.0, -2000.0);
12:00:36:268;12:00:36:209;1448277395.87;(0, 0);0;0;;;;;;;;;;;;;;2;0;0;;0;0;();();(-2000.0, -2000.0);
12:00:36:269;12:00:36:209;1448277395.87;(0, 0);0;0;;;;;;;;;;;;;;2;0;0;;0;0;();();(-2000.0, -2000.0);
12:00:36:270;12:00:36:209;1448277395.87;(0, 0);0;0;;;;;;;;;;;;;;2;0;0;;0;0;();();(-2000.0, -2000.0);
12:00:36:271;12:00:36:270;1448277395.94;(0, 0);0;0;;;;;;;;;;;;;;2;0;0;;0;0;();();(-2000.0, -2000.0);
12:00:36:272;12:00:36:270;1448277395.94;(0, 0);0;0;;;;;;;;;;;;;;2;0;0;;0;0;();();(-2000.0, -2000.0);
12:00:36:286;12:00:36:270;1448277395.94;(0, 0);0;0;;;;;;;;;;;;;;2;0;0;;0;0;();();(-2000.0, -2000.0);
12:00:36:287;12:00:36:270;1448277395.94;(0, 0);0;0;;;;;;;;;;;;;;2;0;0;;0;0;();();(-2000.0, -2000.0);
12:00:36:306;12:00:36:270;1448277395.94;(0, 0);0;0;;;;;;;;;;;;;;2;0;0;;0;0;();();(-2000.0, -2000.0);
12:00:36:323;12:00:36:270;1448277395.94;(0, 0);0;0;;;;;;;;;;;;;;2;0;0;;0;0;();();(-2000.0, -2000.0);
12:00:36:356;12:00:36:339;1448277396.0;(0, 0);0;0;;;;;;;;;;;;;;2;0;0;;0;0;();();(-2000.0, -2000.0);
12:00:36:372;12:00:36:339;1448277396.0;(0, 0);0;0;;;;;;;;;;;;;;2;0;0;;0;0;();();(-2000.0, -2000.0);
12:00:36:389;12:00:36:339;1448277396.0;(0, 0);0;0;;;;;;;;;;;;;;2;0;0;;0;0;();();(-2000.0, -2000.0);
12:00:36:406;12:00:36:339;1448277396.0;(0, 0);0;0;;;;;;;;;;;;;;2;0;0;;0;0;();();(-2000.0, -2000.0);
12:00:36:422;12:00:36:407;1448277396.07;(0, 0);0;0;;;;;;;;;;;;;;2;0;0;;0;0;();();(-2000.0, -2000.0);
12:00:36:456;12:00:36:407;1448277396.07;(0, 0);0;0;;;;;;;;;;;;;;2;0;0;;0;0;();();(-2000.0, -2000.0);
12:00:36:472;12:00:36:471;1448277396.14;(0.6086034297943115, 0.20024363199869788);36.9269180298;0.685961777477;;;;;;;;;;;;;;2;0;0;;0;0;();();(-2000.0, -2000.0);
12:00:36:489;12:00:36:471;1448277396.14;(0.6086034297943115, 0.20024363199869788);36.9269180298;0.685961777477;;;;;;;;;;;;;;2;0;0;;0;0;();();(-2000.0, -2000.0);
12:00:36:506;12:00:36:471;1448277396.14;(0.6086034297943115, 0.20024363199869788);36.9269180298;0.685961777477;;;;;;;;;;;;;;2;0;0;;0;0;();();(-2000.0, -2000.0);
12:00:36:522;12:00:36:471;1448277396.14;(0.6086034297943115, 0.20024363199869788);36.9269180298;0.685961777477;;;;;;;;;;;;;;2;0;0;;0;0;();();(-2000.0, -2000.0);
12:00:36:556;12:00:36:540;1448277396.2;(0, 0);0;0;;;;;;;;;;;;;;2;0;0;;0;0;();();(-2000.0, -2000.0);
12:00:36:572;12:00:36:540;1448277396.2;(0, 0);0;0;;;;;;;;;;;;;;2;0;0;;0;0;();();(-2000.0, -2000.0);
12:00:36:589;12:00:36:540;1448277396.2;(0, 0);0;0;;;;;;;;;;;;;;2;0;0;;0;0;();();(-2000.0, -2000.0);
12:00:36:606;12:00:36:603;1448277396.27;(0, 0);0;0;;;;;;;;;;;;;;2;0;0;;0;0;();();(-2000.0, -2000.0);
12:00:36:623;12:00:36:603;1448277396.27;(0, 0);0;0;;;;;;;;;;;;;;2;0;0;;0;0;();();(-2000.0, -2000.0);
12:00:36:656;12:00:36:603;1448277396.27;(0, 0);0;0;;;;;;;;;;;;;;2;0;0;;0;0;();();(-2000.0, -2000.0);
12:00:36:673;12:00:36:671;1448277396.34;(0, 0);0;0;;;;;;;;;;;;;;2;0;0;;0;0;();();(-2000.0, -2000.0);
12:00:36:690;12:00:36:671;1448277396.34;(0, 0);0;0;;;;;;;;;;;;;;2;0;0;;0;0;();();(-2000.0, -2000.0);
12:00:36:706;12:00:36:671;1448277396.34;(0, 0);0;0;;;;;;;;;;;;;;2;0;0;;0;0;();();(-2000.0, -2000.0);
12:00:36:722;12:00:36:671;1448277396.34;(0, 0);0;0;;;;;;;;;;;;;;2;0;0;;0;0;();();(-2000.0, -2000.0);
12:00:36:756;12:00:36:739;1448277396.4;(0, 0);0;0;;;;;;;;;;;;;;2;0;0;;0;0;();();(-2000.0, -2000.0);
12:00:36:772;12:00:36:739;1448277396.4;(0, 0);0;0;;;;;;;;;;;;;;2;0;0;;0;0;();();(-2000.0, -2000.0);
12:00:36:790;12:00:36:739;1448277396.4;(0, 0);0;0;;;;;;;;;;;;;;2;0;0;;0;0;();();(-2000.0, -2000.0);
12:00:36:807;12:00:36:803;1448277396.47;(0, 0);0;0;;;;;;;;;;;;;;2;0;0;;0;0;();();(-2000.0, -2000.0);
12:00:36:822;12:00:36:803;1448277396.47;(0, 0);0;0;;;;;;;;;;;;;;2;0;0;;0;0;();();(-2000.0, -2000.0);
12:00:36:857;12:00:36:803;1448277396.47;(0, 0);0;0;;;;;;;;;;;;;;2;0;0;;0;0;();();(-2000.0, -2000.0);
12:00:36:873;12:00:36:870;1448277396.54;(0, 0);0;0;;;;;;;;;;;;;;2;0;0;;0;0;();();(-2000.0, -2000.0);
12:00:36:889;12:00:36:870;1448277396.54;(0, 0);0;0;;;;;;;;;;;;;;2;0;0;;0;0;();();(-2000.0, -2000.0);
12:00:36:906;12:00:36:870;1448277396.54;(0, 0);0;0;;;;;;;;;;;;;;2;0;0;;0;0;();();(-2000.0, -2000.0);
12:00:36:923;12:00:36:870;1448277396.54;(0, 0);0;0;;;;;;;;;;;;;;2;0;0;;0;0;();();(-2000.0, -2000.0);
12:00:36:956;12:00:36:937;1448277396.6;(0, 0);0;0;;;;;;;;;;;;;;2;0;0;;0;0;();();(-2000.0, -2000.0);
12:00:36:972;12:00:36:937;1448277396.6;(0, 0);0;0;;;;;;;;;;;;;;2;0;0;;0;0;();();(-2000.0, -2000.0);
12:00:36:989;12:00:36:937;1448277396.6;(0, 0);0;0;;;;;;;;;;;;;;2;0;0;;0;0;();();(-2000.0, -2000.0);
12:00:37:006;12:00:37:003;1448277396.67;(0, 0);0;0;;;;;;;;;;;;;;2;0;0;;0;0;();();(-2000.0, -2000.0);
12:00:37:023;12:00:37:003;1448277396.67;(0, 0);0;0;;;;;;;;;;;;;;2;0;0;;0;0;();();(-2000.0, -2000.0);
12:00:37:056;12:00:37:003;1448277396.67;(0, 0);0;0;;;;;;;;;;;;;;2;0;0;;0;0;();();(-2000.0, -2000.0);
12:00:37:073;12:00:37:071;1448277396.74;(0, 0);0;0;;;;;;;;;;;;;;2;0;0;;0;0;();();(-2000.0, -2000.0);
12:00:37:089;12:00:37:071;1448277396.74;(0, 0);0;0;;;;;;;;;;;;;;2;0;0;;0;0;();();(-2000.0, -2000.0);
12:00:37:107;12:00:37:071;1448277396.74;(0, 0);0;0;;;;;;;;;;;;;;2;0;0;;0;0;();();(-2000.0, -2000.0);
12:00:37:123;12:00:37:071;1448277396.74;(0, 0);0;0;;;;;;;;;;;;;;2;0;0;;0;0;();();(-2000.0, -2000.0);
12:00:37:156;12:00:37:135;1448277396.8;(0, 0);0;0;;;;;;;;;;;;;;2;0;0;;0;0;();();(-2000.0, -2000.0);
12:00:37:173;12:00:37:135;1448277396.8;(0, 0);0;0;;;;;;;;;;;;;;2;0;0;;0;0;();();(-2000.0, -2000.0);
12:00:37:190;12:00:37:135;1448277396.8;(0, 0);0;0;;;;;;;;;;;;;;2;0;0;;0;0;();();(-2000.0, -2000.0);
12:00:37:206;12:00:37:203;1448277396.87;(0, 0);0;0;;;;;;;;;;;;;;2;0;0;;0;0;();();(-2000.0, -2000.0);
12:00:37:223;12:00:37:203;1448277396.87;(0, 0);0;0;;;;;;;;;;;;;;2;0;0;;0;0;();();(-2000.0, -2000.0);
12:00:37:256;12:00:37:203;1448277396.87;(0, 0);0;0;;;;;;;;;;;;;;2;0;0;;0;0;();();(-2000.0, -2000.0);
12:00:37:273;12:00:37:267;1448277396.94;(0, 0);0;0;;;;;;;;;;;;;;2;0;0;;0;0;();();(-2000.0, -2000.0);
12:00:37:290;12:00:37:267;1448277396.94;(0, 0);0;0;;;;;;;;;;;;;;2;0;0;;0;0;();();(-2000.0, -2000.0);
12:00:37:307;12:00:37:267;1448277396.94;(0, 0);0;0;;;;;;;;;;;;;;2;0;0;;0;0;();();(-2000.0, -2000.0);
12:00:37:323;12:00:37:267;1448277396.94;(0, 0);0;0;;;;;;;;;;;;;;2;0;0;;0;0;();();(-2000.0, -2000.0);
12:00:37:357;12:00:37:336;1448277397.0;(0, 0);0;0;;;;;;;;;;;;;;2;0;0;;0;0;();();(-2000.0, -2000.0);
12:00:37:373;12:00:37:336;1448277397.0;(0, 0);0;0;;;;;;;;;;;;;;2;0;0;;0;0;();();(-2000.0, -2000.0);
12:00:37:390;12:00:37:336;1448277397.0;(0, 0);0;0;;;;;;;;;;;;;;2;0;0;;0;0;();();(-2000.0, -2000.0);
12:00:37:406;12:00:37:336;1448277397.0;(0, 0);0;0;;;;;;;;;;;;;;2;0;0;;0;0;();();(-2000.0, -2000.0);
12:00:37:424;12:00:37:407;1448277397.07;(0, 0);0;0;;;;;;;;;;;;;;2;0;0;;0;0;();();(-2000.0, -2000.0);
12:00:37:457;12:00:37:407;1448277397.07;(0, 0);0;0;;;;;;;;;;;;;;2;0;0;;0;0;();();(-2000.0, -2000.0);
12:00:37:474;12:00:37:407;1448277397.07;(0, 0);0;0;;;;;;;;;;;;;;2;0;0;;0;0;();();(-2000.0, -2000.0);
12:00:37:490;12:00:37:486;1448277397.14;(0, 0);0;0;;;;;;;;;;;;;;2;0;0;;0;0;();();(-2000.0, -2000.0);
12:00:37:507;12:00:37:486;1448277397.14;(0, 0);0;0;;;;;;;;;;;;;;2;0;0;;0;0;();();(-2000.0, -2000.0);
12:00:37:524;12:00:37:486;1448277397.14;(0, 0);0;0;;;;;;;;;;;;;;2;0;0;;0;0;();();(-2000.0, -2000.0);
12:00:37:556;12:00:37:538;1448277397.2;(0, 0);0;0;;;;;;;;;;;;;;2;0;0;;0;0;();();(-2000.0, -2000.0);
12:00:37:573;12:00:37:538;1448277397.2;(0, 0);0;0;;;;;;;;;;;;;;2;0;0;;0;0;();();(-2000.0, -2000.0);
12:00:37:590;12:00:37:538;1448277397.2;(0, 0);0;0;;;;;;;;;;;;;;2;0;0;;0;0;();();(-2000.0, -2000.0);
12:00:37:607;12:00:37:602;1448277397.27;(0, 0);0;0;;;;;;;;;;;;;;2;0;0;;0;0;();();(-2000.0, -2000.0);
12:00:37:623;12:00:37:602;1448277397.27;(0, 0);0;0;;;;;;;;;;;;;;2;0;0;;0;0;();();(-2000.0, -2000.0);
12:00:37:656;12:00:37:602;1448277397.27;(0, 0);0;0;;;;;;;;;;;;;;2;0;0;;0;0;();();(-2000.0, -2000.0);
12:00:37:674;12:00:37:668;1448277397.34;(0.3052289247512817, 0.3549190097384982);28.80078125;0.626958872272;;;;;;;;;;;;;;2;0;0;;0;0;();();(-2000.0, -2000.0);
12:00:37:691;12:00:37:668;1448277397.34;(0.3052289247512817, 0.3549190097384982);28.80078125;0.626958872272;;;;;;;;;;;;;;2;0;0;;0;0;();();(-2000.0, -2000.0);
12:00:37:706;12:00:37:668;1448277397.34;(0.3052289247512817, 0.3549190097384982);28.80078125;0.626958872272;;;;;;;;;;;;;;2;0;0;;0;0;();();(-2000.0, -2000.0);
12:00:37:723;12:00:37:668;1448277397.34;(0.3052289247512817, 0.3549190097384982);28.80078125;0.626958872272;;;;;;;;;;;;;;2;0;0;;0;0;();();(-2000.0, -2000.0);
12:00:37:756;12:00:37:735;1448277397.4;(0, 0);0;0;;;;;;;;;;;;;;2;0;0;;0;0;();();(-2000.0, -2000.0);
12:00:37:774;12:00:37:735;1448277397.4;(0, 0);0;0;;;;;;;;;;;;;;2;0;0;;0;0;();();(-2000.0, -2000.0);
12:00:37:790;12:00:37:735;1448277397.4;(0, 0);0;0;;;;;;;;;;;;;;2;0;0;;0;0;();();(-2000.0, -2000.0);
12:00:37:807;12:00:37:799;1448277397.47;(0, 0);0;0;;;;;;;;;;;;;;2;0;0;;0;0;();();(-2000.0, -2000.0);
12:00:37:823;12:00:37:799;1448277397.47;(0, 0);0;0;;;;;;;;;;;;;;2;0;0;;0;0;();();(-2000.0, -2000.0);
12:00:37:857;12:00:37:799;1448277397.47;(0, 0);0;0;;;;;;;;;;;;;;2;0;0;;0;0;();();(-2000.0, -2000.0);
12:00:37:874;12:00:37:868;1448277397.54;(0.3255559682846069, 0.20478888617621527);24.8644638062;0.633280388907;;;;;;;;;;;;;;2;0;0;;0;0;();();(-2000.0, -2000.0);
12:00:37:891;12:00:37:868;1448277397.54;(0.3255559682846069, 0.20478888617621527);24.8644638062;0.633280388907;;;;;;;;;;;;;;2;0;0;;0;0;();();(-2000.0, -2000.0);
12:00:37:907;12:00:37:868;1448277397.54;(0.3255559682846069, 0.20478888617621527);24.8644638062;0.633280388907;;;;;;;;;;;;;;2;0;0;;0;0;();();(-2000.0, -2000.0);
12:00:37:923;12:00:37:868;1448277397.54;(0.3255559682846069, 0.20478888617621527);24.8644638062;0.633280388907;;;;;;;;;;;;;;2;0;0;;0;0;();();(-2000.0, -2000.0);
12:00:37:957;12:00:37:931;1448277397.6;(0, 0);0;0;;;;;;;;;;;;;;2;0;0;;0;0;();();(-2000.0, -2000.0);
12:00:37:973;12:00:37:931;1448277397.6;(0, 0);0;0;;;;;;;;;;;;;;2;0;0;;0;0;();();(-2000.0, -2000.0);
12:00:37:991;12:00:37:931;1448277397.6;(0, 0);0;0;;;;;;;;;;;;;;2;0;0;;0;0;();();(-2000.0, -2000.0);
12:00:38:007;12:00:37:999;1448277397.67;(0, 0);0;0;;;;;;;;;;;;;;2;0;0;;0;0;();();(-2000.0, -2000.0);
12:00:38:024;12:00:37:999;1448277397.67;(0, 0);0;0;;;;;;;;;;;;;;2;0;0;;0;0;();();(-2000.0, -2000.0);
12:00:38:057;12:00:37:999;1448277397.67;(0, 0);0;0;;;;;;;;;;;;;;2;0;0;;0;0;();();(-2000.0, -2000.0);
12:00:38:074;12:00:38:067;1448277397.74;(0, 0);0;0;;;;;;;;;;;;;;2;0;0;;0;0;();();(-2000.0, -2000.0);
12:00:38:090;12:00:38:067;1448277397.74;(0, 0);0;0;;;;;;;;;;;;;;2;0;0;;0;0;();();(-2000.0, -2000.0);
12:00:38:107;12:00:38:067;1448277397.74;(0, 0);0;0;;;;;;;;;;;;;;2;0;0;;0;0;();();(-2000.0, -2000.0);
12:00:38:124;12:00:38:067;1448277397.74;(0, 0);0;0;;;;;;;;;;;;;;2;0;0;;0;0;();();(-2000.0, -2000.0);
12:00:38:157;12:00:38:131;1448277397.8;(0, 0);0;0;;;;;;;;;;;;;;2;0;0;;0;0;();();(-2000.0, -2000.0);
12:00:38:174;12:00:38:131;1448277397.8;(0, 0);0;0;;;;;;;;;;;;;;2;0;0;;0;0;();();(-2000.0, -2000.0);
12:00:38:190;12:00:38:131;1448277397.8;(0, 0);0;0;;;;;;;;;;;;;;2;0;0;;0;0;();();(-2000.0, -2000.0);
12:00:38:208;12:00:38:199;1448277397.87;(0, 0);0;0;;;;;;;;;;;;;;2;0;0;;0;0;();();(-2000.0, -2000.0);
12:00:38:224;12:00:38:199;1448277397.87;(0, 0);0;0;;;;;;;;;;;;;;2;0;0;;0;0;();();(-2000.0, -2000.0);
12:00:38:258;12:00:38:199;1448277397.87;(0, 0);0;0;;;;;;;;;;;;;;2;0;0;;0;0;();();(-2000.0, -2000.0);
12:00:38:274;12:00:38:265;1448277397.94;(0, 0);0;0;;;;;;;;;;;;;;2;0;0;;0;0;();();(-2000.0, -2000.0);
12:00:38:291;12:00:38:265;1448277397.94;(0, 0);0;0;;;;;;;;;;;;;;2;0;0;;0;0;();();(-2000.0, -2000.0);
12:00:38:307;12:00:38:265;1448277397.94;(0, 0);0;0;;;;;;;;;;;;;;2;0;0;;0;0;();();(-2000.0, -2000.0);
12:00:38:324;12:00:38:265;1448277397.94;(0, 0);0;0;;;;;;;;;;;;;;2;0;0;;0;0;();();(-2000.0, -2000.0);
12:00:38:357;12:00:38:332;1448277398.0;(0, 0);0;0;;;;;;;;;;;;;;2;0;0;;0;0;();();(-2000.0, -2000.0);
12:00:38:374;12:00:38:332;1448277398.0;(0, 0);0;0;;;;;;;;;;;;;;2;0;0;;0;0;();();(-2000.0, -2000.0);
12:00:38:391;12:00:38:332;1448277398.0;(0, 0);0;0;;;;;;;;;;;;;;2;0;0;;0;0;();();(-2000.0, -2000.0);
12:00:38:407;12:00:38:399;1448277398.07;(0, 0);0;0;;;;;;;;;;;;;;2;0;0;;0;0;();();(-2000.0, -2000.0);
12:00:38:424;12:00:38:399;1448277398.07;(0, 0);0;0;;;;;;;;;;;;;;2;0;0;;0;0;();();(-2000.0, -2000.0);
12:00:38:457;12:00:38:399;1448277398.07;(0, 0);0;0;;;;;;;;;;;;;;2;0;0;;0;0;();();(-2000.0, -2000.0);
12:00:38:474;12:00:38:469;1448277398.14;(0, 0);0;0;;;;;;;;;;;;;;2;0;0;;0;0;();();(-2000.0, -2000.0);
12:00:38:490;12:00:38:469;1448277398.14;(0, 0);0;0;;;;;;;;;;;;;;2;0;0;;0;0;();();(-2000.0, -2000.0);
12:00:38:507;12:00:38:469;1448277398.14;(0, 0);0;0;;;;;;;;;;;;;;2;0;0;;0;0;();();(-2000.0, -2000.0);
12:00:38:524;12:00:38:469;1448277398.14;(0, 0);0;0;;;;;;;;;;;;;;2;0;0;;0;0;();();(-2000.0, -2000.0);
12:00:38:557;12:00:38:531;1448277398.2;(0, 0);0;0;;;;;;;;;;;;;;2;0;0;;0;0;();();(-2000.0, -2000.0);
12:00:38:575;12:00:38:531;1448277398.2;(0, 0);0;0;;;;;;;;;;;;;;2;0;0;;0;0;();();(-2000.0, -2000.0);
12:00:38:591;12:00:38:531;1448277398.2;(0, 0);0;0;;;;;;;;;;;;;;2;0;0;;0;0;();();(-2000.0, -2000.0);
12:00:38:607;12:00:38:595;1448277398.27;(0, 0);0;0;;;;;;;;;;;;;;2;0;0;;0;0;();();(-2000.0, -2000.0);
12:00:38:624;12:00:38:595;1448277398.27;(0, 0);0;0;;;;;;;;;;;;;;2;0;0;;0;0;();();(-2000.0, -2000.0);
12:00:38:657;12:00:38:595;1448277398.27;(0, 0);0;0;;;;;;;;;;;;;;2;0;0;;0;0;();();(-2000.0, -2000.0);
12:00:38:674;12:00:38:667;1448277398.34;(0, 0);0;0;;;;;;;;;;;;;;2;0;0;;0;0;();();(-2000.0, -2000.0);
12:00:38:691;12:00:38:667;1448277398.34;(0, 0);0;0;;;;;;;;;;;;;;2;0;0;;0;0;();();(-2000.0, -2000.0);
12:00:38:709;12:00:38:667;1448277398.34;(0, 0);0;0;;;;;;;;;;;;;;2;0;0;;0;0;();();(-2000.0, -2000.0);
12:00:38:724;12:00:38:667;1448277398.34;(0, 0);0;0;;;;;;;;;;;;;;2;0;0;;0;0;();();(-2000.0, -2000.0);
12:00:38:741;12:00:38:727;1448277398.4;(0.3184720754623413, 0.20475718180338542);25.4271125793;0.63081755305;;;;;;;;;;;;;;2;0;0;;0;0;();();(-2000.0, -2000.0);
12:00:38:774;12:00:38:727;1448277398.4;(0.3184720754623413, 0.20475718180338542);25.4271125793;0.63081755305;;;;;;;;;;;;;;2;0;0;;0;0;();();(-2000.0, -2000.0);
12:00:38:791;12:00:38:727;1448277398.4;(0.3184720754623413, 0.20475718180338542);25.4271125793;0.63081755305;;;;;;;;;;;;;;2;0;0;;0;0;();();(-2000.0, -2000.0);
12:00:38:808;12:00:38:795;1448277398.47;(0, 0);0;0;;;;;;;;;;;;;;2;0;0;;0;0;();();(-2000.0, -2000.0);
12:00:38:824;12:00:38:795;1448277398.47;(0, 0);0;0;;;;;;;;;;;;;;2;0;0;;0;0;();();(-2000.0, -2000.0);
12:00:38:841;12:00:38:795;1448277398.47;(0, 0);0;0;;;;;;;;;;;;;;2;0;0;;0;0;();();(-2000.0, -2000.0);
12:00:38:874;12:00:38:863;1448277398.54;(0, 0);0;0;;;;;;;;;;;;;;2;0;0;;0;0;();();(-2000.0, -2000.0);
12:00:38:891;12:00:38:863;1448277398.54;(0, 0);0;0;;;;;;;;;;;;;;2;0;0;;0;0;();();(-2000.0, -2000.0);
12:00:38:908;12:00:38:863;1448277398.54;(0, 0);0;0;;;;;;;;;;;;;;2;0;0;;0;0;();();(-2000.0, -2000.0);
12:00:38:925;12:00:38:863;1448277398.54;(0, 0);0;0;;;;;;;;;;;;;;2;0;0;;0;0;();();(-2000.0, -2000.0);
12:00:38:942;12:00:38:927;1448277398.6;(0.6287017822265625, 0.2539764404296875);23.319196701;0.604837614485;;;;;;;;;;;;;;2;0;0;;0;0;();();(-2000.0, -2000.0);
12:00:38:974;12:00:38:927;1448277398.6;(0.6287017822265625, 0.2539764404296875);23.319196701;0.604837614485;;;;;;;;;;;;;;2;0;0;;0;0;();();(-2000.0, -2000.0);
12:00:38:992;12:00:38:927;1448277398.6;(0.6287017822265625, 0.2539764404296875);23.319196701;0.604837614485;;;;;;;;;;;;;;2;0;0;;0;0;();();(-2000.0, -2000.0);
12:00:39:008;12:00:38:995;1448277398.67;(0, 0);0;0;;;;;;;;;;;;;;2;0;0;;0;0;();();(-2000.0, -2000.0);
12:00:39:025;12:00:38:995;1448277398.67;(0, 0);0;0;;;;;;;;;;;;;;2;0;0;;0;0;();();(-2000.0, -2000.0);
12:00:39:042;12:00:38:995;1448277398.67;(0, 0);0;0;;;;;;;;;;;;;;2;0;0;;0;0;();();(-2000.0, -2000.0);
12:00:39:074;12:00:39:059;1448277398.74;(0, 0);0;0;;;;;;;;;;;;;;2;0;0;;0;0;();();(-2000.0, -2000.0);
12:00:39:092;12:00:39:059;1448277398.74;(0, 0);0;0;;;;;;;;;;;;;;2;0;0;;0;0;();();(-2000.0, -2000.0);
12:00:39:108;12:00:39:059;1448277398.74;(0, 0);0;0;;;;;;;;;;;;;;2;0;0;;0;0;();();(-2000.0, -2000.0);
12:00:39:124;12:00:39:059;1448277398.74;(0, 0);0;0;;;;;;;;;;;;;;2;0;0;;0;0;();();(-2000.0, -2000.0);
12:00:39:158;12:00:39:128;1448277398.8;(0.3210793972015381, 0.19941558837890627);19.9815063477;0.789001582311;;;;;;;;;;;;;;2;0;0;;0;0;();();(-2000.0, -2000.0);
12:00:39:174;12:00:39:128;1448277398.8;(0.3210793972015381, 0.19941558837890627);19.9815063477;0.789001582311;;;;;;;;;;;;;;2;0;0;;0;0;();();(-2000.0, -2000.0);
12:00:39:191;12:00:39:128;1448277398.8;(0.3210793972015381, 0.19941558837890627);19.9815063477;0.789001582311;;;;;;;;;;;;;;2;0;0;;0;0;();();(-2000.0, -2000.0);
12:00:39:208;12:00:39:195;1448277398.87;(0, 0);0;0;;;;;;;;;;;;;;2;0;0;;0;0;();();(-2000.0, -2000.0);
12:00:39:225;12:00:39:195;1448277398.87;(0, 0);0;0;;;;;;;;;;;;;;2;0;0;;0;0;();();(-2000.0, -2000.0);
12:00:39:242;12:00:39:195;1448277398.87;(0, 0);0;0;;;;;;;;;;;;;;2;0;0;;0;0;();();(-2000.0, -2000.0);
12:00:39:275;12:00:39:259;1448277398.94;(0, 0);0;0;;;;;;;;;;;;;;2;0;0;;0;0;();();(-2000.0, -2000.0);
12:00:39:292;12:00:39:259;1448277398.94;(0, 0);0;0;;;;;;;;;;;;;;2;0;0;;0;0;();();(-2000.0, -2000.0);
12:00:39:309;12:00:39:259;1448277398.94;(0, 0);0;0;;;;;;;;;;;;;;2;0;0;;0;0;();();(-2000.0, -2000.0);
12:00:39:325;12:00:39:259;1448277398.94;(0, 0);0;0;;;;;;;;;;;;;;2;0;0;;0;0;();();(-2000.0, -2000.0);
12:00:39:341;12:00:39:327;1448277399.0;(0, 0);0;0;;;;;;;;;;;;;;2;0;0;;0;0;();();(-2000.0, -2000.0);
12:00:39:375;12:00:39:327;1448277399.0;(0, 0);0;0;;;;;;;;;;;;;;2;0;0;;0;0;();();(-2000.0, -2000.0);
12:00:39:392;12:00:39:392;1448277399.07;(0, 0);0;0;;;;;;;;;;;;;;2;0;0;;0;0;();();(-2000.0, -2000.0);
12:00:39:408;12:00:39:392;1448277399.07;(0, 0);0;0;;;;;;;;;;;;;;2;0;0;;0;0;();();(-2000.0, -2000.0);
12:00:39:425;12:00:39:392;1448277399.07;(0, 0);0;0;;;;;;;;;;;;;;2;0;0;;0;0;();();(-2000.0, -2000.0);
12:00:39:442;12:00:39:392;1448277399.07;(0, 0);0;0;;;;;;;;;;;;;;2;0;0;;0;0;();();(-2000.0, -2000.0);
12:00:39:475;12:00:39:465;1448277399.14;(0, 0);0;0;;;;;;;;;;;;;;2;0;0;;0;0;();();(-2000.0, -2000.0);
12:00:39:492;12:00:39:465;1448277399.14;(0, 0);0;0;;;;;;;;;;;;;;2;0;0;;0;0;();();(-2000.0, -2000.0);
12:00:39:508;12:00:39:465;1448277399.14;(0, 0);0;0;;;;;;;;;;;;;;2;0;0;;0;0;();();(-2000.0, -2000.0);
12:00:39:525;12:00:39:465;1448277399.14;(0, 0);0;0;;;;;;;;;;;;;;2;0;0;;0;0;();();(-2000.0, -2000.0);
12:00:39:542;12:00:39:527;1448277399.2;(0, 0);0;0;;;;;;;;;;;;;;2;0;0;;0;0;();();(-2000.0, -2000.0);
12:00:39:575;12:00:39:527;1448277399.2;(0, 0);0;0;;;;;;;;;;;;;;2;0;0;;0;0;();();(-2000.0, -2000.0);
12:00:39:592;12:00:39:591;1448277399.27;(0, 0);0;0;;;;;;;;;;;;;;2;0;0;;0;0;();();(-2000.0, -2000.0);
12:00:39:609;12:00:39:591;1448277399.27;(0, 0);0;0;;;;;;;;;;;;;;2;0;0;;0;0;();();(-2000.0, -2000.0);
12:00:39:625;12:00:39:591;1448277399.27;(0, 0);0;0;;;;;;;;;;;;;;2;0;0;;0;0;();();(-2000.0, -2000.0);
12:00:39:641;12:00:39:591;1448277399.27;(0, 0);0;0;;;;;;;;;;;;;;2;0;0;;0;0;();();(-2000.0, -2000.0);
12:00:39:675;12:00:39:659;1448277399.34;(0, 0);0;0;;;;;;;;;;;;;;2;0;0;;0;0;();();(-2000.0, -2000.0);
12:00:39:692;12:00:39:659;1448277399.34;(0, 0);0;0;;;;;;;;;;;;;;2;0;0;;0;0;();();(-2000.0, -2000.0);
12:00:39:708;12:00:39:659;1448277399.34;(0, 0);0;0;;;;;;;;;;;;;;2;0;0;;0;0;();();(-2000.0, -2000.0);
12:00:39:725;12:00:39:659;1448277399.34;(0, 0);0;0;;;;;;;;;;;;;;2;0;0;;0;0;();();(-2000.0, -2000.0);
12:00:39:742;12:00:39:729;1448277399.4;(0, 0);0;0;;;;;;;;;;;;;;2;0;0;;0;0;();();(-2000.0, -2000.0);
12:00:39:775;12:00:39:729;1448277399.4;(0, 0);0;0;;;;;;;;;;;;;;2;0;0;;0;0;();();(-2000.0, -2000.0);
12:00:39:792;12:00:39:792;1448277399.47;(0, 0);0;0;;;;;;;;;;;;;;2;0;0;;0;0;();();(-2000.0, -2000.0);
12:00:39:809;12:00:39:792;1448277399.47;(0, 0);0;0;;;;;;;;;;;;;;2;0;0;;0;0;();();(-2000.0, -2000.0);
12:00:39:825;12:00:39:792;1448277399.47;(0, 0);0;0;;;;;;;;;;;;;;2;0;0;;0;0;();();(-2000.0, -2000.0);
12:00:39:842;12:00:39:792;1448277399.47;(0, 0);0;0;;;;;;;;;;;;;;2;0;0;;0;0;();();(-2000.0, -2000.0);
12:00:39:875;12:00:39:859;1448277399.54;(0.32386059761047364, 0.2047683715820312);26.7335319519;0.666054639283;;;;;;;;;;;;;;2;0;0;;0;0;();();(-2000.0, -2000.0);
12:00:39:892;12:00:39:859;1448277399.54;(0.32386059761047364, 0.2047683715820312);26.7335319519;0.666054639283;;;;;;;;;;;;;;2;0;0;;0;0;();();(-2000.0, -2000.0);
12:00:39:909;12:00:39:859;1448277399.54;(0.32386059761047364, 0.2047683715820312);26.7335319519;0.666054639283;;;;;;;;;;;;;;2;0;0;;0;0;();();(-2000.0, -2000.0);
12:00:39:925;12:00:39:924;1448277399.6;(0, 0);0;0;;;;;;;;;;;;;;2;0;0;;0;0;();();(-2000.0, -2000.0);
12:00:39:942;12:00:39:924;1448277399.6;(0, 0);0;0;;;;;;;;;;;;;;2;0;0;;0;0;();();(-2000.0, -2000.0);
12:00:39:975;12:00:39:924;1448277399.6;(0, 0);0;0;;;;;;;;;;;;;;2;0;0;;0;0;();();(-2000.0, -2000.0);
12:00:39:992;12:00:39:992;1448277399.67;(0, 0);0;0;;;;;;;;;;;;;;2;0;0;;0;0;();();(-2000.0, -2000.0);
12:00:40:009;12:00:39:992;1448277399.67;(0, 0);0;0;;;;;;;;;;;;;;2;0;0;;0;0;();();(-2000.0, -2000.0);
12:00:40:025;12:00:39:992;1448277399.67;(0, 0);0;0;;;;;;;;;;;;;;2;0;0;;0;0;();();(-2000.0, -2000.0);
12:00:40:042;12:00:39:992;1448277399.67;(0, 0);0;0;;;;;;;;;;;;;;2;0;0;;0;0;();();(-2000.0, -2000.0);
12:00:40:075;12:00:40:055;1448277399.74;(0.3189530372619629, 0.2027328491210938);21.5774784088;0.837254703251;;;;;;;;;;;;;;2;0;0;;0;0;();();(-2000.0, -2000.0);
12:00:40:092;12:00:40:055;1448277399.74;(0.3189530372619629, 0.2027328491210938);21.5774784088;0.837254703251;;;;;;;;;;;;;;2;0;0;;0;0;();();(-2000.0, -2000.0);
12:00:40:109;12:00:40:055;1448277399.74;(0.3189530372619629, 0.2027328491210938);21.5774784088;0.837254703251;;;;;;;;;;;;;;2;0;0;;0;0;();();(-2000.0, -2000.0);
12:00:40:126;12:00:40:123;1448277399.8;(0.5215672969818115, 0.18664499918619792);21.892578125;0.771863504817;;;;;;;;;;;;;;2;0;0;;0;0;();();(-2000.0, -2000.0);
12:00:40:142;12:00:40:123;1448277399.8;(0.5215672969818115, 0.18664499918619792);21.892578125;0.771863504817;;;;;;;;;;;;;;2;0;0;;0;0;();();(-2000.0, -2000.0);
12:00:40:175;12:00:40:123;1448277399.8;(0.5215672969818115, 0.18664499918619792);21.892578125;0.771863504817;;;;;;;;;;;;;;2;0;0;;0;0;();();(-2000.0, -2000.0);
12:00:40:192;12:00:40:123;1448277399.8;(0.5215672969818115, 0.18664499918619792);21.892578125;0.771863504817;;;;;;;;;;;;;;2;0;0;;0;0;();();(-2000.0, -2000.0);
12:00:40:209;12:00:40:193;1448277399.87;(0, 0);0;0;;;;;;;;;;;;;;2;0;0;;0;0;();();(-2000.0, -2000.0);
12:00:40:226;12:00:40:193;1448277399.87;(0, 0);0;0;;;;;;;;;;;;;;2;0;0;;0;0;();();(-2000.0, -2000.0);
12:00:40:242;12:00:40:193;1448277399.87;(0, 0);0;0;;;;;;;;;;;;;;2;0;0;;0;0;();();(-2000.0, -2000.0);
12:00:40:276;12:00:40:256;1448277399.94;(0, 0);0;0;;;;;;;;;;;;;;2;0;0;;0;0;();();(-2000.0, -2000.0);
12:00:40:292;12:00:40:256;1448277399.94;(0, 0);0;0;;;;;;;;;;;;;;2;0;0;;0;0;();();(-2000.0, -2000.0);
12:00:40:309;12:00:40:256;1448277399.94;(0, 0);0;0;;;;;;;;;;;;;;2;0;0;;0;0;();();(-2000.0, -2000.0);
12:00:40:325;12:00:40:323;1448277400.0;(0, 0);0;0;;;;;;;;;;;;;;2;0;0;;0;0;();();(-2000.0, -2000.0);
12:00:40:342;12:00:40:323;1448277400.0;(0, 0);0;0;;;;;;;;;;;;;;2;0;0;;0;0;();();(-2000.0, -2000.0);
12:00:40:376;12:00:40:323;1448277400.0;(0, 0);0;0;;;;;;;;;;;;;;2;0;0;;0;0;();();(-2000.0, -2000.0);
12:00:40:392;12:00:40:387;1448277400.07;(0.32510354518890383, 0.2023054334852431);26.4065589905;0.636977141605;;;;;;;;;;;;;;2;0;0;;0;0;();();(-2000.0, -2000.0);
12:00:40:409;12:00:40:387;1448277400.07;(0.32510354518890383, 0.2023054334852431);26.4065589905;0.636977141605;;;;;;;;;;;;;;2;0;0;;0;0;();();(-2000.0, -2000.0);
12:00:40:426;12:00:40:387;1448277400.07;(0.32510354518890383, 0.2023054334852431);26.4065589905;0.636977141605;;;;;;;;;;;;;;2;0;0;;0;0;();();(-2000.0, -2000.0);
12:00:40:442;12:00:40:387;1448277400.07;(0.32510354518890383, 0.2023054334852431);26.4065589905;0.636977141605;;;;;;;;;;;;;;2;0;0;;0;0;();();(-2000.0, -2000.0);
12:00:40:475;12:00:40:456;1448277400.14;(0.31884768009185793, 0.20128563774956598);19.3146858215;0.832443409512;;;;;;;;;;;;;;2;0;0;;0;0;();();(-2000.0, -2000.0);
12:00:40:492;12:00:40:456;1448277400.14;(0.31884768009185793, 0.20128563774956598);19.3146858215;0.832443409512;;;;;;;;;;;;;;2;0;0;;0;0;();();(-2000.0, -2000.0);
12:00:40:509;12:00:40:456;1448277400.14;(0.31884768009185793, 0.20128563774956598);19.3146858215;0.832443409512;;;;;;;;;;;;;;2;0;0;;0;0;();();(-2000.0, -2000.0);
12:00:40:526;12:00:40:523;1448277400.2;(0, 0);0;0;;;;;;;;;;;;;;2;0;0;;0;0;();();(-2000.0, -2000.0);
12:00:40:542;12:00:40:523;1448277400.2;(0, 0);0;0;;;;;;;;;;;;;;2;0;0;;0;0;();();(-2000.0, -2000.0);
12:00:40:576;12:00:40:523;1448277400.2;(0, 0);0;0;;;;;;;;;;;;;;2;0;0;;0;0;();();(-2000.0, -2000.0);
12:00:40:593;12:00:40:587;1448277400.27;(0, 0);0;0;;;;;;;;;;;;;;2;0;0;;0;0;();();(-2000.0, -2000.0);
12:00:40:610;12:00:40:587;1448277400.27;(0, 0);0;0;;;;;;;;;;;;;;2;0;0;;0;0;();();(-2000.0, -2000.0);
12:00:40:626;12:00:40:587;1448277400.27;(0, 0);0;0;;;;;;;;;;;;;;2;0;0;;0;0;();();(-2000.0, -2000.0);
12:00:40:643;12:00:40:587;1448277400.27;(0, 0);0;0;;;;;;;;;;;;;;2;0;0;;0;0;();();(-2000.0, -2000.0);
12:00:40:676;12:00:40:655;1448277400.34;(0, 0);0;0;;;;;;;;;;;;;;2;0;0;;0;0;();();(-2000.0, -2000.0);
12:00:40:693;12:00:40:655;1448277400.34;(0, 0);0;0;;;;;;;;;;;;;;2;0;0;;0;0;();();(-2000.0, -2000.0);
12:00:40:709;12:00:40:655;1448277400.34;(0, 0);0;0;;;;;;;;;;;;;;2;0;0;;0;0;();();(-2000.0, -2000.0);
12:00:40:726;12:00:40:723;1448277400.4;(0, 0);0;0;;;;;;;;;;;;;;2;0;0;;0;0;();();(-2000.0, -2000.0);
12:00:40:743;12:00:40:723;1448277400.4;(0, 0);0;0;;;;;;;;;;;;;;2;0;0;;0;0;();();(-2000.0, -2000.0);
12:00:40:776;12:00:40:723;1448277400.4;(0, 0);0;0;;;;;;;;;;;;;;2;0;0;;0;0;();();(-2000.0, -2000.0);
12:00:40:792;12:00:40:787;1448277400.47;(0, 0);0;0;;;;;;;;;;;;;;2;0;0;;0;0;();();(-2000.0, -2000.0);
12:00:40:809;12:00:40:787;1448277400.47;(0, 0);0;0;;;;;;;;;;;;;;2;0;0;;0;0;();();(-2000.0, -2000.0);
12:00:40:826;12:00:40:787;1448277400.47;(0, 0);0;0;;;;;;;;;;;;;;2;0;0;;0;0;();();(-2000.0, -2000.0);
12:00:40:843;12:00:40:787;1448277400.47;(0, 0);0;0;;;;;;;;;;;;;;2;0;0;;0;0;();();(-2000.0, -2000.0);
12:00:40:876;12:00:40:855;1448277400.54;(0, 0);0;0;;;;;;;;;;;;;;2;0;0;;0;0;();();(-2000.0, -2000.0);
12:00:40:893;12:00:40:855;1448277400.54;(0, 0);0;0;;;;;;;;;;;;;;2;0;0;;0;0;();();(-2000.0, -2000.0);
12:00:40:910;12:00:40:855;1448277400.54;(0, 0);0;0;;;;;;;;;;;;;;2;0;0;;0;0;();();(-2000.0, -2000.0);
12:00:40:926;12:00:40:920;1448277400.6;(0, 0);0;0;;;;;;;;;;;;;;2;0;0;;0;0;();();(-2000.0, -2000.0);
12:00:40:943;12:00:40:920;1448277400.6;(0, 0);0;0;;;;;;;;;;;;;;2;0;0;;0;0;();();(-2000.0, -2000.0);
12:00:40:976;12:00:40:920;1448277400.6;(0, 0);0;0;;;;;;;;;;;;;;2;0;0;;0;0;();();(-2000.0, -2000.0);
12:00:40:993;12:00:40:920;1448277400.6;(0, 0);0;0;;;;;;;;;;;;;;2;0;0;;0;0;();();(-2000.0, -2000.0);
12:00:41:009;12:00:41:003;1448277400.67;(0, 0);0;0;;;;;;;;;;;;;;2;0;0;;0;0;();();(-2000.0, -2000.0);
12:00:41:026;12:00:41:003;1448277400.67;(0, 0);0;0;;;;;;;;;;;;;;2;0;0;;0;0;();();(-2000.0, -2000.0);
12:00:41:044;12:00:41:003;1448277400.67;(0, 0);0;0;;;;;;;;;;;;;;2;0;0;;0;0;();();(-2000.0, -2000.0);
12:00:41:077;12:00:41:053;1448277400.74;(0, 0);0;0;;;;;;;;;;;;;;2;0;0;;0;0;();();(-2000.0, -2000.0);
12:00:41:093;12:00:41:053;1448277400.74;(0, 0);0;0;;;;;;;;;;;;;;2;0;0;;0;0;();();(-2000.0, -2000.0);
12:00:41:109;12:00:41:053;1448277400.74;(0, 0);0;0;;;;;;;;;;;;;;2;0;0;;0;0;();();(-2000.0, -2000.0);
12:00:41:127;12:00:41:122;1448277400.8;(0, 0);0;0;;;;;;;;;;;;;;2;0;0;;0;0;();();(-2000.0, -2000.0);
12:00:41:143;12:00:41:122;1448277400.8;(0, 0);0;0;;;;;;;;;;;;;;2;0;0;;0;0;();();(-2000.0, -2000.0);
12:00:41:177;12:00:41:122;1448277400.8;(0, 0);0;0;;;;;;;;;;;;;;2;0;0;;0;0;();();(-2000.0, -2000.0);
12:00:41:193;12:00:41:187;1448277400.87;(0, 0);0;0;;;;;;;;;;;;;;2;0;0;;0;0;();();(-2000.0, -2000.0);
12:00:41:209;12:00:41:187;1448277400.87;(0, 0);0;0;;;;;;;;;;;;;;2;0;0;;0;0;();();(-2000.0, -2000.0);
12:00:41:227;12:00:41:187;1448277400.87;(0, 0);0;0;;;;;;;;;;;;;;2;0;0;;0;0;();();(-2000.0, -2000.0);
12:00:41:244;12:00:41:187;1448277400.87;(0, 0);0;0;;;;;;;;;;;;;;2;0;0;;0;0;();();(-2000.0, -2000.0);
12:00:41:277;12:00:41:251;1448277400.94;(0, 0);0;0;;;;;;;;;;;;;;2;0;0;;0;0;();();(-2000.0, -2000.0);
12:00:41:293;12:00:41:251;1448277400.94;(0, 0);0;0;;;;;;;;;;;;;;2;0;0;;0;0;();();(-2000.0, -2000.0);
12:00:41:310;12:00:41:251;1448277400.94;(0, 0);0;0;;;;;;;;;;;;;;2;0;0;;0;0;();();(-2000.0, -2000.0);
12:00:41:327;12:00:41:319;1448277401.0;(0, 0);0;0;;;;;;;;;;;;;;2;0;0;;0;0;();();(-2000.0, -2000.0);
12:00:41:344;12:00:41:319;1448277401.0;(0, 0);0;0;;;;;;;;;;;;;;2;0;0;;0;0;();();(-2000.0, -2000.0);
12:00:41:377;12:00:41:319;1448277401.0;(0, 0);0;0;;;;;;;;;;;;;;2;0;0;;0;0;();();(-2000.0, -2000.0);
12:00:41:394;12:00:41:383;1448277401.07;(0.32216358184814453, 0.19891493055555554);25.8535766602;0.744972983824;;;;;;;;;;;;;;2;0;0;;0;0;();();(-2000.0, -2000.0);
12:00:41:410;12:00:41:383;1448277401.07;(0.32216358184814453, 0.19891493055555554);25.8535766602;0.744972983824;;;;;;;;;;;;;;2;0;0;;0;0;();();(-2000.0, -2000.0);
12:00:41:426;12:00:41:383;1448277401.07;(0.32216358184814453, 0.19891493055555554);25.8535766602;0.744972983824;;;;;;;;;;;;;;2;0;0;;0;0;();();(-2000.0, -2000.0);
