%Timestamp,timestamp_write;timestamp_gotpupil;eyeTrackerTime;normPos;diameter;confidence;nplanes;listofAirplanesonScreen;lastAction;lastActionDetails;lastActionAirplaneNumber;calculatedScore;positiveScore;negativeScore;collidedAirplaneNumbers;targetPositions;collisionPoint
08:39:16:500;1448308516.03;(0.4812623023986816, 0.3675339592827691);49.0576477051;1.0;0;0;0;0;0;0;0;0;0;();(-2000.0, -2000.0);
08:39:16:513;08:39:16:495;1448308516.06;(0.4804253578186035, 0.36777275933159725);48.8541717529;1.0;0;0;0;0;0;0;0;0;0;();(-2000.0, -2000.0);
08:39:16:521;08:39:16:495;1448308516.06;(0.4804253578186035, 0.36777275933159725);48.8541717529;1.0;0;0;0;0;0;0;0;0;0;();(-2000.0, -2000.0);
08:39:16:529;08:39:16:495;1448308516.06;(0.4804253578186035, 0.36777275933159725);48.8541717529;1.0;0;0;0;0;0;0;0;0;0;();(-2000.0, -2000.0);
08:39:16:532;08:39:16:495;1448308516.06;(0.4804253578186035, 0.36777275933159725);48.8541717529;1.0;0;0;0;0;0;0;0;0;0;();(-2000.0, -2000.0);
08:39:16:536;08:39:16:495;1448308516.06;(0.4804253578186035, 0.36777275933159725);48.8541717529;1.0;0;0;0;0;0;0;0;0;0;();(-2000.0, -2000.0);
08:39:16:540;08:39:16:495;1448308516.06;(0.4804253578186035, 0.36777275933159725);48.8541717529;1.0;0;0;0;0;0;0;0;0;0;();(-2000.0, -2000.0);
08:39:16:543;08:39:16:495;1448308516.06;(0.4804253578186035, 0.36777275933159725);48.8541717529;1.0;0;0;0;0;0;0;0;0;0;();(-2000.0, -2000.0);
08:39:16:548;08:39:16:544;1448308516.09;(0.4805941581726074, 0.36170031229654953);43.0402832031;0.601452695708;0;0;0;0;0;0;0;0;0;();(-2000.0, -2000.0);
08:39:16:553;08:39:16:547;1448308516.13;(0, 0);0;0;0;0;0;0;0;0;0;0;0;();(-2000.0, -2000.0);
08:39:16:556;08:39:16:547;1448308516.13;(0, 0);0;0;0;0;0;0;0;0;0;0;0;();(-2000.0, -2000.0);
08:39:16:560;08:39:16:547;1448308516.13;(0, 0);0;0;0;0;0;0;0;0;0;0;0;();(-2000.0, -2000.0);
08:39:16:563;08:39:16:547;1448308516.13;(0, 0);0;0;0;0;0;0;0;0;0;0;0;();(-2000.0, -2000.0);
08:39:16:567;08:39:16:547;1448308516.13;(0, 0);0;0;0;0;0;0;0;0;0;0;0;();(-2000.0, -2000.0);
08:39:16:570;08:39:16:547;1448308516.13;(0, 0);0;0;0;0;0;0;0;0;0;0;0;();(-2000.0, -2000.0);
08:39:16:574;08:39:16:547;1448308516.13;(0, 0);0;0;0;0;0;0;0;0;0;0;0;();(-2000.0, -2000.0);
08:39:16:578;08:39:16:547;1448308516.13;(0, 0);0;0;0;0;0;0;0;0;0;0;0;();(-2000.0, -2000.0);
08:39:16:582;08:39:16:547;1448308516.13;(0, 0);0;0;0;0;0;0;0;0;0;0;0;();(-2000.0, -2000.0);
08:39:16:585;08:39:16:547;1448308516.13;(0, 0);0;0;0;0;0;0;0;0;0;0;0;();(-2000.0, -2000.0);
08:39:16:588;08:39:16:547;1448308516.13;(0, 0);0;0;0;0;0;0;0;0;0;0;0;();(-2000.0, -2000.0);
08:39:16:592;08:39:16:547;1448308516.13;(0, 0);0;0;0;0;0;0;0;0;0;0;0;();(-2000.0, -2000.0);
08:39:16:596;08:39:16:547;1448308516.13;(0, 0);0;0;0;0;0;0;0;0;0;0;0;();(-2000.0, -2000.0);
08:39:16:624;08:39:16:617;1448308516.19;(0, 0);0;0;0;0;0;0;0;0;0;0;0;();(-2000.0, -2000.0);
08:39:16:641;08:39:16:617;1448308516.19;(0, 0);0;0;0;0;0;0;0;0;0;0;0;();(-2000.0, -2000.0);
08:39:16:659;08:39:16:617;1448308516.19;(0, 0);0;0;0;0;0;0;0;0;0;0;0;();(-2000.0, -2000.0);
08:39:16:677;08:39:16:617;1448308516.19;(0, 0);0;0;0;0;0;0;0;0;0;0;0;();(-2000.0, -2000.0);
08:39:16:691;08:39:16:682;1448308516.26;(0.46501760482788085, 0.3752855512830946);48.485874176;1.0;0;0;0;0;0;0;0;0;0;();(-2000.0, -2000.0);
08:39:16:724;08:39:16:682;1448308516.26;(0.46501760482788085, 0.3752855512830946);48.485874176;1.0;0;0;0;0;0;0;0;0;0;();(-2000.0, -2000.0);
08:39:16:741;08:39:16:682;1448308516.26;(0.46501760482788085, 0.3752855512830946);48.485874176;1.0;0;0;0;0;0;0;0;0;0;();(-2000.0, -2000.0);
08:39:16:758;08:39:16:745;1448308516.33;(0.4659224033355713, 0.3737602657741971);48.7329711914;1.0;0;0;0;0;0;0;0;0;0;();(-2000.0, -2000.0);
08:39:16:775;08:39:16:745;1448308516.33;(0.4659224033355713, 0.3737602657741971);48.7329711914;1.0;0;0;0;0;0;0;0;0;0;();(-2000.0, -2000.0);
08:39:16:791;08:39:16:745;1448308516.33;(0.4659224033355713, 0.3737602657741971);48.7329711914;1.0;0;0;0;0;0;0;0;0;0;();(-2000.0, -2000.0);
08:39:16:825;08:39:16:812;1448308516.39;(0.46629786491394043, 0.3730379316541884);48.68699646;1.0;0;0;0;0;0;0;0;0;0;();(-2000.0, -2000.0);
08:39:16:841;08:39:16:812;1448308516.39;(0.46629786491394043, 0.3730379316541884);48.68699646;1.0;0;0;0;0;0;0;0;0;0;();(-2000.0, -2000.0);
08:39:16:858;08:39:16:812;1448308516.39;(0.46629786491394043, 0.3730379316541884);48.68699646;1.0;0;0;0;0;0;0;0;0;0;();(-2000.0, -2000.0);
08:39:16:875;08:39:16:812;1448308516.39;(0.46629786491394043, 0.3730379316541884);48.68699646;1.0;0;0;0;0;0;0;0;0;0;();(-2000.0, -2000.0);
08:39:16:891;08:39:16:879;1448308516.46;(0.4668022632598877, 0.3727290683322483);48.6098594666;1.0;0;0;0;0;0;0;0;0;0;();(-2000.0, -2000.0);
08:39:16:924;08:39:16:879;1448308516.46;(0.4668022632598877, 0.3727290683322483);48.6098594666;1.0;0;0;0;0;0;0;0;0;0;();(-2000.0, -2000.0);
08:39:16:941;08:39:16:879;1448308516.46;(0.4668022632598877, 0.3727290683322483);48.6098594666;1.0;0;0;0;0;0;0;0;0;0;();(-2000.0, -2000.0);
08:39:16:957;08:39:16:945;1448308516.53;(0.4665230274200439, 0.3727173699273003);48.9852027893;1.0;0;0;0;0;0;0;0;0;0;();(-2000.0, -2000.0);
08:39:16:974;08:39:16:945;1448308516.53;(0.4665230274200439, 0.3727173699273003);48.9852027893;1.0;0;0;0;0;0;0;0;0;0;();(-2000.0, -2000.0);
08:39:16:991;08:39:16:945;1448308516.53;(0.4665230274200439, 0.3727173699273003);48.9852027893;1.0;0;0;0;0;0;0;0;0;0;();(-2000.0, -2000.0);
08:39:17:025;08:39:17:008;1448308516.59;(0.4706143379211426, 0.3710672590467665);49.3980484009;1.0;0;0;0;0;0;0;0;0;0;();(-2000.0, -2000.0);
08:39:17:042;08:39:17:008;1448308516.59;(0.4706143379211426, 0.3710672590467665);49.3980484009;1.0;0;0;0;0;0;0;0;0;0;();(-2000.0, -2000.0);
08:39:17:058;08:39:17:008;1448308516.59;(0.4706143379211426, 0.3710672590467665);49.3980484009;1.0;0;0;0;0;0;0;0;0;0;();(-2000.0, -2000.0);
08:39:17:075;08:39:17:008;1448308516.59;(0.4706143379211426, 0.3710672590467665);49.3980484009;1.0;0;0;0;0;0;0;0;0;0;();(-2000.0, -2000.0);
08:39:17:091;08:39:17:078;1448308516.66;(0.47090973854064944, 0.3705163743760851);49.5089569092;1.0;0;0;0;0;0;0;0;0;0;();(-2000.0, -2000.0);
08:39:17:125;08:39:17:078;1448308516.66;(0.47090973854064944, 0.3705163743760851);49.5089569092;1.0;0;0;0;0;0;0;0;0;0;();(-2000.0, -2000.0);
08:39:17:142;08:39:17:078;1448308516.66;(0.47090973854064944, 0.3705163743760851);49.5089569092;1.0;0;0;0;0;0;0;0;0;0;();(-2000.0, -2000.0);
08:39:17:158;08:39:17:145;1448308516.73;(0.4712423324584961, 0.37017894321017797);49.0275764465;1.0;0;0;0;0;0;0;0;0;0;();(-2000.0, -2000.0);
08:39:17:175;08:39:17:145;1448308516.73;(0.4712423324584961, 0.37017894321017797);49.0275764465;1.0;0;0;0;0;0;0;0;0;0;();(-2000.0, -2000.0);
08:39:17:191;08:39:17:145;1448308516.73;(0.4712423324584961, 0.37017894321017797);49.0275764465;1.0;0;0;0;0;0;0;0;0;0;();(-2000.0, -2000.0);
08:39:17:225;08:39:17:208;1448308516.79;(0.4713745594024658, 0.3709261152479384);48.5213432312;1.0;0;0;0;0;0;0;0;0;0;();(-2000.0, -2000.0);
08:39:17:241;08:39:17:208;1448308516.79;(0.4713745594024658, 0.3709261152479384);48.5213432312;1.0;0;0;0;0;0;0;0;0;0;();(-2000.0, -2000.0);
08:39:17:258;08:39:17:208;1448308516.79;(0.4713745594024658, 0.3709261152479384);48.5213432312;1.0;0;0;0;0;0;0;0;0;0;();(-2000.0, -2000.0);
08:39:17:275;08:39:17:208;1448308516.79;(0.4713745594024658, 0.3709261152479384);48.5213432312;1.0;0;0;0;0;0;0;0;0;0;();(-2000.0, -2000.0);
08:39:17:292;08:39:17:278;1448308516.86;(0.4718143939971924, 0.37167235480414496);47.4116210938;1.0;0;0;0;0;0;0;0;0;0;();(-2000.0, -2000.0);
08:39:17:325;08:39:17:278;1448308516.86;(0.4718143939971924, 0.37167235480414496);47.4116210938;1.0;0;0;0;0;0;0;0;0;0;();(-2000.0, -2000.0);
08:39:17:342;08:39:17:339;1448308516.89;(0.48381905555725097, 0.36991551717122395);47.2726135254;1.0;0;0;0;0;0;0;0;0;0;();(-2000.0, -2000.0);
08:39:17:358;08:39:17:344;1448308516.93;(0, 0);0;0;0;0;0;0;0;0;0;0;0;();(-2000.0, -2000.0);
08:39:17:375;08:39:17:344;1448308516.93;(0, 0);0;0;0;0;0;0;0;0;0;0;0;();(-2000.0, -2000.0);
08:39:17:392;08:39:17:344;1448308516.93;(0, 0);0;0;0;0;0;0;0;0;0;0;0;();(-2000.0, -2000.0);
08:39:17:425;08:39:17:408;1448308516.99;(0.488423490524292, 0.3647658877902561);41.8438644409;0.632279585075;0;0;0;0;0;0;0;0;0;();(-2000.0, -2000.0);
08:39:17:583;08:39:17:543;1448308517.13;(0.4888491153717041, 0.37060190836588547);45.2167739868;1.0;0;0;0;0;0;0;0;0;0;();(-2000.0, -2000.0);
08:39:17:591;08:39:17:543;1448308517.13;(0.4888491153717041, 0.37060190836588547);45.2167739868;1.0;0;0;0;0;0;0;0;0;0;();(-2000.0, -2000.0);
08:39:17:600;08:39:17:543;1448308517.13;(0.4888491153717041, 0.37060190836588547);45.2167739868;1.0;0;0;0;0;0;0;0;0;0;();(-2000.0, -2000.0);
08:39:17:608;08:39:17:543;1448308517.13;(0.4888491153717041, 0.37060190836588547);45.2167739868;1.0;0;0;0;0;0;0;0;0;0;();(-2000.0, -2000.0);
08:39:17:614;08:39:17:611;1448308517.19;(0.48958864212036135, 0.36983947753906254);45.0726089478;1.0;0;0;0;0;0;0;0;0;0;();(-2000.0, -2000.0);
08:39:17:617;08:39:17:611;1448308517.19;(0.48958864212036135, 0.36983947753906254);45.0726089478;1.0;0;0;0;0;0;0;0;0;0;();(-2000.0, -2000.0);
08:39:17:621;08:39:17:611;1448308517.19;(0.48958864212036135, 0.36983947753906254);45.0726089478;1.0;0;0;0;0;0;0;0;0;0;();(-2000.0, -2000.0);
08:39:17:625;08:39:17:611;1448308517.19;(0.48958864212036135, 0.36983947753906254);45.0726089478;1.0;0;0;0;0;0;0;0;0;0;();(-2000.0, -2000.0);
08:39:17:629;08:39:17:611;1448308517.19;(0.48958864212036135, 0.36983947753906254);45.0726089478;1.0;0;0;0;0;0;0;0;0;0;();(-2000.0, -2000.0);
08:39:17:633;08:39:17:611;1448308517.19;(0.48958864212036135, 0.36983947753906254);45.0726089478;1.0;0;0;0;0;0;0;0;0;0;();(-2000.0, -2000.0);
08:39:17:638;08:39:17:611;1448308517.19;(0.48958864212036135, 0.36983947753906254);45.0726089478;1.0;0;0;0;0;0;0;0;0;0;();(-2000.0, -2000.0);
08:39:17:659;08:39:17:611;1448308517.19;(0.48958864212036135, 0.36983947753906254);45.0726089478;1.0;0;0;0;0;0;0;0;0;0;();(-2000.0, -2000.0);
08:39:17:676;08:39:17:672;1448308517.26;(0.4897602081298828, 0.3693319532606337);45.2697372437;1.0;0;0;0;0;0;0;0;0;0;();(-2000.0, -2000.0);
08:39:17:691;08:39:17:672;1448308517.26;(0.4897602081298828, 0.3693319532606337);45.2697372437;1.0;0;0;0;0;0;0;0;0;0;();(-2000.0, -2000.0);
08:39:17:725;08:39:17:672;1448308517.26;(0.4897602081298828, 0.3693319532606337);45.2697372437;1.0;0;0;0;0;0;0;0;0;0;();(-2000.0, -2000.0);
08:39:17:742;08:39:17:672;1448308517.26;(0.4897602081298828, 0.3693319532606337);45.2697372437;1.0;0;0;0;0;0;0;0;0;0;();(-2000.0, -2000.0);
08:39:17:759;08:39:17:745;1448308517.33;(0.48984513282775877, 0.3689863840738933);45.4624557495;1.0;0;0;0;0;0;0;0;0;0;();(-2000.0, -2000.0);
08:39:17:774;08:39:17:745;1448308517.33;(0.48984513282775877, 0.3689863840738933);45.4624557495;1.0;0;0;0;0;0;0;0;0;0;();(-2000.0, -2000.0);
08:39:17:791;08:39:17:745;1448308517.33;(0.48984513282775877, 0.3689863840738933);45.4624557495;1.0;0;0;0;0;0;0;0;0;0;();(-2000.0, -2000.0);
08:39:17:825;08:39:17:809;1448308517.39;(0.4896992206573486, 0.3690712398952908);45.8175926208;1.0;0;0;0;0;0;0;0;0;0;();(-2000.0, -2000.0);
08:39:17:841;08:39:17:809;1448308517.39;(0.4896992206573486, 0.3690712398952908);45.8175926208;1.0;0;0;0;0;0;0;0;0;0;();(-2000.0, -2000.0);
08:39:17:857;08:39:17:809;1448308517.39;(0.4896992206573486, 0.3690712398952908);45.8175926208;1.0;0;0;0;0;0;0;0;0;0;();(-2000.0, -2000.0);
08:39:17:876;08:39:17:873;1448308517.46;(0.4897270679473877, 0.3690080006917318);46.3942298889;1.0;0;0;0;0;0;0;0;0;0;();(-2000.0, -2000.0);
08:39:17:891;08:39:17:873;1448308517.46;(0.4897270679473877, 0.3690080006917318);46.3942298889;1.0;0;0;0;0;0;0;0;0;0;();(-2000.0, -2000.0);
08:39:17:925;08:39:17:873;1448308517.46;(0.4897270679473877, 0.3690080006917318);46.3942298889;1.0;0;0;0;0;0;0;0;0;0;();(-2000.0, -2000.0);
08:39:17:943;08:39:17:940;1448308517.53;(0.48975338935852053, 0.3689178042941623);47.1150398254;1.0;0;0;0;0;0;0;0;0;0;();(-2000.0, -2000.0);
08:39:17:958;08:39:17:940;1448308517.53;(0.48975338935852053, 0.3689178042941623);47.1150398254;1.0;0;0;0;0;0;0;0;0;0;();(-2000.0, -2000.0);
08:39:17:976;08:39:17:940;1448308517.53;(0.48975338935852053, 0.3689178042941623);47.1150398254;1.0;0;0;0;0;0;0;0;0;0;();(-2000.0, -2000.0);
08:39:17:992;08:39:17:940;1448308517.53;(0.48975338935852053, 0.3689178042941623);47.1150398254;1.0;0;0;0;0;0;0;0;0;0;();(-2000.0, -2000.0);
08:39:18:026;08:39:18:004;1448308517.59;(0.5085590839385986, 0.38330819871690536);46.6937294006;1.0;0;0;0;0;0;0;0;0;0;();(-2000.0, -2000.0);
08:39:18:042;08:39:18:004;1448308517.59;(0.5085590839385986, 0.38330819871690536);46.6937294006;1.0;0;0;0;0;0;0;0;0;0;();(-2000.0, -2000.0);
08:39:18:058;08:39:18:004;1448308517.59;(0.5085590839385986, 0.38330819871690536);46.6937294006;1.0;0;0;0;0;0;0;0;0;0;();(-2000.0, -2000.0);
08:39:18:075;08:39:18:072;1448308517.66;(0.5081667900085449, 0.3827867296006945);46.8369560242;1.0;0;0;0;0;0;0;0;0;0;();(-2000.0, -2000.0);
08:39:18:091;08:39:18:072;1448308517.66;(0.5081667900085449, 0.3827867296006945);46.8369560242;1.0;0;0;0;0;0;0;0;0;0;();(-2000.0, -2000.0);
08:39:18:125;08:39:18:072;1448308517.66;(0.5081667900085449, 0.3827867296006945);46.8369560242;1.0;0;0;0;0;0;0;0;0;0;();(-2000.0, -2000.0);
08:39:18:142;08:39:18:139;1448308517.69;(0.5084920406341553, 0.382828352186415);46.6981964111;1.0;0;0;0;0;0;0;0;0;0;();(-2000.0, -2000.0);
08:39:18:158;08:39:18:140;1448308517.73;(0.5084437847137451, 0.38328217400444875);46.8493309021;1.0;0;0;0;0;0;0;0;0;0;();(-2000.0, -2000.0);
08:39:18:176;08:39:18:140;1448308517.73;(0.5084437847137451, 0.38328217400444875);46.8493309021;1.0;0;0;0;0;0;0;0;0;0;();(-2000.0, -2000.0);
08:39:18:191;08:39:18:140;1448308517.73;(0.5084437847137451, 0.38328217400444875);46.8493309021;1.0;0;0;0;0;0;0;0;0;0;();(-2000.0, -2000.0);
08:39:18:226;08:39:18:205;1448308517.79;(0.5086534500122071, 0.3833188798692492);47.0239830017;1.0;0;0;0;0;0;0;0;0;0;();(-2000.0, -2000.0);
08:39:18:243;08:39:18:205;1448308517.79;(0.5086534500122071, 0.3833188798692492);47.0239830017;1.0;0;0;0;0;0;0;0;0;0;();(-2000.0, -2000.0);
08:39:18:259;08:39:18:205;1448308517.79;(0.5086534500122071, 0.3833188798692492);47.0239830017;1.0;0;0;0;0;0;0;0;0;0;();(-2000.0, -2000.0);
08:39:18:275;08:39:18:272;1448308517.86;(0.5084115982055664, 0.3835269080268012);47.6691322327;1.0;0;0;0;0;0;0;0;0;0;();(-2000.0, -2000.0);
08:39:18:292;08:39:18:272;1448308517.86;(0.5084115982055664, 0.3835269080268012);47.6691322327;1.0;0;0;0;0;0;0;0;0;0;();(-2000.0, -2000.0);
08:39:18:326;08:39:18:272;1448308517.86;(0.5084115982055664, 0.3835269080268012);47.6691322327;1.0;0;0;0;0;0;0;0;0;0;();(-2000.0, -2000.0);
08:39:18:342;08:39:18:336;1448308517.93;(0.5085838794708252, 0.38377045525444875);48.1693992615;1.0;0;0;0;0;0;0;0;0;0;();(-2000.0, -2000.0);
08:39:18:358;08:39:18:336;1448308517.93;(0.5085838794708252, 0.38377045525444875);48.1693992615;1.0;0;0;0;0;0;0;0;0;0;();(-2000.0, -2000.0);
08:39:18:376;08:39:18:336;1448308517.93;(0.5085838794708252, 0.38377045525444875);48.1693992615;1.0;0;0;0;0;0;0;0;0;0;();(-2000.0, -2000.0);
08:39:18:391;08:39:18:336;1448308517.93;(0.5085838794708252, 0.38377045525444875);48.1693992615;1.0;0;0;0;0;0;0;0;0;0;();(-2000.0, -2000.0);
08:39:18:426;08:39:18:405;1448308517.99;(0.5115115642547607, 0.38644985622829864);48.1606483459;1.0;0;0;0;0;0;0;0;0;0;();(-2000.0, -2000.0);
08:39:18:442;08:39:18:405;1448308517.99;(0.5115115642547607, 0.38644985622829864);48.1606483459;1.0;0;0;0;0;0;0;0;0;0;();(-2000.0, -2000.0);
08:39:18:458;08:39:18:405;1448308517.99;(0.5115115642547607, 0.38644985622829864);48.1606483459;1.0;0;0;0;0;0;0;0;0;0;();(-2000.0, -2000.0);
08:39:18:476;08:39:18:472;1448308518.03;(0.5116545200347901, 0.3865422990587023);48.3107337952;1.0;0;0;0;0;0;0;0;0;0;();(-2000.0, -2000.0);
08:39:18:492;08:39:18:478;1448308518.06;(0.5116057872772217, 0.38637818230523);48.8848190308;1.0;0;0;0;0;0;0;0;0;0;();(-2000.0, -2000.0);
08:39:18:526;08:39:18:478;1448308518.06;(0.5116057872772217, 0.38637818230523);48.8848190308;1.0;0;0;0;0;0;0;0;0;0;();(-2000.0, -2000.0);
08:39:18:542;08:39:18:537;1448308518.13;(0.5133399963378906, 0.38647172715928824);49.3941497803;0.861566945641;0;0;0;0;0;0;0;0;0;();(-2000.0, -2000.0);
08:39:18:559;08:39:18:537;1448308518.13;(0.5133399963378906, 0.38647172715928824);49.3941497803;0.861566945641;0;0;0;0;0;0;0;0;0;();(-2000.0, -2000.0);
08:39:18:576;08:39:18:537;1448308518.13;(0.5133399963378906, 0.38647172715928824);49.3941497803;0.861566945641;0;0;0;0;0;0;0;0;0;();(-2000.0, -2000.0);
08:39:18:593;08:39:18:537;1448308518.13;(0.5133399963378906, 0.38647172715928824);49.3941497803;0.861566945641;0;0;0;0;0;0;0;0;0;();(-2000.0, -2000.0);
08:39:18:626;08:39:18:605;1448308518.19;(0.5139877796173096, 0.3868692609998915);49.9437789917;1.0;0;0;0;0;0;0;0;0;0;();(-2000.0, -2000.0);
08:39:18:643;08:39:18:605;1448308518.19;(0.5139877796173096, 0.3868692609998915);49.9437789917;1.0;0;0;0;0;0;0;0;0;0;();(-2000.0, -2000.0);
08:39:18:659;08:39:18:605;1448308518.19;(0.5139877796173096, 0.3868692609998915);49.9437789917;1.0;0;0;0;0;0;0;0;0;0;();(-2000.0, -2000.0);
08:39:18:676;08:39:18:669;1448308518.26;(0, 0);0;0;0;0;0;0;0;0;0;0;0;();(-2000.0, -2000.0);
08:39:18:693;08:39:18:669;1448308518.26;(0, 0);0;0;0;0;0;0;0;0;0;0;0;();(-2000.0, -2000.0);
08:39:18:726;08:39:18:669;1448308518.26;(0, 0);0;0;0;0;0;0;0;0;0;0;0;();(-2000.0, -2000.0);
08:39:18:743;08:39:18:736;1448308518.33;(0, 0);0;0;0;0;0;0;0;0;0;0;0;();(-2000.0, -2000.0);
08:39:18:759;08:39:18:736;1448308518.33;(0, 0);0;0;0;0;0;0;0;0;0;0;0;();(-2000.0, -2000.0);
08:39:18:776;08:39:18:736;1448308518.33;(0, 0);0;0;0;0;0;0;0;0;0;0;0;();(-2000.0, -2000.0);
08:39:18:792;08:39:18:736;1448308518.33;(0, 0);0;0;0;0;0;0;0;0;0;0;0;();(-2000.0, -2000.0);
08:39:18:825;08:39:18:806;1448308518.39;(0.5100328922271729, 0.3866555955674913);46.2120780945;0.636525755623;0;0;0;0;0;0;0;0;0;();(-2000.0, -2000.0);
08:39:18:843;08:39:18:806;1448308518.39;(0.5100328922271729, 0.3866555955674913);46.2120780945;0.636525755623;0;0;0;0;0;0;0;0;0;();(-2000.0, -2000.0);
08:39:18:860;08:39:18:806;1448308518.39;(0.5100328922271729, 0.3866555955674913);46.2120780945;0.636525755623;0;0;0;0;0;0;0;0;0;();(-2000.0, -2000.0);
08:39:18:876;08:39:18:869;1448308518.46;(0.5095829010009766, 0.39037153455946183);51.6763687134;1.0;0;0;0;0;0;0;0;0;0;();(-2000.0, -2000.0);
08:39:18:893;08:39:18:869;1448308518.46;(0.5095829010009766, 0.39037153455946183);51.6763687134;1.0;0;0;0;0;0;0;0;0;0;();(-2000.0, -2000.0);
08:39:18:926;08:39:18:869;1448308518.46;(0.5095829010009766, 0.39037153455946183);51.6763687134;1.0;0;0;0;0;0;0;0;0;0;();(-2000.0, -2000.0);
08:39:18:942;08:39:18:936;1448308518.53;(0.5107543468475342, 0.3884012010362413);51.967540741;1.0;0;0;0;0;0;0;0;0;0;();(-2000.0, -2000.0);
08:39:18:959;08:39:18:936;1448308518.53;(0.5107543468475342, 0.3884012010362413);51.967540741;1.0;0;0;0;0;0;0;0;0;0;();(-2000.0, -2000.0);
08:39:18:976;08:39:18:936;1448308518.53;(0.5107543468475342, 0.3884012010362413);51.967540741;1.0;0;0;0;0;0;0;0;0;0;();(-2000.0, -2000.0);
08:39:18:993;08:39:18:936;1448308518.53;(0.5107543468475342, 0.3884012010362413);51.967540741;1.0;0;0;0;0;0;0;0;0;0;();(-2000.0, -2000.0);
08:39:19:026;08:39:19:001;1448308518.59;(0.5114252090454101, 0.3875338236490885);52.2893295288;1.0;0;0;0;0;0;0;0;0;0;();(-2000.0, -2000.0);
08:39:19:043;08:39:19:001;1448308518.59;(0.5114252090454101, 0.3875338236490885);52.2893295288;1.0;0;0;0;0;0;0;0;0;0;();(-2000.0, -2000.0);
08:39:19:060;08:39:19:001;1448308518.59;(0.5114252090454101, 0.3875338236490885);52.2893295288;1.0;0;0;0;0;0;0;0;0;0;();(-2000.0, -2000.0);
08:39:19:076;08:39:19:068;1448308518.66;(0.5119919776916504, 0.3873787773980035);52.1926803589;1.0;0;0;0;0;0;0;0;0;0;();(-2000.0, -2000.0);
08:39:19:092;08:39:19:068;1448308518.66;(0.5119919776916504, 0.3873787773980035);52.1926803589;1.0;0;0;0;0;0;0;0;0;0;();(-2000.0, -2000.0);
08:39:19:126;08:39:19:068;1448308518.66;(0.5119919776916504, 0.3873787773980035);52.1926803589;1.0;0;0;0;0;0;0;0;0;0;();(-2000.0, -2000.0);
08:39:19:143;08:39:19:136;1448308518.73;(0.5121449947357177, 0.3870061238606771);52.6695556641;1.0;0;0;0;0;0;0;0;0;0;();(-2000.0, -2000.0);
08:39:19:160;08:39:19:136;1448308518.73;(0.5121449947357177, 0.3870061238606771);52.6695556641;1.0;0;0;0;0;0;0;0;0;0;();(-2000.0, -2000.0);
08:39:19:176;08:39:19:136;1448308518.73;(0.5121449947357177, 0.3870061238606771);52.6695556641;1.0;0;0;0;0;0;0;0;0;0;();(-2000.0, -2000.0);
08:39:19:193;08:39:19:136;1448308518.73;(0.5121449947357177, 0.3870061238606771);52.6695556641;1.0;0;0;0;0;0;0;0;0;0;();(-2000.0, -2000.0);
08:39:19:209;08:39:19:200;1448308518.79;(0.48732929229736327, 0.36928354899088545);53.0849533081;1.0;0;0;0;0;0;0;0;0;0;();(-2000.0, -2000.0);
08:39:19:243;08:39:19:200;1448308518.79;(0.48732929229736327, 0.36928354899088545);53.0849533081;1.0;0;0;0;0;0;0;0;0;0;();(-2000.0, -2000.0);
08:39:19:260;08:39:19:200;1448308518.79;(0.48732929229736327, 0.36928354899088545);53.0849533081;1.0;0;0;0;0;0;0;0;0;0;();(-2000.0, -2000.0);
08:39:19:277;08:39:19:269;1448308518.86;(0.48642640113830565, 0.3687738630506727);53.1752166748;1.0;0;0;0;0;0;0;0;0;0;();(-2000.0, -2000.0);
08:39:19:293;08:39:19:269;1448308518.86;(0.48642640113830565, 0.3687738630506727);53.1752166748;1.0;0;0;0;0;0;0;0;0;0;();(-2000.0, -2000.0);
08:39:19:310;08:39:19:269;1448308518.86;(0.48642640113830565, 0.3687738630506727);53.1752166748;1.0;0;0;0;0;0;0;0;0;0;();(-2000.0, -2000.0);
08:39:19:343;08:39:19:333;1448308518.93;(0.4862950801849365, 0.36899303860134547);53.4923171997;1.0;0;0;0;0;0;0;0;0;0;();(-2000.0, -2000.0);
08:39:19:360;08:39:19:333;1448308518.93;(0.4862950801849365, 0.36899303860134547);53.4923171997;1.0;0;0;0;0;0;0;0;0;0;();(-2000.0, -2000.0);
08:39:19:377;08:39:19:333;1448308518.93;(0.4862950801849365, 0.36899303860134547);53.4923171997;1.0;0;0;0;0;0;0;0;0;0;();(-2000.0, -2000.0);
08:39:19:393;08:39:19:333;1448308518.93;(0.4862950801849365, 0.36899303860134547);53.4923171997;1.0;0;0;0;0;0;0;0;0;0;();(-2000.0, -2000.0);
08:39:19:410;08:39:19:401;1448308518.99;(0.4862992286682129, 0.36922454833984375);53.2867774963;1.0;0;0;0;0;0;0;0;0;0;();(-2000.0, -2000.0);
08:39:19:443;08:39:19:401;1448308518.99;(0.4862992286682129, 0.36922454833984375);53.2867774963;1.0;0;0;0;0;0;0;0;0;0;();(-2000.0, -2000.0);
08:39:19:460;08:39:19:401;1448308518.99;(0.4862992286682129, 0.36922454833984375);53.2867774963;1.0;0;0;0;0;0;0;0;0;0;();(-2000.0, -2000.0);
08:39:19:476;08:39:19:468;1448308519.06;(0.4867682456970215, 0.3686586591932509);53.2431945801;1.0;0;0;0;0;0;0;0;0;0;();(-2000.0, -2000.0);
08:39:19:493;08:39:19:468;1448308519.06;(0.4867682456970215, 0.3686586591932509);53.2431945801;1.0;0;0;0;0;0;0;0;0;0;();(-2000.0, -2000.0);
08:39:19:510;08:39:19:468;1448308519.06;(0.4867682456970215, 0.3686586591932509);53.2431945801;1.0;0;0;0;0;0;0;0;0;0;();(-2000.0, -2000.0);
08:39:19:543;08:39:19:532;1448308519.13;(0.49035072326660156, 0.36603974236382375);52.7960281372;1.0;0;0;0;0;0;0;0;0;0;();(-2000.0, -2000.0);
08:39:19:560;08:39:19:532;1448308519.13;(0.49035072326660156, 0.36603974236382375);52.7960281372;1.0;0;0;0;0;0;0;0;0;0;();(-2000.0, -2000.0);
08:39:19:577;08:39:19:532;1448308519.13;(0.49035072326660156, 0.36603974236382375);52.7960281372;1.0;0;0;0;0;0;0;0;0;0;();(-2000.0, -2000.0);
08:39:19:594;08:39:19:532;1448308519.13;(0.49035072326660156, 0.36603974236382375);52.7960281372;1.0;0;0;0;0;0;0;0;0;0;();(-2000.0, -2000.0);
08:39:19:609;08:39:19:602;1448308519.19;(0.4905405044555664, 0.36620140075683594);52.7494163513;1.0;0;0;0;0;0;0;0;0;0;();(-2000.0, -2000.0);
08:39:19:642;08:39:19:602;1448308519.19;(0.4905405044555664, 0.36620140075683594);52.7494163513;1.0;0;0;0;0;0;0;0;0;0;();(-2000.0, -2000.0);
08:39:19:660;08:39:19:602;1448308519.19;(0.4905405044555664, 0.36620140075683594);52.7494163513;1.0;0;0;0;0;0;0;0;0;0;();(-2000.0, -2000.0);
08:39:19:677;08:39:19:664;1448308519.26;(0.4904294490814209, 0.36690923902723527);52.6580162048;1.0;0;0;0;0;0;0;0;0;0;();(-2000.0, -2000.0);
08:39:19:693;08:39:19:664;1448308519.26;(0.4904294490814209, 0.36690923902723527);52.6580162048;1.0;0;0;0;0;0;0;0;0;0;();(-2000.0, -2000.0);
08:39:19:710;08:39:19:664;1448308519.26;(0.4904294490814209, 0.36690923902723527);52.6580162048;1.0;0;0;0;0;0;0;0;0;0;();(-2000.0, -2000.0);
08:39:19:743;08:39:19:732;1448308519.33;(0.49001646041870117, 0.3674813164605035);52.4996757507;1.0;0;0;0;0;0;0;0;0;0;();(-2000.0, -2000.0);
08:39:19:760;08:39:19:732;1448308519.33;(0.49001646041870117, 0.3674813164605035);52.4996757507;1.0;0;0;0;0;0;0;0;0;0;();(-2000.0, -2000.0);
08:39:19:777;08:39:19:732;1448308519.33;(0.49001646041870117, 0.3674813164605035);52.4996757507;1.0;0;0;0;0;0;0;0;0;0;();(-2000.0, -2000.0);
08:39:19:793;08:39:19:732;1448308519.33;(0.49001646041870117, 0.3674813164605035);52.4996757507;1.0;0;0;0;0;0;0;0;0;0;();(-2000.0, -2000.0);
08:39:19:811;08:39:19:797;1448308519.39;(0.4901108264923096, 0.3678635067409939);52.1590270996;1.0;0;0;0;0;0;0;0;0;0;();(-2000.0, -2000.0);
08:39:19:844;08:39:19:797;1448308519.39;(0.4901108264923096, 0.3678635067409939);52.1590270996;1.0;0;0;0;0;0;0;0;0;0;();(-2000.0, -2000.0);
08:39:19:861;08:39:19:797;1448308519.39;(0.4901108264923096, 0.3678635067409939);52.1590270996;1.0;0;0;0;0;0;0;0;0;0;();(-2000.0, -2000.0);
08:39:19:877;08:39:19:864;1448308519.46;(0.4672244548797607, 0.37785199483235676);52.3241996765;1.0;0;0;0;0;0;0;0;0;0;();(-2000.0, -2000.0);
08:39:19:893;08:39:19:864;1448308519.46;(0.4672244548797607, 0.37785199483235676);52.3241996765;1.0;0;0;0;0;0;0;0;0;0;();(-2000.0, -2000.0);
08:39:19:909;08:39:19:864;1448308519.46;(0.4672244548797607, 0.37785199483235676);52.3241996765;1.0;0;0;0;0;0;0;0;0;0;();(-2000.0, -2000.0);
08:39:19:944;08:39:19:935;1448308519.53;(0.4670538902282715, 0.37837376064724393);52.2631874084;1.0;0;0;0;0;0;0;0;0;0;();(-2000.0, -2000.0);
08:39:19:960;08:39:19:935;1448308519.53;(0.4670538902282715, 0.37837376064724393);52.2631874084;1.0;0;0;0;0;0;0;0;0;0;();(-2000.0, -2000.0);
08:39:19:978;08:39:19:935;1448308519.53;(0.4670538902282715, 0.37837376064724393);52.2631874084;1.0;0;0;0;0;0;0;0;0;0;();(-2000.0, -2000.0);
08:39:19:994;08:39:19:935;1448308519.53;(0.4670538902282715, 0.37837376064724393);52.2631874084;1.0;0;0;0;0;0;0;0;0;0;();(-2000.0, -2000.0);
08:39:20:010;08:39:19:997;1448308519.59;(0.46793398857116697, 0.37902670966254337);51.9296226501;1.0;0;0;0;0;0;0;0;0;0;();(-2000.0, -2000.0);
08:39:20:044;08:39:19:997;1448308519.59;(0.46793398857116697, 0.37902670966254337);51.9296226501;1.0;0;0;0;0;0;0;0;0;0;();(-2000.0, -2000.0);
08:39:20:060;08:39:19:997;1448308519.59;(0.46793398857116697, 0.37902670966254337);51.9296226501;1.0;0;0;0;0;0;0;0;0;0;();(-2000.0, -2000.0);
08:39:20:078;08:39:20:065;1448308519.66;(0.4679299831390381, 0.3797215779622396);51.8160514832;1.0;0;0;0;0;0;0;0;0;0;();(-2000.0, -2000.0);
08:39:20:094;08:39:20:065;1448308519.66;(0.4679299831390381, 0.3797215779622396);51.8160514832;1.0;0;0;0;0;0;0;0;0;0;();(-2000.0, -2000.0);
08:39:20:111;08:39:20:065;1448308519.66;(0.4679299831390381, 0.3797215779622396);51.8160514832;1.0;0;0;0;0;0;0;0;0;0;();(-2000.0, -2000.0);
08:39:20:144;08:39:20:128;1448308519.69;(0.46519041061401367, 0.3816438886854384);51.4496688843;1.0;0;0;0;0;0;0;0;0;0;();(-2000.0, -2000.0);
08:39:20:161;08:39:20:128;1448308519.69;(0.46519041061401367, 0.3816438886854384);51.4496688843;1.0;0;0;0;0;0;0;0;0;0;();(-2000.0, -2000.0);
08:39:20:177;08:39:20:128;1448308519.69;(0.46519041061401367, 0.3816438886854384);51.4496688843;1.0;0;0;0;0;0;0;0;0;0;();(-2000.0, -2000.0);
08:39:20:194;08:39:20:128;1448308519.69;(0.46519041061401367, 0.3816438886854384);51.4496688843;1.0;0;0;0;0;0;0;0;0;0;();(-2000.0, -2000.0);
08:39:20:210;08:39:20:198;1448308519.79;(0.4631521701812744, 0.3835780249701606);51.8413772583;1.0;0;0;0;0;0;0;0;0;0;();(-2000.0, -2000.0);
08:39:20:244;08:39:20:198;1448308519.79;(0.4631521701812744, 0.3835780249701606);51.8413772583;1.0;0;0;0;0;0;0;0;0;0;();(-2000.0, -2000.0);
08:39:20:261;08:39:20:198;1448308519.79;(0.4631521701812744, 0.3835780249701606);51.8413772583;1.0;0;0;0;0;0;0;0;0;0;();(-2000.0, -2000.0);
08:39:20:277;08:39:20:265;1448308519.86;(0.46315946578979494, 0.3843126508924696);51.6113891602;1.0;0;0;0;0;0;0;0;0;0;();(-2000.0, -2000.0);
08:39:20:294;08:39:20:265;1448308519.86;(0.46315946578979494, 0.3843126508924696);51.6113891602;1.0;0;0;0;0;0;0;0;0;0;();(-2000.0, -2000.0);
08:39:20:310;08:39:20:265;1448308519.86;(0.46315946578979494, 0.3843126508924696);51.6113891602;1.0;0;0;0;0;0;0;0;0;0;();(-2000.0, -2000.0);
08:39:20:344;08:39:20:328;1448308519.93;(0.4631947994232178, 0.38501095241970484);51.5367736816;1.0;0;0;0;0;0;0;0;0;0;();(-2000.0, -2000.0);
08:39:20:360;08:39:20:328;1448308519.93;(0.4631947994232178, 0.38501095241970484);51.5367736816;1.0;0;0;0;0;0;0;0;0;0;();(-2000.0, -2000.0);
08:39:20:377;08:39:20:328;1448308519.93;(0.4631947994232178, 0.38501095241970484);51.5367736816;1.0;0;0;0;0;0;0;0;0;0;();(-2000.0, -2000.0);
08:39:20:394;08:39:20:328;1448308519.93;(0.4631947994232178, 0.38501095241970484);51.5367736816;1.0;0;0;0;0;0;0;0;0;0;();(-2000.0, -2000.0);
08:39:20:411;08:39:20:397;1448308519.99;(0.46179757118225095, 0.38558654785156254);51.0978622437;1.0;0;0;0;0;0;0;0;0;0;();(-2000.0, -2000.0);
08:39:20:443;08:39:20:397;1448308519.99;(0.46179757118225095, 0.38558654785156254);51.0978622437;1.0;0;0;0;0;0;0;0;0;0;();(-2000.0, -2000.0);
08:39:20:462;08:39:20:397;1448308519.99;(0.46179757118225095, 0.38558654785156254);51.0978622437;1.0;0;0;0;0;0;0;0;0;0;();(-2000.0, -2000.0);
08:39:20:477;08:39:20:462;1448308520.06;(0, 0);0;0;0;0;0;0;0;0;0;0;0;();(-2000.0, -2000.0);
08:39:20:494;08:39:20:462;1448308520.06;(0, 0);0;0;0;0;0;0;0;0;0;0;0;();(-2000.0, -2000.0);
08:39:20:511;08:39:20:462;1448308520.06;(0, 0);0;0;0;0;0;0;0;0;0;0;0;();(-2000.0, -2000.0);
08:39:20:543;08:39:20:527;1448308520.09;(0, 0);0;0;0;0;0;0;0;0;0;0;0;();(-2000.0, -2000.0);
08:39:20:560;08:39:20:527;1448308520.09;(0, 0);0;0;0;0;0;0;0;0;0;0;0;();(-2000.0, -2000.0);
08:39:20:577;08:39:20:527;1448308520.09;(0, 0);0;0;0;0;0;0;0;0;0;0;0;();(-2000.0, -2000.0);
08:39:20:593;08:39:20:527;1448308520.09;(0, 0);0;0;0;0;0;0;0;0;0;0;0;();(-2000.0, -2000.0);
08:39:20:611;08:39:20:598;1448308520.19;(0.4674707889556885, 0.3857225630018446);50.4895553589;1.0;0;0;0;0;0;0;0;0;0;();(-2000.0, -2000.0);
08:39:20:644;08:39:20:598;1448308520.19;(0.4674707889556885, 0.3857225630018446);50.4895553589;1.0;0;0;0;0;0;0;0;0;0;();(-2000.0, -2000.0);
08:39:20:660;08:39:20:598;1448308520.19;(0.4674707889556885, 0.3857225630018446);50.4895553589;1.0;0;0;0;0;0;0;0;0;0;();(-2000.0, -2000.0);
08:39:20:677;08:39:20:664;1448308520.26;(0.4677866458892822, 0.3855153401692708);50.5010185242;1.0;0;0;0;0;0;0;0;0;0;();(-2000.0, -2000.0);
08:39:20:694;08:39:20:664;1448308520.26;(0.4677866458892822, 0.3855153401692708);50.5010185242;1.0;0;0;0;0;0;0;0;0;0;();(-2000.0, -2000.0);
08:39:20:711;08:39:20:664;1448308520.26;(0.4677866458892822, 0.3855153401692708);50.5010185242;1.0;0;0;0;0;0;0;0;0;0;();(-2000.0, -2000.0);
08:39:20:744;08:39:20:727;1448308520.29;(0.4681561470031738, 0.3854744381374783);50.1837234497;1.0;0;0;0;0;0;0;0;0;0;();(-2000.0, -2000.0);
08:39:20:761;08:39:20:727;1448308520.29;(0.4681561470031738, 0.3854744381374783);50.1837234497;1.0;0;0;0;0;0;0;0;0;0;();(-2000.0, -2000.0);
08:39:20:777;08:39:20:727;1448308520.29;(0.4681561470031738, 0.3854744381374783);50.1837234497;1.0;0;0;0;0;0;0;0;0;0;();(-2000.0, -2000.0);
08:39:20:797;08:39:20:794;1448308520.39;(0.4684465408325195, 0.38439822726779516);50.2693710327;1.0;0;0;0;0;0;0;0;0;0;();(-2000.0, -2000.0);
08:39:20:811;08:39:20:794;1448308520.39;(0.4684465408325195, 0.38439822726779516);50.2693710327;1.0;0;0;0;0;0;0;0;0;0;();(-2000.0, -2000.0);
08:39:20:844;08:39:20:794;1448308520.39;(0.4684465408325195, 0.38439822726779516);50.2693710327;1.0;0;0;0;0;0;0;0;0;0;();(-2000.0, -2000.0);
08:39:20:860;08:39:20:794;1448308520.39;(0.4684465408325195, 0.38439822726779516);50.2693710327;1.0;0;0;0;0;0;0;0;0;0;();(-2000.0, -2000.0);
08:39:20:877;08:39:20:864;1448308520.46;(0.4685819149017334, 0.383908462524414);50.6548271179;1.0;0;0;0;0;0;0;0;0;0;();(-2000.0, -2000.0);
08:39:20:895;08:39:20:864;1448308520.46;(0.4685819149017334, 0.383908462524414);50.6548271179;1.0;0;0;0;0;0;0;0;0;0;();(-2000.0, -2000.0);
08:39:20:911;08:39:20:864;1448308520.46;(0.4685819149017334, 0.383908462524414);50.6548271179;1.0;0;0;0;0;0;0;0;0;0;();(-2000.0, -2000.0);
08:39:20:944;08:39:20:929;1448308520.53;(0.4686763763427734, 0.38447244432237415);50.9007225037;1.0;0;0;0;0;0;0;0;0;0;();(-2000.0, -2000.0);
08:39:20:961;08:39:20:929;1448308520.53;(0.4686763763427734, 0.38447244432237415);50.9007225037;1.0;0;0;0;0;0;0;0;0;0;();(-2000.0, -2000.0);
08:39:20:977;08:39:20:929;1448308520.53;(0.4686763763427734, 0.38447244432237415);50.9007225037;1.0;0;0;0;0;0;0;0;0;0;();(-2000.0, -2000.0);
08:39:20:996;08:39:20:993;1448308520.59;(0.4690661907196045, 0.38501531812879775);51.0846443176;1.0;0;0;0;0;0;0;0;0;0;();(-2000.0, -2000.0);
08:39:21:011;08:39:20:993;1448308520.59;(0.4690661907196045, 0.38501531812879775);51.0846443176;1.0;0;0;0;0;0;0;0;0;0;();(-2000.0, -2000.0);
08:39:21:044;08:39:20:993;1448308520.59;(0.4690661907196045, 0.38501531812879775);51.0846443176;1.0;0;0;0;0;0;0;0;0;0;();(-2000.0, -2000.0);
08:39:21:061;08:39:20:993;1448308520.59;(0.4690661907196045, 0.38501531812879775);51.0846443176;1.0;0;0;0;0;0;0;0;0;0;();(-2000.0, -2000.0);
08:39:21:077;08:39:21:064;1448308520.66;(0.4596930980682373, 0.38920953538682723);50.8687705994;1.0;0;0;0;0;0;0;0;0;0;();(-2000.0, -2000.0);
08:39:21:095;08:39:21:064;1448308520.66;(0.4596930980682373, 0.38920953538682723);50.8687705994;1.0;0;0;0;0;0;0;0;0;0;();(-2000.0, -2000.0);
08:39:21:111;08:39:21:064;1448308520.66;(0.4596930980682373, 0.38920953538682723);50.8687705994;1.0;0;0;0;0;0;0;0;0;0;();(-2000.0, -2000.0);
08:39:21:145;08:39:21:123;1448308520.69;(0.45851287841796873, 0.3902697245279948);51.4659576416;0.892934667467;0;0;0;0;0;0;0;0;0;();(-2000.0, -2000.0);
08:39:21:161;08:39:21:123;1448308520.69;(0.45851287841796873, 0.3902697245279948);51.4659576416;0.892934667467;0;0;0;0;0;0;0;0;0;();(-2000.0, -2000.0);
08:39:21:178;08:39:21:123;1448308520.69;(0.45851287841796873, 0.3902697245279948);51.4659576416;0.892934667467;0;0;0;0;0;0;0;0;0;();(-2000.0, -2000.0);
08:39:21:195;08:39:21:192;1448308520.73;(0.457828426361084, 0.3907214694552952);50.9831886292;1.0;0;0;0;0;0;0;0;0;0;();(-2000.0, -2000.0);
08:39:21:212;08:39:21:193;1448308520.76;(0.45755743980407715, 0.3907927619086371);50.7274894714;1.0;0;0;0;0;0;0;0;0;0;();(-2000.0, -2000.0);
08:39:21:244;08:39:21:193;1448308520.76;(0.45755743980407715, 0.3907927619086371);50.7274894714;1.0;0;0;0;0;0;0;0;0;0;();(-2000.0, -2000.0);
08:39:21:262;08:39:21:193;1448308520.76;(0.45755743980407715, 0.3907927619086371);50.7274894714;1.0;0;0;0;0;0;0;0;0;0;();(-2000.0, -2000.0);
08:39:21:277;08:39:21:266;1448308520.86;(0.45761585235595703, 0.3910542382134332);50.5921707153;1.0;0;0;0;0;0;0;0;0;0;();(-2000.0, -2000.0);
08:39:21:295;08:39:21:266;1448308520.86;(0.45761585235595703, 0.3910542382134332);50.5921707153;1.0;0;0;0;0;0;0;0;0;0;();(-2000.0, -2000.0);
08:39:21:312;08:39:21:266;1448308520.86;(0.45761585235595703, 0.3910542382134332);50.5921707153;1.0;0;0;0;0;0;0;0;0;0;();(-2000.0, -2000.0);
08:39:21:344;08:39:21:325;1448308520.93;(0.45790934562683105, 0.3912477705213758);50.4756278992;1.0;0;0;0;0;0;0;0;0;0;();(-2000.0, -2000.0);
08:39:21:361;08:39:21:325;1448308520.93;(0.45790934562683105, 0.3912477705213758);50.4756278992;1.0;0;0;0;0;0;0;0;0;0;();(-2000.0, -2000.0);
08:39:21:377;08:39:21:325;1448308520.93;(0.45790934562683105, 0.3912477705213758);50.4756278992;1.0;0;0;0;0;0;0;0;0;0;();(-2000.0, -2000.0);
08:39:21:394;08:39:21:391;1448308520.96;(0.46122193336486816, 0.39188579983181426);50.3489456177;1.0;0;0;0;0;0;0;0;0;0;();(-2000.0, -2000.0);
08:39:21:412;08:39:21:391;1448308520.96;(0.46122193336486816, 0.39188579983181426);50.3489456177;1.0;0;0;0;0;0;0;0;0;0;();(-2000.0, -2000.0);
08:39:21:444;08:39:21:391;1448308520.96;(0.46122193336486816, 0.39188579983181426);50.3489456177;1.0;0;0;0;0;0;0;0;0;0;();(-2000.0, -2000.0);
08:39:21:461;08:39:21:457;1448308521.06;(0.46115636825561523, 0.3917907290988498);50.0554008484;1.0;0;0;0;0;0;0;0;0;0;();(-2000.0, -2000.0);
08:39:21:478;08:39:21:457;1448308521.06;(0.46115636825561523, 0.3917907290988498);50.0554008484;1.0;0;0;0;0;0;0;0;0;0;();(-2000.0, -2000.0);
08:39:21:495;08:39:21:457;1448308521.06;(0.46115636825561523, 0.3917907290988498);50.0554008484;1.0;0;0;0;0;0;0;0;0;0;();(-2000.0, -2000.0);
08:39:21:511;08:39:21:457;1448308521.06;(0.46115636825561523, 0.3917907290988498);50.0554008484;1.0;0;0;0;0;0;0;0;0;0;();(-2000.0, -2000.0);
08:39:21:545;08:39:21:524;1448308521.13;(0.46111440658569336, 0.3918126000298394);49.7355079651;1.0;0;0;0;0;0;0;0;0;0;();(-2000.0, -2000.0);
08:39:21:562;08:39:21:524;1448308521.13;(0.46111440658569336, 0.3918126000298394);49.7355079651;1.0;0;0;0;0;0;0;0;0;0;();(-2000.0, -2000.0);
08:39:21:579;08:39:21:524;1448308521.13;(0.46111440658569336, 0.3918126000298394);49.7355079651;1.0;0;0;0;0;0;0;0;0;0;();(-2000.0, -2000.0);
08:39:21:595;08:39:21:592;1448308521.16;(0.4610417366027832, 0.39160660637749567);49.7545051575;1.0;0;0;0;0;0;0;0;0;0;();(-2000.0, -2000.0);
08:39:21:612;08:39:21:592;1448308521.16;(0.4610417366027832, 0.39160660637749567);49.7545051575;1.0;0;0;0;0;0;0;0;0;0;();(-2000.0, -2000.0);
08:39:21:644;08:39:21:592;1448308521.16;(0.4610417366027832, 0.39160660637749567);49.7545051575;1.0;0;0;0;0;0;0;0;0;0;();(-2000.0, -2000.0);
08:39:21:662;08:39:21:658;1448308521.26;(0.461368989944458, 0.39134568108452694);49.6287536621;1.0;0;0;0;0;0;0;0;0;0;();(-2000.0, -2000.0);
08:39:21:678;08:39:21:658;1448308521.26;(0.461368989944458, 0.39134568108452694);49.6287536621;1.0;0;0;0;0;0;0;0;0;0;();(-2000.0, -2000.0);
08:39:21:695;08:39:21:658;1448308521.26;(0.461368989944458, 0.39134568108452694);49.6287536621;1.0;0;0;0;0;0;0;0;0;0;();(-2000.0, -2000.0);
08:39:21:712;08:39:21:658;1448308521.26;(0.461368989944458, 0.39134568108452694);49.6287536621;1.0;0;0;0;0;0;0;0;0;0;();(-2000.0, -2000.0);
08:39:21:744;08:39:21:724;1448308521.33;(0.4615345478057861, 0.3905898200141059);49.1780548096;1.0;0;0;0;0;0;0;0;0;0;();(-2000.0, -2000.0);
08:39:21:761;08:39:21:724;1448308521.33;(0.4615345478057861, 0.3905898200141059);49.1780548096;1.0;0;0;0;0;0;0;0;0;0;();(-2000.0, -2000.0);
08:39:21:778;08:39:21:724;1448308521.33;(0.4615345478057861, 0.3905898200141059);49.1780548096;1.0;0;0;0;0;0;0;0;0;0;();(-2000.0, -2000.0);
08:39:21:796;08:39:21:787;1448308521.36;(0.47388439178466796, 0.381878916422526);49.0407142639;1.0;0;0;0;0;0;0;0;0;0;();(-2000.0, -2000.0);
08:39:21:812;08:39:21:787;1448308521.36;(0.47388439178466796, 0.381878916422526);49.0407142639;1.0;0;0;0;0;0;0;0;0;0;();(-2000.0, -2000.0);
08:39:21:844;08:39:21:787;1448308521.36;(0.47388439178466796, 0.381878916422526);49.0407142639;1.0;0;0;0;0;0;0;0;0;0;();(-2000.0, -2000.0);
08:39:21:862;08:39:21:857;1448308521.43;(0.4815399646759033, 0.3748041788736979);48.4654693604;1.0;0;0;0;0;0;0;0;0;0;();(-2000.0, -2000.0);
08:39:21:879;08:39:21:857;1448308521.43;(0.4815399646759033, 0.3748041788736979);48.4654693604;1.0;0;0;0;0;0;0;0;0;0;();(-2000.0, -2000.0);
08:39:21:895;08:39:21:857;1448308521.43;(0.4815399646759033, 0.3748041788736979);48.4654693604;1.0;0;0;0;0;0;0;0;0;0;();(-2000.0, -2000.0);
08:39:21:912;08:39:21:857;1448308521.43;(0.4815399646759033, 0.3748041788736979);48.4654693604;1.0;0;0;0;0;0;0;0;0;0;();(-2000.0, -2000.0);
08:39:21:945;08:39:21:925;1448308521.49;(0, 0);0;0;0;0;0;0;0;0;0;0;0;();(-2000.0, -2000.0);
08:39:21:962;08:39:21:925;1448308521.49;(0, 0);0;0;0;0;0;0;0;0;0;0;0;();(-2000.0, -2000.0);
08:39:21:978;08:39:21:925;1448308521.49;(0, 0);0;0;0;0;0;0;0;0;0;0;0;();(-2000.0, -2000.0);
08:39:21:995;08:39:21:987;1448308521.56;(0, 0);0;0;0;0;0;0;0;0;0;0;0;();(-2000.0, -2000.0);
08:39:22:012;08:39:21:987;1448308521.56;(0, 0);0;0;0;0;0;0;0;0;0;0;0;();(-2000.0, -2000.0);
08:39:22:046;08:39:21:987;1448308521.56;(0, 0);0;0;0;0;0;0;0;0;0;0;0;();(-2000.0, -2000.0);
08:39:22:062;08:39:22:057;1448308521.63;(0.49004950523376467, 0.37809880574544275);47.0987739563;1.0;0;0;0;0;0;0;0;0;0;();(-2000.0, -2000.0);
08:39:22:079;08:39:22:057;1448308521.63;(0.49004950523376467, 0.37809880574544275);47.0987739563;1.0;0;0;0;0;0;0;0;0;0;();(-2000.0, -2000.0);
08:39:22:096;08:39:22:057;1448308521.63;(0.49004950523376467, 0.37809880574544275);47.0987739563;1.0;0;0;0;0;0;0;0;0;0;();(-2000.0, -2000.0);
08:39:22:112;08:39:22:057;1448308521.63;(0.49004950523376467, 0.37809880574544275);47.0987739563;1.0;0;0;0;0;0;0;0;0;0;();(-2000.0, -2000.0);
08:39:22:146;08:39:22:120;1448308521.69;(0.4911815643310547, 0.37627012464735243);47.2800712585;1.0;0;0;0;0;0;0;0;0;0;();(-2000.0, -2000.0);
08:39:22:162;08:39:22:120;1448308521.69;(0.4911815643310547, 0.37627012464735243);47.2800712585;1.0;0;0;0;0;0;0;0;0;0;();(-2000.0, -2000.0);
08:39:22:179;08:39:22:120;1448308521.69;(0.4911815643310547, 0.37627012464735243);47.2800712585;1.0;0;0;0;0;0;0;0;0;0;();(-2000.0, -2000.0);
08:39:22:196;08:39:22:189;1448308521.76;(0.4916630744934082, 0.3748041364881728);47.4533615112;1.0;0;0;0;0;0;0;0;0;0;();(-2000.0, -2000.0);
08:39:22:213;08:39:22:189;1448308521.76;(0.4916630744934082, 0.3748041364881728);47.4533615112;1.0;0;0;0;0;0;0;0;0;0;();(-2000.0, -2000.0);
08:39:22:246;08:39:22:189;1448308521.76;(0.4916630744934082, 0.3748041364881728);47.4533615112;1.0;0;0;0;0;0;0;0;0;0;();(-2000.0, -2000.0);
08:39:22:262;08:39:22:258;1448308521.86;(0.4899451732635498, 0.37526711357964415);46.9586334229;1.0;0;0;0;0;0;0;0;0;0;();(-2000.0, -2000.0);
08:39:22:278;08:39:22:258;1448308521.86;(0.4899451732635498, 0.37526711357964415);46.9586334229;1.0;0;0;0;0;0;0;0;0;0;();(-2000.0, -2000.0);
08:39:22:296;08:39:22:258;1448308521.86;(0.4899451732635498, 0.37526711357964415);46.9586334229;1.0;0;0;0;0;0;0;0;0;0;();(-2000.0, -2000.0);
08:39:22:312;08:39:22:258;1448308521.86;(0.4899451732635498, 0.37526711357964415);46.9586334229;1.0;0;0;0;0;0;0;0;0;0;();(-2000.0, -2000.0);
08:39:22:346;08:39:22:319;1448308521.89;(0.48983988761901853, 0.37527173360188804);47.1643409729;1.0;0;0;0;0;0;0;0;0;0;();(-2000.0, -2000.0);
08:39:22:361;08:39:22:319;1448308521.89;(0.48983988761901853, 0.37527173360188804);47.1643409729;1.0;0;0;0;0;0;0;0;0;0;();(-2000.0, -2000.0);
08:39:22:379;08:39:22:319;1448308521.89;(0.48983988761901853, 0.37527173360188804);47.1643409729;1.0;0;0;0;0;0;0;0;0;0;();(-2000.0, -2000.0);
08:39:22:396;08:39:22:390;1448308521.96;(0.48986144065856935, 0.3753885057237413);47.0755882263;1.0;0;0;0;0;0;0;0;0;0;();(-2000.0, -2000.0);
08:39:22:411;08:39:22:390;1448308521.96;(0.48986144065856935, 0.3753885057237413);47.0755882263;1.0;0;0;0;0;0;0;0;0;0;();(-2000.0, -2000.0);
08:39:22:446;08:39:22:390;1448308521.96;(0.48986144065856935, 0.3753885057237413);47.0755882263;1.0;0;0;0;0;0;0;0;0;0;();(-2000.0, -2000.0);
08:39:22:463;08:39:22:456;1448308522.03;(0.4901111125946045, 0.3748522440592448);47.0702857971;1.0;0;0;0;0;0;0;0;0;0;();(-2000.0, -2000.0);
08:39:22:479;08:39:22:456;1448308522.03;(0.4901111125946045, 0.3748522440592448);47.0702857971;1.0;0;0;0;0;0;0;0;0;0;();(-2000.0, -2000.0);
08:39:22:496;08:39:22:456;1448308522.03;(0.4901111125946045, 0.3748522440592448);47.0702857971;1.0;0;0;0;0;0;0;0;0;0;();(-2000.0, -2000.0);
08:39:22:513;08:39:22:456;1448308522.03;(0.4901111125946045, 0.3748522440592448);47.0702857971;1.0;0;0;0;0;0;0;0;0;0;();(-2000.0, -2000.0);
08:39:22:546;08:39:22:521;1448308522.09;(0.49153337478637693, 0.37287597656250004);47.1481933594;0.898690884841;0;0;0;0;0;0;0;0;0;();(-2000.0, -2000.0);
08:39:22:562;08:39:22:521;1448308522.09;(0.49153337478637693, 0.37287597656250004);47.1481933594;0.898690884841;0;0;0;0;0;0;0;0;0;();(-2000.0, -2000.0);
08:39:22:579;08:39:22:521;1448308522.09;(0.49153337478637693, 0.37287597656250004);47.1481933594;0.898690884841;0;0;0;0;0;0;0;0;0;();(-2000.0, -2000.0);
08:39:22:596;08:39:22:585;1448308522.16;(0.4925417423248291, 0.37121645609537757);47.0510749817;1.0;0;0;0;0;0;0;0;0;0;();(-2000.0, -2000.0);
08:39:22:613;08:39:22:585;1448308522.16;(0.4925417423248291, 0.37121645609537757);47.0510749817;1.0;0;0;0;0;0;0;0;0;0;();(-2000.0, -2000.0);
08:39:22:646;08:39:22:585;1448308522.16;(0.4925417423248291, 0.37121645609537757);47.0510749817;1.0;0;0;0;0;0;0;0;0;0;();(-2000.0, -2000.0);
08:39:22:662;08:39:22:652;1448308522.23;(0.49280056953430174, 0.37159156799316406);46.9734306335;1.0;0;0;0;0;0;0;0;0;0;();(-2000.0, -2000.0);
08:39:22:680;08:39:22:652;1448308522.23;(0.49280056953430174, 0.37159156799316406);46.9734306335;1.0;0;0;0;0;0;0;0;0;0;();(-2000.0, -2000.0);
08:39:22:696;08:39:22:652;1448308522.23;(0.49280056953430174, 0.37159156799316406);46.9734306335;1.0;0;0;0;0;0;0;0;0;0;();(-2000.0, -2000.0);
08:39:22:713;08:39:22:652;1448308522.23;(0.49280056953430174, 0.37159156799316406);46.9734306335;1.0;0;0;0;0;0;0;0;0;0;();(-2000.0, -2000.0);
08:39:22:746;08:39:22:720;1448308522.29;(0.4926926612854004, 0.3716844346788194);47.0675239563;1.0;0;0;0;0;0;0;0;0;0;();(-2000.0, -2000.0);
08:39:22:763;08:39:22:720;1448308522.29;(0.4926926612854004, 0.3716844346788194);47.0675239563;1.0;0;0;0;0;0;0;0;0;0;();(-2000.0, -2000.0);
08:39:22:779;08:39:22:720;1448308522.29;(0.4926926612854004, 0.3716844346788194);47.0675239563;1.0;0;0;0;0;0;0;0;0;0;();(-2000.0, -2000.0);
08:39:22:796;08:39:22:785;1448308522.36;(0.49246740341186523, 0.3717144436306423);47.037563324;1.0;0;0;0;0;0;0;0;0;0;();(-2000.0, -2000.0);
08:39:22:813;08:39:22:785;1448308522.36;(0.49246740341186523, 0.3717144436306423);47.037563324;1.0;0;0;0;0;0;0;0;0;0;();(-2000.0, -2000.0);
08:39:22:847;08:39:22:785;1448308522.36;(0.49246740341186523, 0.3717144436306423);47.037563324;1.0;0;0;0;0;0;0;0;0;0;();(-2000.0, -2000.0);
08:39:22:863;08:39:22:852;1448308522.43;(0.49229793548583983, 0.371594492594401);47.3711013794;1.0;0;0;0;0;0;0;0;0;0;();(-2000.0, -2000.0);
08:39:22:879;08:39:22:852;1448308522.43;(0.49229793548583983, 0.371594492594401);47.3711013794;1.0;0;0;0;0;0;0;0;0;0;();(-2000.0, -2000.0);
08:39:22:896;08:39:22:852;1448308522.43;(0.49229793548583983, 0.371594492594401);47.3711013794;1.0;0;0;0;0;0;0;0;0;0;();(-2000.0, -2000.0);
08:39:22:912;08:39:22:852;1448308522.43;(0.49229793548583983, 0.371594492594401);47.3711013794;1.0;0;0;0;0;0;0;0;0;0;();(-2000.0, -2000.0);
08:39:22:930;08:39:22:917;1448308522.49;(0.5116886615753173, 0.36276563008626306);49.811832428;0.897521021061;0;0;0;0;0;0;0;0;0;();(-2000.0, -2000.0);
08:39:22:962;08:39:22:917;1448308522.49;(0.5116886615753173, 0.36276563008626306);49.811832428;0.897521021061;0;0;0;0;0;0;0;0;0;();(-2000.0, -2000.0);
08:39:22:980;08:39:22:917;1448308522.49;(0.5116886615753173, 0.36276563008626306);49.811832428;0.897521021061;0;0;0;0;0;0;0;0;0;();(-2000.0, -2000.0);
08:39:22:997;08:39:22:984;1448308522.56;(0.5775088787078857, 0.31560507880316835);47.3421478271;0.957660045909;0;0;0;0;0;0;0;0;0;();(-2000.0, -2000.0);
08:39:23:012;08:39:22:984;1448308522.56;(0.5775088787078857, 0.31560507880316835);47.3421478271;0.957660045909;0;0;0;0;0;0;0;0;0;();(-2000.0, -2000.0);
08:39:23:046;08:39:22:984;1448308522.56;(0.5775088787078857, 0.31560507880316835);47.3421478271;0.957660045909;0;0;0;0;0;0;0;0;0;();(-2000.0, -2000.0);
08:39:23:063;08:39:23:052;1448308522.63;(0.5830803394317627, 0.31106037563747835);47.5202980042;1.0;0;0;0;0;0;0;0;0;0;();(-2000.0, -2000.0);
08:39:23:079;08:39:23:052;1448308522.63;(0.5830803394317627, 0.31106037563747835);47.5202980042;1.0;0;0;0;0;0;0;0;0;0;();(-2000.0, -2000.0);
08:39:23:096;08:39:23:052;1448308522.63;(0.5830803394317627, 0.31106037563747835);47.5202980042;1.0;0;0;0;0;0;0;0;0;0;();(-2000.0, -2000.0);
08:39:23:113;08:39:23:052;1448308522.63;(0.5830803394317627, 0.31106037563747835);47.5202980042;1.0;0;0;0;0;0;0;0;0;0;();(-2000.0, -2000.0);
08:39:23:130;08:39:23:117;1448308522.69;(0.5834990978240967, 0.3111554463704427);47.5917320251;1.0;0;0;0;0;0;0;0;0;0;();(-2000.0, -2000.0);
08:39:23:163;08:39:23:117;1448308522.69;(0.5834990978240967, 0.3111554463704427);47.5917320251;1.0;0;0;0;0;0;0;0;0;0;();(-2000.0, -2000.0);
08:39:23:179;08:39:23:117;1448308522.69;(0.5834990978240967, 0.3111554463704427);47.5917320251;1.0;0;0;0;0;0;0;0;0;0;();(-2000.0, -2000.0);
08:39:23:197;08:39:23:191;1448308522.76;(0.5839980602264404, 0.3113405015733507);47.3804283142;1.0;0;0;0;0;0;0;0;0;0;();(-2000.0, -2000.0);
08:39:23:213;08:39:23:191;1448308522.76;(0.5839980602264404, 0.3113405015733507);47.3804283142;1.0;0;0;0;0;0;0;0;0;0;();(-2000.0, -2000.0);
08:39:23:230;08:39:23:191;1448308522.76;(0.5839980602264404, 0.3113405015733507);47.3804283142;1.0;0;0;0;0;0;0;0;0;0;();(-2000.0, -2000.0);
08:39:23:263;08:39:23:249;1448308522.83;(0.5842104434967041, 0.3114999135335287);47.306968689;1.0;0;0;0;0;0;0;0;0;0;();(-2000.0, -2000.0);
08:39:23:279;08:39:23:249;1448308522.83;(0.5842104434967041, 0.3114999135335287);47.306968689;1.0;0;0;0;0;0;0;0;0;0;();(-2000.0, -2000.0);
08:39:23:296;08:39:23:249;1448308522.83;(0.5842104434967041, 0.3114999135335287);47.306968689;1.0;0;0;0;0;0;0;0;0;0;();(-2000.0, -2000.0);
08:39:23:312;08:39:23:249;1448308522.83;(0.5842104434967041, 0.3114999135335287);47.306968689;1.0;0;0;0;0;0;0;0;0;0;();(-2000.0, -2000.0);
08:39:23:330;08:39:23:316;1448308522.89;(0.5693898677825928, 0.32574323018391926);45.8652534485;0.999180703869;0;0;0;0;0;0;0;0;0;();(-2000.0, -2000.0);
08:39:23:363;08:39:23:316;1448308522.89;(0.5693898677825928, 0.32574323018391926);45.8652534485;0.999180703869;0;0;0;0;0;0;0;0;0;();(-2000.0, -2000.0);
08:39:23:380;08:39:23:316;1448308522.89;(0.5693898677825928, 0.32574323018391926);45.8652534485;0.999180703869;0;0;0;0;0;0;0;0;0;();(-2000.0, -2000.0);
08:39:23:397;08:39:23:385;1448308522.96;(0.5621181964874268, 0.33364749484592016);47.0928840637;1.0;0;0;0;0;0;0;0;0;0;();(-2000.0, -2000.0);
08:39:23:413;08:39:23:385;1448308522.96;(0.5621181964874268, 0.33364749484592016);47.0928840637;1.0;0;0;0;0;0;0;0;0;0;();(-2000.0, -2000.0);
08:39:23:430;08:39:23:385;1448308522.96;(0.5621181964874268, 0.33364749484592016);47.0928840637;1.0;0;0;0;0;0;0;0;0;0;();(-2000.0, -2000.0);
08:39:23:463;08:39:23:448;1448308523.03;(0.5622526168823242, 0.3339235517713759);47.0311393738;1.0;0;0;0;0;0;0;0;0;0;();(-2000.0, -2000.0);
08:39:23:479;08:39:23:448;1448308523.03;(0.5622526168823242, 0.3339235517713759);47.0311393738;1.0;0;0;0;0;0;0;0;0;0;();(-2000.0, -2000.0);
08:39:23:496;08:39:23:448;1448308523.03;(0.5622526168823242, 0.3339235517713759);47.0311393738;1.0;0;0;0;0;0;0;0;0;0;();(-2000.0, -2000.0);
08:39:23:513;08:39:23:448;1448308523.03;(0.5622526168823242, 0.3339235517713759);47.0311393738;1.0;0;0;0;0;0;0;0;0;0;();(-2000.0, -2000.0);
08:39:23:530;08:39:23:517;1448308523.09;(0.5583864212036133, 0.3381717681884766);45.7698860168;0.994796233129;0;0;0;0;0;0;0;0;0;();(-2000.0, -2000.0);
08:39:23:563;08:39:23:517;1448308523.09;(0.5583864212036133, 0.3381717681884766);45.7698860168;0.994796233129;0;0;0;0;0;0;0;0;0;();(-2000.0, -2000.0);
08:39:23:579;08:39:23:517;1448308523.09;(0.5583864212036133, 0.3381717681884766);45.7698860168;0.994796233129;0;0;0;0;0;0;0;0;0;();(-2000.0, -2000.0);
08:39:23:596;08:39:23:582;1448308523.16;(0.515064001083374, 0.38472124735514324);47.1059379578;1.0;0;0;0;0;0;0;0;0;0;();(-2000.0, -2000.0);
08:39:23:614;08:39:23:582;1448308523.16;(0.515064001083374, 0.38472124735514324);47.1059379578;1.0;0;0;0;0;0;0;0;0;0;();(-2000.0, -2000.0);
08:39:23:630;08:39:23:582;1448308523.16;(0.515064001083374, 0.38472124735514324);47.1059379578;1.0;0;0;0;0;0;0;0;0;0;();(-2000.0, -2000.0);
08:39:23:664;08:39:23:648;1448308523.23;(0, 0);0;0;0;0;0;0;0;0;0;0;0;();(-2000.0, -2000.0);
08:39:23:680;08:39:23:648;1448308523.23;(0, 0);0;0;0;0;0;0;0;0;0;0;0;();(-2000.0, -2000.0);
08:39:23:697;08:39:23:648;1448308523.23;(0, 0);0;0;0;0;0;0;0;0;0;0;0;();(-2000.0, -2000.0);
08:39:23:713;08:39:23:648;1448308523.23;(0, 0);0;0;0;0;0;0;0;0;0;0;0;();(-2000.0, -2000.0);
08:39:23:730;08:39:23:721;1448308523.29;(0.5125520706176758, 0.3947906070285373);45.5963668823;0.703297544883;0;0;0;0;0;0;0;0;0;();(-2000.0, -2000.0);
08:39:23:763;08:39:23:721;1448308523.29;(0.5125520706176758, 0.3947906070285373);45.5963668823;0.703297544883;0;0;0;0;0;0;0;0;0;();(-2000.0, -2000.0);
08:39:23:781;08:39:23:721;1448308523.29;(0.5125520706176758, 0.3947906070285373);45.5963668823;0.703297544883;0;0;0;0;0;0;0;0;0;();(-2000.0, -2000.0);
08:39:23:797;08:39:23:782;1448308523.36;(0.5131319046020508, 0.39737964206271703);47.6557273865;1.0;0;0;0;0;0;0;0;0;0;();(-2000.0, -2000.0);
08:39:23:814;08:39:23:782;1448308523.36;(0.5131319046020508, 0.39737964206271703);47.6557273865;1.0;0;0;0;0;0;0;0;0;0;();(-2000.0, -2000.0);
08:39:23:830;08:39:23:782;1448308523.36;(0.5131319046020508, 0.39737964206271703);47.6557273865;1.0;0;0;0;0;0;0;0;0;0;();(-2000.0, -2000.0);
08:39:23:863;08:39:23:850;1448308523.43;(0.5142756462097168, 0.39633047315809466);47.8910980225;1.0;0;0;0;0;0;0;0;0;0;();(-2000.0, -2000.0);
08:39:23:880;08:39:23:850;1448308523.43;(0.5142756462097168, 0.39633047315809466);47.8910980225;1.0;0;0;0;0;0;0;0;0;0;();(-2000.0, -2000.0);
08:39:23:897;08:39:23:850;1448308523.43;(0.5142756462097168, 0.39633047315809466);47.8910980225;1.0;0;0;0;0;0;0;0;0;0;();(-2000.0, -2000.0);
08:39:23:913;08:39:23:850;1448308523.43;(0.5142756462097168, 0.39633047315809466);47.8910980225;1.0;0;0;0;0;0;0;0;0;0;();(-2000.0, -2000.0);
08:39:23:931;08:39:23:916;1448308523.49;(0.5148628711700439, 0.3953098720974393);47.9620628357;1.0;0;0;0;0;0;0;0;0;0;();(-2000.0, -2000.0);
08:39:23:964;08:39:23:916;1448308523.49;(0.5148628711700439, 0.3953098720974393);47.9620628357;1.0;0;0;0;0;0;0;0;0;0;();(-2000.0, -2000.0);
08:39:23:981;08:39:23:916;1448308523.49;(0.5148628711700439, 0.3953098720974393);47.9620628357;1.0;0;0;0;0;0;0;0;0;0;();(-2000.0, -2000.0);
08:39:23:997;08:39:23:984;1448308523.56;(0.5153779506683349, 0.39177025689019096);48.071647644;1.0;0;0;0;0;0;0;0;0;0;();(-2000.0, -2000.0);
08:39:24:014;08:39:23:984;1448308523.56;(0.5153779506683349, 0.39177025689019096);48.071647644;1.0;0;0;0;0;0;0;0;0;0;();(-2000.0, -2000.0);
08:39:24:031;08:39:23:984;1448308523.56;(0.5153779506683349, 0.39177025689019096);48.071647644;1.0;0;0;0;0;0;0;0;0;0;();(-2000.0, -2000.0);
08:39:24:063;08:39:24:049;1448308523.63;(0.5153064727783203, 0.39157032436794703);48.1705169678;1.0;0;0;0;0;0;0;0;0;0;();(-2000.0, -2000.0);
08:39:24:080;08:39:24:049;1448308523.63;(0.5153064727783203, 0.39157032436794703);48.1705169678;1.0;0;0;0;0;0;0;0;0;0;();(-2000.0, -2000.0);
08:39:24:098;08:39:24:049;1448308523.63;(0.5153064727783203, 0.39157032436794703);48.1705169678;1.0;0;0;0;0;0;0;0;0;0;();(-2000.0, -2000.0);
08:39:24:115;08:39:24:112;1448308523.69;(0.5155418872833252, 0.3915323893229167);48.5506210327;1.0;0;0;0;0;0;0;0;0;0;();(-2000.0, -2000.0);
08:39:24:131;08:39:24:112;1448308523.69;(0.5155418872833252, 0.3915323893229167);48.5506210327;1.0;0;0;0;0;0;0;0;0;0;();(-2000.0, -2000.0);
08:39:24:163;08:39:24:112;1448308523.69;(0.5155418872833252, 0.3915323893229167);48.5506210327;1.0;0;0;0;0;0;0;0;0;0;();(-2000.0, -2000.0);
08:39:24:181;08:39:24:112;1448308523.69;(0.5155418872833252, 0.3915323893229167);48.5506210327;1.0;0;0;0;0;0;0;0;0;0;();(-2000.0, -2000.0);
08:39:24:197;08:39:24:184;1448308523.76;(0.5156497955322266, 0.39176190694173174);48.9356613159;1.0;0;0;0;0;0;0;0;0;0;();(-2000.0, -2000.0);
08:39:24:214;08:39:24:184;1448308523.76;(0.5156497955322266, 0.39176190694173174);48.9356613159;1.0;0;0;0;0;0;0;0;0;0;();(-2000.0, -2000.0);
08:39:24:229;08:39:24:184;1448308523.76;(0.5156497955322266, 0.39176190694173174);48.9356613159;1.0;0;0;0;0;0;0;0;0;0;();(-2000.0, -2000.0);
08:39:24:264;08:39:24:244;1448308523.83;(0.5152356624603271, 0.39230016072591145);49.2234687805;1.0;0;0;0;0;0;0;0;0;0;();(-2000.0, -2000.0);
08:39:24:280;08:39:24:244;1448308523.83;(0.5152356624603271, 0.39230016072591145);49.2234687805;1.0;0;0;0;0;0;0;0;0;0;();(-2000.0, -2000.0);
08:39:24:297;08:39:24:244;1448308523.83;(0.5152356624603271, 0.39230016072591145);49.2234687805;1.0;0;0;0;0;0;0;0;0;0;();(-2000.0, -2000.0);
08:39:24:315;08:39:24:312;1448308523.89;(0.5151500701904297, 0.39245677524142797);49.2318687439;1.0;0;0;0;0;0;0;0;0;0;();(-2000.0, -2000.0);
08:39:24:330;08:39:24:312;1448308523.89;(0.5151500701904297, 0.39245677524142797);49.2318687439;1.0;0;0;0;0;0;0;0;0;0;();(-2000.0, -2000.0);
08:39:24:364;08:39:24:312;1448308523.89;(0.5151500701904297, 0.39245677524142797);49.2318687439;1.0;0;0;0;0;0;0;0;0;0;();(-2000.0, -2000.0);
08:39:24:379;08:39:24:312;1448308523.89;(0.5151500701904297, 0.39245677524142797);49.2318687439;1.0;0;0;0;0;0;0;0;0;0;();(-2000.0, -2000.0);
08:39:24:398;08:39:24:382;1448308523.96;(0.5153142929077148, 0.391966289944119);49.3744010925;1.0;0;0;0;0;0;0;0;0;0;();(-2000.0, -2000.0);
08:39:24:415;08:39:24:382;1448308523.96;(0.5153142929077148, 0.391966289944119);49.3744010925;1.0;0;0;0;0;0;0;0;0;0;();(-2000.0, -2000.0);
08:39:24:431;08:39:24:382;1448308523.96;(0.5153142929077148, 0.391966289944119);49.3744010925;1.0;0;0;0;0;0;0;0;0;0;();(-2000.0, -2000.0);
08:39:24:463;08:39:24:444;1448308524.03;(0.5154635429382324, 0.39223268296983504);49.7965545654;1.0;0;0;0;0;0;0;0;0;0;();(-2000.0, -2000.0);
08:39:24:481;08:39:24:444;1448308524.03;(0.5154635429382324, 0.39223268296983504);49.7965545654;1.0;0;0;0;0;0;0;0;0;0;();(-2000.0, -2000.0);
08:39:24:498;08:39:24:444;1448308524.03;(0.5154635429382324, 0.39223268296983504);49.7965545654;1.0;0;0;0;0;0;0;0;0;0;();(-2000.0, -2000.0);
08:39:24:516;08:39:24:513;1448308524.09;(0.5153339862823486, 0.39227447509765623);49.5671768188;1.0;0;0;0;0;0;0;0;0;0;();(-2000.0, -2000.0);
08:39:24:531;08:39:24:513;1448308524.09;(0.5153339862823486, 0.39227447509765623);49.5671768188;1.0;0;0;0;0;0;0;0;0;0;();(-2000.0, -2000.0);
08:39:24:564;08:39:24:513;1448308524.09;(0.5153339862823486, 0.39227447509765623);49.5671768188;1.0;0;0;0;0;0;0;0;0;0;();(-2000.0, -2000.0);
08:39:24:581;08:39:24:577;1448308524.16;(0.5156675338745117, 0.39256362915039067);49.9707489014;1.0;0;0;0;0;0;0;0;0;0;();(-2000.0, -2000.0);
08:39:24:598;08:39:24:577;1448308524.16;(0.5156675338745117, 0.39256362915039067);49.9707489014;1.0;0;0;0;0;0;0;0;0;0;();(-2000.0, -2000.0);
08:39:24:614;08:39:24:577;1448308524.16;(0.5156675338745117, 0.39256362915039067);49.9707489014;1.0;0;0;0;0;0;0;0;0;0;();(-2000.0, -2000.0);
08:39:24:631;08:39:24:577;1448308524.16;(0.5156675338745117, 0.39256362915039067);49.9707489014;1.0;0;0;0;0;0;0;0;0;0;();(-2000.0, -2000.0);
08:39:24:664;08:39:24:650;1448308524.23;(0.5196756362915039, 0.3888529035780165);49.7667922974;1.0;0;0;0;0;0;0;0;0;0;();(-2000.0, -2000.0);
08:39:24:682;08:39:24:650;1448308524.23;(0.5196756362915039, 0.3888529035780165);49.7667922974;1.0;0;0;0;0;0;0;0;0;0;();(-2000.0, -2000.0);
08:39:24:698;08:39:24:650;1448308524.23;(0.5196756362915039, 0.3888529035780165);49.7667922974;1.0;0;0;0;0;0;0;0;0;0;();(-2000.0, -2000.0);
08:39:24:715;08:39:24:712;1448308524.29;(0.5194871902465821, 0.389192623562283);49.4682693481;1.0;0;0;0;0;0;0;0;0;0;();(-2000.0, -2000.0);
08:39:24:730;08:39:24:712;1448308524.29;(0.5194871902465821, 0.389192623562283);49.4682693481;1.0;0;0;0;0;0;0;0;0;0;();(-2000.0, -2000.0);
08:39:24:764;08:39:24:712;1448308524.29;(0.5194871902465821, 0.389192623562283);49.4682693481;1.0;0;0;0;0;0;0;0;0;0;();(-2000.0, -2000.0);
08:39:24:781;08:39:24:777;1448308524.36;(0.5197714328765869, 0.38900222778320315);49.3261566162;1.0;0;0;0;0;0;0;0;0;0;();(-2000.0, -2000.0);
08:39:24:797;08:39:24:777;1448308524.36;(0.5197714328765869, 0.38900222778320315);49.3261566162;1.0;0;0;0;0;0;0;0;0;0;();(-2000.0, -2000.0);
08:39:24:815;08:39:24:777;1448308524.36;(0.5197714328765869, 0.38900222778320315);49.3261566162;1.0;0;0;0;0;0;0;0;0;0;();(-2000.0, -2000.0);
08:39:24:831;08:39:24:777;1448308524.36;(0.5197714328765869, 0.38900222778320315);49.3261566162;1.0;0;0;0;0;0;0;0;0;0;();(-2000.0, -2000.0);
08:39:24:865;08:39:24:848;1448308524.43;(0.5200441837310791, 0.38902197943793404);49.5564117432;1.0;0;0;0;0;0;0;0;0;0;();(-2000.0, -2000.0);
08:39:24:880;08:39:24:848;1448308524.43;(0.5200441837310791, 0.38902197943793404);49.5564117432;1.0;0;0;0;0;0;0;0;0;0;();(-2000.0, -2000.0);
08:39:24:897;08:39:24:848;1448308524.43;(0.5200441837310791, 0.38902197943793404);49.5564117432;1.0;0;0;0;0;0;0;0;0;0;();(-2000.0, -2000.0);
08:39:24:915;08:39:24:912;1448308524.49;(0.519634485244751, 0.38932304382324223);49.381477356;1.0;0;0;0;0;0;0;0;0;0;();(-2000.0, -2000.0);
08:39:24:931;08:39:24:912;1448308524.49;(0.519634485244751, 0.38932304382324223);49.381477356;1.0;0;0;0;0;0;0;0;0;0;();(-2000.0, -2000.0);
08:39:24:965;08:39:24:912;1448308524.49;(0.519634485244751, 0.38932304382324223);49.381477356;1.0;0;0;0;0;0;0;0;0;0;();(-2000.0, -2000.0);
08:39:24:982;08:39:24:977;1448308524.56;(0, 0);0;0;0;0;0;0;0;0;0;0;0;();(-2000.0, -2000.0);
08:39:24:998;08:39:24:977;1448308524.56;(0, 0);0;0;0;0;0;0;0;0;0;0;0;();(-2000.0, -2000.0);
08:39:25:015;08:39:24:977;1448308524.56;(0, 0);0;0;0;0;0;0;0;0;0;0;0;();(-2000.0, -2000.0);
08:39:25:031;08:39:24:977;1448308524.56;(0, 0);0;0;0;0;0;0;0;0;0;0;0;();(-2000.0, -2000.0);
08:39:25:065;08:39:25:044;1448308524.63;(0, 0);0;0;0;0;0;0;0;0;0;0;0;();(-2000.0, -2000.0);
08:39:25:082;08:39:25:044;1448308524.63;(0, 0);0;0;0;0;0;0;0;0;0;0;0;();(-2000.0, -2000.0);
08:39:25:098;08:39:25:044;1448308524.63;(0, 0);0;0;0;0;0;0;0;0;0;0;0;();(-2000.0, -2000.0);
08:39:25:114;08:39:25:108;1448308524.69;(0.4599594593048096, 0.39779569837782114);49.6751899719;1.0;0;0;0;0;0;0;0;0;0;();(-2000.0, -2000.0);
08:39:25:131;08:39:25:108;1448308524.69;(0.4599594593048096, 0.39779569837782114);49.6751899719;1.0;0;0;0;0;0;0;0;0;0;();(-2000.0, -2000.0);
08:39:25:165;08:39:25:108;1448308524.69;(0.4599594593048096, 0.39779569837782114);49.6751899719;1.0;0;0;0;0;0;0;0;0;0;();(-2000.0, -2000.0);
08:39:25:182;08:39:25:177;1448308524.76;(0.4607124328613281, 0.39605556064181857);50.1899681091;1.0;0;0;0;0;0;0;0;0;0;();(-2000.0, -2000.0);
08:39:25:199;08:39:25:177;1448308524.76;(0.4607124328613281, 0.39605556064181857);50.1899681091;1.0;0;0;0;0;0;0;0;0;0;();(-2000.0, -2000.0);
08:39:25:215;08:39:25:177;1448308524.76;(0.4607124328613281, 0.39605556064181857);50.1899681091;1.0;0;0;0;0;0;0;0;0;0;();(-2000.0, -2000.0);
08:39:25:231;08:39:25:177;1448308524.76;(0.4607124328613281, 0.39605556064181857);50.1899681091;1.0;0;0;0;0;0;0;0;0;0;();(-2000.0, -2000.0);
08:39:25:264;08:39:25:241;1448308524.83;(0.46146187782287595, 0.39506162007649737);50.5159683228;1.0;0;0;0;0;0;0;0;0;0;();(-2000.0, -2000.0);
08:39:25:282;08:39:25:241;1448308524.83;(0.46146187782287595, 0.39506162007649737);50.5159683228;1.0;0;0;0;0;0;0;0;0;0;();(-2000.0, -2000.0);
08:39:25:298;08:39:25:241;1448308524.83;(0.46146187782287595, 0.39506162007649737);50.5159683228;1.0;0;0;0;0;0;0;0;0;0;();(-2000.0, -2000.0);
08:39:25:314;08:39:25:310;1448308524.89;(0.46210060119628904, 0.39436039394802513);50.8335723877;1.0;0;0;0;0;0;0;0;0;0;();(-2000.0, -2000.0);
08:39:25:331;08:39:25:310;1448308524.89;(0.46210060119628904, 0.39436039394802513);50.8335723877;1.0;0;0;0;0;0;0;0;0;0;();(-2000.0, -2000.0);
08:39:25:365;08:39:25:310;1448308524.89;(0.46210060119628904, 0.39436039394802513);50.8335723877;1.0;0;0;0;0;0;0;0;0;0;();(-2000.0, -2000.0);
08:39:25:382;08:39:25:372;1448308524.96;(0.46219897270202637, 0.3941427442762587);51.2143592834;1.0;0;0;0;0;0;0;0;0;0;();(-2000.0, -2000.0);
08:39:25:398;08:39:25:372;1448308524.96;(0.46219897270202637, 0.3941427442762587);51.2143592834;1.0;0;0;0;0;0;0;0;0;0;();(-2000.0, -2000.0);
08:39:25:415;08:39:25:372;1448308524.96;(0.46219897270202637, 0.3941427442762587);51.2143592834;1.0;0;0;0;0;0;0;0;0;0;();(-2000.0, -2000.0);
08:39:25:432;08:39:25:372;1448308524.96;(0.46219897270202637, 0.3941427442762587);51.2143592834;1.0;0;0;0;0;0;0;0;0;0;();(-2000.0, -2000.0);
08:39:25:465;08:39:25:440;1448308525.03;(0.46230807304382326, 0.39393289354112415);51.6086006165;1.0;0;0;0;0;0;0;0;0;0;();(-2000.0, -2000.0);
08:39:25:482;08:39:25:440;1448308525.03;(0.46230807304382326, 0.39393289354112415);51.6086006165;1.0;0;0;0;0;0;0;0;0;0;();(-2000.0, -2000.0);
08:39:25:499;08:39:25:440;1448308525.03;(0.46230807304382326, 0.39393289354112415);51.6086006165;1.0;0;0;0;0;0;0;0;0;0;();(-2000.0, -2000.0);
08:39:25:515;08:39:25:508;1448308525.09;(0.4408834934234619, 0.39315914577907984);52.3024978638;1.0;0;0;0;0;0;0;0;0;0;();(-2000.0, -2000.0);
08:39:25:531;08:39:25:508;1448308525.09;(0.4408834934234619, 0.39315914577907984);52.3024978638;1.0;0;0;0;0;0;0;0;0;0;();(-2000.0, -2000.0);
08:39:25:564;08:39:25:508;1448308525.09;(0.4408834934234619, 0.39315914577907984);52.3024978638;1.0;0;0;0;0;0;0;0;0;0;();(-2000.0, -2000.0);
08:39:25:581;08:39:25:573;1448308525.16;(0.4377406597137451, 0.39336598714192705);52.3895301819;1.0;0;0;0;0;0;0;0;0;0;();(-2000.0, -2000.0);
08:39:25:598;08:39:25:573;1448308525.16;(0.4377406597137451, 0.39336598714192705);52.3895301819;1.0;0;0;0;0;0;0;0;0;0;();(-2000.0, -2000.0);
08:39:25:616;08:39:25:573;1448308525.16;(0.4377406597137451, 0.39336598714192705);52.3895301819;1.0;0;0;0;0;0;0;0;0;0;();(-2000.0, -2000.0);
08:39:25:632;08:39:25:573;1448308525.16;(0.4377406597137451, 0.39336598714192705);52.3895301819;1.0;0;0;0;0;0;0;0;0;0;();(-2000.0, -2000.0);
08:39:25:664;08:39:25:640;1448308525.23;(0.4375039577484131, 0.3938488006591797);52.1093063354;1.0;0;0;0;0;0;0;0;0;0;();(-2000.0, -2000.0);
08:39:25:682;08:39:25:640;1448308525.23;(0.4375039577484131, 0.3938488006591797);52.1093063354;1.0;0;0;0;0;0;0;0;0;0;();(-2000.0, -2000.0);
08:39:25:697;08:39:25:640;1448308525.23;(0.4375039577484131, 0.3938488006591797);52.1093063354;1.0;0;0;0;0;0;0;0;0;0;();(-2000.0, -2000.0);
08:39:25:715;08:39:25:705;1448308525.29;(0.43729891777038576, 0.3940972222222222);51.748966217;1.0;0;0;0;0;0;0;0;0;0;();(-2000.0, -2000.0);
08:39:25:732;08:39:25:705;1448308525.29;(0.43729891777038576, 0.3940972222222222);51.748966217;1.0;0;0;0;0;0;0;0;0;0;();(-2000.0, -2000.0);
08:39:25:765;08:39:25:705;1448308525.29;(0.43729891777038576, 0.3940972222222222);51.748966217;1.0;0;0;0;0;0;0;0;0;0;();(-2000.0, -2000.0);
08:39:25:781;08:39:25:772;1448308525.36;(0.43739843368530273, 0.39388453165690107);51.3115158081;1.0;0;0;0;0;0;0;0;0;0;();(-2000.0, -2000.0);
08:39:25:799;08:39:25:772;1448308525.36;(0.43739843368530273, 0.39388453165690107);51.3115158081;1.0;0;0;0;0;0;0;0;0;0;();(-2000.0, -2000.0);
08:39:25:815;08:39:25:772;1448308525.36;(0.43739843368530273, 0.39388453165690107);51.3115158081;1.0;0;0;0;0;0;0;0;0;0;();(-2000.0, -2000.0);
08:39:25:832;08:39:25:772;1448308525.36;(0.43739843368530273, 0.39388453165690107);51.3115158081;1.0;0;0;0;0;0;0;0;0;0;();(-2000.0, -2000.0);
08:39:25:865;08:39:25:841;1448308525.43;(0.4372563362121582, 0.39381484985351567);51.2791442871;1.0;0;0;0;0;0;0;0;0;0;();(-2000.0, -2000.0);
08:39:25:882;08:39:25:841;1448308525.43;(0.4372563362121582, 0.39381484985351567);51.2791442871;1.0;0;0;0;0;0;0;0;0;0;();(-2000.0, -2000.0);
08:39:25:898;08:39:25:841;1448308525.43;(0.4372563362121582, 0.39381484985351567);51.2791442871;1.0;0;0;0;0;0;0;0;0;0;();(-2000.0, -2000.0);
08:39:25:915;08:39:25:904;1448308525.49;(0.43711342811584475, 0.3941040886773004);51.0610466003;1.0;0;0;0;0;0;0;0;0;0;();(-2000.0, -2000.0);
08:39:25:932;08:39:25:904;1448308525.49;(0.43711342811584475, 0.3941040886773004);51.0610466003;1.0;0;0;0;0;0;0;0;0;0;();(-2000.0, -2000.0);
08:39:25:966;08:39:25:904;1448308525.49;(0.43711342811584475, 0.3941040886773004);51.0610466003;1.0;0;0;0;0;0;0;0;0;0;();(-2000.0, -2000.0);
08:39:25:981;08:39:25:976;1448308525.56;(0.42771742343902586, 0.39080679151746966);50.3619270325;0.98811894836;0;0;0;0;0;0;0;0;0;();(-2000.0, -2000.0);
08:39:25:998;08:39:25:976;1448308525.56;(0.42771742343902586, 0.39080679151746966);50.3619270325;0.98811894836;0;0;0;0;0;0;0;0;0;();(-2000.0, -2000.0);
08:39:26:016;08:39:25:976;1448308525.56;(0.42771742343902586, 0.39080679151746966);50.3619270325;0.98811894836;0;0;0;0;0;0;0;0;0;();(-2000.0, -2000.0);
08:39:26:032;08:39:25:976;1448308525.56;(0.42771742343902586, 0.39080679151746966);50.3619270325;0.98811894836;0;0;0;0;0;0;0;0;0;();(-2000.0, -2000.0);
08:39:26:066;08:39:26:036;1448308525.63;(0.4099254131317139, 0.384748289320204);51.3864021301;1.0;0;0;0;0;0;0;0;0;0;();(-2000.0, -2000.0);
08:39:26:081;08:39:26:036;1448308525.63;(0.4099254131317139, 0.384748289320204);51.3864021301;1.0;0;0;0;0;0;0;0;0;0;();(-2000.0, -2000.0);
08:39:26:099;08:39:26:036;1448308525.63;(0.4099254131317139, 0.384748289320204);51.3864021301;1.0;0;0;0;0;0;0;0;0;0;();(-2000.0, -2000.0);
08:39:26:116;08:39:26:105;1448308525.69;(0.4094019651412964, 0.38489278157552087);50.5974273682;1.0;0;0;0;0;0;0;0;0;0;();(-2000.0, -2000.0);
08:39:26:133;08:39:26:105;1448308525.69;(0.4094019651412964, 0.38489278157552087);50.5974273682;1.0;0;0;0;0;0;0;0;0;0;();(-2000.0, -2000.0);
08:39:26:166;08:39:26:105;1448308525.69;(0.4094019651412964, 0.38489278157552087);50.5974273682;1.0;0;0;0;0;0;0;0;0;0;();(-2000.0, -2000.0);
08:39:26:182;08:39:26:178;1448308525.76;(0.40920162200927734, 0.38485633002387154);50.6801109314;1.0;0;0;0;0;0;0;0;0;0;();(-2000.0, -2000.0);
08:39:26:198;08:39:26:178;1448308525.76;(0.40920162200927734, 0.38485633002387154);50.6801109314;1.0;0;0;0;0;0;0;0;0;0;();(-2000.0, -2000.0);
08:39:26:216;08:39:26:178;1448308525.76;(0.40920162200927734, 0.38485633002387154);50.6801109314;1.0;0;0;0;0;0;0;0;0;0;();(-2000.0, -2000.0);
08:39:26:233;08:39:26:178;1448308525.76;(0.40920162200927734, 0.38485633002387154);50.6801109314;1.0;0;0;0;0;0;0;0;0;0;();(-2000.0, -2000.0);
08:39:26:266;08:39:26:237;1448308525.83;(0.40905160903930665, 0.3852043999565973);50.3231735229;1.0;0;0;0;0;0;0;0;0;0;();(-2000.0, -2000.0);
08:39:26:282;08:39:26:237;1448308525.83;(0.40905160903930665, 0.3852043999565973);50.3231735229;1.0;0;0;0;0;0;0;0;0;0;();(-2000.0, -2000.0);
08:39:26:300;08:39:26:237;1448308525.83;(0.40905160903930665, 0.3852043999565973);50.3231735229;1.0;0;0;0;0;0;0;0;0;0;();(-2000.0, -2000.0);
08:39:26:316;08:39:26:304;1448308525.89;(0.40894360542297364, 0.38551177978515627);50.3358535767;1.0;0;0;0;0;0;0;0;0;0;();(-2000.0, -2000.0);
08:39:26:332;08:39:26:304;1448308525.89;(0.40894360542297364, 0.38551177978515627);50.3358535767;1.0;0;0;0;0;0;0;0;0;0;();(-2000.0, -2000.0);
08:39:26:366;08:39:26:304;1448308525.89;(0.40894360542297364, 0.38551177978515627);50.3358535767;1.0;0;0;0;0;0;0;0;0;0;();(-2000.0, -2000.0);
08:39:26:383;08:39:26:304;1448308525.89;(0.40894360542297364, 0.38551177978515627);50.3358535767;1.0;0;0;0;0;0;0;0;0;0;();(-2000.0, -2000.0);
08:39:26:399;08:39:26:388;1448308525.96;(0.444639778137207, 0.385740237765842);45.1695671082;0.801006682962;0;0;0;0;0;0;0;0;0;();(-2000.0, -2000.0);
08:39:26:416;08:39:26:388;1448308525.96;(0.444639778137207, 0.385740237765842);45.1695671082;0.801006682962;0;0;0;0;0;0;0;0;0;();(-2000.0, -2000.0);
08:39:26:432;08:39:26:388;1448308525.96;(0.444639778137207, 0.385740237765842);45.1695671082;0.801006682962;0;0;0;0;0;0;0;0;0;();(-2000.0, -2000.0);
08:39:26:466;08:39:26:437;1448308526.03;(0.4611515998840332, 0.38217904832628036);49.36195755;1.0;0;0;0;0;0;0;0;0;0;();(-2000.0, -2000.0);
08:39:26:482;08:39:26:437;1448308526.03;(0.4611515998840332, 0.38217904832628036);49.36195755;1.0;0;0;0;0;0;0;0;0;0;();(-2000.0, -2000.0);
08:39:26:499;08:39:26:437;1448308526.03;(0.4611515998840332, 0.38217904832628036);49.36195755;1.0;0;0;0;0;0;0;0;0;0;();(-2000.0, -2000.0);
08:39:26:516;08:39:26:504;1448308526.09;(0.46133766174316404, 0.3824154747856988);49.1122131348;1.0;0;0;0;0;0;0;0;0;0;();(-2000.0, -2000.0);
08:39:26:533;08:39:26:504;1448308526.09;(0.46133766174316404, 0.3824154747856988);49.1122131348;1.0;0;0;0;0;0;0;0;0;0;();(-2000.0, -2000.0);
08:39:26:566;08:39:26:504;1448308526.09;(0.46133766174316404, 0.3824154747856988);49.1122131348;1.0;0;0;0;0;0;0;0;0;0;();(-2000.0, -2000.0);
08:39:26:582;08:39:26:569;1448308526.16;(0.46166529655456545, 0.38244535658094614);48.9816017151;1.0;0;0;0;0;0;0;0;0;0;();(-2000.0, -2000.0);
08:39:26:599;08:39:26:569;1448308526.16;(0.46166529655456545, 0.38244535658094614);48.9816017151;1.0;0;0;0;0;0;0;0;0;0;();(-2000.0, -2000.0);
08:39:26:616;08:39:26:569;1448308526.16;(0.46166529655456545, 0.38244535658094614);48.9816017151;1.0;0;0;0;0;0;0;0;0;0;();(-2000.0, -2000.0);
08:39:26:633;08:39:26:569;1448308526.16;(0.46166529655456545, 0.38244535658094614);48.9816017151;1.0;0;0;0;0;0;0;0;0;0;();(-2000.0, -2000.0);
08:39:26:666;08:39:26:636;1448308526.23;(0.4616241931915283, 0.38258026970757375);48.9415168762;1.0;0;0;0;0;0;0;0;0;0;();(-2000.0, -2000.0);
08:39:26:683;08:39:26:636;1448308526.23;(0.4616241931915283, 0.38258026970757375);48.9415168762;1.0;0;0;0;0;0;0;0;0;0;();(-2000.0, -2000.0);
08:39:26:699;08:39:26:636;1448308526.23;(0.4616241931915283, 0.38258026970757375);48.9415168762;1.0;0;0;0;0;0;0;0;0;0;();(-2000.0, -2000.0);
08:39:26:716;08:39:26:702;1448308526.29;(0.4615489482879639, 0.3827356974283854);49.0321426392;1.0;0;0;0;0;0;0;0;0;0;();(-2000.0, -2000.0);
08:39:26:732;08:39:26:702;1448308526.29;(0.4615489482879639, 0.3827356974283854);49.0321426392;1.0;0;0;0;0;0;0;0;0;0;();(-2000.0, -2000.0);
08:39:26:766;08:39:26:702;1448308526.29;(0.4615489482879639, 0.3827356974283854);49.0321426392;1.0;0;0;0;0;0;0;0;0;0;();(-2000.0, -2000.0);
08:39:26:783;08:39:26:770;1448308526.36;(0.46147570610046384, 0.3828580220540364);49.0443267822;1.0;0;0;0;0;0;0;0;0;0;();(-2000.0, -2000.0);
08:39:26:799;08:39:26:770;1448308526.36;(0.46147570610046384, 0.3828580220540364);49.0443267822;1.0;0;0;0;0;0;0;0;0;0;();(-2000.0, -2000.0);
08:39:26:815;08:39:26:770;1448308526.36;(0.46147570610046384, 0.3828580220540364);49.0443267822;1.0;0;0;0;0;0;0;0;0;0;();(-2000.0, -2000.0);
08:39:26:833;08:39:26:770;1448308526.36;(0.46147570610046384, 0.3828580220540364);49.0443267822;1.0;0;0;0;0;0;0;0;0;0;();(-2000.0, -2000.0);
08:39:26:850;08:39:26:840;1448308526.43;(0.46139988899230955, 0.3832828945583767);49.1380653381;1.0;0;0;0;0;0;0;0;0;0;();(-2000.0, -2000.0);
08:39:26:883;08:39:26:840;1448308526.43;(0.46139988899230955, 0.3832828945583767);49.1380653381;1.0;0;0;0;0;0;0;0;0;0;();(-2000.0, -2000.0);
08:39:26:900;08:39:26:840;1448308526.43;(0.46139988899230955, 0.3832828945583767);49.1380653381;1.0;0;0;0;0;0;0;0;0;0;();(-2000.0, -2000.0);
08:39:26:917;08:39:26:903;1448308526.49;(0.46012310981750487, 0.38522495693630643);49.3608283997;0.827407445157;0;0;0;0;0;0;0;0;0;();(-2000.0, -2000.0);
08:39:26:933;08:39:26:903;1448308526.49;(0.46012310981750487, 0.38522495693630643);49.3608283997;0.827407445157;0;0;0;0;0;0;0;0;0;();(-2000.0, -2000.0);
08:39:26:966;08:39:26:903;1448308526.49;(0.46012310981750487, 0.38522495693630643);49.3608283997;0.827407445157;0;0;0;0;0;0;0;0;0;();(-2000.0, -2000.0);
08:39:26:982;08:39:26:970;1448308526.56;(0.4593987941741943, 0.38576477898491757);49.3295211792;1.0;0;0;0;0;0;0;0;0;0;();(-2000.0, -2000.0);
08:39:27:000;08:39:26:970;1448308526.56;(0.4593987941741943, 0.38576477898491757);49.3295211792;1.0;0;0;0;0;0;0;0;0;0;();(-2000.0, -2000.0);
08:39:27:016;08:39:26:970;1448308526.56;(0.4593987941741943, 0.38576477898491757);49.3295211792;1.0;0;0;0;0;0;0;0;0;0;();(-2000.0, -2000.0);
08:39:27:033;08:39:26:970;1448308526.56;(0.4593987941741943, 0.38576477898491757);49.3295211792;1.0;0;0;0;0;0;0;0;0;0;();(-2000.0, -2000.0);
08:39:27:067;08:39:27:036;1448308526.63;(0.45809173583984375, 0.3856483883327908);49.195766449;1.0;0;0;0;0;0;0;0;0;0;();(-2000.0, -2000.0);
08:39:27:082;08:39:27:036;1448308526.63;(0.45809173583984375, 0.3856483883327908);49.195766449;1.0;0;0;0;0;0;0;0;0;0;();(-2000.0, -2000.0);
08:39:27:099;08:39:27:036;1448308526.63;(0.45809173583984375, 0.3856483883327908);49.195766449;1.0;0;0;0;0;0;0;0;0;0;();(-2000.0, -2000.0);
08:39:27:117;08:39:27:102;1448308526.69;(0.1997070550918579, 0.8665710025363498);23.1106567383;0.770400218268;0;0;0;0;0;0;0;0;0;();(-2000.0, -2000.0);
08:39:27:132;08:39:27:102;1448308526.69;(0.1997070550918579, 0.8665710025363498);23.1106567383;0.770400218268;0;0;0;0;0;0;0;0;0;();(-2000.0, -2000.0);
08:39:27:166;08:39:27:102;1448308526.69;(0.1997070550918579, 0.8665710025363498);23.1106567383;0.770400218268;0;0;0;0;0;0;0;0;0;();(-2000.0, -2000.0);
08:39:27:183;08:39:27:169;1448308526.76;(0, 0);0;0;0;0;0;0;0;0;0;0;0;();(-2000.0, -2000.0);
08:39:27:199;08:39:27:169;1448308526.76;(0, 0);0;0;0;0;0;0;0;0;0;0;0;();(-2000.0, -2000.0);
08:39:27:216;08:39:27:169;1448308526.76;(0, 0);0;0;0;0;0;0;0;0;0;0;0;();(-2000.0, -2000.0);
08:39:27:233;08:39:27:169;1448308526.76;(0, 0);0;0;0;0;0;0;0;0;0;0;0;();(-2000.0, -2000.0);
08:39:27:249;08:39:27:235;1448308526.83;(0.37903766632080077, 0.3702808380126953);48.8058319092;1.0;0;0;0;0;0;0;0;0;0;();(-2000.0, -2000.0);
08:39:27:284;08:39:27:235;1448308526.83;(0.37903766632080077, 0.3702808380126953);48.8058319092;1.0;0;0;0;0;0;0;0;0;0;();(-2000.0, -2000.0);
08:39:27:300;08:39:27:235;1448308526.83;(0.37903766632080077, 0.3702808380126953);48.8058319092;1.0;0;0;0;0;0;0;0;0;0;();(-2000.0, -2000.0);
08:39:27:317;08:39:27:303;1448308526.89;(0.37919938564300537, 0.36899757385253906);48.5215797424;1.0;0;0;0;0;0;0;0;0;0;();(-2000.0, -2000.0);
08:39:27:333;08:39:27:303;1448308526.89;(0.37919938564300537, 0.36899757385253906);48.5215797424;1.0;0;0;0;0;0;0;0;0;0;();(-2000.0, -2000.0);
08:39:27:350;08:39:27:303;1448308526.89;(0.37919938564300537, 0.36899757385253906);48.5215797424;1.0;0;0;0;0;0;0;0;0;0;();(-2000.0, -2000.0);
08:39:27:383;08:39:27:365;1448308526.96;(0.37913901805877687, 0.3683977762858073);48.4408721924;1.0;0;0;0;0;0;0;0;0;0;();(-2000.0, -2000.0);
08:39:27:400;08:39:27:365;1448308526.96;(0.37913901805877687, 0.3683977762858073);48.4408721924;1.0;0;0;0;0;0;0;0;0;0;();(-2000.0, -2000.0);
08:39:27:417;08:39:27:365;1448308526.96;(0.37913901805877687, 0.3683977762858073);48.4408721924;1.0;0;0;0;0;0;0;0;0;0;();(-2000.0, -2000.0);
08:39:27:435;08:39:27:432;1448308527.03;(0.3791482925415039, 0.368305418226454);48.4453392029;1.0;0;0;0;0;0;0;0;0;0;();(-2000.0, -2000.0);
08:39:27:450;08:39:27:432;1448308527.03;(0.3791482925415039, 0.368305418226454);48.4453392029;1.0;0;0;0;0;0;0;0;0;0;();(-2000.0, -2000.0);
08:39:27:483;08:39:27:432;1448308527.03;(0.3791482925415039, 0.368305418226454);48.4453392029;1.0;0;0;0;0;0;0;0;0;0;();(-2000.0, -2000.0);
08:39:27:500;08:39:27:432;1448308527.03;(0.3791482925415039, 0.368305418226454);48.4453392029;1.0;0;0;0;0;0;0;0;0;0;();(-2000.0, -2000.0);
08:39:27:517;08:39:27:503;1448308527.09;(0.3794461011886597, 0.3683518727620443);48.6319885254;1.0;0;0;0;0;0;0;0;0;0;();(-2000.0, -2000.0);
08:39:27:534;08:39:27:503;1448308527.09;(0.3794461011886597, 0.3683518727620443);48.6319885254;1.0;0;0;0;0;0;0;0;0;0;();(-2000.0, -2000.0);
08:39:27:550;08:39:27:503;1448308527.09;(0.3794461011886597, 0.3683518727620443);48.6319885254;1.0;0;0;0;0;0;0;0;0;0;();(-2000.0, -2000.0);
08:39:27:584;08:39:27:564;1448308527.16;(0.3796281576156616, 0.3684040917290582);48.975643158;1.0;0;0;0;0;0;0;0;0;0;();(-2000.0, -2000.0);
08:39:27:600;08:39:27:564;1448308527.16;(0.3796281576156616, 0.3684040917290582);48.975643158;1.0;0;0;0;0;0;0;0;0;0;();(-2000.0, -2000.0);
08:39:27:617;08:39:27:564;1448308527.16;(0.3796281576156616, 0.3684040917290582);48.975643158;1.0;0;0;0;0;0;0;0;0;0;();(-2000.0, -2000.0);
08:39:27:634;08:39:27:631;1448308527.19;(0.37956674098968507, 0.3683121151394314);48.9442977905;1.0;0;0;0;0;0;0;0;0;0;();(-2000.0, -2000.0);
08:39:27:650;08:39:27:632;1448308527.23;(0.3796538829803467, 0.3680308024088542);49.3737411499;1.0;0;0;0;0;0;0;0;0;0;();(-2000.0, -2000.0);
08:39:27:683;08:39:27:632;1448308527.23;(0.3796538829803467, 0.3680308024088542);49.3737411499;1.0;0;0;0;0;0;0;0;0;0;();(-2000.0, -2000.0);
08:39:27:700;08:39:27:697;1448308527.29;(0.3793834924697876, 0.3678375244140625);49.255027771;1.0;0;0;0;0;0;0;0;0;0;();(-2000.0, -2000.0);
08:39:27:717;08:39:27:697;1448308527.29;(0.3793834924697876, 0.3678375244140625);49.255027771;1.0;0;0;0;0;0;0;0;0;0;();(-2000.0, -2000.0);
08:39:27:733;08:39:27:697;1448308527.29;(0.3793834924697876, 0.3678375244140625);49.255027771;1.0;0;0;0;0;0;0;0;0;0;();(-2000.0, -2000.0);
08:39:27:750;08:39:27:697;1448308527.29;(0.3793834924697876, 0.3678375244140625);49.255027771;1.0;0;0;0;0;0;0;0;0;0;();(-2000.0, -2000.0);
08:39:27:783;08:39:27:764;1448308527.36;(0.37967064380645754, 0.36869277954101565);49.012386322;1.0;0;0;0;0;0;0;0;0;0;();(-2000.0, -2000.0);
08:39:27:800;08:39:27:764;1448308527.36;(0.37967064380645754, 0.36869277954101565);49.012386322;1.0;0;0;0;0;0;0;0;0;0;();(-2000.0, -2000.0);
08:39:27:817;08:39:27:764;1448308527.36;(0.37967064380645754, 0.36869277954101565);49.012386322;1.0;0;0;0;0;0;0;0;0;0;();(-2000.0, -2000.0);
08:39:27:834;08:39:27:831;1448308527.39;(0.3795499086380005, 0.36899333530002165);48.6611404419;1.0;0;0;0;0;0;0;0;0;0;();(-2000.0, -2000.0);
08:39:27:851;08:39:27:835;1448308527.43;(0.4020170450210571, 0.37618925306532114);53.0444297791;0.938455748747;0;0;0;0;0;0;0;0;0;();(-2000.0, -2000.0);
08:39:27:883;08:39:27:835;1448308527.43;(0.4020170450210571, 0.37618925306532114);53.0444297791;0.938455748747;0;0;0;0;0;0;0;0;0;();(-2000.0, -2000.0);
08:39:27:900;08:39:27:897;1448308527.49;(0.42038745880126954, 0.3794583214653863);48.4111671448;1.0;0;0;0;0;0;0;0;0;0;();(-2000.0, -2000.0);
08:39:27:916;08:39:27:897;1448308527.49;(0.42038745880126954, 0.3794583214653863);48.4111671448;1.0;0;0;0;0;0;0;0;0;0;();(-2000.0, -2000.0);
08:39:27:934;08:39:27:897;1448308527.49;(0.42038745880126954, 0.3794583214653863);48.4111671448;1.0;0;0;0;0;0;0;0;0;0;();(-2000.0, -2000.0);
08:39:27:951;08:39:27:897;1448308527.49;(0.42038745880126954, 0.3794583214653863);48.4111671448;1.0;0;0;0;0;0;0;0;0;0;();(-2000.0, -2000.0);
08:39:27:984;08:39:27:965;1448308527.56;(0.4206862211227417, 0.3799697028266059);47.3164749146;1.0;0;0;0;0;0;0;0;0;0;();(-2000.0, -2000.0);
08:39:28:001;08:39:27:965;1448308527.56;(0.4206862211227417, 0.3799697028266059);47.3164749146;1.0;0;0;0;0;0;0;0;0;0;();(-2000.0, -2000.0);
08:39:28:017;08:39:27:965;1448308527.56;(0.4206862211227417, 0.3799697028266059);47.3164749146;1.0;0;0;0;0;0;0;0;0;0;();(-2000.0, -2000.0);
08:39:28:033;08:39:28:029;1448308527.63;(0.4206508159637451, 0.3800633324517144);46.9181632996;1.0;0;0;0;0;0;0;0;0;0;();(-2000.0, -2000.0);
08:39:28:050;08:39:28:029;1448308527.63;(0.4206508159637451, 0.3800633324517144);46.9181632996;1.0;0;0;0;0;0;0;0;0;0;();(-2000.0, -2000.0);
08:39:28:084;08:39:28:029;1448308527.63;(0.4206508159637451, 0.3800633324517144);46.9181632996;1.0;0;0;0;0;0;0;0;0;0;();(-2000.0, -2000.0);
08:39:28:101;08:39:28:095;1448308527.66;(0.42095394134521485, 0.38030849032931857);46.601764679;1.0;0;0;0;0;0;0;0;0;0;();(-2000.0, -2000.0);
08:39:28:117;08:39:28:095;1448308527.66;(0.42095394134521485, 0.38030849032931857);46.601764679;1.0;0;0;0;0;0;0;0;0;0;();(-2000.0, -2000.0);
08:39:28:134;08:39:28:095;1448308527.66;(0.42095394134521485, 0.38030849032931857);46.601764679;1.0;0;0;0;0;0;0;0;0;0;();(-2000.0, -2000.0);
08:39:28:151;08:39:28:095;1448308527.66;(0.42095394134521485, 0.38030849032931857);46.601764679;1.0;0;0;0;0;0;0;0;0;0;();(-2000.0, -2000.0);
08:39:28:184;08:39:28:166;1448308527.76;(0.42112483978271487, 0.38096466064453127);45.9764976501;1.0;0;0;0;0;0;0;0;0;0;();(-2000.0, -2000.0);
08:39:28:200;08:39:28:166;1448308527.76;(0.42112483978271487, 0.38096466064453127);45.9764976501;1.0;0;0;0;0;0;0;0;0;0;();(-2000.0, -2000.0);
08:39:28:217;08:39:28:166;1448308527.76;(0.42112483978271487, 0.38096466064453127);45.9764976501;1.0;0;0;0;0;0;0;0;0;0;();(-2000.0, -2000.0);
08:39:28:234;08:39:28:229;1448308527.83;(0.42136268615722655, 0.38124453226725263);45.7057342529;1.0;0;0;0;0;0;0;0;0;0;();(-2000.0, -2000.0);
08:39:28:251;08:39:28:229;1448308527.83;(0.42136268615722655, 0.38124453226725263);45.7057342529;1.0;0;0;0;0;0;0;0;0;0;();(-2000.0, -2000.0);
08:39:28:283;08:39:28:229;1448308527.83;(0.42136268615722655, 0.38124453226725263);45.7057342529;1.0;0;0;0;0;0;0;0;0;0;();(-2000.0, -2000.0);
08:39:28:300;08:39:28:296;1448308527.89;(0.4211032152175903, 0.3810549841986762);45.546875;1.0;0;0;0;0;0;0;0;0;0;();(-2000.0, -2000.0);
08:39:28:317;08:39:28:296;1448308527.89;(0.4211032152175903, 0.3810549841986762);45.546875;1.0;0;0;0;0;0;0;0;0;0;();(-2000.0, -2000.0);
08:39:28:334;08:39:28:296;1448308527.89;(0.4211032152175903, 0.3810549841986762);45.546875;1.0;0;0;0;0;0;0;0;0;0;();(-2000.0, -2000.0);
08:39:28:351;08:39:28:296;1448308527.89;(0.4211032152175903, 0.3810549841986762);45.546875;1.0;0;0;0;0;0;0;0;0;0;();(-2000.0, -2000.0);
08:39:28:384;08:39:28:359;1448308527.93;(0.4210934638977051, 0.38117014567057295);45.5086669922;1.0;0;0;0;0;0;0;0;0;0;();(-2000.0, -2000.0);
08:39:28:401;08:39:28:359;1448308527.93;(0.4210934638977051, 0.38117014567057295);45.5086669922;1.0;0;0;0;0;0;0;0;0;0;();(-2000.0, -2000.0);
08:39:28:418;08:39:28:359;1448308527.93;(0.4210934638977051, 0.38117014567057295);45.5086669922;1.0;0;0;0;0;0;0;0;0;0;();(-2000.0, -2000.0);
08:39:28:435;08:39:28:430;1448308528.03;(0.4212745904922485, 0.3812192704942491);45.4902229309;1.0;0;0;0;0;0;0;0;0;0;();(-2000.0, -2000.0);
08:39:28:450;08:39:28:430;1448308528.03;(0.4212745904922485, 0.3812192704942491);45.4902229309;1.0;0;0;0;0;0;0;0;0;0;();(-2000.0, -2000.0);
08:39:28:484;08:39:28:430;1448308528.03;(0.4212745904922485, 0.3812192704942491);45.4902229309;1.0;0;0;0;0;0;0;0;0;0;();(-2000.0, -2000.0);
08:39:28:500;08:39:28:491;1448308528.06;(0.42130374908447266, 0.38103955586751304);45.5445556641;1.0;0;0;0;0;0;0;0;0;0;();(-2000.0, -2000.0);
08:39:28:518;08:39:28:491;1448308528.06;(0.42130374908447266, 0.38103955586751304);45.5445556641;1.0;0;0;0;0;0;0;0;0;0;();(-2000.0, -2000.0);
08:39:28:534;08:39:28:491;1448308528.06;(0.42130374908447266, 0.38103955586751304);45.5445556641;1.0;0;0;0;0;0;0;0;0;0;();(-2000.0, -2000.0);
08:39:28:550;08:39:28:491;1448308528.06;(0.42130374908447266, 0.38103955586751304);45.5445556641;1.0;0;0;0;0;0;0;0;0;0;();(-2000.0, -2000.0);
08:39:28:584;08:39:28:562;1448308528.16;(0, 0);0;0;0;0;0;0;0;0;0;0;0;();(-2000.0, -2000.0);
08:39:28:601;08:39:28:562;1448308528.16;(0, 0);0;0;0;0;0;0;0;0;0;0;0;();(-2000.0, -2000.0);
08:39:28:617;08:39:28:562;1448308528.16;(0, 0);0;0;0;0;0;0;0;0;0;0;0;();(-2000.0, -2000.0);
08:39:28:633;08:39:28:628;1448308528.19;(0.5070325851440429, 0.3818661159939236);45.4835548401;1.0;0;0;0;0;0;0;0;0;0;();(-2000.0, -2000.0);
08:39:28:651;08:39:28:628;1448308528.19;(0.5070325851440429, 0.3818661159939236);45.4835548401;1.0;0;0;0;0;0;0;0;0;0;();(-2000.0, -2000.0);
08:39:28:684;08:39:28:628;1448308528.19;(0.5070325851440429, 0.3818661159939236);45.4835548401;1.0;0;0;0;0;0;0;0;0;0;();(-2000.0, -2000.0);
08:39:28:703;08:39:28:700;1448308528.29;(0.5324704647064209, 0.37269011603461366);45.0424575806;1.0;0;0;0;0;0;0;0;0;0;();(-2000.0, -2000.0);
08:39:28:717;08:39:28:700;1448308528.29;(0.5324704647064209, 0.37269011603461366);45.0424575806;1.0;0;0;0;0;0;0;0;0;0;();(-2000.0, -2000.0);
08:39:28:735;08:39:28:700;1448308528.29;(0.5324704647064209, 0.37269011603461366);45.0424575806;1.0;0;0;0;0;0;0;0;0;0;();(-2000.0, -2000.0);
08:39:28:751;08:39:28:700;1448308528.29;(0.5324704647064209, 0.37269011603461366);45.0424575806;1.0;0;0;0;0;0;0;0;0;0;();(-2000.0, -2000.0);
08:39:28:785;08:39:28:760;1448308528.36;(0.5337320804595947, 0.37249454922146263);45.1424369812;1.0;0;0;0;0;0;0;0;0;0;();(-2000.0, -2000.0);
08:39:28:801;08:39:28:760;1448308528.36;(0.5337320804595947, 0.37249454922146263);45.1424369812;1.0;0;0;0;0;0;0;0;0;0;();(-2000.0, -2000.0);
08:39:28:818;08:39:28:760;1448308528.36;(0.5337320804595947, 0.37249454922146263);45.1424369812;1.0;0;0;0;0;0;0;0;0;0;();(-2000.0, -2000.0);
08:39:28:835;08:39:28:825;1448308528.43;(0.5340744018554687, 0.3719305250379774);46.1282272339;1.0;0;0;0;0;0;0;0;0;0;();(-2000.0, -2000.0);
08:39:28:851;08:39:28:825;1448308528.43;(0.5340744018554687, 0.3719305250379774);46.1282272339;1.0;0;0;0;0;0;0;0;0;0;();(-2000.0, -2000.0);
08:39:28:885;08:39:28:825;1448308528.43;(0.5340744018554687, 0.3719305250379774);46.1282272339;1.0;0;0;0;0;0;0;0;0;0;();(-2000.0, -2000.0);
08:39:28:901;08:39:28:893;1448308528.49;(0.5343480110168457, 0.3707007514105902);46.4864006042;1.0;0;0;0;0;0;0;0;0;0;();(-2000.0, -2000.0);
08:39:28:918;08:39:28:893;1448308528.49;(0.5343480110168457, 0.3707007514105902);46.4864006042;1.0;0;0;0;0;0;0;0;0;0;();(-2000.0, -2000.0);
08:39:28:934;08:39:28:893;1448308528.49;(0.5343480110168457, 0.3707007514105902);46.4864006042;1.0;0;0;0;0;0;0;0;0;0;();(-2000.0, -2000.0);
08:39:28:951;08:39:28:893;1448308528.49;(0.5343480110168457, 0.3707007514105902);46.4864006042;1.0;0;0;0;0;0;0;0;0;0;();(-2000.0, -2000.0);
08:39:28:984;08:39:28:960;1448308528.56;(0.5346798419952392, 0.37040206061469183);47.0769958496;1.0;0;0;0;0;0;0;0;0;0;();(-2000.0, -2000.0);
08:39:29:002;08:39:28:960;1448308528.56;(0.5346798419952392, 0.37040206061469183);47.0769958496;1.0;0;0;0;0;0;0;0;0;0;();(-2000.0, -2000.0);
08:39:29:018;08:39:28:960;1448308528.56;(0.5346798419952392, 0.37040206061469183);47.0769958496;1.0;0;0;0;0;0;0;0;0;0;();(-2000.0, -2000.0);
08:39:29:035;08:39:29:024;1448308528.63;(0.5349316120147705, 0.37054337395562065);48.1046714783;1.0;0;0;0;0;0;0;0;0;0;();(-2000.0, -2000.0);
08:39:29:051;08:39:29:024;1448308528.63;(0.5349316120147705, 0.37054337395562065);48.1046714783;1.0;0;0;0;0;0;0;0;0;0;();(-2000.0, -2000.0);
08:39:29:085;08:39:29:024;1448308528.63;(0.5349316120147705, 0.37054337395562065);48.1046714783;1.0;0;0;0;0;0;0;0;0;0;();(-2000.0, -2000.0);
08:39:29:101;08:39:29:092;1448308528.69;(0.534954833984375, 0.37020085652669266);48.6915435791;1.0;0;0;0;0;0;0;0;0;0;();(-2000.0, -2000.0);
08:39:29:118;08:39:29:092;1448308528.69;(0.534954833984375, 0.37020085652669266);48.6915435791;1.0;0;0;0;0;0;0;0;0;0;();(-2000.0, -2000.0);
08:39:29:135;08:39:29:092;1448308528.69;(0.534954833984375, 0.37020085652669266);48.6915435791;1.0;0;0;0;0;0;0;0;0;0;();(-2000.0, -2000.0);
08:39:29:152;08:39:29:092;1448308528.69;(0.534954833984375, 0.37020085652669266);48.6915435791;1.0;0;0;0;0;0;0;0;0;0;();(-2000.0, -2000.0);
08:39:29:184;08:39:29:157;1448308528.76;(0.5344539642333984, 0.37008522881401906);49.5324020386;1.0;0;0;0;0;0;0;0;0;0;();(-2000.0, -2000.0);
08:39:29:202;08:39:29:157;1448308528.76;(0.5344539642333984, 0.37008522881401906);49.5324020386;1.0;0;0;0;0;0;0;0;0;0;();(-2000.0, -2000.0);
08:39:29:219;08:39:29:157;1448308528.76;(0.5344539642333984, 0.37008522881401906);49.5324020386;1.0;0;0;0;0;0;0;0;0;0;();(-2000.0, -2000.0);
08:39:29:234;08:39:29:224;1448308528.79;(0.5343777179718018, 0.36988716125488286);49.7328987122;1.0;0;0;0;0;0;0;0;0;0;();(-2000.0, -2000.0);
08:39:29:250;08:39:29:224;1448308528.79;(0.5343777179718018, 0.36988716125488286);49.7328987122;1.0;0;0;0;0;0;0;0;0;0;();(-2000.0, -2000.0);
08:39:29:285;08:39:29:224;1448308528.79;(0.5343777179718018, 0.36988716125488286);49.7328987122;1.0;0;0;0;0;0;0;0;0;0;();(-2000.0, -2000.0);
08:39:29:302;08:39:29:294;1448308528.89;(0.5060677051544189, 0.3609971364339193);45.3351516724;0.637629293284;0;0;0;0;0;0;0;0;0;();(-2000.0, -2000.0);
08:39:29:318;08:39:29:294;1448308528.89;(0.5060677051544189, 0.3609971364339193);45.3351516724;0.637629293284;0;0;0;0;0;0;0;0;0;();(-2000.0, -2000.0);
08:39:29:334;08:39:29:294;1448308528.89;(0.5060677051544189, 0.3609971364339193);45.3351516724;0.637629293284;0;0;0;0;0;0;0;0;0;();(-2000.0, -2000.0);
08:39:29:351;08:39:29:294;1448308528.89;(0.5060677051544189, 0.3609971364339193);45.3351516724;0.637629293284;0;0;0;0;0;0;0;0;0;();(-2000.0, -2000.0);
08:39:29:385;08:39:29:355;1448308528.93;(0.49979605674743655, 0.37860001458062065);51.4968109131;1.0;0;0;0;0;0;0;0;0;0;();(-2000.0, -2000.0);
08:39:29:401;08:39:29:355;1448308528.93;(0.49979605674743655, 0.37860001458062065);51.4968109131;1.0;0;0;0;0;0;0;0;0;0;();(-2000.0, -2000.0);
08:39:29:419;08:39:29:355;1448308528.93;(0.49979605674743655, 0.37860001458062065);51.4968109131;1.0;0;0;0;0;0;0;0;0;0;();(-2000.0, -2000.0);
08:39:29:435;08:39:29:425;1448308528.99;(0.49945640563964844, 0.3794052971733941);51.9371337891;1.0;0;0;0;0;0;0;0;0;0;();(-2000.0, -2000.0);
08:39:29:451;08:39:29:425;1448308528.99;(0.49945640563964844, 0.3794052971733941);51.9371337891;1.0;0;0;0;0;0;0;0;0;0;();(-2000.0, -2000.0);
08:39:29:485;08:39:29:425;1448308528.99;(0.49945640563964844, 0.3794052971733941);51.9371337891;1.0;0;0;0;0;0;0;0;0;0;();(-2000.0, -2000.0);
08:39:29:502;08:39:29:489;1448308529.06;(0.49949259757995607, 0.3798289404975044);52.3184127808;1.0;0;0;0;0;0;0;0;0;0;();(-2000.0, -2000.0);
08:39:29:519;08:39:29:489;1448308529.06;(0.49949259757995607, 0.3798289404975044);52.3184127808;1.0;0;0;0;0;0;0;0;0;0;();(-2000.0, -2000.0);
08:39:29:535;08:39:29:489;1448308529.06;(0.49949259757995607, 0.3798289404975044);52.3184127808;1.0;0;0;0;0;0;0;0;0;0;();(-2000.0, -2000.0);
08:39:29:552;08:39:29:489;1448308529.06;(0.49949259757995607, 0.3798289404975044);52.3184127808;1.0;0;0;0;0;0;0;0;0;0;();(-2000.0, -2000.0);
08:39:29:585;08:39:29:557;1448308529.13;(0.49958457946777346, 0.3805453830295139);52.344871521;1.0;0;0;0;0;0;0;0;0;0;();(-2000.0, -2000.0);
08:39:29:601;08:39:29:557;1448308529.13;(0.49958457946777346, 0.3805453830295139);52.344871521;1.0;0;0;0;0;0;0;0;0;0;();(-2000.0, -2000.0);
08:39:29:619;08:39:29:557;1448308529.13;(0.49958457946777346, 0.3805453830295139);52.344871521;1.0;0;0;0;0;0;0;0;0;0;();(-2000.0, -2000.0);
08:39:29:635;08:39:29:624;1448308529.19;(0.4991631031036377, 0.381007809109158);52.4397010803;1.0;0;0;0;0;0;0;0;0;0;();(-2000.0, -2000.0);
08:39:29:651;08:39:29:624;1448308529.19;(0.4991631031036377, 0.381007809109158);52.4397010803;1.0;0;0;0;0;0;0;0;0;0;();(-2000.0, -2000.0);
08:39:29:686;08:39:29:624;1448308529.19;(0.4991631031036377, 0.381007809109158);52.4397010803;1.0;0;0;0;0;0;0;0;0;0;();(-2000.0, -2000.0);
08:39:29:702;08:39:29:689;1448308529.26;(0.49536709785461425, 0.38491066826714415);52.5041503906;1.0;0;0;0;0;0;0;0;0;0;();(-2000.0, -2000.0);
08:39:29:718;08:39:29:689;1448308529.26;(0.49536709785461425, 0.38491066826714415);52.5041503906;1.0;0;0;0;0;0;0;0;0;0;();(-2000.0, -2000.0);
08:39:29:734;08:39:29:689;1448308529.26;(0.49536709785461425, 0.38491066826714415);52.5041503906;1.0;0;0;0;0;0;0;0;0;0;();(-2000.0, -2000.0);
08:39:29:751;08:39:29:689;1448308529.26;(0.49536709785461425, 0.38491066826714415);52.5041503906;1.0;0;0;0;0;0;0;0;0;0;();(-2000.0, -2000.0);
08:39:29:785;08:39:29:763;1448308529.36;(0.49538364410400393, 0.38478427463107634);52.3988075256;1.0;0;0;0;0;0;0;0;0;0;();(-2000.0, -2000.0);
08:39:29:801;08:39:29:763;1448308529.36;(0.49538364410400393, 0.38478427463107634);52.3988075256;1.0;0;0;0;0;0;0;0;0;0;();(-2000.0, -2000.0);
08:39:29:818;08:39:29:763;1448308529.36;(0.49538364410400393, 0.38478427463107634);52.3988075256;1.0;0;0;0;0;0;0;0;0;0;();(-2000.0, -2000.0);
08:39:29:835;08:39:29:820;1448308529.39;(0.49556894302368165, 0.3847500271267361);52.2557983398;1.0;0;0;0;0;0;0;0;0;0;();(-2000.0, -2000.0);
08:39:29:852;08:39:29:820;1448308529.39;(0.49556894302368165, 0.3847500271267361);52.2557983398;1.0;0;0;0;0;0;0;0;0;0;();(-2000.0, -2000.0);
08:39:29:885;08:39:29:820;1448308529.39;(0.49556894302368165, 0.3847500271267361);52.2557983398;1.0;0;0;0;0;0;0;0;0;0;();(-2000.0, -2000.0);
08:39:29:902;08:39:29:889;1448308529.49;(0.49552149772644044, 0.38532218933105467);52.1850280762;1.0;0;0;0;0;0;0;0;0;0;();(-2000.0, -2000.0);
08:39:29:919;08:39:29:889;1448308529.49;(0.49552149772644044, 0.38532218933105467);52.1850280762;1.0;0;0;0;0;0;0;0;0;0;();(-2000.0, -2000.0);
08:39:29:936;08:39:29:889;1448308529.49;(0.49552149772644044, 0.38532218933105467);52.1850280762;1.0;0;0;0;0;0;0;0;0;0;();(-2000.0, -2000.0);
08:39:29:952;08:39:29:889;1448308529.49;(0.49552149772644044, 0.38532218933105467);52.1850280762;1.0;0;0;0;0;0;0;0;0;0;();(-2000.0, -2000.0);
08:39:29:986;08:39:29:957;1448308529.56;(0.5038220405578613, 0.3908294677734375);52.0214271545;1.0;0;0;0;0;0;0;0;0;0;();(-2000.0, -2000.0);
08:39:30:002;08:39:29:957;1448308529.56;(0.5038220405578613, 0.3908294677734375);52.0214271545;1.0;0;0;0;0;0;0;0;0;0;();(-2000.0, -2000.0);
08:39:30:019;08:39:29:957;1448308529.56;(0.5038220405578613, 0.3908294677734375);52.0214271545;1.0;0;0;0;0;0;0;0;0;0;();(-2000.0, -2000.0);
08:39:30:036;08:39:30:021;1448308529.59;(0.5061666011810303, 0.39147851732042105);51.9279441833;1.0;0;0;0;0;0;0;0;0;0;();(-2000.0, -2000.0);
08:39:30:053;08:39:30:021;1448308529.59;(0.5061666011810303, 0.39147851732042105);51.9279441833;1.0;0;0;0;0;0;0;0;0;0;();(-2000.0, -2000.0);
08:39:30:086;08:39:30:021;1448308529.59;(0.5061666011810303, 0.39147851732042105);51.9279441833;1.0;0;0;0;0;0;0;0;0;0;();(-2000.0, -2000.0);
08:39:30:102;08:39:30:089;1448308529.66;(0.5061487197875977, 0.3919659932454427);51.8560142517;1.0;0;0;0;0;0;0;0;0;0;();(-2000.0, -2000.0);
08:39:30:119;08:39:30:089;1448308529.66;(0.5061487197875977, 0.3919659932454427);51.8560142517;1.0;0;0;0;0;0;0;0;0;0;();(-2000.0, -2000.0);
08:39:30:136;08:39:30:089;1448308529.66;(0.5061487197875977, 0.3919659932454427);51.8560142517;1.0;0;0;0;0;0;0;0;0;0;();(-2000.0, -2000.0);
08:39:30:151;08:39:30:089;1448308529.66;(0.5061487197875977, 0.3919659932454427);51.8560142517;1.0;0;0;0;0;0;0;0;0;0;();(-2000.0, -2000.0);
08:39:30:186;08:39:30:155;1448308529.73;(0.5058269500732422, 0.39263157314724395);51.7833900452;1.0;0;0;0;0;0;0;0;0;0;();(-2000.0, -2000.0);
08:39:30:201;08:39:30:155;1448308529.73;(0.5058269500732422, 0.39263157314724395);51.7833900452;1.0;0;0;0;0;0;0;0;0;0;();(-2000.0, -2000.0);
08:39:30:219;08:39:30:155;1448308529.73;(0.5058269500732422, 0.39263157314724395);51.7833900452;1.0;0;0;0;0;0;0;0;0;0;();(-2000.0, -2000.0);
08:39:30:236;08:39:30:222;1448308529.79;(0, 0);0;0;0;0;0;0;0;0;0;0;0;();(-2000.0, -2000.0);
08:39:30:251;08:39:30:222;1448308529.79;(0, 0);0;0;0;0;0;0;0;0;0;0;0;();(-2000.0, -2000.0);
08:39:30:285;08:39:30:222;1448308529.79;(0, 0);0;0;0;0;0;0;0;0;0;0;0;();(-2000.0, -2000.0);
08:39:30:302;08:39:30:289;1448308529.86;(0, 0);0;0;0;0;0;0;0;0;0;0;0;();(-2000.0, -2000.0);
08:39:30:318;08:39:30:289;1448308529.86;(0, 0);0;0;0;0;0;0;0;0;0;0;0;();(-2000.0, -2000.0);
08:39:30:336;08:39:30:289;1448308529.86;(0, 0);0;0;0;0;0;0;0;0;0;0;0;();(-2000.0, -2000.0);
08:39:30:352;08:39:30:289;1448308529.86;(0, 0);0;0;0;0;0;0;0;0;0;0;0;();(-2000.0, -2000.0);
08:39:30:387;08:39:30:356;1448308529.93;(0.5065033912658692, 0.3964915381537544);50.5614738464;1.0;0;0;0;0;0;0;0;0;0;();(-2000.0, -2000.0);
08:39:30:403;08:39:30:356;1448308529.93;(0.5065033912658692, 0.3964915381537544);50.5614738464;1.0;0;0;0;0;0;0;0;0;0;();(-2000.0, -2000.0);
08:39:30:419;08:39:30:356;1448308529.93;(0.5065033912658692, 0.3964915381537544);50.5614738464;1.0;0;0;0;0;0;0;0;0;0;();(-2000.0, -2000.0);
08:39:30:436;08:39:30:423;1448308530.03;(0.507433271408081, 0.39430156283908424);50.4354667664;1.0;0;0;0;0;0;0;0;0;0;();(-2000.0, -2000.0);
08:39:30:452;08:39:30:423;1448308530.03;(0.507433271408081, 0.39430156283908424);50.4354667664;1.0;0;0;0;0;0;0;0;0;0;();(-2000.0, -2000.0);
08:39:30:485;08:39:30:483;1448308530.06;(0, 0);0;0;0;0;0;0;0;0;0;0;0;();(-2000.0, -2000.0);
08:39:30:503;08:39:30:483;1448308530.06;(0, 0);0;0;0;0;0;0;0;0;0;0;0;();(-2000.0, -2000.0);
08:39:30:519;08:39:30:483;1448308530.06;(0, 0);0;0;0;0;0;0;0;0;0;0;0;();(-2000.0, -2000.0);
08:39:30:537;08:39:30:483;1448308530.06;(0, 0);0;0;0;0;0;0;0;0;0;0;0;();(-2000.0, -2000.0);
08:39:30:552;08:39:30:483;1448308530.06;(0, 0);0;0;0;0;0;0;0;0;0;0;0;();(-2000.0, -2000.0);
08:39:30:587;08:39:30:555;1448308530.13;(0, 0);0;0;0;0;0;0;0;0;0;0;0;();(-2000.0, -2000.0);
08:39:30:603;08:39:30:555;1448308530.13;(0, 0);0;0;0;0;0;0;0;0;0;0;0;();(-2000.0, -2000.0);
08:39:30:618;08:39:30:555;1448308530.13;(0, 0);0;0;0;0;0;0;0;0;0;0;0;();(-2000.0, -2000.0);
08:39:30:637;08:39:30:621;1448308530.19;(0.5093340396881103, 0.396806886461046);50.1696624756;1.0;0;0;0;0;0;0;0;0;0;();(-2000.0, -2000.0);
08:39:30:652;08:39:30:621;1448308530.19;(0.5093340396881103, 0.396806886461046);50.1696624756;1.0;0;0;0;0;0;0;0;0;0;();(-2000.0, -2000.0);
08:39:30:686;08:39:30:621;1448308530.19;(0.5093340396881103, 0.396806886461046);50.1696624756;1.0;0;0;0;0;0;0;0;0;0;();(-2000.0, -2000.0);
08:39:30:702;08:39:30:689;1448308530.26;(0.5109494686126709, 0.39401546054416237);50.3331832886;1.0;0;0;0;0;0;0;0;0;0;();(-2000.0, -2000.0);
08:39:30:720;08:39:30:689;1448308530.26;(0.5109494686126709, 0.39401546054416237);50.3331832886;1.0;0;0;0;0;0;0;0;0;0;();(-2000.0, -2000.0);
08:39:30:737;08:39:30:689;1448308530.26;(0.5109494686126709, 0.39401546054416237);50.3331832886;1.0;0;0;0;0;0;0;0;0;0;();(-2000.0, -2000.0);
08:39:30:752;08:39:30:689;1448308530.26;(0.5109494686126709, 0.39401546054416237);50.3331832886;1.0;0;0;0;0;0;0;0;0;0;();(-2000.0, -2000.0);
08:39:30:786;08:39:30:754;1448308530.33;(0.5119636058807373, 0.3923726399739583);50.5571022034;1.0;0;0;0;0;0;0;0;0;0;();(-2000.0, -2000.0);
08:39:30:803;08:39:30:754;1448308530.33;(0.5119636058807373, 0.3923726399739583);50.5571022034;1.0;0;0;0;0;0;0;0;0;0;();(-2000.0, -2000.0);
08:39:30:820;08:39:30:817;1448308530.39;(0.5122165203094482, 0.39194018046061196);50.6442565918;1.0;0;0;0;0;0;0;0;0;0;();(-2000.0, -2000.0);
08:39:30:836;08:39:30:817;1448308530.39;(0.5122165203094482, 0.39194018046061196);50.6442565918;1.0;0;0;0;0;0;0;0;0;0;();(-2000.0, -2000.0);
08:39:30:853;08:39:30:817;1448308530.39;(0.5122165203094482, 0.39194018046061196);50.6442565918;1.0;0;0;0;0;0;0;0;0;0;();(-2000.0, -2000.0);
08:39:30:870;08:39:30:817;1448308530.39;(0.5122165203094482, 0.39194018046061196);50.6442565918;1.0;0;0;0;0;0;0;0;0;0;();(-2000.0, -2000.0);
08:39:30:903;08:39:30:885;1448308530.46;(0.5125247001647949, 0.3919702317979601);50.8634185791;1.0;0;0;0;0;0;0;0;0;0;();(-2000.0, -2000.0);
08:39:30:919;08:39:30:885;1448308530.46;(0.5125247001647949, 0.3919702317979601);50.8634185791;1.0;0;0;0;0;0;0;0;0;0;();(-2000.0, -2000.0);
08:39:30:937;08:39:30:885;1448308530.46;(0.5125247001647949, 0.3919702317979601);50.8634185791;1.0;0;0;0;0;0;0;0;0;0;();(-2000.0, -2000.0);
08:39:30:953;08:39:30:885;1448308530.46;(0.5125247001647949, 0.3919702317979601);50.8634185791;1.0;0;0;0;0;0;0;0;0;0;();(-2000.0, -2000.0);
08:39:30:970;08:39:30:956;1448308530.53;(0.5123422622680665, 0.39146999782986114);51.0794487;1.0;0;0;0;0;0;0;0;0;0;();(-2000.0, -2000.0);
08:39:31:003;08:39:30:956;1448308530.53;(0.5123422622680665, 0.39146999782986114);51.0794487;1.0;0;0;0;0;0;0;0;0;0;();(-2000.0, -2000.0);
08:39:31:020;08:39:31:017;1448308530.59;(0.5121516704559326, 0.39167675442165795);51.3980674744;1.0;0;0;0;0;0;0;0;0;0;();(-2000.0, -2000.0);
08:39:31:037;08:39:31:017;1448308530.59;(0.5121516704559326, 0.39167675442165795);51.3980674744;1.0;0;0;0;0;0;0;0;0;0;();(-2000.0, -2000.0);
08:39:31:052;08:39:31:017;1448308530.59;(0.5121516704559326, 0.39167675442165795);51.3980674744;1.0;0;0;0;0;0;0;0;0;0;();(-2000.0, -2000.0);
08:39:31:070;08:39:31:017;1448308530.59;(0.5121516704559326, 0.39167675442165795);51.3980674744;1.0;0;0;0;0;0;0;0;0;0;();(-2000.0, -2000.0);
08:39:31:103;08:39:31:084;1448308530.66;(0.49075608253479003, 0.3774172041151259);51.8232078552;1.0;0;0;0;0;0;0;0;0;0;();(-2000.0, -2000.0);
08:39:31:119;08:39:31:084;1448308530.66;(0.49075608253479003, 0.3774172041151259);51.8232078552;1.0;0;0;0;0;0;0;0;0;0;();(-2000.0, -2000.0);
08:39:31:137;08:39:31:084;1448308530.66;(0.49075608253479003, 0.3774172041151259);51.8232078552;1.0;0;0;0;0;0;0;0;0;0;();(-2000.0, -2000.0);
08:39:31:153;08:39:31:148;1448308530.73;(0.48638453483581545, 0.37392684088812933);52.0603904724;1.0;0;0;0;0;0;0;0;0;0;();(-2000.0, -2000.0);
08:39:31:170;08:39:31:148;1448308530.73;(0.48638453483581545, 0.37392684088812933);52.0603904724;1.0;0;0;0;0;0;0;0;0;0;();(-2000.0, -2000.0);
08:39:31:202;08:39:31:148;1448308530.73;(0.48638453483581545, 0.37392684088812933);52.0603904724;1.0;0;0;0;0;0;0;0;0;0;();(-2000.0, -2000.0);
08:39:31:220;08:39:31:217;1448308530.79;(0.48626270294189455, 0.37413609822591143);51.9374160767;1.0;0;0;0;0;0;0;0;0;0;();(-2000.0, -2000.0);
08:39:31:237;08:39:31:217;1448308530.79;(0.48626270294189455, 0.37413609822591143);51.9374160767;1.0;0;0;0;0;0;0;0;0;0;();(-2000.0, -2000.0);
08:39:31:253;08:39:31:217;1448308530.79;(0.48626270294189455, 0.37413609822591143);51.9374160767;1.0;0;0;0;0;0;0;0;0;0;();(-2000.0, -2000.0);
08:39:31:269;08:39:31:217;1448308530.79;(0.48626270294189455, 0.37413609822591143);51.9374160767;1.0;0;0;0;0;0;0;0;0;0;();(-2000.0, -2000.0);
08:39:31:304;08:39:31:281;1448308530.86;(0.4863117218017578, 0.37413088480631507);51.9916687012;1.0;0;0;0;0;0;0;0;0;0;();(-2000.0, -2000.0);
08:39:31:321;08:39:31:281;1448308530.86;(0.4863117218017578, 0.37413088480631507);51.9916687012;1.0;0;0;0;0;0;0;0;0;0;();(-2000.0, -2000.0);
08:39:31:336;08:39:31:281;1448308530.86;(0.4863117218017578, 0.37413088480631507);51.9916687012;1.0;0;0;0;0;0;0;0;0;0;();(-2000.0, -2000.0);
08:39:31:353;08:39:31:349;1448308530.93;(0.4817391872406006, 0.3701890309651693);52.1732368469;1.0;0;0;0;0;0;0;0;0;0;();(-2000.0, -2000.0);
08:39:31:370;08:39:31:349;1448308530.93;(0.4817391872406006, 0.3701890309651693);52.1732368469;1.0;0;0;0;0;0;0;0;0;0;();(-2000.0, -2000.0);
08:39:31:403;08:39:31:349;1448308530.93;(0.4817391872406006, 0.3701890309651693);52.1732368469;1.0;0;0;0;0;0;0;0;0;0;();(-2000.0, -2000.0);
08:39:31:420;08:39:31:416;1448308530.99;(0.48093204498291015, 0.3684501224093967);52.3036613464;1.0;0;0;0;0;0;0;0;0;0;();(-2000.0, -2000.0);
08:39:31:437;08:39:31:416;1448308530.99;(0.48093204498291015, 0.3684501224093967);52.3036613464;1.0;0;0;0;0;0;0;0;0;0;();(-2000.0, -2000.0);
08:39:31:453;08:39:31:416;1448308530.99;(0.48093204498291015, 0.3684501224093967);52.3036613464;1.0;0;0;0;0;0;0;0;0;0;();(-2000.0, -2000.0);
08:39:31:469;08:39:31:416;1448308530.99;(0.48093204498291015, 0.3684501224093967);52.3036613464;1.0;0;0;0;0;0;0;0;0;0;();(-2000.0, -2000.0);
08:39:31:504;08:39:31:481;1448308531.06;(0.48080811500549314, 0.36901940239800346);52.1810188293;1.0;0;0;0;0;0;0;0;0;0;();(-2000.0, -2000.0);
08:39:31:520;08:39:31:481;1448308531.06;(0.48080811500549314, 0.36901940239800346);52.1810188293;1.0;0;0;0;0;0;0;0;0;0;();(-2000.0, -2000.0);
08:39:31:537;08:39:31:481;1448308531.06;(0.48080811500549314, 0.36901940239800346);52.1810188293;1.0;0;0;0;0;0;0;0;0;0;();(-2000.0, -2000.0);
08:39:31:554;08:39:31:549;1448308531.13;(0.48061313629150393, 0.3693654378255208);52.4266624451;1.0;0;0;0;0;0;0;0;0;0;();(-2000.0, -2000.0);
08:39:31:570;08:39:31:549;1448308531.13;(0.48061313629150393, 0.3693654378255208);52.4266624451;1.0;0;0;0;0;0;0;0;0;0;();(-2000.0, -2000.0);
08:39:31:604;08:39:31:549;1448308531.13;(0.48061313629150393, 0.3693654378255208);52.4266624451;1.0;0;0;0;0;0;0;0;0;0;();(-2000.0, -2000.0);
08:39:31:621;08:39:31:613;1448308531.19;(0.48063220977783205, 0.36932288275824654);52.7761955261;1.0;0;0;0;0;0;0;0;0;0;();(-2000.0, -2000.0);
08:39:31:637;08:39:31:613;1448308531.19;(0.48063220977783205, 0.36932288275824654);52.7761955261;1.0;0;0;0;0;0;0;0;0;0;();(-2000.0, -2000.0);
08:39:31:655;08:39:31:613;1448308531.19;(0.48063220977783205, 0.36932288275824654);52.7761955261;1.0;0;0;0;0;0;0;0;0;0;();(-2000.0, -2000.0);
08:39:31:670;08:39:31:613;1448308531.19;(0.48063220977783205, 0.36932288275824654);52.7761955261;1.0;0;0;0;0;0;0;0;0;0;();(-2000.0, -2000.0);
08:39:31:703;08:39:31:680;1448308531.26;(0.4806844234466553, 0.3686825222439236);52.8440513611;1.0;0;0;0;0;0;0;0;0;0;();(-2000.0, -2000.0);
08:39:31:720;08:39:31:680;1448308531.26;(0.4806844234466553, 0.3686825222439236);52.8440513611;1.0;0;0;0;0;0;0;0;0;0;();(-2000.0, -2000.0);
08:39:31:737;08:39:31:680;1448308531.26;(0.4806844234466553, 0.3686825222439236);52.8440513611;1.0;0;0;0;0;0;0;0;0;0;();(-2000.0, -2000.0);
08:39:31:754;08:39:31:750;1448308531.33;(0.4807370662689209, 0.36900393168131507);53.2090415955;1.0;0;0;0;0;0;0;0;0;0;();(-2000.0, -2000.0);
08:39:31:770;08:39:31:750;1448308531.33;(0.4807370662689209, 0.36900393168131507);53.2090415955;1.0;0;0;0;0;0;0;0;0;0;();(-2000.0, -2000.0);
08:39:31:803;08:39:31:750;1448308531.33;(0.4807370662689209, 0.36900393168131507);53.2090415955;1.0;0;0;0;0;0;0;0;0;0;();(-2000.0, -2000.0);
08:39:31:820;08:39:31:816;1448308531.39;(0.48105311393737793, 0.3690494113498264);53.5040130615;1.0;0;0;0;0;0;0;0;0;0;();(-2000.0, -2000.0);
08:39:31:837;08:39:31:816;1448308531.39;(0.48105311393737793, 0.3690494113498264);53.5040130615;1.0;0;0;0;0;0;0;0;0;0;();(-2000.0, -2000.0);
08:39:31:854;08:39:31:816;1448308531.39;(0.48105311393737793, 0.3690494113498264);53.5040130615;1.0;0;0;0;0;0;0;0;0;0;();(-2000.0, -2000.0);
08:39:31:870;08:39:31:816;1448308531.39;(0.48105311393737793, 0.3690494113498264);53.5040130615;1.0;0;0;0;0;0;0;0;0;0;();(-2000.0, -2000.0);
08:39:31:904;08:39:31:882;1448308531.46;(0.4810334205627441, 0.3684171888563368);53.4233322144;1.0;0;0;0;0;0;0;0;0;0;();(-2000.0, -2000.0);
08:39:31:920;08:39:31:882;1448308531.46;(0.4810334205627441, 0.3684171888563368);53.4233322144;1.0;0;0;0;0;0;0;0;0;0;();(-2000.0, -2000.0);
08:39:31:938;08:39:31:882;1448308531.46;(0.4810334205627441, 0.3684171888563368);53.4233322144;1.0;0;0;0;0;0;0;0;0;0;();(-2000.0, -2000.0);
08:39:31:954;08:39:31:945;1448308531.53;(0.4809539318084717, 0.3681753370496962);53.5978240967;1.0;0;0;0;0;0;0;0;0;0;();(-2000.0, -2000.0);
08:39:31:970;08:39:31:945;1448308531.53;(0.4809539318084717, 0.3681753370496962);53.5978240967;1.0;0;0;0;0;0;0;0;0;0;();(-2000.0, -2000.0);
08:39:32:004;08:39:31:945;1448308531.53;(0.4809539318084717, 0.3681753370496962);53.5978240967;1.0;0;0;0;0;0;0;0;0;0;();(-2000.0, -2000.0);
08:39:32:021;08:39:32:018;1448308531.59;(0.5063402652740479, 0.3626858181423611);55.6895675659;0.809933123549;0;0;0;0;0;0;0;0;0;();(-2000.0, -2000.0);
08:39:32:038;08:39:32:018;1448308531.59;(0.5063402652740479, 0.3626858181423611);55.6895675659;0.809933123549;0;0;0;0;0;0;0;0;0;();(-2000.0, -2000.0);
08:39:32:053;08:39:32:018;1448308531.59;(0.5063402652740479, 0.3626858181423611);55.6895675659;0.809933123549;0;0;0;0;0;0;0;0;0;();(-2000.0, -2000.0);
08:39:32:071;08:39:32:018;1448308531.59;(0.5063402652740479, 0.3626858181423611);55.6895675659;0.809933123549;0;0;0;0;0;0;0;0;0;();(-2000.0, -2000.0);
08:39:32:103;08:39:32:081;1448308531.66;(0.5455717086791992, 0.3434626685248481);53.1461219788;1.0;0;0;0;0;0;0;0;0;0;();(-2000.0, -2000.0);
08:39:32:121;08:39:32:081;1448308531.66;(0.5455717086791992, 0.3434626685248481);53.1461219788;1.0;0;0;0;0;0;0;0;0;0;();(-2000.0, -2000.0);
08:39:32:137;08:39:32:081;1448308531.66;(0.5455717086791992, 0.3434626685248481);53.1461219788;1.0;0;0;0;0;0;0;0;0;0;();(-2000.0, -2000.0);
08:39:32:155;08:39:32:144;1448308531.73;(0.546221113204956, 0.3433336469862196);52.8356170654;1.0;0;0;0;0;0;0;0;0;0;();(-2000.0, -2000.0);
08:39:32:171;08:39:32:144;1448308531.73;(0.546221113204956, 0.3433336469862196);52.8356170654;1.0;0;0;0;0;0;0;0;0;0;();(-2000.0, -2000.0);
08:39:32:205;08:39:32:144;1448308531.73;(0.546221113204956, 0.3433336469862196);52.8356170654;1.0;0;0;0;0;0;0;0;0;0;();(-2000.0, -2000.0);
08:39:32:220;08:39:32:213;1448308531.79;(0.5463517665863037, 0.34416071573893225);52.7984466553;1.0;0;0;0;0;0;0;0;0;0;();(-2000.0, -2000.0);
08:39:32:237;08:39:32:213;1448308531.79;(0.5463517665863037, 0.34416071573893225);52.7984466553;1.0;0;0;0;0;0;0;0;0;0;();(-2000.0, -2000.0);
08:39:32:253;08:39:32:213;1448308531.79;(0.5463517665863037, 0.34416071573893225);52.7984466553;1.0;0;0;0;0;0;0;0;0;0;();(-2000.0, -2000.0);
08:39:32:270;08:39:32:213;1448308531.79;(0.5463517665863037, 0.34416071573893225);52.7984466553;1.0;0;0;0;0;0;0;0;0;0;();(-2000.0, -2000.0);
08:39:32:304;08:39:32:277;1448308531.86;(0.54659104347229, 0.3445347679985894);52.7317008972;1.0;0;0;0;0;0;0;0;0;0;();(-2000.0, -2000.0);
08:39:32:322;08:39:32:277;1448308531.86;(0.54659104347229, 0.3445347679985894);52.7317008972;1.0;0;0;0;0;0;0;0;0;0;();(-2000.0, -2000.0);
08:39:32:338;08:39:32:277;1448308531.86;(0.54659104347229, 0.3445347679985894);52.7317008972;1.0;0;0;0;0;0;0;0;0;0;();(-2000.0, -2000.0);
08:39:32:354;08:39:32:346;1448308531.93;(0.5466679096221924, 0.3447593688964844);52.9911155701;1.0;0;0;0;0;0;0;0;0;0;();(-2000.0, -2000.0);
08:39:32:370;08:39:32:346;1448308531.93;(0.5466679096221924, 0.3447593688964844);52.9911155701;1.0;0;0;0;0;0;0;0;0;0;();(-2000.0, -2000.0);
08:39:32:403;08:39:32:346;1448308531.93;(0.5466679096221924, 0.3447593688964844);52.9911155701;1.0;0;0;0;0;0;0;0;0;0;();(-2000.0, -2000.0);
08:39:32:421;08:39:32:412;1448308531.99;(0.546939754486084, 0.3443425072564019);52.9724731445;1.0;0;0;0;0;0;0;0;0;0;();(-2000.0, -2000.0);
08:39:32:438;08:39:32:412;1448308531.99;(0.546939754486084, 0.3443425072564019);52.9724731445;1.0;0;0;0;0;0;0;0;0;0;();(-2000.0, -2000.0);
08:39:32:455;08:39:32:412;1448308531.99;(0.546939754486084, 0.3443425072564019);52.9724731445;1.0;0;0;0;0;0;0;0;0;0;();(-2000.0, -2000.0);
08:39:32:470;08:39:32:412;1448308531.99;(0.546939754486084, 0.3443425072564019);52.9724731445;1.0;0;0;0;0;0;0;0;0;0;();(-2000.0, -2000.0);
08:39:32:504;08:39:32:480;1448308532.06;(0.5467679023742675, 0.3440942976209852);53.1090049744;1.0;0;0;0;0;0;0;0;0;0;();(-2000.0, -2000.0);
08:39:32:521;08:39:32:480;1448308532.06;(0.5467679023742675, 0.3440942976209852);53.1090049744;1.0;0;0;0;0;0;0;0;0;0;();(-2000.0, -2000.0);
08:39:32:538;08:39:32:480;1448308532.06;(0.5467679023742675, 0.3440942976209852);53.1090049744;1.0;0;0;0;0;0;0;0;0;0;();(-2000.0, -2000.0);
08:39:32:555;08:39:32:545;1448308532.13;(0.5468331336975097, 0.3438347710503472);53.3871498108;1.0;0;0;0;0;0;0;0;0;0;();(-2000.0, -2000.0);
08:39:32:571;08:39:32:545;1448308532.13;(0.5468331336975097, 0.3438347710503472);53.3871498108;1.0;0;0;0;0;0;0;0;0;0;();(-2000.0, -2000.0);
08:39:32:605;08:39:32:545;1448308532.13;(0.5468331336975097, 0.3438347710503472);53.3871498108;1.0;0;0;0;0;0;0;0;0;0;();(-2000.0, -2000.0);
08:39:32:620;08:39:32:609;1448308532.19;(0.5469956398010254, 0.3439489152696398);53.4169845581;1.0;0;0;0;0;0;0;0;0;0;();(-2000.0, -2000.0);
08:39:32:637;08:39:32:609;1448308532.19;(0.5469956398010254, 0.3439489152696398);53.4169845581;1.0;0;0;0;0;0;0;0;0;0;();(-2000.0, -2000.0);
08:39:32:655;08:39:32:609;1448308532.19;(0.5469956398010254, 0.3439489152696398);53.4169845581;1.0;0;0;0;0;0;0;0;0;0;();(-2000.0, -2000.0);
08:39:32:671;08:39:32:609;1448308532.19;(0.5469956398010254, 0.3439489152696398);53.4169845581;1.0;0;0;0;0;0;0;0;0;0;();(-2000.0, -2000.0);
08:39:32:705;08:39:32:676;1448308532.26;(0.5470718383789063, 0.34396650526258676);53.7465934753;1.0;0;0;0;0;0;0;0;0;0;();(-2000.0, -2000.0);
08:39:32:722;08:39:32:676;1448308532.26;(0.5470718383789063, 0.34396650526258676);53.7465934753;1.0;0;0;0;0;0;0;0;0;0;();(-2000.0, -2000.0);
08:39:32:740;08:39:32:676;1448308532.26;(0.5470718383789063, 0.34396650526258676);53.7465934753;1.0;0;0;0;0;0;0;0;0;0;();(-2000.0, -2000.0);
08:39:32:755;08:39:32:745;1448308532.33;(0.5468168735504151, 0.34433538648817275);54.0356636047;1.0;0;0;0;0;0;0;0;0;0;();(-2000.0, -2000.0);
08:39:32:771;08:39:32:745;1448308532.33;(0.5468168735504151, 0.34433538648817275);54.0356636047;1.0;0;0;0;0;0;0;0;0;0;();(-2000.0, -2000.0);
08:39:32:805;08:39:32:745;1448308532.33;(0.5468168735504151, 0.34433538648817275);54.0356636047;1.0;0;0;0;0;0;0;0;0;0;();(-2000.0, -2000.0);
08:39:32:822;08:39:32:809;1448308532.39;(0.5465710163116455, 0.3443626827663846);54.0592041016;1.0;0;0;0;0;0;0;0;0;0;();(-2000.0, -2000.0);
08:39:32:837;08:39:32:809;1448308532.39;(0.5465710163116455, 0.3443626827663846);54.0592041016;1.0;0;0;0;0;0;0;0;0;0;();(-2000.0, -2000.0);
08:39:32:854;08:39:32:809;1448308532.39;(0.5465710163116455, 0.3443626827663846);54.0592041016;1.0;0;0;0;0;0;0;0;0;0;();(-2000.0, -2000.0);
08:39:32:871;08:39:32:809;1448308532.39;(0.5465710163116455, 0.3443626827663846);54.0592041016;1.0;0;0;0;0;0;0;0;0;0;();(-2000.0, -2000.0);
08:39:32:905;08:39:32:877;1448308532.46;(0.5431893348693848, 0.34549738566080734);53.2626914978;1.0;0;0;0;0;0;0;0;0;0;();(-2000.0, -2000.0);
08:39:32:922;08:39:32:877;1448308532.46;(0.5431893348693848, 0.34549738566080734);53.2626914978;1.0;0;0;0;0;0;0;0;0;0;();(-2000.0, -2000.0);
08:39:32:938;08:39:32:877;1448308532.46;(0.5431893348693848, 0.34549738566080734);53.2626914978;1.0;0;0;0;0;0;0;0;0;0;();(-2000.0, -2000.0);
08:39:32:955;08:39:32:941;1448308532.53;(0, 0);0;0;0;0;0;0;0;0;0;0;0;();(-2000.0, -2000.0);
08:39:32:971;08:39:32:941;1448308532.53;(0, 0);0;0;0;0;0;0;0;0;0;0;0;();(-2000.0, -2000.0);
08:39:33:004;08:39:32:941;1448308532.53;(0, 0);0;0;0;0;0;0;0;0;0;0;0;();(-2000.0, -2000.0);
08:39:33:021;08:39:33:008;1448308532.59;(0, 0);0;0;0;0;0;0;0;0;0;0;0;();(-2000.0, -2000.0);
08:39:33:038;08:39:33:008;1448308532.59;(0, 0);0;0;0;0;0;0;0;0;0;0;0;();(-2000.0, -2000.0);
08:39:33:055;08:39:33:008;1448308532.59;(0, 0);0;0;0;0;0;0;0;0;0;0;0;();(-2000.0, -2000.0);
08:39:33:071;08:39:33:008;1448308532.59;(0, 0);0;0;0;0;0;0;0;0;0;0;0;();(-2000.0, -2000.0);
08:39:33:104;08:39:33:077;1448308532.66;(0.4498149871826172, 0.38641700744628904);53.9492721558;1.0;0;0;0;0;0;0;0;0;0;();(-2000.0, -2000.0);
08:39:33:121;08:39:33:077;1448308532.66;(0.4498149871826172, 0.38641700744628904);53.9492721558;1.0;0;0;0;0;0;0;0;0;0;();(-2000.0, -2000.0);
08:39:33:138;08:39:33:077;1448308532.66;(0.4498149871826172, 0.38641700744628904);53.9492721558;1.0;0;0;0;0;0;0;0;0;0;();(-2000.0, -2000.0);
08:39:33:156;08:39:33:141;1448308532.73;(0.45054149627685547, 0.38489536709255645);53.8404159546;1.0;0;0;0;0;0;0;0;0;0;();(-2000.0, -2000.0);
08:39:33:172;08:39:33:141;1448308532.73;(0.45054149627685547, 0.38489536709255645);53.8404159546;1.0;0;0;0;0;0;0;0;0;0;();(-2000.0, -2000.0);
08:39:33:205;08:39:33:141;1448308532.73;(0.45054149627685547, 0.38489536709255645);53.8404159546;1.0;0;0;0;0;0;0;0;0;0;();(-2000.0, -2000.0);
08:39:33:222;08:39:33:209;1448308532.79;(0.45064420700073243, 0.38469297620985243);53.8016662598;1.0;0;0;0;0;0;0;0;0;0;();(-2000.0, -2000.0);
08:39:33:238;08:39:33:209;1448308532.79;(0.45064420700073243, 0.38469297620985243);53.8016662598;1.0;0;0;0;0;0;0;0;0;0;();(-2000.0, -2000.0);
08:39:33:560;08:39:33:552;1448308532.86;(0.4508817195892334, 0.38479016621907547);53.73072052;1.0;0;0;0;0;0;0;0;0;0;();(-2000.0, -2000.0);
08:39:33:571;08:39:33:555;1448308532.89;(0.4509597301483154, 0.3844974941677517);53.7106437683;1.0;0;0;0;0;0;0;0;0;0;();(-2000.0, -2000.0);
08:39:33:581;08:39:33:566;1448308532.93;(0.4509486198425293, 0.38448952568901906);53.70936203;1.0;0;0;0;0;0;0;0;0;0;();(-2000.0, -2000.0);
08:39:33:593;08:39:33:577;1448308532.96;(0.4511119842529297, 0.38423517015245223);53.7797088623;1.0;0;0;0;0;0;0;0;0;0;();(-2000.0, -2000.0);
08:39:33:602;08:39:33:589;1448308532.99;(0.45102458000183104, 0.38422215779622393);53.7362594604;1.0;0;0;0;0;0;0;0;0;0;();(-2000.0, -2000.0);
08:39:33:608;08:39:33:599;1448308533.03;(0.4511565685272217, 0.38410178290473085);53.7695045471;1.0;0;0;0;0;0;0;0;0;0;();(-2000.0, -2000.0);
08:39:33:614;08:39:33:605;1448308533.06;(0.45122880935668946, 0.3842273288302951);53.6151275635;1.0;0;0;0;0;0;0;0;0;0;();(-2000.0, -2000.0);
08:39:33:620;08:39:33:612;1448308533.09;(0.4513370990753174, 0.38427386813693576);53.6122627258;1.0;0;0;0;0;0;0;0;0;0;();(-2000.0, -2000.0);
08:39:33:628;08:39:33:624;1448308533.16;(0.4516293048858643, 0.38427196078830295);53.3586273193;1.0;0;0;0;0;0;0;0;0;0;();(-2000.0, -2000.0);
08:39:33:633;08:39:33:626;1448308533.19;(0.45157566070556643, 0.3841965145534939);53.0402107239;1.0;0;0;0;0;0;0;0;0;0;();(-2000.0, -2000.0);
08:39:33:637;08:39:33:626;1448308533.19;(0.45157566070556643, 0.3841965145534939);53.0402107239;1.0;0;0;0;0;0;0;0;0;0;();(-2000.0, -2000.0);
08:39:33:640;08:39:33:626;1448308533.19;(0.45157566070556643, 0.3841965145534939);53.0402107239;1.0;0;0;0;0;0;0;0;0;0;();(-2000.0, -2000.0);
08:39:33:644;08:39:33:626;1448308533.19;(0.45157566070556643, 0.3841965145534939);53.0402107239;1.0;0;0;0;0;0;0;0;0;0;();(-2000.0, -2000.0);
08:39:33:647;08:39:33:626;1448308533.19;(0.45157566070556643, 0.3841965145534939);53.0402107239;1.0;0;0;0;0;0;0;0;0;0;();(-2000.0, -2000.0);
08:39:33:651;08:39:33:626;1448308533.19;(0.45157566070556643, 0.3841965145534939);53.0402107239;1.0;0;0;0;0;0;0;0;0;0;();(-2000.0, -2000.0);
08:39:33:655;08:39:33:626;1448308533.19;(0.45157566070556643, 0.3841965145534939);53.0402107239;1.0;0;0;0;0;0;0;0;0;0;();(-2000.0, -2000.0);
08:39:33:659;08:39:33:626;1448308533.19;(0.45157566070556643, 0.3841965145534939);53.0402107239;1.0;0;0;0;0;0;0;0;0;0;();(-2000.0, -2000.0);
08:39:33:663;08:39:33:626;1448308533.19;(0.45157566070556643, 0.3841965145534939);53.0402107239;1.0;0;0;0;0;0;0;0;0;0;();(-2000.0, -2000.0);
08:39:33:667;08:39:33:626;1448308533.19;(0.45157566070556643, 0.3841965145534939);53.0402107239;1.0;0;0;0;0;0;0;0;0;0;();(-2000.0, -2000.0);
08:39:33:670;08:39:33:626;1448308533.19;(0.45157566070556643, 0.3841965145534939);53.0402107239;1.0;0;0;0;0;0;0;0;0;0;();(-2000.0, -2000.0);
08:39:33:674;08:39:33:626;1448308533.19;(0.45157566070556643, 0.3841965145534939);53.0402107239;1.0;0;0;0;0;0;0;0;0;0;();(-2000.0, -2000.0);
