%Timestamp,timestamp_write;timestamp_gotpupil;eyeTrackerTime;normPos;diameter;confidence;nplanes;listofAirplanesonScreen;lastAction;lastActionDetails;lastActionAirplaneNumber;calculatedScore;positiveScore;negativeScore;collidedAirplaneNumbers;targetPositions;collisionPoint
08:39:58:144;1448308557.72;(0.4964107036590576, 0.3612455156114366);48.170249939;1.0;0;0;0;0;0;0;0;0;0;();(-2000.0, -2000.0);
08:39:58:158;1448308557.72;(0.4964107036590576, 0.3612455156114366);48.170249939;1.0;0;0;0;0;0;0;0;0;0;();(-2000.0, -2000.0);
08:39:58:166;1448308557.72;(0.4964107036590576, 0.3612455156114366);48.170249939;1.0;0;0;0;0;0;0;0;0;0;();(-2000.0, -2000.0);
08:39:58:170;1448308557.72;(0.4964107036590576, 0.3612455156114366);48.170249939;1.0;0;0;0;0;0;0;0;0;0;();(-2000.0, -2000.0);
08:39:58:174;1448308557.72;(0.4964107036590576, 0.3612455156114366);48.170249939;1.0;0;0;0;0;0;0;0;0;0;();(-2000.0, -2000.0);
08:39:58:178;1448308557.72;(0.4964107036590576, 0.3612455156114366);48.170249939;1.0;0;0;0;0;0;0;0;0;0;();(-2000.0, -2000.0);
08:39:58:181;1448308557.72;(0.4964107036590576, 0.3612455156114366);48.170249939;1.0;0;0;0;0;0;0;0;0;0;();(-2000.0, -2000.0);
08:39:58:185;1448308557.72;(0.4964107036590576, 0.3612455156114366);48.170249939;1.0;0;0;0;0;0;0;0;0;0;();(-2000.0, -2000.0);
08:39:58:188;1448308557.72;(0.4964107036590576, 0.3612455156114366);48.170249939;1.0;0;0;0;0;0;0;0;0;0;();(-2000.0, -2000.0);
08:39:58:192;1448308557.72;(0.4964107036590576, 0.3612455156114366);48.170249939;1.0;0;0;0;0;0;0;0;0;0;();(-2000.0, -2000.0);
08:39:58:197;08:39:58:191;1448308557.76;(0.4964266300201416, 0.36104409959581163);48.1471786499;1.0;0;0;0;0;0;0;0;0;0;();(-2000.0, -2000.0);
08:39:58:200;08:39:58:191;1448308557.76;(0.4964266300201416, 0.36104409959581163);48.1471786499;1.0;0;0;0;0;0;0;0;0;0;();(-2000.0, -2000.0);
08:39:58:204;08:39:58:191;1448308557.76;(0.4964266300201416, 0.36104409959581163);48.1471786499;1.0;0;0;0;0;0;0;0;0;0;();(-2000.0, -2000.0);
08:39:58:207;08:39:58:191;1448308557.76;(0.4964266300201416, 0.36104409959581163);48.1471786499;1.0;0;0;0;0;0;0;0;0;0;();(-2000.0, -2000.0);
08:39:58:211;08:39:58:191;1448308557.76;(0.4964266300201416, 0.36104409959581163);48.1471786499;1.0;0;0;0;0;0;0;0;0;0;();(-2000.0, -2000.0);
08:39:58:215;08:39:58:191;1448308557.76;(0.4964266300201416, 0.36104409959581163);48.1471786499;1.0;0;0;0;0;0;0;0;0;0;();(-2000.0, -2000.0);
08:39:58:219;08:39:58:191;1448308557.76;(0.4964266300201416, 0.36104409959581163);48.1471786499;1.0;0;0;0;0;0;0;0;0;0;();(-2000.0, -2000.0);
08:39:58:223;08:39:58:191;1448308557.76;(0.4964266300201416, 0.36104409959581163);48.1471786499;1.0;0;0;0;0;0;0;0;0;0;();(-2000.0, -2000.0);
08:39:58:226;08:39:58:191;1448308557.76;(0.4964266300201416, 0.36104409959581163);48.1471786499;1.0;0;0;0;0;0;0;0;0;0;();(-2000.0, -2000.0);
08:39:58:230;08:39:58:191;1448308557.76;(0.4964266300201416, 0.36104409959581163);48.1471786499;1.0;0;0;0;0;0;0;0;0;0;();(-2000.0, -2000.0);
08:39:58:234;08:39:58:191;1448308557.76;(0.4964266300201416, 0.36104409959581163);48.1471786499;1.0;0;0;0;0;0;0;0;0;0;();(-2000.0, -2000.0);
08:39:58:240;08:39:58:191;1448308557.76;(0.4964266300201416, 0.36104409959581163);48.1471786499;1.0;0;0;0;0;0;0;0;0;0;();(-2000.0, -2000.0);
08:39:58:260;08:39:58:257;1448308557.82;(0.4960922718048096, 0.3604801601833767);48.7097015381;1.0;0;0;0;0;0;0;0;0;0;();(-2000.0, -2000.0);
08:39:58:296;08:39:58:257;1448308557.82;(0.4960922718048096, 0.3604801601833767);48.7097015381;1.0;0;0;0;0;0;0;0;0;0;();(-2000.0, -2000.0);
08:39:58:312;08:39:58:257;1448308557.82;(0.4960922718048096, 0.3604801601833767);48.7097015381;1.0;0;0;0;0;0;0;0;0;0;();(-2000.0, -2000.0);
08:39:58:328;08:39:58:325;1448308557.86;(0.49620723724365234, 0.3603472391764323);48.8998031616;1.0;0;0;0;0;0;0;0;0;0;();(-2000.0, -2000.0);
08:39:58:342;08:39:58:331;1448308557.92;(0.4963840961456299, 0.3600116729736328);49.6103363037;1.0;0;0;0;0;0;0;0;0;0;();(-2000.0, -2000.0);
08:39:58:359;08:39:58:331;1448308557.92;(0.4963840961456299, 0.3600116729736328);49.6103363037;1.0;0;0;0;0;0;0;0;0;0;();(-2000.0, -2000.0);
08:39:58:392;08:39:58:331;1448308557.92;(0.4963840961456299, 0.3600116729736328);49.6103363037;1.0;0;0;0;0;0;0;0;0;0;();(-2000.0, -2000.0);
08:39:58:410;08:39:58:395;1448308557.99;(0.4964737892150879, 0.35995754665798607);49.6618690491;1.0;0;0;0;0;0;0;0;0;0;();(-2000.0, -2000.0);
08:39:58:427;08:39:58:395;1448308557.99;(0.4964737892150879, 0.35995754665798607);49.6618690491;1.0;0;0;0;0;0;0;0;0;0;();(-2000.0, -2000.0);
08:39:58:443;08:39:58:395;1448308557.99;(0.4964737892150879, 0.35995754665798607);49.6618690491;1.0;0;0;0;0;0;0;0;0;0;();(-2000.0, -2000.0);
08:39:58:462;08:39:58:456;1448308558.02;(0.496507453918457, 0.3595597585042317);49.7602729797;1.0;0;0;0;0;0;0;0;0;0;();(-2000.0, -2000.0);
08:39:58:492;08:39:58:456;1448308558.02;(0.496507453918457, 0.3595597585042317);49.7602729797;1.0;0;0;0;0;0;0;0;0;0;();(-2000.0, -2000.0);
08:39:58:509;08:39:58:456;1448308558.02;(0.496507453918457, 0.3595597585042317);49.7602729797;1.0;0;0;0;0;0;0;0;0;0;();(-2000.0, -2000.0);
08:39:58:530;08:39:58:526;1448308558.12;(0.5178761959075928, 0.35525860256618924);49.3130302429;1.0;0;0;0;0;0;0;0;0;0;();(-2000.0, -2000.0);
08:39:58:544;08:39:58:526;1448308558.12;(0.5178761959075928, 0.35525860256618924);49.3130302429;1.0;0;0;0;0;0;0;0;0;0;();(-2000.0, -2000.0);
08:39:58:560;08:39:58:526;1448308558.12;(0.5178761959075928, 0.35525860256618924);49.3130302429;1.0;0;0;0;0;0;0;0;0;0;();(-2000.0, -2000.0);
08:39:58:593;08:39:58:588;1448308558.16;(0.5184741020202637, 0.35487030877007375);49.1210823059;1.0;0;0;0;0;0;0;0;0;0;();(-2000.0, -2000.0);
08:39:58:609;08:39:58:588;1448308558.16;(0.5184741020202637, 0.35487030877007375);49.1210823059;1.0;0;0;0;0;0;0;0;0;0;();(-2000.0, -2000.0);
08:39:58:627;08:39:58:588;1448308558.16;(0.5184741020202637, 0.35487030877007375);49.1210823059;1.0;0;0;0;0;0;0;0;0;0;();(-2000.0, -2000.0);
08:39:58:643;08:39:58:588;1448308558.16;(0.5184741020202637, 0.35487030877007375);49.1210823059;1.0;0;0;0;0;0;0;0;0;0;();(-2000.0, -2000.0);
08:39:58:660;08:39:58:657;1448308558.22;(0.5186886787414551, 0.35524554782443574);48.7977523804;1.0;0;0;0;0;0;0;0;0;0;();(-2000.0, -2000.0);
08:39:58:696;08:39:58:657;1448308558.22;(0.5186886787414551, 0.35524554782443574);48.7977523804;1.0;0;0;0;0;0;0;0;0;0;();(-2000.0, -2000.0);
08:39:58:713;08:39:58:657;1448308558.22;(0.5186886787414551, 0.35524554782443574);48.7977523804;1.0;0;0;0;0;0;0;0;0;0;();(-2000.0, -2000.0);
08:39:58:730;08:39:58:724;1448308558.26;(0.5186221122741699, 0.35559628804524734);48.1545410156;1.0;0;0;0;0;0;0;0;0;0;();(-2000.0, -2000.0);
08:39:58:746;08:39:58:737;1448308558.32;(0.518888521194458, 0.3553460862901475);47.3790245056;1.0;0;0;0;0;0;0;0;0;0;();(-2000.0, -2000.0);
08:39:58:763;08:39:58:737;1448308558.32;(0.518888521194458, 0.3553460862901475);47.3790245056;1.0;0;0;0;0;0;0;0;0;0;();(-2000.0, -2000.0);
08:39:58:797;08:39:58:790;1448308558.39;(0.5193074703216553, 0.355101055569119);46.7402381897;1.0;0;0;0;0;0;0;0;0;0;();(-2000.0, -2000.0);
08:39:58:813;08:39:58:790;1448308558.39;(0.5193074703216553, 0.355101055569119);46.7402381897;1.0;0;0;0;0;0;0;0;0;0;();(-2000.0, -2000.0);
08:39:58:829;08:39:58:790;1448308558.39;(0.5193074703216553, 0.355101055569119);46.7402381897;1.0;0;0;0;0;0;0;0;0;0;();(-2000.0, -2000.0);
08:39:58:846;08:39:58:790;1448308558.39;(0.5193074703216553, 0.355101055569119);46.7402381897;1.0;0;0;0;0;0;0;0;0;0;();(-2000.0, -2000.0);
08:39:58:862;08:39:58:858;1448308558.46;(0.5196185111999512, 0.35502268473307297);46.1452484131;1.0;0;0;0;0;0;0;0;0;0;();(-2000.0, -2000.0);
08:39:58:896;08:39:58:858;1448308558.46;(0.5196185111999512, 0.35502268473307297);46.1452484131;1.0;0;0;0;0;0;0;0;0;0;();(-2000.0, -2000.0);
08:39:58:913;08:39:58:858;1448308558.46;(0.5196185111999512, 0.35502268473307297);46.1452484131;1.0;0;0;0;0;0;0;0;0;0;();(-2000.0, -2000.0);
08:39:58:927;08:39:58:921;1448308558.52;(0.526368236541748, 0.3527311537000868);45.5550765991;1.0;0;0;0;0;0;0;0;0;0;();(-2000.0, -2000.0);
08:39:58:944;08:39:58:921;1448308558.52;(0.526368236541748, 0.3527311537000868);45.5550765991;1.0;0;0;0;0;0;0;0;0;0;();(-2000.0, -2000.0);
08:39:58:963;08:39:58:921;1448308558.52;(0.526368236541748, 0.3527311537000868);45.5550765991;1.0;0;0;0;0;0;0;0;0;0;();(-2000.0, -2000.0);
08:39:58:996;08:39:58:988;1448308558.56;(0.5266243934631347, 0.3531106736924913);45.2698974609;1.0;0;0;0;0;0;0;0;0;0;();(-2000.0, -2000.0);
08:39:59:012;08:39:58:990;1448308558.59;(0.5264292240142823, 0.35334231058756516);45.0662612915;1.0;0;0;0;0;0;0;0;0;0;();(-2000.0, -2000.0);
08:39:59:030;08:39:58:990;1448308558.59;(0.5264292240142823, 0.35334231058756516);45.0662612915;1.0;0;0;0;0;0;0;0;0;0;();(-2000.0, -2000.0);
08:39:59:046;08:39:58:990;1448308558.59;(0.5264292240142823, 0.35334231058756516);45.0662612915;1.0;0;0;0;0;0;0;0;0;0;();(-2000.0, -2000.0);
08:39:59:063;08:39:59:056;1448308558.62;(0.5256300449371338, 0.3534960005018446);44.8653030396;1.0;0;0;0;0;0;0;0;0;0;();(-2000.0, -2000.0);
08:39:59:094;08:39:59:056;1448308558.62;(0.5256300449371338, 0.3534960005018446);44.8653030396;1.0;0;0;0;0;0;0;0;0;0;();(-2000.0, -2000.0);
08:39:59:110;08:39:59:056;1448308558.62;(0.5256300449371338, 0.3534960005018446);44.8653030396;1.0;0;0;0;0;0;0;0;0;0;();(-2000.0, -2000.0);
08:39:59:127;08:39:59:120;1448308558.69;(0, 0);0;0;0;0;0;0;0;0;0;0;0;();(-2000.0, -2000.0);
08:39:59:144;08:39:59:120;1448308558.69;(0, 0);0;0;0;0;0;0;0;0;0;0;0;();(-2000.0, -2000.0);
08:39:59:161;08:39:59:120;1448308558.69;(0, 0);0;0;0;0;0;0;0;0;0;0;0;();(-2000.0, -2000.0);
08:39:59:194;08:39:59:189;1448308558.76;(0.5319470405578614, 0.33337495591905386);30.0147762299;0.634383162734;0;0;0;0;0;0;0;0;0;();(-2000.0, -2000.0);
08:39:59:211;08:39:59:189;1448308558.76;(0.5319470405578614, 0.33337495591905386);30.0147762299;0.634383162734;0;0;0;0;0;0;0;0;0;();(-2000.0, -2000.0);
08:39:59:227;08:39:59:189;1448308558.76;(0.5319470405578614, 0.33337495591905386);30.0147762299;0.634383162734;0;0;0;0;0;0;0;0;0;();(-2000.0, -2000.0);
08:39:59:244;08:39:59:189;1448308558.76;(0.5319470405578614, 0.33337495591905386);30.0147762299;0.634383162734;0;0;0;0;0;0;0;0;0;();(-2000.0, -2000.0);
08:39:59:263;08:39:59:259;1448308558.82;(0.5245579242706299, 0.3608441670735677);44.2343597412;0.824774761804;0;0;0;0;0;0;0;0;0;();(-2000.0, -2000.0);
08:39:59:296;08:39:59:259;1448308558.82;(0.5245579242706299, 0.3608441670735677);44.2343597412;0.824774761804;0;0;0;0;0;0;0;0;0;();(-2000.0, -2000.0);
08:39:59:313;08:39:59:259;1448308558.82;(0.5245579242706299, 0.3608441670735677);44.2343597412;0.824774761804;0;0;0;0;0;0;0;0;0;();(-2000.0, -2000.0);
08:39:59:334;08:39:59:326;1448308558.92;(0.5255857467651367, 0.35829226175944007);45.3748130798;1.0;0;0;0;0;0;0;0;0;0;();(-2000.0, -2000.0);
08:39:59:344;08:39:59:326;1448308558.92;(0.5255857467651367, 0.35829226175944007);45.3748130798;1.0;0;0;0;0;0;0;0;0;0;();(-2000.0, -2000.0);
08:39:59:361;08:39:59:326;1448308558.92;(0.5255857467651367, 0.35829226175944007);45.3748130798;1.0;0;0;0;0;0;0;0;0;0;();(-2000.0, -2000.0);
08:39:59:394;08:39:59:388;1448308558.96;(0.5256865978240967, 0.3578814188639323);45.4983901978;1.0;0;0;0;0;0;0;0;0;0;();(-2000.0, -2000.0);
08:39:59:411;08:39:59:388;1448308558.96;(0.5256865978240967, 0.3578814188639323);45.4983901978;1.0;0;0;0;0;0;0;0;0;0;();(-2000.0, -2000.0);
08:39:59:428;08:39:59:388;1448308558.96;(0.5256865978240967, 0.3578814188639323);45.4983901978;1.0;0;0;0;0;0;0;0;0;0;();(-2000.0, -2000.0);
08:39:59:444;08:39:59:388;1448308558.96;(0.5256865978240967, 0.3578814188639323);45.4983901978;1.0;0;0;0;0;0;0;0;0;0;();(-2000.0, -2000.0);
08:39:59:461;08:39:59:452;1448308558.99;(0.5259220600128174, 0.3576572418212891);45.5459136963;1.0;0;0;0;0;0;0;0;0;0;();(-2000.0, -2000.0);
08:39:59:494;08:39:59:470;1448308559.02;(0.5284117698669434, 0.3564338260226779);46.1539306641;1.0;0;0;0;0;0;0;0;0;0;();(-2000.0, -2000.0);
08:39:59:511;08:39:59:470;1448308559.02;(0.5284117698669434, 0.3564338260226779);46.1539306641;1.0;0;0;0;0;0;0;0;0;0;();(-2000.0, -2000.0);
08:39:59:528;08:39:59:521;1448308559.09;(0.5311075210571289, 0.3549015469021267);46.0668029785;1.0;0;0;0;0;0;0;0;0;0;();(-2000.0, -2000.0);
08:39:59:544;08:39:59:521;1448308559.09;(0.5311075210571289, 0.3549015469021267);46.0668029785;1.0;0;0;0;0;0;0;0;0;0;();(-2000.0, -2000.0);
08:39:59:561;08:39:59:521;1448308559.09;(0.5311075210571289, 0.3549015469021267);46.0668029785;1.0;0;0;0;0;0;0;0;0;0;();(-2000.0, -2000.0);
08:39:59:594;08:39:59:584;1448308559.16;(0.5310783386230469, 0.3551047007242839);46.6989479065;1.0;0;0;0;0;0;0;0;0;0;();(-2000.0, -2000.0);
08:39:59:611;08:39:59:584;1448308559.16;(0.5310783386230469, 0.3551047007242839);46.6989479065;1.0;0;0;0;0;0;0;0;0;0;();(-2000.0, -2000.0);
08:39:59:627;08:39:59:584;1448308559.16;(0.5310783386230469, 0.3551047007242839);46.6989479065;1.0;0;0;0;0;0;0;0;0;0;();(-2000.0, -2000.0);
08:39:59:645;08:39:59:584;1448308559.16;(0.5310783386230469, 0.3551047007242839);46.6989479065;1.0;0;0;0;0;0;0;0;0;0;();(-2000.0, -2000.0);
08:39:59:661;08:39:59:655;1448308559.22;(0.5309982299804688, 0.35449956258138016);47.3822898865;1.0;0;0;0;0;0;0;0;0;0;();(-2000.0, -2000.0);
08:39:59:694;08:39:59:655;1448308559.22;(0.5309982299804688, 0.35449956258138016);47.3822898865;1.0;0;0;0;0;0;0;0;0;0;();(-2000.0, -2000.0);
08:39:59:711;08:39:59:655;1448308559.22;(0.5309982299804688, 0.35449956258138016);47.3822898865;1.0;0;0;0;0;0;0;0;0;0;();(-2000.0, -2000.0);
08:39:59:728;08:39:59:722;1448308559.32;(0.5310935020446778, 0.35399398803710935);48.3244781494;1.0;0;0;0;0;0;0;0;0;0;();(-2000.0, -2000.0);
08:39:59:744;08:39:59:722;1448308559.32;(0.5310935020446778, 0.35399398803710935);48.3244781494;1.0;0;0;0;0;0;0;0;0;0;();(-2000.0, -2000.0);
08:39:59:761;08:39:59:722;1448308559.32;(0.5310935020446778, 0.35399398803710935);48.3244781494;1.0;0;0;0;0;0;0;0;0;0;();(-2000.0, -2000.0);
08:39:59:797;08:39:59:785;1448308559.39;(0.5310658931732177, 0.3538401709662543);48.4058418274;1.0;0;0;0;0;0;0;0;0;0;();(-2000.0, -2000.0);
08:39:59:813;08:39:59:785;1448308559.39;(0.5310658931732177, 0.3538401709662543);48.4058418274;1.0;0;0;0;0;0;0;0;0;0;();(-2000.0, -2000.0);
08:39:59:828;08:39:59:785;1448308559.39;(0.5310658931732177, 0.3538401709662543);48.4058418274;1.0;0;0;0;0;0;0;0;0;0;();(-2000.0, -2000.0);
08:39:59:844;08:39:59:785;1448308559.39;(0.5310658931732177, 0.3538401709662543);48.4058418274;1.0;0;0;0;0;0;0;0;0;0;();(-2000.0, -2000.0);
08:39:59:861;08:39:59:852;1448308559.42;(0.5312156200408935, 0.3539906819661458);48.2372169495;1.0;0;0;0;0;0;0;0;0;0;();(-2000.0, -2000.0);
08:39:59:894;08:39:59:852;1448308559.42;(0.5312156200408935, 0.3539906819661458);48.2372169495;1.0;0;0;0;0;0;0;0;0;0;();(-2000.0, -2000.0);
08:39:59:912;08:39:59:852;1448308559.42;(0.5312156200408935, 0.3539906819661458);48.2372169495;1.0;0;0;0;0;0;0;0;0;0;();(-2000.0, -2000.0);
08:39:59:928;08:39:59:916;1448308559.49;(0, 0);0;0;0;0;0;0;0;0;0;0;0;();(-2000.0, -2000.0);
08:39:59:944;08:39:59:916;1448308559.49;(0, 0);0;0;0;0;0;0;0;0;0;0;0;();(-2000.0, -2000.0);
08:39:59:960;08:39:59:916;1448308559.49;(0, 0);0;0;0;0;0;0;0;0;0;0;0;();(-2000.0, -2000.0);
08:39:59:995;08:39:59:986;1448308559.56;(0, 0);0;0;0;0;0;0;0;0;0;0;0;();(-2000.0, -2000.0);
08:40:00:011;08:39:59:986;1448308559.56;(0, 0);0;0;0;0;0;0;0;0;0;0;0;();(-2000.0, -2000.0);
08:40:00:028;08:39:59:986;1448308559.56;(0, 0);0;0;0;0;0;0;0;0;0;0;0;();(-2000.0, -2000.0);
08:40:00:044;08:39:59:986;1448308559.56;(0, 0);0;0;0;0;0;0;0;0;0;0;0;();(-2000.0, -2000.0);
08:40:00:060;08:40:00:052;1448308559.62;(0, 0);0;0;0;0;0;0;0;0;0;0;0;();(-2000.0, -2000.0);
08:40:00:095;08:40:00:052;1448308559.62;(0, 0);0;0;0;0;0;0;0;0;0;0;0;();(-2000.0, -2000.0);
08:40:00:111;08:40:00:052;1448308559.62;(0, 0);0;0;0;0;0;0;0;0;0;0;0;();(-2000.0, -2000.0);
08:40:00:128;08:40:00:117;1448308559.69;(0.44936532974243165, 0.3859271155463324);48.2013664246;1.0;0;0;0;0;0;0;0;0;0;();(-2000.0, -2000.0);
08:40:00:144;08:40:00:117;1448308559.69;(0.44936532974243165, 0.3859271155463324);48.2013664246;1.0;0;0;0;0;0;0;0;0;0;();(-2000.0, -2000.0);
08:40:00:161;08:40:00:117;1448308559.69;(0.44936532974243165, 0.3859271155463324);48.2013664246;1.0;0;0;0;0;0;0;0;0;0;();(-2000.0, -2000.0);
08:40:00:195;08:40:00:185;1448308559.76;(0.4501856803894043, 0.3850354512532552);48.2151908875;1.0;0;0;0;0;0;0;0;0;0;();(-2000.0, -2000.0);
08:40:00:210;08:40:00:185;1448308559.76;(0.4501856803894043, 0.3850354512532552);48.2151908875;1.0;0;0;0;0;0;0;0;0;0;();(-2000.0, -2000.0);
08:40:00:228;08:40:00:185;1448308559.76;(0.4501856803894043, 0.3850354512532552);48.2151908875;1.0;0;0;0;0;0;0;0;0;0;();(-2000.0, -2000.0);
08:40:00:245;08:40:00:185;1448308559.76;(0.4501856803894043, 0.3850354512532552);48.2151908875;1.0;0;0;0;0;0;0;0;0;0;();(-2000.0, -2000.0);
08:40:00:262;08:40:00:249;1448308559.82;(0.4359407901763916, 0.3875339084201389);48.6669540405;1.0;0;0;0;0;0;0;0;0;0;();(-2000.0, -2000.0);
08:40:00:295;08:40:00:249;1448308559.82;(0.4359407901763916, 0.3875339084201389);48.6669540405;1.0;0;0;0;0;0;0;0;0;0;();(-2000.0, -2000.0);
08:40:00:312;08:40:00:249;1448308559.82;(0.4359407901763916, 0.3875339084201389);48.6669540405;1.0;0;0;0;0;0;0;0;0;0;();(-2000.0, -2000.0);
08:40:00:328;08:40:00:318;1448308559.92;(0.4352851390838623, 0.3883684370252821);48.1881866455;1.0;0;0;0;0;0;0;0;0;0;();(-2000.0, -2000.0);
08:40:00:345;08:40:00:318;1448308559.92;(0.4352851390838623, 0.3883684370252821);48.1881866455;1.0;0;0;0;0;0;0;0;0;0;();(-2000.0, -2000.0);
08:40:00:361;08:40:00:318;1448308559.92;(0.4352851390838623, 0.3883684370252821);48.1881866455;1.0;0;0;0;0;0;0;0;0;0;();(-2000.0, -2000.0);
08:40:00:395;08:40:00:380;1448308559.96;(0.43529424667358396, 0.3887521107991536);48.3653068542;1.0;0;0;0;0;0;0;0;0;0;();(-2000.0, -2000.0);
08:40:00:412;08:40:00:380;1448308559.96;(0.43529424667358396, 0.3887521107991536);48.3653068542;1.0;0;0;0;0;0;0;0;0;0;();(-2000.0, -2000.0);
08:40:00:429;08:40:00:380;1448308559.96;(0.43529424667358396, 0.3887521107991536);48.3653068542;1.0;0;0;0;0;0;0;0;0;0;();(-2000.0, -2000.0);
08:40:00:444;08:40:00:380;1448308559.96;(0.43529424667358396, 0.3887521107991536);48.3653068542;1.0;0;0;0;0;0;0;0;0;0;();(-2000.0, -2000.0);
08:40:00:462;08:40:00:449;1448308560.02;(0.43515653610229493, 0.3889231787787544);48.5029525757;1.0;0;0;0;0;0;0;0;0;0;();(-2000.0, -2000.0);
08:40:00:495;08:40:00:449;1448308560.02;(0.43515653610229493, 0.3889231787787544);48.5029525757;1.0;0;0;0;0;0;0;0;0;0;();(-2000.0, -2000.0);
08:40:00:511;08:40:00:449;1448308560.02;(0.43515653610229493, 0.3889231787787544);48.5029525757;1.0;0;0;0;0;0;0;0;0;0;();(-2000.0, -2000.0);
08:40:00:528;08:40:00:516;1448308560.09;(0.43524928092956544, 0.38868348863389757);48.6216163635;1.0;0;0;0;0;0;0;0;0;0;();(-2000.0, -2000.0);
08:40:00:545;08:40:00:516;1448308560.09;(0.43524928092956544, 0.38868348863389757);48.6216163635;1.0;0;0;0;0;0;0;0;0;0;();(-2000.0, -2000.0);
08:40:00:561;08:40:00:516;1448308560.09;(0.43524928092956544, 0.38868348863389757);48.6216163635;1.0;0;0;0;0;0;0;0;0;0;();(-2000.0, -2000.0);
08:40:00:595;08:40:00:582;1448308560.16;(0.43557419776916506, 0.38818681504991315);48.5705375671;1.0;0;0;0;0;0;0;0;0;0;();(-2000.0, -2000.0);
08:40:00:612;08:40:00:582;1448308560.16;(0.43557419776916506, 0.38818681504991315);48.5705375671;1.0;0;0;0;0;0;0;0;0;0;();(-2000.0, -2000.0);
08:40:00:628;08:40:00:582;1448308560.16;(0.43557419776916506, 0.38818681504991315);48.5705375671;1.0;0;0;0;0;0;0;0;0;0;();(-2000.0, -2000.0);
08:40:00:646;08:40:00:582;1448308560.16;(0.43557419776916506, 0.38818681504991315);48.5705375671;1.0;0;0;0;0;0;0;0;0;0;();(-2000.0, -2000.0);
08:40:00:662;08:40:00:649;1448308560.22;(0.4356508731842041, 0.38830918206108944);48.5210075378;1.0;0;0;0;0;0;0;0;0;0;();(-2000.0, -2000.0);
08:40:00:696;08:40:00:649;1448308560.22;(0.4356508731842041, 0.38830918206108944);48.5210075378;1.0;0;0;0;0;0;0;0;0;0;();(-2000.0, -2000.0);
08:40:00:712;08:40:00:649;1448308560.22;(0.4356508731842041, 0.38830918206108944);48.5210075378;1.0;0;0;0;0;0;0;0;0;0;();(-2000.0, -2000.0);
08:40:00:728;08:40:00:715;1448308560.29;(0.4376065254211426, 0.3886369069417318);48.5024375916;0.811327127922;0;0;0;0;0;0;0;0;0;();(-2000.0, -2000.0);
08:40:00:744;08:40:00:715;1448308560.29;(0.4376065254211426, 0.3886369069417318);48.5024375916;0.811327127922;0;0;0;0;0;0;0;0;0;();(-2000.0, -2000.0);
08:40:00:762;08:40:00:715;1448308560.29;(0.4376065254211426, 0.3886369069417318);48.5024375916;0.811327127922;0;0;0;0;0;0;0;0;0;();(-2000.0, -2000.0);
08:40:00:795;08:40:00:781;1448308560.36;(0.43812336921691897, 0.3886348300509983);48.6585464478;1.0;0;0;0;0;0;0;0;0;0;();(-2000.0, -2000.0);
08:40:00:811;08:40:00:781;1448308560.36;(0.43812336921691897, 0.3886348300509983);48.6585464478;1.0;0;0;0;0;0;0;0;0;0;();(-2000.0, -2000.0);
08:40:00:828;08:40:00:781;1448308560.36;(0.43812336921691897, 0.3886348300509983);48.6585464478;1.0;0;0;0;0;0;0;0;0;0;();(-2000.0, -2000.0);
08:40:00:844;08:40:00:781;1448308560.36;(0.43812336921691897, 0.3886348300509983);48.6585464478;1.0;0;0;0;0;0;0;0;0;0;();(-2000.0, -2000.0);
08:40:00:862;08:40:00:849;1448308560.42;(0.43798165321350097, 0.38845532735188804);48.4632720947;1.0;0;0;0;0;0;0;0;0;0;();(-2000.0, -2000.0);
08:40:00:879;08:40:00:849;1448308560.42;(0.43798165321350097, 0.38845532735188804);48.4632720947;1.0;0;0;0;0;0;0;0;0;0;();(-2000.0, -2000.0);
08:40:00:911;08:40:00:849;1448308560.42;(0.43798165321350097, 0.38845532735188804);48.4632720947;1.0;0;0;0;0;0;0;0;0;0;();(-2000.0, -2000.0);
08:40:00:929;08:40:00:915;1448308560.49;(0.43813066482543944, 0.3887848748101128);48.1663398743;1.0;0;0;0;0;0;0;0;0;0;();(-2000.0, -2000.0);
08:40:00:945;08:40:00:915;1448308560.49;(0.43813066482543944, 0.3887848748101128);48.1663398743;1.0;0;0;0;0;0;0;0;0;0;();(-2000.0, -2000.0);
08:40:00:962;08:40:00:915;1448308560.49;(0.43813066482543944, 0.3887848748101128);48.1663398743;1.0;0;0;0;0;0;0;0;0;0;();(-2000.0, -2000.0);
08:40:00:979;08:40:00:915;1448308560.49;(0.43813066482543944, 0.3887848748101128);48.1663398743;1.0;0;0;0;0;0;0;0;0;0;();(-2000.0, -2000.0);
08:40:01:012;08:40:00:982;1448308560.56;(0.4768895149230957, 0.4290075514051649);47.470375061;1.0;0;0;0;0;0;0;0;0;0;();(-2000.0, -2000.0);
08:40:01:029;08:40:00:982;1448308560.56;(0.4768895149230957, 0.4290075514051649);47.470375061;1.0;0;0;0;0;0;0;0;0;0;();(-2000.0, -2000.0);
08:40:01:048;08:40:01:045;1448308560.62;(0.4769783020019531, 0.4283621046278212);47.3305892944;1.0;0;0;0;0;0;0;0;0;0;();(-2000.0, -2000.0);
08:40:01:061;08:40:01:045;1448308560.62;(0.4769783020019531, 0.4283621046278212);47.3305892944;1.0;0;0;0;0;0;0;0;0;0;();(-2000.0, -2000.0);
08:40:01:095;08:40:01:045;1448308560.62;(0.4769783020019531, 0.4283621046278212);47.3305892944;1.0;0;0;0;0;0;0;0;0;0;();(-2000.0, -2000.0);
08:40:01:111;08:40:01:045;1448308560.62;(0.4769783020019531, 0.4283621046278212);47.3305892944;1.0;0;0;0;0;0;0;0;0;0;();(-2000.0, -2000.0);
08:40:01:129;08:40:01:115;1448308560.69;(0.4769385814666748, 0.4288717905680338);47.5962638855;1.0;0;0;0;0;0;0;0;0;0;();(-2000.0, -2000.0);
08:40:01:145;08:40:01:115;1448308560.69;(0.4769385814666748, 0.4288717905680338);47.5962638855;1.0;0;0;0;0;0;0;0;0;0;();(-2000.0, -2000.0);
08:40:01:161;08:40:01:115;1448308560.69;(0.4769385814666748, 0.4288717905680338);47.5962638855;1.0;0;0;0;0;0;0;0;0;0;();(-2000.0, -2000.0);
08:40:01:179;08:40:01:115;1448308560.69;(0.4769385814666748, 0.4288717905680338);47.5962638855;1.0;0;0;0;0;0;0;0;0;0;();(-2000.0, -2000.0);
08:40:01:214;08:40:01:182;1448308560.76;(0.4803324699401855, 0.4303616417778863);48.0399208069;1.0;0;0;0;0;0;0;0;0;0;();(-2000.0, -2000.0);
08:40:01:231;08:40:01:182;1448308560.76;(0.4803324699401855, 0.4303616417778863);48.0399208069;1.0;0;0;0;0;0;0;0;0;0;();(-2000.0, -2000.0);
08:40:01:250;08:40:01:244;1448308560.79;(0.48137626647949217, 0.43077824910481766);47.6121406555;0.944803764569;0;0;0;0;0;0;0;0;0;();(-2000.0, -2000.0);
08:40:01:265;08:40:01:246;1448308560.82;(0.4815979957580566, 0.43100039164225257);47.4327735901;1.0;0;0;0;0;0;0;0;0;0;();(-2000.0, -2000.0);
08:40:01:281;08:40:01:246;1448308560.82;(0.4815979957580566, 0.43100039164225257);47.4327735901;1.0;0;0;0;0;0;0;0;0;0;();(-2000.0, -2000.0);
08:40:01:314;08:40:01:246;1448308560.82;(0.4815979957580566, 0.43100039164225257);47.4327735901;1.0;0;0;0;0;0;0;0;0;0;();(-2000.0, -2000.0);
08:40:01:331;08:40:01:320;1448308560.89;(0.48167810440063474, 0.4311986711290148);47.6784324646;1.0;0;0;0;0;0;0;0;0;0;();(-2000.0, -2000.0);
08:40:01:348;08:40:01:320;1448308560.89;(0.48167810440063474, 0.4311986711290148);47.6784324646;1.0;0;0;0;0;0;0;0;0;0;();(-2000.0, -2000.0);
08:40:01:365;08:40:01:320;1448308560.89;(0.48167810440063474, 0.4311986711290148);47.6784324646;1.0;0;0;0;0;0;0;0;0;0;();(-2000.0, -2000.0);
08:40:01:380;08:40:01:376;1448308560.92;(0.48171291351318357, 0.4308472527398004);47.7267723083;1.0;0;0;0;0;0;0;0;0;0;();(-2000.0, -2000.0);
08:40:01:415;08:40:01:379;1448308560.96;(0.4817827224731445, 0.43087688022189674);47.8470840454;1.0;0;0;0;0;0;0;0;0;0;();(-2000.0, -2000.0);
08:40:01:432;08:40:01:379;1448308560.96;(0.4817827224731445, 0.43087688022189674);47.8470840454;1.0;0;0;0;0;0;0;0;0;0;();(-2000.0, -2000.0);
08:40:01:446;08:40:01:443;1448308560.99;(0.48172659873962403, 0.430904303656684);47.8527412415;1.0;0;0;0;0;0;0;0;0;0;();(-2000.0, -2000.0);
08:40:01:462;08:40:01:445;1448308561.02;(0.48189487457275393, 0.43065846761067705);47.9379081726;1.0;0;0;0;0;0;0;0;0;0;();(-2000.0, -2000.0);
08:40:01:481;08:40:01:445;1448308561.02;(0.48189487457275393, 0.43065846761067705);47.9379081726;1.0;0;0;0;0;0;0;0;0;0;();(-2000.0, -2000.0);
08:40:01:515;08:40:01:445;1448308561.02;(0.48189487457275393, 0.43065846761067705);47.9379081726;1.0;0;0;0;0;0;0;0;0;0;();(-2000.0, -2000.0);
08:40:01:531;08:40:01:518;1448308561.09;(0.48202977180480955, 0.4306815677218967);48.5032920837;1.0;0;0;0;0;0;0;0;0;0;();(-2000.0, -2000.0);
08:40:01:548;08:40:01:518;1448308561.09;(0.48202977180480955, 0.4306815677218967);48.5032920837;1.0;0;0;0;0;0;0;0;0;0;();(-2000.0, -2000.0);
08:40:01:563;08:40:01:518;1448308561.09;(0.48202977180480955, 0.4306815677218967);48.5032920837;1.0;0;0;0;0;0;0;0;0;0;();(-2000.0, -2000.0);
08:40:01:579;08:40:01:576;1448308561.16;(0.4822042465209961, 0.4305728064643012);48.838596344;1.0;0;0;0;0;0;0;0;0;0;();(-2000.0, -2000.0);
08:40:01:613;08:40:01:576;1448308561.16;(0.4822042465209961, 0.4305728064643012);48.838596344;1.0;0;0;0;0;0;0;0;0;0;();(-2000.0, -2000.0);
08:40:01:629;08:40:01:576;1448308561.16;(0.4822042465209961, 0.4305728064643012);48.838596344;1.0;0;0;0;0;0;0;0;0;0;();(-2000.0, -2000.0);
08:40:01:648;08:40:01:645;1448308561.22;(0.48401436805725095, 0.4297417534722222);48.966129303;1.0;0;0;0;0;0;0;0;0;0;();(-2000.0, -2000.0);
08:40:01:663;08:40:01:645;1448308561.22;(0.48401436805725095, 0.4297417534722222);48.966129303;1.0;0;0;0;0;0;0;0;0;0;();(-2000.0, -2000.0);
08:40:01:680;08:40:01:645;1448308561.22;(0.48401436805725095, 0.4297417534722222);48.966129303;1.0;0;0;0;0;0;0;0;0;0;();(-2000.0, -2000.0);
08:40:01:715;08:40:01:645;1448308561.22;(0.48401436805725095, 0.4297417534722222);48.966129303;1.0;0;0;0;0;0;0;0;0;0;();(-2000.0, -2000.0);
08:40:01:732;08:40:01:721;1448308561.29;(0.48370752334594724, 0.4294258117675781);49.107093811;1.0;0;0;0;0;0;0;0;0;0;();(-2000.0, -2000.0);
08:40:01:746;08:40:01:721;1448308561.29;(0.48370752334594724, 0.4294258117675781);49.107093811;1.0;0;0;0;0;0;0;0;0;0;();(-2000.0, -2000.0);
08:40:01:763;08:40:01:721;1448308561.29;(0.48370752334594724, 0.4294258117675781);49.107093811;1.0;0;0;0;0;0;0;0;0;0;();(-2000.0, -2000.0);
08:40:01:781;08:40:01:776;1448308561.36;(0.5065439224243165, 0.40868983798556857);56.2413291931;0.909247455799;0;0;0;0;0;0;0;0;0;();(-2000.0, -2000.0);
08:40:01:815;08:40:01:776;1448308561.36;(0.5065439224243165, 0.40868983798556857);56.2413291931;0.909247455799;0;0;0;0;0;0;0;0;0;();(-2000.0, -2000.0);
08:40:01:832;08:40:01:776;1448308561.36;(0.5065439224243165, 0.40868983798556857);56.2413291931;0.909247455799;0;0;0;0;0;0;0;0;0;();(-2000.0, -2000.0);
08:40:01:850;08:40:01:843;1448308561.39;(0.5445481300354004, 0.37275339762369797);49.2157058716;0.972803186167;0;0;0;0;0;0;0;0;0;();(-2000.0, -2000.0);
08:40:01:862;08:40:01:843;1448308561.39;(0.5445481300354004, 0.37275339762369797);49.2157058716;0.972803186167;0;0;0;0;0;0;0;0;0;();(-2000.0, -2000.0);
08:40:01:878;08:40:01:843;1448308561.39;(0.5445481300354004, 0.37275339762369797);49.2157058716;0.972803186167;0;0;0;0;0;0;0;0;0;();(-2000.0, -2000.0);
08:40:01:912;08:40:01:909;1448308561.46;(0.5576519966125488, 0.3611511654324002);49.1007194519;1.0;0;0;0;0;0;0;0;0;0;();(-2000.0, -2000.0);
08:40:01:929;08:40:01:909;1448308561.46;(0.5576519966125488, 0.3611511654324002);49.1007194519;1.0;0;0;0;0;0;0;0;0;0;();(-2000.0, -2000.0);
08:40:01:946;08:40:01:909;1448308561.46;(0.5576519966125488, 0.3611511654324002);49.1007194519;1.0;0;0;0;0;0;0;0;0;0;();(-2000.0, -2000.0);
08:40:01:963;08:40:01:909;1448308561.46;(0.5576519966125488, 0.3611511654324002);49.1007194519;1.0;0;0;0;0;0;0;0;0;0;();(-2000.0, -2000.0);
08:40:01:980;08:40:01:976;1448308561.56;(0.5584593296051026, 0.36190677218967016);48.4422264099;1.0;0;0;0;0;0;0;0;0;0;();(-2000.0, -2000.0);
08:40:02:013;08:40:01:976;1448308561.56;(0.5584593296051026, 0.36190677218967016);48.4422264099;1.0;0;0;0;0;0;0;0;0;0;();(-2000.0, -2000.0);
08:40:02:029;08:40:01:976;1448308561.56;(0.5584593296051026, 0.36190677218967016);48.4422264099;1.0;0;0;0;0;0;0;0;0;0;();(-2000.0, -2000.0);
08:40:02:045;08:40:02:041;1448308561.62;(0.5616800308227539, 0.36058336893717446);49.3452606201;0.999848141607;0;0;0;0;0;0;0;0;0;();(-2000.0, -2000.0);
08:40:02:063;08:40:02:041;1448308561.62;(0.5616800308227539, 0.36058336893717446);49.3452606201;0.999848141607;0;0;0;0;0;0;0;0;0;();(-2000.0, -2000.0);
08:40:02:079;08:40:02:041;1448308561.62;(0.5616800308227539, 0.36058336893717446);49.3452606201;0.999848141607;0;0;0;0;0;0;0;0;0;();(-2000.0, -2000.0);
08:40:02:112;08:40:02:109;1448308561.69;(0.5755570888519287, 0.35262925889756946);47.6298103333;1.0;0;0;0;0;0;0;0;0;0;();(-2000.0, -2000.0);
08:40:02:130;08:40:02:109;1448308561.69;(0.5755570888519287, 0.35262925889756946);47.6298103333;1.0;0;0;0;0;0;0;0;0;0;();(-2000.0, -2000.0);
08:40:02:146;08:40:02:109;1448308561.69;(0.5755570888519287, 0.35262925889756946);47.6298103333;1.0;0;0;0;0;0;0;0;0;0;();(-2000.0, -2000.0);
08:40:02:162;08:40:02:109;1448308561.69;(0.5755570888519287, 0.35262925889756946);47.6298103333;1.0;0;0;0;0;0;0;0;0;0;();(-2000.0, -2000.0);
08:40:02:179;08:40:02:176;1448308561.76;(0.5756418228149414, 0.3533287048339844);47.1853141785;1.0;0;0;0;0;0;0;0;0;0;();(-2000.0, -2000.0);
08:40:02:215;08:40:02:176;1448308561.76;(0.5756418228149414, 0.3533287048339844);47.1853141785;1.0;0;0;0;0;0;0;0;0;0;();(-2000.0, -2000.0);
08:40:02:232;08:40:02:176;1448308561.76;(0.5756418228149414, 0.3533287048339844);47.1853141785;1.0;0;0;0;0;0;0;0;0;0;();(-2000.0, -2000.0);
08:40:02:248;08:40:02:241;1448308561.82;(0.5758720874786377, 0.35318984985351565);46.7443237305;1.0;0;0;0;0;0;0;0;0;0;();(-2000.0, -2000.0);
08:40:02:265;08:40:02:241;1448308561.82;(0.5758720874786377, 0.35318984985351565);46.7443237305;1.0;0;0;0;0;0;0;0;0;0;();(-2000.0, -2000.0);
08:40:02:280;08:40:02:241;1448308561.82;(0.5758720874786377, 0.35318984985351565);46.7443237305;1.0;0;0;0;0;0;0;0;0;0;();(-2000.0, -2000.0);
08:40:02:313;08:40:02:309;1448308561.89;(0.5760464191436767, 0.3526768578423394);47.0858840942;1.0;0;0;0;0;0;0;0;0;0;();(-2000.0, -2000.0);
08:40:02:330;08:40:02:309;1448308561.89;(0.5760464191436767, 0.3526768578423394);47.0858840942;1.0;0;0;0;0;0;0;0;0;0;();(-2000.0, -2000.0);
08:40:02:347;08:40:02:309;1448308561.89;(0.5760464191436767, 0.3526768578423394);47.0858840942;1.0;0;0;0;0;0;0;0;0;0;();(-2000.0, -2000.0);
08:40:02:363;08:40:02:309;1448308561.89;(0.5760464191436767, 0.3526768578423394);47.0858840942;1.0;0;0;0;0;0;0;0;0;0;();(-2000.0, -2000.0);
08:40:02:380;08:40:02:373;1448308561.96;(0.5759795665740967, 0.3530495113796658);47.0359687805;1.0;0;0;0;0;0;0;0;0;0;();(-2000.0, -2000.0);
08:40:02:416;08:40:02:373;1448308561.96;(0.5759795665740967, 0.3530495113796658);47.0359687805;1.0;0;0;0;0;0;0;0;0;0;();(-2000.0, -2000.0);
08:40:02:432;08:40:02:373;1448308561.96;(0.5759795665740967, 0.3530495113796658);47.0359687805;1.0;0;0;0;0;0;0;0;0;0;();(-2000.0, -2000.0);
08:40:02:449;08:40:02:442;1448308562.02;(0.5828256130218505, 0.34694031609429254);47.8743591309;0.949442854907;0;0;0;0;0;0;0;0;0;();(-2000.0, -2000.0);
08:40:02:465;08:40:02:442;1448308562.02;(0.5828256130218505, 0.34694031609429254);47.8743591309;0.949442854907;0;0;0;0;0;0;0;0;0;();(-2000.0, -2000.0);
08:40:02:482;08:40:02:442;1448308562.02;(0.5828256130218505, 0.34694031609429254);47.8743591309;0.949442854907;0;0;0;0;0;0;0;0;0;();(-2000.0, -2000.0);
08:40:02:513;08:40:02:508;1448308562.09;(0.5951385498046875, 0.33427098592122395);47.1235046387;1.0;0;0;0;0;0;0;0;0;0;();(-2000.0, -2000.0);
08:40:02:532;08:40:02:508;1448308562.09;(0.5951385498046875, 0.33427098592122395);47.1235046387;1.0;0;0;0;0;0;0;0;0;0;();(-2000.0, -2000.0);
08:40:02:548;08:40:02:508;1448308562.09;(0.5951385498046875, 0.33427098592122395);47.1235046387;1.0;0;0;0;0;0;0;0;0;0;();(-2000.0, -2000.0);
08:40:02:563;08:40:02:508;1448308562.09;(0.5951385498046875, 0.33427098592122395);47.1235046387;1.0;0;0;0;0;0;0;0;0;0;();(-2000.0, -2000.0);
08:40:02:580;08:40:02:573;1448308562.16;(0.5950220108032227, 0.33435376485188806);46.5119247437;1.0;0;0;0;0;0;0;0;0;0;();(-2000.0, -2000.0);
08:40:02:614;08:40:02:573;1448308562.16;(0.5950220108032227, 0.33435376485188806);46.5119247437;1.0;0;0;0;0;0;0;0;0;0;();(-2000.0, -2000.0);
08:40:02:630;08:40:02:573;1448308562.16;(0.5950220108032227, 0.33435376485188806);46.5119247437;1.0;0;0;0;0;0;0;0;0;0;();(-2000.0, -2000.0);
08:40:02:648;08:40:02:644;1448308562.22;(0.5817929744720459, 0.3438571506076389);45.8043251038;0.756552858788;0;0;0;0;0;0;0;0;0;();(-2000.0, -2000.0);
08:40:02:664;08:40:02:644;1448308562.22;(0.5817929744720459, 0.3438571506076389);45.8043251038;0.756552858788;0;0;0;0;0;0;0;0;0;();(-2000.0, -2000.0);
08:40:02:683;08:40:02:644;1448308562.22;(0.5817929744720459, 0.3438571506076389);45.8043251038;0.756552858788;0;0;0;0;0;0;0;0;0;();(-2000.0, -2000.0);
08:40:02:716;08:40:02:706;1448308562.29;(0.5408214092254638, 0.3444080776638455);46.4435195923;1.0;0;0;0;0;0;0;0;0;0;();(-2000.0, -2000.0);
08:40:02:731;08:40:02:706;1448308562.29;(0.5408214092254638, 0.3444080776638455);46.4435195923;1.0;0;0;0;0;0;0;0;0;0;();(-2000.0, -2000.0);
08:40:02:747;08:40:02:706;1448308562.29;(0.5408214092254638, 0.3444080776638455);46.4435195923;1.0;0;0;0;0;0;0;0;0;0;();(-2000.0, -2000.0);
08:40:02:764;08:40:02:706;1448308562.29;(0.5408214092254638, 0.3444080776638455);46.4435195923;1.0;0;0;0;0;0;0;0;0;0;();(-2000.0, -2000.0);
08:40:02:780;08:40:02:773;1448308562.36;(0.5399252414703369, 0.3450495825873481);46.1116142273;1.0;0;0;0;0;0;0;0;0;0;();(-2000.0, -2000.0);
08:40:02:814;08:40:02:773;1448308562.36;(0.5399252414703369, 0.3450495825873481);46.1116142273;1.0;0;0;0;0;0;0;0;0;0;();(-2000.0, -2000.0);
08:40:02:830;08:40:02:773;1448308562.36;(0.5399252414703369, 0.3450495825873481);46.1116142273;1.0;0;0;0;0;0;0;0;0;0;();(-2000.0, -2000.0);
08:40:02:847;08:40:02:840;1448308562.42;(0.5399191379547119, 0.34544003804524737);46.0374908447;1.0;0;0;0;0;0;0;0;0;0;();(-2000.0, -2000.0);
08:40:02:864;08:40:02:840;1448308562.42;(0.5399191379547119, 0.34544003804524737);46.0374908447;1.0;0;0;0;0;0;0;0;0;0;();(-2000.0, -2000.0);
08:40:02:880;08:40:02:840;1448308562.42;(0.5399191379547119, 0.34544003804524737);46.0374908447;1.0;0;0;0;0;0;0;0;0;0;();(-2000.0, -2000.0);
08:40:02:916;08:40:02:905;1448308562.49;(0.5401078701019287, 0.3458366394042969);45.8564567566;1.0;0;0;0;0;0;0;0;0;0;();(-2000.0, -2000.0);
08:40:02:933;08:40:02:905;1448308562.49;(0.5401078701019287, 0.3458366394042969);45.8564567566;1.0;0;0;0;0;0;0;0;0;0;();(-2000.0, -2000.0);
08:40:02:949;08:40:02:905;1448308562.49;(0.5401078701019287, 0.3458366394042969);45.8564567566;1.0;0;0;0;0;0;0;0;0;0;();(-2000.0, -2000.0);
08:40:02:966;08:40:02:905;1448308562.49;(0.5401078701019287, 0.3458366394042969);45.8564567566;1.0;0;0;0;0;0;0;0;0;0;();(-2000.0, -2000.0);
08:40:02:980;08:40:02:973;1448308562.56;(0.5397263050079346, 0.34642359415690105);45.7587776184;1.0;0;0;0;0;0;0;0;0;0;();(-2000.0, -2000.0);
08:40:03:014;08:40:02:973;1448308562.56;(0.5397263050079346, 0.34642359415690105);45.7587776184;1.0;0;0;0;0;0;0;0;0;0;();(-2000.0, -2000.0);
08:40:03:030;08:40:02:973;1448308562.56;(0.5397263050079346, 0.34642359415690105);45.7587776184;1.0;0;0;0;0;0;0;0;0;0;();(-2000.0, -2000.0);
08:40:03:047;08:40:03:039;1448308562.62;(0.508299732208252, 0.3330082363552518);46.3961982727;1.0;0;0;0;0;0;0;0;0;0;();(-2000.0, -2000.0);
08:40:03:066;08:40:03:039;1448308562.62;(0.508299732208252, 0.3330082363552518);46.3961982727;1.0;0;0;0;0;0;0;0;0;0;();(-2000.0, -2000.0);
08:40:03:083;08:40:03:039;1448308562.62;(0.508299732208252, 0.3330082363552518);46.3961982727;1.0;0;0;0;0;0;0;0;0;0;();(-2000.0, -2000.0);
08:40:03:114;08:40:03:106;1448308562.69;(0.5072879314422607, 0.33303256564670136);46.7750778198;1.0;0;0;0;0;0;0;0;0;0;();(-2000.0, -2000.0);
08:40:03:130;08:40:03:106;1448308562.69;(0.5072879314422607, 0.33303256564670136);46.7750778198;1.0;0;0;0;0;0;0;0;0;0;();(-2000.0, -2000.0);
08:40:03:147;08:40:03:106;1448308562.69;(0.5072879314422607, 0.33303256564670136);46.7750778198;1.0;0;0;0;0;0;0;0;0;0;();(-2000.0, -2000.0);
08:40:03:163;08:40:03:106;1448308562.69;(0.5072879314422607, 0.33303256564670136);46.7750778198;1.0;0;0;0;0;0;0;0;0;0;();(-2000.0, -2000.0);
08:40:03:181;08:40:03:171;1448308562.76;(0.5071414947509766, 0.3331430223253038);47.1234130859;1.0;0;0;0;0;0;0;0;0;0;();(-2000.0, -2000.0);
08:40:03:214;08:40:03:171;1448308562.76;(0.5071414947509766, 0.3331430223253038);47.1234130859;1.0;0;0;0;0;0;0;0;0;0;();(-2000.0, -2000.0);
08:40:03:231;08:40:03:171;1448308562.76;(0.5071414947509766, 0.3331430223253038);47.1234130859;1.0;0;0;0;0;0;0;0;0;0;();(-2000.0, -2000.0);
08:40:03:246;08:40:03:236;1448308562.82;(0.5072686195373535, 0.3334825727674696);47.1076278687;1.0;0;0;0;0;0;0;0;0;0;();(-2000.0, -2000.0);
08:40:03:264;08:40:03:236;1448308562.82;(0.5072686195373535, 0.3334825727674696);47.1076278687;1.0;0;0;0;0;0;0;0;0;0;();(-2000.0, -2000.0);
08:40:03:280;08:40:03:236;1448308562.82;(0.5072686195373535, 0.3334825727674696);47.1076278687;1.0;0;0;0;0;0;0;0;0;0;();(-2000.0, -2000.0);
08:40:03:314;08:40:03:305;1448308562.89;(0.5110609531402588, 0.32973497178819444);47.0720062256;0.966529472693;0;0;0;0;0;0;0;0;0;();(-2000.0, -2000.0);
08:40:03:330;08:40:03:305;1448308562.89;(0.5110609531402588, 0.32973497178819444);47.0720062256;0.966529472693;0;0;0;0;0;0;0;0;0;();(-2000.0, -2000.0);
08:40:03:347;08:40:03:305;1448308562.89;(0.5110609531402588, 0.32973497178819444);47.0720062256;0.966529472693;0;0;0;0;0;0;0;0;0;();(-2000.0, -2000.0);
08:40:03:363;08:40:03:305;1448308562.89;(0.5110609531402588, 0.32973497178819444);47.0720062256;0.966529472693;0;0;0;0;0;0;0;0;0;();(-2000.0, -2000.0);
08:40:03:380;08:40:03:369;1448308562.96;(0.5225636959075928, 0.31693077087402344);48.0183601379;1.0;0;0;0;0;0;0;0;0;0;();(-2000.0, -2000.0);
08:40:03:414;08:40:03:369;1448308562.96;(0.5225636959075928, 0.31693077087402344);48.0183601379;1.0;0;0;0;0;0;0;0;0;0;();(-2000.0, -2000.0);
08:40:03:430;08:40:03:369;1448308562.96;(0.5225636959075928, 0.31693077087402344);48.0183601379;1.0;0;0;0;0;0;0;0;0;0;();(-2000.0, -2000.0);
08:40:03:448;08:40:03:436;1448308563.02;(0.5220072746276856, 0.3171386294894748);48.4291000366;1.0;0;0;0;0;0;0;0;0;0;();(-2000.0, -2000.0);
08:40:03:463;08:40:03:436;1448308563.02;(0.5220072746276856, 0.3171386294894748);48.4291000366;1.0;0;0;0;0;0;0;0;0;0;();(-2000.0, -2000.0);
08:40:03:481;08:40:03:436;1448308563.02;(0.5220072746276856, 0.3171386294894748);48.4291000366;1.0;0;0;0;0;0;0;0;0;0;();(-2000.0, -2000.0);
08:40:03:517;08:40:03:501;1448308563.09;(0.5218838691711426, 0.3172805786132813);48.7362709045;1.0;0;0;0;0;0;0;0;0;0;();(-2000.0, -2000.0);
08:40:03:533;08:40:03:501;1448308563.09;(0.5218838691711426, 0.3172805786132813);48.7362709045;1.0;0;0;0;0;0;0;0;0;0;();(-2000.0, -2000.0);
08:40:03:548;08:40:03:501;1448308563.09;(0.5218838691711426, 0.3172805786132813);48.7362709045;1.0;0;0;0;0;0;0;0;0;0;();(-2000.0, -2000.0);
08:40:03:564;08:40:03:501;1448308563.09;(0.5218838691711426, 0.3172805786132813);48.7362709045;1.0;0;0;0;0;0;0;0;0;0;();(-2000.0, -2000.0);
08:40:03:580;08:40:03:568;1448308563.16;(0.5218497753143311, 0.31695437961154516);49.1624794006;1.0;0;0;0;0;0;0;0;0;0;();(-2000.0, -2000.0);
08:40:03:613;08:40:03:568;1448308563.16;(0.5218497753143311, 0.31695437961154516);49.1624794006;1.0;0;0;0;0;0;0;0;0;0;();(-2000.0, -2000.0);
08:40:03:631;08:40:03:568;1448308563.16;(0.5218497753143311, 0.31695437961154516);49.1624794006;1.0;0;0;0;0;0;0;0;0;0;();(-2000.0, -2000.0);
08:40:03:648;08:40:03:644;1448308563.22;(0.5216990947723389, 0.3171429528130425);49.4069709778;1.0;0;0;0;0;0;0;0;0;0;();(-2000.0, -2000.0);
08:40:03:664;08:40:03:644;1448308563.22;(0.5216990947723389, 0.3171429528130425);49.4069709778;1.0;0;0;0;0;0;0;0;0;0;();(-2000.0, -2000.0);
08:40:03:681;08:40:03:644;1448308563.22;(0.5216990947723389, 0.3171429528130425);49.4069709778;1.0;0;0;0;0;0;0;0;0;0;();(-2000.0, -2000.0);
08:40:03:714;08:40:03:701;1448308563.29;(0, 0);0;0;0;0;0;0;0;0;0;0;0;();(-2000.0, -2000.0);
08:40:03:730;08:40:03:701;1448308563.29;(0, 0);0;0;0;0;0;0;0;0;0;0;0;();(-2000.0, -2000.0);
08:40:03:748;08:40:03:701;1448308563.29;(0, 0);0;0;0;0;0;0;0;0;0;0;0;();(-2000.0, -2000.0);
08:40:03:764;08:40:03:701;1448308563.29;(0, 0);0;0;0;0;0;0;0;0;0;0;0;();(-2000.0, -2000.0);
08:40:03:780;08:40:03:769;1448308563.36;(0, 0);0;0;0;0;0;0;0;0;0;0;0;();(-2000.0, -2000.0);
08:40:03:815;08:40:03:769;1448308563.36;(0, 0);0;0;0;0;0;0;0;0;0;0;0;();(-2000.0, -2000.0);
08:40:03:830;08:40:03:769;1448308563.36;(0, 0);0;0;0;0;0;0;0;0;0;0;0;();(-2000.0, -2000.0);
08:40:03:848;08:40:03:833;1448308563.42;(0, 0);0;0;0;0;0;0;0;0;0;0;0;();(-2000.0, -2000.0);
08:40:03:865;08:40:03:833;1448308563.42;(0, 0);0;0;0;0;0;0;0;0;0;0;0;();(-2000.0, -2000.0);
08:40:03:882;08:40:03:833;1448308563.42;(0, 0);0;0;0;0;0;0;0;0;0;0;0;();(-2000.0, -2000.0);
08:40:03:914;08:40:03:901;1448308563.49;(0.4638346195220947, 0.3413172403971354);50.7191390991;1.0;0;0;0;0;0;0;0;0;0;();(-2000.0, -2000.0);
08:40:03:931;08:40:03:901;1448308563.49;(0.4638346195220947, 0.3413172403971354);50.7191390991;1.0;0;0;0;0;0;0;0;0;0;();(-2000.0, -2000.0);
08:40:03:948;08:40:03:901;1448308563.49;(0.4638346195220947, 0.3413172403971354);50.7191390991;1.0;0;0;0;0;0;0;0;0;0;();(-2000.0, -2000.0);
08:40:03:964;08:40:03:901;1448308563.49;(0.4638346195220947, 0.3413172403971354);50.7191390991;1.0;0;0;0;0;0;0;0;0;0;();(-2000.0, -2000.0);
08:40:03:982;08:40:03:969;1448308563.56;(0.4643546581268311, 0.34011713663736975);50.8884735107;1.0;0;0;0;0;0;0;0;0;0;();(-2000.0, -2000.0);
08:40:04:014;08:40:03:969;1448308563.56;(0.4643546581268311, 0.34011713663736975);50.8884735107;1.0;0;0;0;0;0;0;0;0;0;();(-2000.0, -2000.0);
08:40:04:031;08:40:03:969;1448308563.56;(0.4643546581268311, 0.34011713663736975);50.8884735107;1.0;0;0;0;0;0;0;0;0;0;();(-2000.0, -2000.0);
08:40:04:048;08:40:04:034;1448308563.62;(0.46467413902282717, 0.33911018371582036);50.8026618958;1.0;0;0;0;0;0;0;0;0;0;();(-2000.0, -2000.0);
08:40:04:065;08:40:04:034;1448308563.62;(0.46467413902282717, 0.33911018371582036);50.8026618958;1.0;0;0;0;0;0;0;0;0;0;();(-2000.0, -2000.0);
08:40:04:084;08:40:04:034;1448308563.62;(0.46467413902282717, 0.33911018371582036);50.8026618958;1.0;0;0;0;0;0;0;0;0;0;();(-2000.0, -2000.0);
08:40:04:115;08:40:04:102;1448308563.69;(0.4648836612701416, 0.33874448140462243);50.7624778748;1.0;0;0;0;0;0;0;0;0;0;();(-2000.0, -2000.0);
08:40:04:131;08:40:04:102;1448308563.69;(0.4648836612701416, 0.33874448140462243);50.7624778748;1.0;0;0;0;0;0;0;0;0;0;();(-2000.0, -2000.0);
08:40:04:148;08:40:04:102;1448308563.69;(0.4648836612701416, 0.33874448140462243);50.7624778748;1.0;0;0;0;0;0;0;0;0;0;();(-2000.0, -2000.0);
08:40:04:165;08:40:04:102;1448308563.69;(0.4648836612701416, 0.33874448140462243);50.7624778748;1.0;0;0;0;0;0;0;0;0;0;();(-2000.0, -2000.0);
08:40:04:181;08:40:04:177;1448308563.76;(0.47206625938415525, 0.3356434716118707);51.1041870117;1.0;0;0;0;0;0;0;0;0;0;();(-2000.0, -2000.0);
08:40:04:215;08:40:04:177;1448308563.76;(0.47206625938415525, 0.3356434716118707);51.1041870117;1.0;0;0;0;0;0;0;0;0;0;();(-2000.0, -2000.0);
08:40:04:232;08:40:04:177;1448308563.76;(0.47206625938415525, 0.3356434716118707);51.1041870117;1.0;0;0;0;0;0;0;0;0;0;();(-2000.0, -2000.0);
08:40:04:249;08:40:04:235;1448308563.82;(0.4732076644897461, 0.33518435160319016);51.1358222961;1.0;0;0;0;0;0;0;0;0;0;();(-2000.0, -2000.0);
08:40:04:265;08:40:04:235;1448308563.82;(0.4732076644897461, 0.33518435160319016);51.1358222961;1.0;0;0;0;0;0;0;0;0;0;();(-2000.0, -2000.0);
08:40:04:282;08:40:04:235;1448308563.82;(0.4732076644897461, 0.33518435160319016);51.1358222961;1.0;0;0;0;0;0;0;0;0;0;();(-2000.0, -2000.0);
08:40:04:315;08:40:04:301;1448308563.89;(0.4730952262878418, 0.33542616102430556);51.4434547424;1.0;0;0;0;0;0;0;0;0;0;();(-2000.0, -2000.0);
08:40:04:332;08:40:04:301;1448308563.89;(0.4730952262878418, 0.33542616102430556);51.4434547424;1.0;0;0;0;0;0;0;0;0;0;();(-2000.0, -2000.0);
08:40:04:348;08:40:04:301;1448308563.89;(0.4730952262878418, 0.33542616102430556);51.4434547424;1.0;0;0;0;0;0;0;0;0;0;();(-2000.0, -2000.0);
08:40:04:365;08:40:04:301;1448308563.89;(0.4730952262878418, 0.33542616102430556);51.4434547424;1.0;0;0;0;0;0;0;0;0;0;();(-2000.0, -2000.0);
08:40:04:382;08:40:04:378;1448308563.96;(0.47313461303710935, 0.3353141360812717);51.3989486694;1.0;0;0;0;0;0;0;0;0;0;();(-2000.0, -2000.0);
08:40:04:418;08:40:04:378;1448308563.96;(0.47313461303710935, 0.3353141360812717);51.3989486694;1.0;0;0;0;0;0;0;0;0;0;();(-2000.0, -2000.0);
08:40:04:434;08:40:04:378;1448308563.96;(0.47313461303710935, 0.3353141360812717);51.3989486694;1.0;0;0;0;0;0;0;0;0;0;();(-2000.0, -2000.0);
08:40:04:448;08:40:04:439;1448308564.02;(0.46488151550292967, 0.338864983452691);50.7084884644;0.915267195531;0;0;0;0;0;0;0;0;0;();(-2000.0, -2000.0);
08:40:04:465;08:40:04:439;1448308564.02;(0.46488151550292967, 0.338864983452691);50.7084884644;0.915267195531;0;0;0;0;0;0;0;0;0;();(-2000.0, -2000.0);
08:40:04:481;08:40:04:439;1448308564.02;(0.46488151550292967, 0.338864983452691);50.7084884644;0.915267195531;0;0;0;0;0;0;0;0;0;();(-2000.0, -2000.0);
08:40:04:514;08:40:04:497;1448308564.09;(0.45667877197265627, 0.34427032470703123);51.4974479675;1.0;0;0;0;0;0;0;0;0;0;();(-2000.0, -2000.0);
08:40:04:532;08:40:04:497;1448308564.09;(0.45667877197265627, 0.34427032470703123);51.4974479675;1.0;0;0;0;0;0;0;0;0;0;();(-2000.0, -2000.0);
08:40:04:549;08:40:04:497;1448308564.09;(0.45667877197265627, 0.34427032470703123);51.4974479675;1.0;0;0;0;0;0;0;0;0;0;();(-2000.0, -2000.0);
08:40:04:564;08:40:04:497;1448308564.09;(0.45667877197265627, 0.34427032470703123);51.4974479675;1.0;0;0;0;0;0;0;0;0;0;();(-2000.0, -2000.0);
08:40:04:581;08:40:04:567;1448308564.16;(0.45671930313110354, 0.3446890513102213);51.6200180054;1.0;0;0;0;0;0;0;0;0;0;();(-2000.0, -2000.0);
08:40:04:615;08:40:04:567;1448308564.16;(0.45671930313110354, 0.3446890513102213);51.6200180054;1.0;0;0;0;0;0;0;0;0;0;();(-2000.0, -2000.0);
08:40:04:632;08:40:04:567;1448308564.16;(0.45671930313110354, 0.3446890513102213);51.6200180054;1.0;0;0;0;0;0;0;0;0;0;();(-2000.0, -2000.0);
08:40:04:649;08:40:04:634;1448308564.22;(0.4568943500518799, 0.3449951595730252);51.6081733704;1.0;0;0;0;0;0;0;0;0;0;();(-2000.0, -2000.0);
08:40:04:664;08:40:04:634;1448308564.22;(0.4568943500518799, 0.3449951595730252);51.6081733704;1.0;0;0;0;0;0;0;0;0;0;();(-2000.0, -2000.0);
08:40:04:682;08:40:04:634;1448308564.22;(0.4568943500518799, 0.3449951595730252);51.6081733704;1.0;0;0;0;0;0;0;0;0;0;();(-2000.0, -2000.0);
08:40:04:715;08:40:04:697;1448308564.29;(0.45670571327209475, 0.345064926147461);51.6248283386;1.0;0;0;0;0;0;0;0;0;0;();(-2000.0, -2000.0);
08:40:04:732;08:40:04:697;1448308564.29;(0.45670571327209475, 0.345064926147461);51.6248283386;1.0;0;0;0;0;0;0;0;0;0;();(-2000.0, -2000.0);
08:40:04:749;08:40:04:697;1448308564.29;(0.45670571327209475, 0.345064926147461);51.6248283386;1.0;0;0;0;0;0;0;0;0;0;();(-2000.0, -2000.0);
08:40:04:765;08:40:04:697;1448308564.29;(0.45670571327209475, 0.345064926147461);51.6248283386;1.0;0;0;0;0;0;0;0;0;0;();(-2000.0, -2000.0);
08:40:04:781;08:40:04:767;1448308564.36;(0.458162784576416, 0.34583312140570743);51.8352127075;0.998010048003;0;0;0;0;0;0;0;0;0;();(-2000.0, -2000.0);
08:40:04:818;08:40:04:767;1448308564.36;(0.458162784576416, 0.34583312140570743);51.8352127075;0.998010048003;0;0;0;0;0;0;0;0;0;();(-2000.0, -2000.0);
08:40:04:837;08:40:04:830;1448308564.42;(0.46134462356567385, 0.34699075486924913);51.4557609558;1.0;0;0;0;0;0;0;0;0;0;();(-2000.0, -2000.0);
08:40:04:851;08:40:04:830;1448308564.42;(0.46134462356567385, 0.34699075486924913);51.4557609558;1.0;0;0;0;0;0;0;0;0;0;();(-2000.0, -2000.0);
08:40:04:868;08:40:04:830;1448308564.42;(0.46134462356567385, 0.34699075486924913);51.4557609558;1.0;0;0;0;0;0;0;0;0;0;();(-2000.0, -2000.0);
08:40:04:884;08:40:04:830;1448308564.42;(0.46134462356567385, 0.34699075486924913);51.4557609558;1.0;0;0;0;0;0;0;0;0;0;();(-2000.0, -2000.0);
08:40:04:916;08:40:04:896;1448308564.49;(0.44614262580871583, 0.3603404998779297);54.9841918945;0.912003954085;0;0;0;0;0;0;0;0;0;();(-2000.0, -2000.0);
08:40:04:932;08:40:04:896;1448308564.49;(0.44614262580871583, 0.3603404998779297);54.9841918945;0.912003954085;0;0;0;0;0;0;0;0;0;();(-2000.0, -2000.0);
08:40:04:949;08:40:04:896;1448308564.49;(0.44614262580871583, 0.3603404998779297);54.9841918945;0.912003954085;0;0;0;0;0;0;0;0;0;();(-2000.0, -2000.0);
08:40:04:966;08:40:04:896;1448308564.49;(0.44614262580871583, 0.3603404998779297);54.9841918945;0.912003954085;0;0;0;0;0;0;0;0;0;();(-2000.0, -2000.0);
08:40:04:981;08:40:04:969;1448308564.56;(0.428900408744812, 0.37991032070583763);51.1857757568;1.0;0;0;0;0;0;0;0;0;0;();(-2000.0, -2000.0);
08:40:04:999;08:40:04:969;1448308564.56;(0.428900408744812, 0.37991032070583763);51.1857757568;1.0;0;0;0;0;0;0;0;0;0;();(-2000.0, -2000.0);
08:40:05:033;08:40:05:029;1448308564.62;(0.4281655788421631, 0.38056140475802946);50.5734519958;1.0;0;0;0;0;0;0;0;0;0;();(-2000.0, -2000.0);
08:40:05:051;08:40:05:029;1448308564.62;(0.4281655788421631, 0.38056140475802946);50.5734519958;1.0;0;0;0;0;0;0;0;0;0;();(-2000.0, -2000.0);
08:40:05:068;08:40:05:029;1448308564.62;(0.4281655788421631, 0.38056140475802946);50.5734519958;1.0;0;0;0;0;0;0;0;0;0;();(-2000.0, -2000.0);
08:40:05:083;08:40:05:029;1448308564.62;(0.4281655788421631, 0.38056140475802946);50.5734519958;1.0;0;0;0;0;0;0;0;0;0;();(-2000.0, -2000.0);
08:40:05:101;08:40:05:097;1448308564.69;(0.42953877449035643, 0.38192219204372835);50.4302139282;0.872799737067;0;0;0;0;0;0;0;0;0;();(-2000.0, -2000.0);
08:40:05:134;08:40:05:097;1448308564.69;(0.42953877449035643, 0.38192219204372835);50.4302139282;0.872799737067;0;0;0;0;0;0;0;0;0;();(-2000.0, -2000.0);
08:40:05:151;08:40:05:097;1448308564.69;(0.42953877449035643, 0.38192219204372835);50.4302139282;0.872799737067;0;0;0;0;0;0;0;0;0;();(-2000.0, -2000.0);
08:40:05:166;08:40:05:161;1448308564.76;(0.4351315975189209, 0.3853677961561415);49.6471595764;1.0;0;0;0;0;0;0;0;0;0;();(-2000.0, -2000.0);
08:40:05:182;08:40:05:161;1448308564.76;(0.4351315975189209, 0.3853677961561415);49.6471595764;1.0;0;0;0;0;0;0;0;0;0;();(-2000.0, -2000.0);
08:40:05:216;08:40:05:161;1448308564.76;(0.4351315975189209, 0.3853677961561415);49.6471595764;1.0;0;0;0;0;0;0;0;0;0;();(-2000.0, -2000.0);
08:40:05:232;08:40:05:229;1448308564.82;(0.43527951240539553, 0.38556213378906246);49.122467041;1.0;0;0;0;0;0;0;0;0;0;();(-2000.0, -2000.0);
08:40:05:249;08:40:05:229;1448308564.82;(0.43527951240539553, 0.38556213378906246);49.122467041;1.0;0;0;0;0;0;0;0;0;0;();(-2000.0, -2000.0);
08:40:05:266;08:40:05:229;1448308564.82;(0.43527951240539553, 0.38556213378906246);49.122467041;1.0;0;0;0;0;0;0;0;0;0;();(-2000.0, -2000.0);
08:40:05:282;08:40:05:229;1448308564.82;(0.43527951240539553, 0.38556213378906246);49.122467041;1.0;0;0;0;0;0;0;0;0;0;();(-2000.0, -2000.0);
08:40:05:315;08:40:05:297;1448308564.89;(0.4371084690093994, 0.38607716030544703);48.8956794739;0.809600307334;0;0;0;0;0;0;0;0;0;();(-2000.0, -2000.0);
08:40:05:331;08:40:05:297;1448308564.89;(0.4371084690093994, 0.38607716030544703);48.8956794739;0.809600307334;0;0;0;0;0;0;0;0;0;();(-2000.0, -2000.0);
08:40:05:348;08:40:05:297;1448308564.89;(0.4371084690093994, 0.38607716030544703);48.8956794739;0.809600307334;0;0;0;0;0;0;0;0;0;();(-2000.0, -2000.0);
08:40:05:366;08:40:05:360;1448308564.92;(0.43870177268981936, 0.38645172119140625);48.4063339233;0.929600728843;0;0;0;0;0;0;0;0;0;();(-2000.0, -2000.0);
08:40:05:385;08:40:05:360;1448308564.92;(0.43870177268981936, 0.38645172119140625);48.4063339233;0.929600728843;0;0;0;0;0;0;0;0;0;();(-2000.0, -2000.0);
08:40:05:402;08:40:05:360;1448308564.92;(0.43870177268981936, 0.38645172119140625);48.4063339233;0.929600728843;0;0;0;0;0;0;0;0;0;();(-2000.0, -2000.0);
08:40:05:439;08:40:05:432;1448308565.02;(0.4388394355773926, 0.38694042629665804);47.9598083496;1.0;0;0;0;0;0;0;0;0;0;();(-2000.0, -2000.0);
08:40:05:451;08:40:05:432;1448308565.02;(0.4388394355773926, 0.38694042629665804);47.9598083496;1.0;0;0;0;0;0;0;0;0;0;();(-2000.0, -2000.0);
08:40:05:466;08:40:05:432;1448308565.02;(0.4388394355773926, 0.38694042629665804);47.9598083496;1.0;0;0;0;0;0;0;0;0;0;();(-2000.0, -2000.0);
08:40:05:483;08:40:05:432;1448308565.02;(0.4388394355773926, 0.38694042629665804);47.9598083496;1.0;0;0;0;0;0;0;0;0;0;();(-2000.0, -2000.0);
08:40:05:502;08:40:05:492;1448308565.06;(0.4390364646911621, 0.3870429568820529);47.9381256104;1.0;0;0;0;0;0;0;0;0;0;();(-2000.0, -2000.0);
08:40:05:533;08:40:05:492;1448308565.06;(0.4390364646911621, 0.3870429568820529);47.9381256104;1.0;0;0;0;0;0;0;0;0;0;();(-2000.0, -2000.0);
08:40:05:549;08:40:05:492;1448308565.06;(0.4390364646911621, 0.3870429568820529);47.9381256104;1.0;0;0;0;0;0;0;0;0;0;();(-2000.0, -2000.0);
08:40:05:566;08:40:05:561;1448308565.12;(0.5064043998718262, 0.36573482089572484);49.4967689514;0.986718943099;0;0;0;0;0;0;0;0;0;();(-2000.0, -2000.0);
08:40:05:583;08:40:05:561;1448308565.12;(0.5064043998718262, 0.36573482089572484);49.4967689514;0.986718943099;0;0;0;0;0;0;0;0;0;();(-2000.0, -2000.0);
08:40:05:599;08:40:05:561;1448308565.12;(0.5064043998718262, 0.36573482089572484);49.4967689514;0.986718943099;0;0;0;0;0;0;0;0;0;();(-2000.0, -2000.0);
08:40:05:633;08:40:05:561;1448308565.12;(0.5064043998718262, 0.36573482089572484);49.4967689514;0.986718943099;0;0;0;0;0;0;0;0;0;();(-2000.0, -2000.0);
08:40:05:650;08:40:05:639;1448308565.22;(0.5207364559173584, 0.35926674736870656);46.6388931274;1.0;0;0;0;0;0;0;0;0;0;();(-2000.0, -2000.0);
08:40:05:666;08:40:05:639;1448308565.22;(0.5207364559173584, 0.35926674736870656);46.6388931274;1.0;0;0;0;0;0;0;0;0;0;();(-2000.0, -2000.0);
08:40:05:683;08:40:05:639;1448308565.22;(0.5207364559173584, 0.35926674736870656);46.6388931274;1.0;0;0;0;0;0;0;0;0;0;();(-2000.0, -2000.0);
08:40:05:699;08:40:05:639;1448308565.22;(0.5207364559173584, 0.35926674736870656);46.6388931274;1.0;0;0;0;0;0;0;0;0;0;();(-2000.0, -2000.0);
08:40:05:732;08:40:05:700;1448308565.26;(0.5209050178527832, 0.3593292236328125);46.622844696;1.0;0;0;0;0;0;0;0;0;0;();(-2000.0, -2000.0);
08:40:05:750;08:40:05:700;1448308565.26;(0.5209050178527832, 0.3593292236328125);46.622844696;1.0;0;0;0;0;0;0;0;0;0;();(-2000.0, -2000.0);
08:40:05:767;08:40:05:763;1448308565.36;(0.5312102317810059, 0.3525101979573567);46.4303436279;1.0;0;0;0;0;0;0;0;0;0;();(-2000.0, -2000.0);
08:40:05:783;08:40:05:763;1448308565.36;(0.5312102317810059, 0.3525101979573567);46.4303436279;1.0;0;0;0;0;0;0;0;0;0;();(-2000.0, -2000.0);
08:40:05:799;08:40:05:763;1448308565.36;(0.5312102317810059, 0.3525101979573567);46.4303436279;1.0;0;0;0;0;0;0;0;0;0;();(-2000.0, -2000.0);
08:40:05:832;08:40:05:823;1448308565.39;(0.5310148239135742, 0.3524797227647569);46.5827636719;1.0;0;0;0;0;0;0;0;0;0;();(-2000.0, -2000.0);
08:40:05:848;08:40:05:823;1448308565.39;(0.5310148239135742, 0.3524797227647569);46.5827636719;1.0;0;0;0;0;0;0;0;0;0;();(-2000.0, -2000.0);
08:40:05:865;08:40:05:823;1448308565.39;(0.5310148239135742, 0.3524797227647569);46.5827636719;1.0;0;0;0;0;0;0;0;0;0;();(-2000.0, -2000.0);
08:40:05:882;08:40:05:823;1448308565.39;(0.5310148239135742, 0.3524797227647569);46.5827636719;1.0;0;0;0;0;0;0;0;0;0;();(-2000.0, -2000.0);
08:40:05:989;08:40:05:894;1448308565.49;(0.5306060791015625, 0.3537012312147353);46.4540405273;1.0;0;0;0;0;0;0;0;0;0;();(-2000.0, -2000.0);
08:40:06:004;08:40:05:996;1448308565.56;(0, 0);0;0;0;0;0;0;0;0;0;0;0;();(-2000.0, -2000.0);
08:40:06:011;08:40:05:996;1448308565.56;(0, 0);0;0;0;0;0;0;0;0;0;0;0;();(-2000.0, -2000.0);
08:40:06:019;08:40:05:996;1448308565.56;(0, 0);0;0;0;0;0;0;0;0;0;0;0;();(-2000.0, -2000.0);
08:40:06:027;08:40:05:996;1448308565.56;(0, 0);0;0;0;0;0;0;0;0;0;0;0;();(-2000.0, -2000.0);
08:40:06:033;08:40:06:028;1448308565.62;(0.5698803424835205, 0.3624881744384766);45.3932991028;1.0;0;0;0;0;0;0;0;0;0;();(-2000.0, -2000.0);
08:40:06:037;08:40:06:028;1448308565.62;(0.5698803424835205, 0.3624881744384766);45.3932991028;1.0;0;0;0;0;0;0;0;0;0;();(-2000.0, -2000.0);
08:40:06:042;08:40:06:028;1448308565.62;(0.5698803424835205, 0.3624881744384766);45.3932991028;1.0;0;0;0;0;0;0;0;0;0;();(-2000.0, -2000.0);
08:40:06:066;08:40:06:028;1448308565.62;(0.5698803424835205, 0.3624881744384766);45.3932991028;1.0;0;0;0;0;0;0;0;0;0;();(-2000.0, -2000.0);
08:40:06:083;08:40:06:028;1448308565.62;(0.5698803424835205, 0.3624881744384766);45.3932991028;1.0;0;0;0;0;0;0;0;0;0;();(-2000.0, -2000.0);
08:40:06:099;08:40:06:092;1448308565.69;(0.5717028141021728, 0.3617557525634766);46.6276130676;1.0;0;0;0;0;0;0;0;0;0;();(-2000.0, -2000.0);
08:40:06:132;08:40:06:092;1448308565.69;(0.5717028141021728, 0.3617557525634766);46.6276130676;1.0;0;0;0;0;0;0;0;0;0;();(-2000.0, -2000.0);
08:40:06:150;08:40:06:092;1448308565.69;(0.5717028141021728, 0.3617557525634766);46.6276130676;1.0;0;0;0;0;0;0;0;0;0;();(-2000.0, -2000.0);
08:40:06:167;08:40:06:156;1448308565.72;(0.5728773593902587, 0.3610749138726128);46.706653595;1.0;0;0;0;0;0;0;0;0;0;();(-2000.0, -2000.0);
08:40:06:183;08:40:06:156;1448308565.72;(0.5728773593902587, 0.3610749138726128);46.706653595;1.0;0;0;0;0;0;0;0;0;0;();(-2000.0, -2000.0);
08:40:06:200;08:40:06:156;1448308565.72;(0.5728773593902587, 0.3610749138726128);46.706653595;1.0;0;0;0;0;0;0;0;0;0;();(-2000.0, -2000.0);
08:40:06:233;08:40:06:224;1448308565.79;(0.5732851982116699, 0.36071679857042105);46.9523963928;1.0;0;0;0;0;0;0;0;0;0;();(-2000.0, -2000.0);
08:40:06:249;08:40:06:224;1448308565.79;(0.5732851982116699, 0.36071679857042105);46.9523963928;1.0;0;0;0;0;0;0;0;0;0;();(-2000.0, -2000.0);
08:40:06:267;08:40:06:224;1448308565.79;(0.5732851982116699, 0.36071679857042105);46.9523963928;1.0;0;0;0;0;0;0;0;0;0;();(-2000.0, -2000.0);
08:40:06:283;08:40:06:224;1448308565.79;(0.5732851982116699, 0.36071679857042105);46.9523963928;1.0;0;0;0;0;0;0;0;0;0;();(-2000.0, -2000.0);
08:40:06:300;08:40:06:290;1448308565.89;(0, 0);0;0;0;0;0;0;0;0;0;0;0;();(-2000.0, -2000.0);
08:40:06:333;08:40:06:290;1448308565.89;(0, 0);0;0;0;0;0;0;0;0;0;0;0;();(-2000.0, -2000.0);
08:40:06:349;08:40:06:290;1448308565.89;(0, 0);0;0;0;0;0;0;0;0;0;0;0;();(-2000.0, -2000.0);
08:40:06:366;08:40:06:355;1448308565.92;(0, 0);0;0;0;0;0;0;0;0;0;0;0;();(-2000.0, -2000.0);
08:40:06:383;08:40:06:355;1448308565.92;(0, 0);0;0;0;0;0;0;0;0;0;0;0;();(-2000.0, -2000.0);
08:40:06:400;08:40:06:355;1448308565.92;(0, 0);0;0;0;0;0;0;0;0;0;0;0;();(-2000.0, -2000.0);
08:40:06:433;08:40:06:425;1448308566.02;(0.4821190357208252, 0.39272516038682725);47.313583374;1.0;0;0;0;0;0;0;0;0;0;();(-2000.0, -2000.0);
08:40:06:451;08:40:06:425;1448308566.02;(0.4821190357208252, 0.39272516038682725);47.313583374;1.0;0;0;0;0;0;0;0;0;0;();(-2000.0, -2000.0);
08:40:06:466;08:40:06:425;1448308566.02;(0.4821190357208252, 0.39272516038682725);47.313583374;1.0;0;0;0;0;0;0;0;0;0;();(-2000.0, -2000.0);
08:40:06:483;08:40:06:425;1448308566.02;(0.4821190357208252, 0.39272516038682725);47.313583374;1.0;0;0;0;0;0;0;0;0;0;();(-2000.0, -2000.0);
08:40:06:499;08:40:06:489;1448308566.09;(0.4830747127532959, 0.39158261617024737);47.9878387451;1.0;0;0;0;0;0;0;0;0;0;();(-2000.0, -2000.0);
08:40:06:533;08:40:06:489;1448308566.09;(0.4830747127532959, 0.39158261617024737);47.9878387451;1.0;0;0;0;0;0;0;0;0;0;();(-2000.0, -2000.0);
08:40:06:550;08:40:06:489;1448308566.09;(0.4830747127532959, 0.39158261617024737);47.9878387451;1.0;0;0;0;0;0;0;0;0;0;();(-2000.0, -2000.0);
08:40:06:567;08:40:06:557;1448308566.16;(0.48362174034118655, 0.3912988450792101);47.9538040161;1.0;0;0;0;0;0;0;0;0;0;();(-2000.0, -2000.0);
08:40:06:584;08:40:06:557;1448308566.16;(0.48362174034118655, 0.3912988450792101);47.9538040161;1.0;0;0;0;0;0;0;0;0;0;();(-2000.0, -2000.0);
08:40:06:601;08:40:06:557;1448308566.16;(0.48362174034118655, 0.3912988450792101);47.9538040161;1.0;0;0;0;0;0;0;0;0;0;();(-2000.0, -2000.0);
08:40:06:633;08:40:06:621;1448308566.22;(0.481002140045166, 0.41177732679578993);47.4735488892;1.0;0;0;0;0;0;0;0;0;0;();(-2000.0, -2000.0);
08:40:06:650;08:40:06:621;1448308566.22;(0.481002140045166, 0.41177732679578993);47.4735488892;1.0;0;0;0;0;0;0;0;0;0;();(-2000.0, -2000.0);
08:40:06:669;08:40:06:621;1448308566.22;(0.481002140045166, 0.41177732679578993);47.4735488892;1.0;0;0;0;0;0;0;0;0;0;();(-2000.0, -2000.0);
08:40:06:686;08:40:06:621;1448308566.22;(0.481002140045166, 0.41177732679578993);47.4735488892;1.0;0;0;0;0;0;0;0;0;0;();(-2000.0, -2000.0);
08:40:06:700;08:40:06:687;1448308566.26;(0.4796596527099609, 0.4299117618136936);47.7170028687;1.0;0;0;0;0;0;0;0;0;0;();(-2000.0, -2000.0);
08:40:06:734;08:40:06:687;1448308566.26;(0.4796596527099609, 0.4299117618136936);47.7170028687;1.0;0;0;0;0;0;0;0;0;0;();(-2000.0, -2000.0);
08:40:06:750;08:40:06:687;1448308566.26;(0.4796596527099609, 0.4299117618136936);47.7170028687;1.0;0;0;0;0;0;0;0;0;0;();(-2000.0, -2000.0);
08:40:06:767;08:40:06:758;1448308566.32;(0.4790053367614746, 0.430919435289171);48.2044487;1.0;0;0;0;0;0;0;0;0;0;();(-2000.0, -2000.0);
08:40:06:784;08:40:06:758;1448308566.32;(0.4790053367614746, 0.430919435289171);48.2044487;1.0;0;0;0;0;0;0;0;0;0;();(-2000.0, -2000.0);
08:40:06:801;08:40:06:758;1448308566.32;(0.4790053367614746, 0.430919435289171);48.2044487;1.0;0;0;0;0;0;0;0;0;0;();(-2000.0, -2000.0);
08:40:06:834;08:40:06:823;1448308566.39;(0.47888898849487305, 0.43127577039930554);48.7274436951;1.0;0;0;0;0;0;0;0;0;0;();(-2000.0, -2000.0);
08:40:06:851;08:40:06:823;1448308566.39;(0.47888898849487305, 0.43127577039930554);48.7274436951;1.0;0;0;0;0;0;0;0;0;0;();(-2000.0, -2000.0);
08:40:06:867;08:40:06:823;1448308566.39;(0.47888898849487305, 0.43127577039930554);48.7274436951;1.0;0;0;0;0;0;0;0;0;0;();(-2000.0, -2000.0);
08:40:06:884;08:40:06:823;1448308566.39;(0.47888898849487305, 0.43127577039930554);48.7274436951;1.0;0;0;0;0;0;0;0;0;0;();(-2000.0, -2000.0);
08:40:06:900;08:40:06:889;1448308566.46;(0.47880539894104, 0.43129327562120223);49.1185340881;1.0;0;0;0;0;0;0;0;0;0;();(-2000.0, -2000.0);
08:40:06:934;08:40:06:889;1448308566.46;(0.47880539894104, 0.43129327562120223);49.1185340881;1.0;0;0;0;0;0;0;0;0;0;();(-2000.0, -2000.0);
08:40:06:950;08:40:06:889;1448308566.46;(0.47880539894104, 0.43129327562120223);49.1185340881;1.0;0;0;0;0;0;0;0;0;0;();(-2000.0, -2000.0);
08:40:06:967;08:40:06:953;1448308566.52;(0.4785966396331787, 0.4310829162597656);49.3939819336;1.0;0;0;0;0;0;0;0;0;0;();(-2000.0, -2000.0);
08:40:06:984;08:40:06:953;1448308566.52;(0.4785966396331787, 0.4310829162597656);49.3939819336;1.0;0;0;0;0;0;0;0;0;0;();(-2000.0, -2000.0);
08:40:07:001;08:40:06:953;1448308566.52;(0.4785966396331787, 0.4310829162597656);49.3939819336;1.0;0;0;0;0;0;0;0;0;0;();(-2000.0, -2000.0);
08:40:07:035;08:40:07:031;1448308566.56;(0.4784096240997314, 0.430801264444987);49.3192329407;1.0;0;0;0;0;0;0;0;0;0;();(-2000.0, -2000.0);
08:40:07:053;08:40:07:033;1448308566.59;(0.47859764099121094, 0.43085047403971355);49.4242897034;1.0;0;0;0;0;0;0;0;0;0;();(-2000.0, -2000.0);
08:40:07:070;08:40:07:033;1448308566.59;(0.47859764099121094, 0.43085047403971355);49.4242897034;1.0;0;0;0;0;0;0;0;0;0;();(-2000.0, -2000.0);
08:40:07:084;08:40:07:033;1448308566.59;(0.47859764099121094, 0.43085047403971355);49.4242897034;1.0;0;0;0;0;0;0;0;0;0;();(-2000.0, -2000.0);
08:40:07:101;08:40:07:089;1448308566.66;(0.482424259185791, 0.42670186360677087);49.6958122253;0.95322747252;0;0;0;0;0;0;0;0;0;();(-2000.0, -2000.0);
08:40:07:134;08:40:07:089;1448308566.66;(0.482424259185791, 0.42670186360677087);49.6958122253;0.95322747252;0;0;0;0;0;0;0;0;0;();(-2000.0, -2000.0);
08:40:07:151;08:40:07:089;1448308566.66;(0.482424259185791, 0.42670186360677087);49.6958122253;0.95322747252;0;0;0;0;0;0;0;0;0;();(-2000.0, -2000.0);
08:40:07:167;08:40:07:154;1448308566.72;(0.4908724308013916, 0.4131255679660373);50.0066757202;1.0;0;0;0;0;0;0;0;0;0;();(-2000.0, -2000.0);
08:40:07:184;08:40:07:154;1448308566.72;(0.4908724308013916, 0.4131255679660373);50.0066757202;1.0;0;0;0;0;0;0;0;0;0;();(-2000.0, -2000.0);
08:40:07:201;08:40:07:154;1448308566.72;(0.4908724308013916, 0.4131255679660373);50.0066757202;1.0;0;0;0;0;0;0;0;0;0;();(-2000.0, -2000.0);
08:40:07:237;08:40:07:222;1448308566.82;(0.4906903266906738, 0.41326404147677953);50.3596687317;1.0;0;0;0;0;0;0;0;0;0;();(-2000.0, -2000.0);
08:40:07:253;08:40:07:222;1448308566.82;(0.4906903266906738, 0.41326404147677953);50.3596687317;1.0;0;0;0;0;0;0;0;0;0;();(-2000.0, -2000.0);
08:40:07:267;08:40:07:222;1448308566.82;(0.4906903266906738, 0.41326404147677953);50.3596687317;1.0;0;0;0;0;0;0;0;0;0;();(-2000.0, -2000.0);
08:40:07:284;08:40:07:222;1448308566.82;(0.4906903266906738, 0.41326404147677953);50.3596687317;1.0;0;0;0;0;0;0;0;0;0;();(-2000.0, -2000.0);
08:40:07:301;08:40:07:283;1448308566.86;(0.4906928539276123, 0.4134545220269097);50.3897895813;1.0;0;0;0;0;0;0;0;0;0;();(-2000.0, -2000.0);
08:40:07:335;08:40:07:283;1448308566.86;(0.4906928539276123, 0.4134545220269097);50.3897895813;1.0;0;0;0;0;0;0;0;0;0;();(-2000.0, -2000.0);
08:40:07:351;08:40:07:283;1448308566.86;(0.4906928539276123, 0.4134545220269097);50.3897895813;1.0;0;0;0;0;0;0;0;0;0;();(-2000.0, -2000.0);
08:40:07:367;08:40:07:354;1448308566.92;(0.4907339572906494, 0.41363220214843754);50.4914970398;1.0;0;0;0;0;0;0;0;0;0;();(-2000.0, -2000.0);
08:40:07:385;08:40:07:354;1448308566.92;(0.4907339572906494, 0.41363220214843754);50.4914970398;1.0;0;0;0;0;0;0;0;0;0;();(-2000.0, -2000.0);
08:40:07:401;08:40:07:354;1448308566.92;(0.4907339572906494, 0.41363220214843754);50.4914970398;1.0;0;0;0;0;0;0;0;0;0;();(-2000.0, -2000.0);
08:40:07:437;08:40:07:425;1448308567.02;(0.4907578945159912, 0.4138972388373481);50.5276031494;1.0;0;0;0;0;0;0;0;0;0;();(-2000.0, -2000.0);
08:40:07:451;08:40:07:425;1448308567.02;(0.4907578945159912, 0.4138972388373481);50.5276031494;1.0;0;0;0;0;0;0;0;0;0;();(-2000.0, -2000.0);
08:40:07:467;08:40:07:425;1448308567.02;(0.4907578945159912, 0.4138972388373481);50.5276031494;1.0;0;0;0;0;0;0;0;0;0;();(-2000.0, -2000.0);
08:40:07:485;08:40:07:425;1448308567.02;(0.4907578945159912, 0.4138972388373481);50.5276031494;1.0;0;0;0;0;0;0;0;0;0;();(-2000.0, -2000.0);
08:40:07:501;08:40:07:484;1448308567.06;(0.49068737030029297, 0.4139359792073568);50.7202835083;1.0;0;0;0;0;0;0;0;0;0;();(-2000.0, -2000.0);
08:40:07:534;08:40:07:484;1448308567.06;(0.49068737030029297, 0.4139359792073568);50.7202835083;1.0;0;0;0;0;0;0;0;0;0;();(-2000.0, -2000.0);
08:40:07:551;08:40:07:484;1448308567.06;(0.49068737030029297, 0.4139359792073568);50.7202835083;1.0;0;0;0;0;0;0;0;0;0;();(-2000.0, -2000.0);
08:40:07:567;08:40:07:554;1448308567.12;(0.49054975509643556, 0.41343544854058156);50.7938499451;1.0;0;0;0;0;0;0;0;0;0;();(-2000.0, -2000.0);
08:40:07:585;08:40:07:554;1448308567.12;(0.49054975509643556, 0.41343544854058156);50.7938499451;1.0;0;0;0;0;0;0;0;0;0;();(-2000.0, -2000.0);
08:40:07:602;08:40:07:554;1448308567.12;(0.49054975509643556, 0.41343544854058156);50.7938499451;1.0;0;0;0;0;0;0;0;0;0;();(-2000.0, -2000.0);
08:40:07:635;08:40:07:617;1448308567.19;(0.49252119064331057, 0.38557756212022565);51.1105308533;1.0;0;0;0;0;0;0;0;0;0;();(-2000.0, -2000.0);
08:40:07:652;08:40:07:617;1448308567.19;(0.49252119064331057, 0.38557756212022565);51.1105308533;1.0;0;0;0;0;0;0;0;0;0;();(-2000.0, -2000.0);
08:40:07:667;08:40:07:617;1448308567.19;(0.49252119064331057, 0.38557756212022565);51.1105308533;1.0;0;0;0;0;0;0;0;0;0;();(-2000.0, -2000.0);
08:40:07:684;08:40:07:617;1448308567.19;(0.49252119064331057, 0.38557756212022565);51.1105308533;1.0;0;0;0;0;0;0;0;0;0;();(-2000.0, -2000.0);
08:40:07:701;08:40:07:687;1448308567.26;(0.49010400772094725, 0.37845624287923174);51.9051513672;0.87634411336;0;0;0;0;0;0;0;0;0;();(-2000.0, -2000.0);
08:40:07:734;08:40:07:687;1448308567.26;(0.49010400772094725, 0.37845624287923174);51.9051513672;0.87634411336;0;0;0;0;0;0;0;0;0;();(-2000.0, -2000.0);
08:40:07:751;08:40:07:687;1448308567.26;(0.49010400772094725, 0.37845624287923174);51.9051513672;0.87634411336;0;0;0;0;0;0;0;0;0;();(-2000.0, -2000.0);
08:40:07:767;08:40:07:762;1448308567.32;(0.4819945812225342, 0.3779314676920573);51.0242614746;1.0;0;0;0;0;0;0;0;0;0;();(-2000.0, -2000.0);
08:40:07:785;08:40:07:762;1448308567.32;(0.4819945812225342, 0.3779314676920573);51.0242614746;1.0;0;0;0;0;0;0;0;0;0;();(-2000.0, -2000.0);
08:40:07:801;08:40:07:762;1448308567.32;(0.4819945812225342, 0.3779314676920573);51.0242614746;1.0;0;0;0;0;0;0;0;0;0;();(-2000.0, -2000.0);
08:40:07:834;08:40:07:817;1448308567.39;(0, 0);0;0;0;0;0;0;0;0;0;0;0;();(-2000.0, -2000.0);
08:40:07:852;08:40:07:817;1448308567.39;(0, 0);0;0;0;0;0;0;0;0;0;0;0;();(-2000.0, -2000.0);
08:40:07:868;08:40:07:817;1448308567.39;(0, 0);0;0;0;0;0;0;0;0;0;0;0;();(-2000.0, -2000.0);
08:40:07:887;08:40:07:817;1448308567.39;(0, 0);0;0;0;0;0;0;0;0;0;0;0;();(-2000.0, -2000.0);
08:40:07:902;08:40:07:885;1448308567.46;(0, 0);0;0;0;0;0;0;0;0;0;0;0;();(-2000.0, -2000.0);
08:40:07:935;08:40:07:885;1448308567.46;(0, 0);0;0;0;0;0;0;0;0;0;0;0;();(-2000.0, -2000.0);
08:40:07:953;08:40:07:885;1448308567.46;(0, 0);0;0;0;0;0;0;0;0;0;0;0;();(-2000.0, -2000.0);
08:40:07:972;08:40:07:965;1448308567.49;(0, 0);0;0;0;0;0;0;0;0;0;0;0;();(-2000.0, -2000.0);
08:40:07:987;08:40:07:968;1448308567.52;(0.4761343479156494, 0.34255188835991757);50.1350402832;0.928938080434;0;0;0;0;0;0;0;0;0;();(-2000.0, -2000.0);
08:40:08:004;08:40:07:968;1448308567.52;(0.4761343479156494, 0.34255188835991757);50.1350402832;0.928938080434;0;0;0;0;0;0;0;0;0;();(-2000.0, -2000.0);
08:40:08:034;08:40:08:018;1448308567.59;(0.47617554664611816, 0.3417332119411892);51.1087722778;1.0;0;0;0;0;0;0;0;0;0;();(-2000.0, -2000.0);
08:40:08:050;08:40:08:018;1448308567.59;(0.47617554664611816, 0.3417332119411892);51.1087722778;1.0;0;0;0;0;0;0;0;0;0;();(-2000.0, -2000.0);
08:40:08:068;08:40:08:018;1448308567.59;(0.47617554664611816, 0.3417332119411892);51.1087722778;1.0;0;0;0;0;0;0;0;0;0;();(-2000.0, -2000.0);
08:40:08:084;08:40:08:018;1448308567.59;(0.47617554664611816, 0.3417332119411892);51.1087722778;1.0;0;0;0;0;0;0;0;0;0;();(-2000.0, -2000.0);
08:40:08:103;08:40:08:092;1448308567.66;(0.4765310287475586, 0.3404369354248047);51.0653305054;1.0;0;0;0;0;0;0;0;0;0;();(-2000.0, -2000.0);
08:40:08:138;08:40:08:092;1448308567.66;(0.4765310287475586, 0.3404369354248047);51.0653305054;1.0;0;0;0;0;0;0;0;0;0;();(-2000.0, -2000.0);
08:40:08:154;08:40:08:148;1448308567.69;(0.47667899131774905, 0.3402248382568359);51.112323761;1.0;0;0;0;0;0;0;0;0;0;();(-2000.0, -2000.0);
08:40:08:171;08:40:08:150;1448308567.72;(0.4772441864013672, 0.34001248677571616);51.1324424744;1.0;0;0;0;0;0;0;0;0;0;();(-2000.0, -2000.0);
08:40:08:187;08:40:08:150;1448308567.72;(0.4772441864013672, 0.34001248677571616);51.1324424744;1.0;0;0;0;0;0;0;0;0;0;();(-2000.0, -2000.0);
08:40:08:204;08:40:08:150;1448308567.72;(0.4772441864013672, 0.34001248677571616);51.1324424744;1.0;0;0;0;0;0;0;0;0;0;();(-2000.0, -2000.0);
08:40:08:235;08:40:08:220;1448308567.79;(0.481171178817749, 0.3360487620035807);50.872844696;1.0;0;0;0;0;0;0;0;0;0;();(-2000.0, -2000.0);
08:40:08:251;08:40:08:220;1448308567.79;(0.481171178817749, 0.3360487620035807);50.872844696;1.0;0;0;0;0;0;0;0;0;0;();(-2000.0, -2000.0);
08:40:08:268;08:40:08:220;1448308567.79;(0.481171178817749, 0.3360487620035807);50.872844696;1.0;0;0;0;0;0;0;0;0;0;();(-2000.0, -2000.0);
08:40:08:285;08:40:08:282;1448308567.86;(0.48116159439086914, 0.33598755730523);51.0481719971;1.0;0;0;0;0;0;0;0;0;0;();(-2000.0, -2000.0);
08:40:08:302;08:40:08:282;1448308567.86;(0.48116159439086914, 0.33598755730523);51.0481719971;1.0;0;0;0;0;0;0;0;0;0;();(-2000.0, -2000.0);
08:40:08:335;08:40:08:282;1448308567.86;(0.48116159439086914, 0.33598755730523);51.0481719971;1.0;0;0;0;0;0;0;0;0;0;();(-2000.0, -2000.0);
08:40:08:352;08:40:08:349;1448308567.89;(0.4811882495880127, 0.3358938429090712);51.4109649658;1.0;0;0;0;0;0;0;0;0;0;();(-2000.0, -2000.0);
08:40:08:368;08:40:08:352;1448308567.92;(0.4832934379577637, 0.33856298658582895);51.2039718628;1.0;0;0;0;0;0;0;0;0;0;();(-2000.0, -2000.0);
08:40:08:385;08:40:08:352;1448308567.92;(0.4832934379577637, 0.33856298658582895);51.2039718628;1.0;0;0;0;0;0;0;0;0;0;();(-2000.0, -2000.0);
08:40:08:402;08:40:08:352;1448308567.92;(0.4832934379577637, 0.33856298658582895);51.2039718628;1.0;0;0;0;0;0;0;0;0;0;();(-2000.0, -2000.0);
08:40:08:419;08:40:08:352;1448308567.92;(0.4832934379577637, 0.33856298658582895);51.2039718628;1.0;0;0;0;0;0;0;0;0;0;();(-2000.0, -2000.0);
08:40:08:452;08:40:08:421;1448308567.99;(0.49100561141967775, 0.35261654324001734);51.0361366272;1.0;0;0;0;0;0;0;0;0;0;();(-2000.0, -2000.0);
08:40:08:469;08:40:08:421;1448308567.99;(0.49100561141967775, 0.35261654324001734);51.0361366272;1.0;0;0;0;0;0;0;0;0;0;();(-2000.0, -2000.0);
08:40:08:485;08:40:08:481;1448308568.06;(0.4914229393005371, 0.35310007731119797);50.4609680176;1.0;0;0;0;0;0;0;0;0;0;();(-2000.0, -2000.0);
08:40:08:502;08:40:08:481;1448308568.06;(0.4914229393005371, 0.35310007731119797);50.4609680176;1.0;0;0;0;0;0;0;0;0;0;();(-2000.0, -2000.0);
08:40:08:535;08:40:08:481;1448308568.06;(0.4914229393005371, 0.35310007731119797);50.4609680176;1.0;0;0;0;0;0;0;0;0;0;();(-2000.0, -2000.0);
08:40:08:554;08:40:08:551;1448308568.12;(0.4948636531829834, 0.3558656904432509);49.8884429932;1.0;0;0;0;0;0;0;0;0;0;();(-2000.0, -2000.0);
08:40:08:569;08:40:08:551;1448308568.12;(0.4948636531829834, 0.3558656904432509);49.8884429932;1.0;0;0;0;0;0;0;0;0;0;();(-2000.0, -2000.0);
08:40:08:586;08:40:08:551;1448308568.12;(0.4948636531829834, 0.3558656904432509);49.8884429932;1.0;0;0;0;0;0;0;0;0;0;();(-2000.0, -2000.0);
08:40:08:602;08:40:08:551;1448308568.12;(0.4948636531829834, 0.3558656904432509);49.8884429932;1.0;0;0;0;0;0;0;0;0;0;();(-2000.0, -2000.0);
08:40:08:636;08:40:08:613;1448308568.19;(0.4968868255615234, 0.3564253913031684);49.4302253723;1.0;0;0;0;0;0;0;0;0;0;();(-2000.0, -2000.0);
08:40:08:652;08:40:08:613;1448308568.19;(0.4968868255615234, 0.3564253913031684);49.4302253723;1.0;0;0;0;0;0;0;0;0;0;();(-2000.0, -2000.0);
08:40:08:669;08:40:08:613;1448308568.19;(0.4968868255615234, 0.3564253913031684);49.4302253723;1.0;0;0;0;0;0;0;0;0;0;();(-2000.0, -2000.0);
08:40:08:685;08:40:08:681;1448308568.26;(0.4968303680419922, 0.35645997789171);48.8318405151;1.0;0;0;0;0;0;0;0;0;0;();(-2000.0, -2000.0);
08:40:08:702;08:40:08:681;1448308568.26;(0.4968303680419922, 0.35645997789171);48.8318405151;1.0;0;0;0;0;0;0;0;0;0;();(-2000.0, -2000.0);
08:40:08:736;08:40:08:681;1448308568.26;(0.4968303680419922, 0.35645997789171);48.8318405151;1.0;0;0;0;0;0;0;0;0;0;();(-2000.0, -2000.0);
08:40:08:752;08:40:08:749;1448308568.32;(0.49690589904785154, 0.3565018124050564);48.6259078979;1.0;0;0;0;0;0;0;0;0;0;();(-2000.0, -2000.0);
08:40:08:768;08:40:08:749;1448308568.32;(0.49690589904785154, 0.3565018124050564);48.6259078979;1.0;0;0;0;0;0;0;0;0;0;();(-2000.0, -2000.0);
08:40:08:786;08:40:08:749;1448308568.32;(0.49690589904785154, 0.3565018124050564);48.6259078979;1.0;0;0;0;0;0;0;0;0;0;();(-2000.0, -2000.0);
08:40:08:802;08:40:08:749;1448308568.32;(0.49690589904785154, 0.3565018124050564);48.6259078979;1.0;0;0;0;0;0;0;0;0;0;();(-2000.0, -2000.0);
08:40:08:835;08:40:08:813;1448308568.39;(0.49697232246398926, 0.35686751471625433);48.3996620178;1.0;0;0;0;0;0;0;0;0;0;();(-2000.0, -2000.0);
08:40:08:852;08:40:08:813;1448308568.39;(0.49697232246398926, 0.35686751471625433);48.3996620178;1.0;0;0;0;0;0;0;0;0;0;();(-2000.0, -2000.0);
08:40:08:869;08:40:08:813;1448308568.39;(0.49697232246398926, 0.35686751471625433);48.3996620178;1.0;0;0;0;0;0;0;0;0;0;();(-2000.0, -2000.0);
08:40:08:885;08:40:08:881;1448308568.46;(0.5078511238098145, 0.35314348008897567);50.1628799438;1.0;0;0;0;0;0;0;0;0;0;();(-2000.0, -2000.0);
08:40:08:902;08:40:08:881;1448308568.46;(0.5078511238098145, 0.35314348008897567);50.1628799438;1.0;0;0;0;0;0;0;0;0;0;();(-2000.0, -2000.0);
08:40:08:919;08:40:08:881;1448308568.46;(0.5078511238098145, 0.35314348008897567);50.1628799438;1.0;0;0;0;0;0;0;0;0;0;();(-2000.0, -2000.0);
08:40:08:953;08:40:08:945;1448308568.52;(0.5216312408447266, 0.35012257893880205);47.3967666626;1.0;0;0;0;0;0;0;0;0;0;();(-2000.0, -2000.0);
08:40:08:969;08:40:08:945;1448308568.52;(0.5216312408447266, 0.35012257893880205);47.3967666626;1.0;0;0;0;0;0;0;0;0;0;();(-2000.0, -2000.0);
08:40:08:986;08:40:08:945;1448308568.52;(0.5216312408447266, 0.35012257893880205);47.3967666626;1.0;0;0;0;0;0;0;0;0;0;();(-2000.0, -2000.0);
08:40:09:002;08:40:08:945;1448308568.52;(0.5216312408447266, 0.35012257893880205);47.3967666626;1.0;0;0;0;0;0;0;0;0;0;();(-2000.0, -2000.0);
08:40:09:036;08:40:09:014;1448308568.59;(0.521778154373169, 0.3510215335422092);47.2066841125;1.0;0;0;0;0;0;0;0;0;0;();(-2000.0, -2000.0);
08:40:09:052;08:40:09:014;1448308568.59;(0.521778154373169, 0.3510215335422092);47.2066841125;1.0;0;0;0;0;0;0;0;0;0;();(-2000.0, -2000.0);
08:40:09:069;08:40:09:014;1448308568.59;(0.521778154373169, 0.3510215335422092);47.2066841125;1.0;0;0;0;0;0;0;0;0;0;();(-2000.0, -2000.0);
08:40:09:086;08:40:09:079;1448308568.66;(0.5219576835632325, 0.351318359375);47.318901062;1.0;0;0;0;0;0;0;0;0;0;();(-2000.0, -2000.0);
08:40:09:102;08:40:09:079;1448308568.66;(0.5219576835632325, 0.351318359375);47.318901062;1.0;0;0;0;0;0;0;0;0;0;();(-2000.0, -2000.0);
08:40:09:136;08:40:09:079;1448308568.66;(0.5219576835632325, 0.351318359375);47.318901062;1.0;0;0;0;0;0;0;0;0;0;();(-2000.0, -2000.0);
08:40:09:155;08:40:09:145;1448308568.72;(0.5310325145721435, 0.35198385450575087);47.0669364929;1.0;0;0;0;0;0;0;0;0;0;();(-2000.0, -2000.0);
08:40:09:172;08:40:09:145;1448308568.72;(0.5310325145721435, 0.35198385450575087);47.0669364929;1.0;0;0;0;0;0;0;0;0;0;();(-2000.0, -2000.0);
08:40:09:186;08:40:09:145;1448308568.72;(0.5310325145721435, 0.35198385450575087);47.0669364929;1.0;0;0;0;0;0;0;0;0;0;();(-2000.0, -2000.0);
08:40:09:202;08:40:09:145;1448308568.72;(0.5310325145721435, 0.35198385450575087);47.0669364929;1.0;0;0;0;0;0;0;0;0;0;();(-2000.0, -2000.0);
08:40:09:219;08:40:09:214;1448308568.79;(0.5308877944946289, 0.35273412068684895);46.7326278687;1.0;0;0;0;0;0;0;0;0;0;();(-2000.0, -2000.0);
08:40:09:253;08:40:09:214;1448308568.79;(0.5308877944946289, 0.35273412068684895);46.7326278687;1.0;0;0;0;0;0;0;0;0;0;();(-2000.0, -2000.0);
08:40:09:270;08:40:09:214;1448308568.79;(0.5308877944946289, 0.35273412068684895);46.7326278687;1.0;0;0;0;0;0;0;0;0;0;();(-2000.0, -2000.0);
08:40:09:288;08:40:09:278;1448308568.86;(0.5309955596923828, 0.3526259528266059);46.7135391235;1.0;0;0;0;0;0;0;0;0;0;();(-2000.0, -2000.0);
08:40:09:305;08:40:09:278;1448308568.86;(0.5309955596923828, 0.3526259528266059);46.7135391235;1.0;0;0;0;0;0;0;0;0;0;();(-2000.0, -2000.0);
08:40:09:321;08:40:09:278;1448308568.86;(0.5309955596923828, 0.3526259528266059);46.7135391235;1.0;0;0;0;0;0;0;0;0;0;();(-2000.0, -2000.0);
08:40:09:352;08:40:09:345;1448308568.92;(0.5311153888702392, 0.35254838731553817);46.4167633057;1.0;0;0;0;0;0;0;0;0;0;();(-2000.0, -2000.0);
08:40:09:369;08:40:09:345;1448308568.92;(0.5311153888702392, 0.35254838731553817);46.4167633057;1.0;0;0;0;0;0;0;0;0;0;();(-2000.0, -2000.0);
08:40:09:385;08:40:09:345;1448308568.92;(0.5311153888702392, 0.35254838731553817);46.4167633057;1.0;0;0;0;0;0;0;0;0;0;();(-2000.0, -2000.0);
08:40:09:403;08:40:09:345;1448308568.92;(0.5311153888702392, 0.35254838731553817);46.4167633057;1.0;0;0;0;0;0;0;0;0;0;();(-2000.0, -2000.0);
08:40:09:419;08:40:09:411;1448308568.99;(0.5315054416656494, 0.352840084499783);46.4660568237;1.0;0;0;0;0;0;0;0;0;0;();(-2000.0, -2000.0);
08:40:09:451;08:40:09:411;1448308568.99;(0.5315054416656494, 0.352840084499783);46.4660568237;1.0;0;0;0;0;0;0;0;0;0;();(-2000.0, -2000.0);
08:40:09:469;08:40:09:411;1448308568.99;(0.5315054416656494, 0.352840084499783);46.4660568237;1.0;0;0;0;0;0;0;0;0;0;();(-2000.0, -2000.0);
08:40:09:486;08:40:09:476;1448308569.06;(0.5317693710327148, 0.3529788123236762);46.4196968079;1.0;0;0;0;0;0;0;0;0;0;();(-2000.0, -2000.0);
08:40:09:503;08:40:09:476;1448308569.06;(0.5317693710327148, 0.3529788123236762);46.4196968079;1.0;0;0;0;0;0;0;0;0;0;();(-2000.0, -2000.0);
08:40:09:518;08:40:09:476;1448308569.06;(0.5317693710327148, 0.3529788123236762);46.4196968079;1.0;0;0;0;0;0;0;0;0;0;();(-2000.0, -2000.0);
08:40:09:552;08:40:09:545;1448308569.12;(0.5229828357696533, 0.3687789916992188);45.403678894;1.0;0;0;0;0;0;0;0;0;0;();(-2000.0, -2000.0);
08:40:09:569;08:40:09:545;1448308569.12;(0.5229828357696533, 0.3687789916992188);45.403678894;1.0;0;0;0;0;0;0;0;0;0;();(-2000.0, -2000.0);
08:40:09:585;08:40:09:545;1448308569.12;(0.5229828357696533, 0.3687789916992188);45.403678894;1.0;0;0;0;0;0;0;0;0;0;();(-2000.0, -2000.0);
08:40:09:605;08:40:09:545;1448308569.12;(0.5229828357696533, 0.3687789916992188);45.403678894;1.0;0;0;0;0;0;0;0;0;0;();(-2000.0, -2000.0);
08:40:09:621;08:40:09:611;1448308569.19;(0, 0);0;0;0;0;0;0;0;0;0;0;0;();(-2000.0, -2000.0);
08:40:09:655;08:40:09:611;1448308569.19;(0, 0);0;0;0;0;0;0;0;0;0;0;0;();(-2000.0, -2000.0);
08:40:09:672;08:40:09:611;1448308569.19;(0, 0);0;0;0;0;0;0;0;0;0;0;0;();(-2000.0, -2000.0);
08:40:09:688;08:40:09:611;1448308569.19;(0, 0);0;0;0;0;0;0;0;0;0;0;0;();(-2000.0, -2000.0);
08:40:09:703;08:40:09:611;1448308569.19;(0, 0);0;0;0;0;0;0;0;0;0;0;0;();(-2000.0, -2000.0);
08:40:09:719;08:40:09:702;1448308569.26;(0, 0);0;0;0;0;0;0;0;0;0;0;0;();(-2000.0, -2000.0);
08:40:09:753;08:40:09:740;1448308569.32;(0.49468231201171875, 0.40414788987901473);45.6996116638;1.0;0;0;0;0;0;0;0;0;0;();(-2000.0, -2000.0);
08:40:09:770;08:40:09:740;1448308569.32;(0.49468231201171875, 0.40414788987901473);45.6996116638;1.0;0;0;0;0;0;0;0;0;0;();(-2000.0, -2000.0);
08:40:09:786;08:40:09:740;1448308569.32;(0.49468231201171875, 0.40414788987901473);45.6996116638;1.0;0;0;0;0;0;0;0;0;0;();(-2000.0, -2000.0);
08:40:09:803;08:40:09:740;1448308569.32;(0.49468231201171875, 0.40414788987901473);45.6996116638;1.0;0;0;0;0;0;0;0;0;0;();(-2000.0, -2000.0);
08:40:09:820;08:40:09:816;1448308569.36;(0.4951383113861084, 0.4032725863986545);46.1110687256;1.0;0;0;0;0;0;0;0;0;0;();(-2000.0, -2000.0);
08:40:09:853;08:40:09:819;1448308569.39;(0.4957759857177734, 0.4029778374565972);46.3758392334;1.0;0;0;0;0;0;0;0;0;0;();(-2000.0, -2000.0);
08:40:09:870;08:40:09:819;1448308569.39;(0.4957759857177734, 0.4029778374565972);46.3758392334;1.0;0;0;0;0;0;0;0;0;0;();(-2000.0, -2000.0);
08:40:09:887;08:40:09:877;1448308569.46;(0.4960196018218994, 0.40183482699924045);46.0121879578;1.0;0;0;0;0;0;0;0;0;0;();(-2000.0, -2000.0);
08:40:09:903;08:40:09:877;1448308569.46;(0.4960196018218994, 0.40183482699924045);46.0121879578;1.0;0;0;0;0;0;0;0;0;0;();(-2000.0, -2000.0);
08:40:09:919;08:40:09:877;1448308569.46;(0.4960196018218994, 0.40183482699924045);46.0121879578;1.0;0;0;0;0;0;0;0;0;0;();(-2000.0, -2000.0);
08:40:09:953;08:40:09:941;1448308569.52;(0.49600491523742674, 0.4017484029134114);45.8129997253;1.0;0;0;0;0;0;0;0;0;0;();(-2000.0, -2000.0);
08:40:09:969;08:40:09:941;1448308569.52;(0.49600491523742674, 0.4017484029134114);45.8129997253;1.0;0;0;0;0;0;0;0;0;0;();(-2000.0, -2000.0);
08:40:09:986;08:40:09:941;1448308569.52;(0.49600491523742674, 0.4017484029134114);45.8129997253;1.0;0;0;0;0;0;0;0;0;0;();(-2000.0, -2000.0);
08:40:10:003;08:40:09:941;1448308569.52;(0.49600491523742674, 0.4017484029134114);45.8129997253;1.0;0;0;0;0;0;0;0;0;0;();(-2000.0, -2000.0);
08:40:10:019;08:40:10:008;1448308569.59;(0.4961724758148193, 0.40179290771484377);45.898525238;1.0;0;0;0;0;0;0;0;0;0;();(-2000.0, -2000.0);
08:40:10:053;08:40:10:008;1448308569.59;(0.4961724758148193, 0.40179290771484377);45.898525238;1.0;0;0;0;0;0;0;0;0;0;();(-2000.0, -2000.0);
08:40:10:070;08:40:10:008;1448308569.59;(0.4961724758148193, 0.40179290771484377);45.898525238;1.0;0;0;0;0;0;0;0;0;0;();(-2000.0, -2000.0);
08:40:10:086;08:40:10:073;1448308569.66;(0.4961137294769287, 0.4016488393147787);46.4353866577;1.0;0;0;0;0;0;0;0;0;0;();(-2000.0, -2000.0);
08:40:10:103;08:40:10:073;1448308569.66;(0.4961137294769287, 0.4016488393147787);46.4353866577;1.0;0;0;0;0;0;0;0;0;0;();(-2000.0, -2000.0);
08:40:10:122;08:40:10:073;1448308569.66;(0.4961137294769287, 0.4016488393147787);46.4353866577;1.0;0;0;0;0;0;0;0;0;0;();(-2000.0, -2000.0);
08:40:10:154;08:40:10:145;1448308569.72;(0.4961541652679443, 0.4011276668972439);46.7483863831;1.0;0;0;0;0;0;0;0;0;0;();(-2000.0, -2000.0);
08:40:10:172;08:40:10:145;1448308569.72;(0.4961541652679443, 0.4011276668972439);46.7483863831;1.0;0;0;0;0;0;0;0;0;0;();(-2000.0, -2000.0);
08:40:10:189;08:40:10:145;1448308569.72;(0.4961541652679443, 0.4011276668972439);46.7483863831;1.0;0;0;0;0;0;0;0;0;0;();(-2000.0, -2000.0);
08:40:10:202;08:40:10:145;1448308569.72;(0.4961541652679443, 0.4011276668972439);46.7483863831;1.0;0;0;0;0;0;0;0;0;0;();(-2000.0, -2000.0);
08:40:10:220;08:40:10:209;1448308569.79;(0.49593453407287597, 0.40065939161512587);47.2844848633;1.0;0;0;0;0;0;0;0;0;0;();(-2000.0, -2000.0);
08:40:10:254;08:40:10:209;1448308569.79;(0.49593453407287597, 0.40065939161512587);47.2844848633;1.0;0;0;0;0;0;0;0;0;0;();(-2000.0, -2000.0);
08:40:10:270;08:40:10:209;1448308569.79;(0.49593453407287597, 0.40065939161512587);47.2844848633;1.0;0;0;0;0;0;0;0;0;0;();(-2000.0, -2000.0);
08:40:10:286;08:40:10:273;1448308569.86;(0.495792293548584, 0.40088250901963973);47.2054710388;1.0;0;0;0;0;0;0;0;0;0;();(-2000.0, -2000.0);
08:40:10:303;08:40:10:273;1448308569.86;(0.495792293548584, 0.40088250901963973);47.2054710388;1.0;0;0;0;0;0;0;0;0;0;();(-2000.0, -2000.0);
08:40:10:319;08:40:10:273;1448308569.86;(0.495792293548584, 0.40088250901963973);47.2054710388;1.0;0;0;0;0;0;0;0;0;0;();(-2000.0, -2000.0);
08:40:10:353;08:40:10:340;1448308569.92;(0.495900297164917, 0.400761710272895);47.5907363892;1.0;0;0;0;0;0;0;0;0;0;();(-2000.0, -2000.0);
08:40:10:371;08:40:10:340;1448308569.92;(0.495900297164917, 0.400761710272895);47.5907363892;1.0;0;0;0;0;0;0;0;0;0;();(-2000.0, -2000.0);
08:40:10:387;08:40:10:340;1448308569.92;(0.495900297164917, 0.400761710272895);47.5907363892;1.0;0;0;0;0;0;0;0;0;0;();(-2000.0, -2000.0);
08:40:10:403;08:40:10:340;1448308569.92;(0.495900297164917, 0.400761710272895);47.5907363892;1.0;0;0;0;0;0;0;0;0;0;();(-2000.0, -2000.0);
08:40:10:420;08:40:10:414;1448308569.99;(0.4957874774932861, 0.40067689683702257);48.0399513245;1.0;0;0;0;0;0;0;0;0;0;();(-2000.0, -2000.0);
08:40:10:454;08:40:10:414;1448308569.99;(0.4957874774932861, 0.40067689683702257);48.0399513245;1.0;0;0;0;0;0;0;0;0;0;();(-2000.0, -2000.0);
08:40:10:470;08:40:10:414;1448308569.99;(0.4957874774932861, 0.40067689683702257);48.0399513245;1.0;0;0;0;0;0;0;0;0;0;();(-2000.0, -2000.0);
08:40:10:487;08:40:10:473;1448308570.06;(0.49560017585754396, 0.4003388298882379);48.1758766174;1.0;0;0;0;0;0;0;0;0;0;();(-2000.0, -2000.0);
08:40:10:502;08:40:10:473;1448308570.06;(0.49560017585754396, 0.4003388298882379);48.1758766174;1.0;0;0;0;0;0;0;0;0;0;();(-2000.0, -2000.0);
08:40:10:520;08:40:10:473;1448308570.06;(0.49560017585754396, 0.4003388298882379);48.1758766174;1.0;0;0;0;0;0;0;0;0;0;();(-2000.0, -2000.0);
08:40:10:553;08:40:10:540;1448308570.12;(0.49544329643249513, 0.4005755530463324);48.1803474426;1.0;0;0;0;0;0;0;0;0;0;();(-2000.0, -2000.0);
08:40:10:571;08:40:10:540;1448308570.12;(0.49544329643249513, 0.4005755530463324);48.1803474426;1.0;0;0;0;0;0;0;0;0;0;();(-2000.0, -2000.0);
08:40:10:587;08:40:10:540;1448308570.12;(0.49544329643249513, 0.4005755530463324);48.1803474426;1.0;0;0;0;0;0;0;0;0;0;();(-2000.0, -2000.0);
08:40:10:604;08:40:10:540;1448308570.12;(0.49544329643249513, 0.4005755530463324);48.1803474426;1.0;0;0;0;0;0;0;0;0;0;();(-2000.0, -2000.0);
08:40:10:620;08:40:10:607;1448308570.19;(0.4955087184906006, 0.4004690806070964);48.2759094238;1.0;0;0;0;0;0;0;0;0;0;();(-2000.0, -2000.0);
08:40:10:654;08:40:10:607;1448308570.19;(0.4955087184906006, 0.4004690806070964);48.2759094238;1.0;0;0;0;0;0;0;0;0;0;();(-2000.0, -2000.0);
08:40:10:669;08:40:10:607;1448308570.19;(0.4955087184906006, 0.4004690806070964);48.2759094238;1.0;0;0;0;0;0;0;0;0;0;();(-2000.0, -2000.0);
08:40:10:687;08:40:10:673;1448308570.26;(0.4915121078491211, 0.4000719706217448);47.3134078979;0.976870718293;0;0;0;0;0;0;0;0;0;();(-2000.0, -2000.0);
08:40:10:704;08:40:10:673;1448308570.26;(0.4915121078491211, 0.4000719706217448);47.3134078979;0.976870718293;0;0;0;0;0;0;0;0;0;();(-2000.0, -2000.0);
08:40:10:720;08:40:10:673;1448308570.26;(0.4915121078491211, 0.4000719706217448);47.3134078979;0.976870718293;0;0;0;0;0;0;0;0;0;();(-2000.0, -2000.0);
08:40:10:754;08:40:10:737;1448308570.32;(0, 0);0;0;0;0;0;0;0;0;0;0;0;();(-2000.0, -2000.0);
08:40:10:770;08:40:10:737;1448308570.32;(0, 0);0;0;0;0;0;0;0;0;0;0;0;();(-2000.0, -2000.0);
08:40:10:787;08:40:10:737;1448308570.32;(0, 0);0;0;0;0;0;0;0;0;0;0;0;();(-2000.0, -2000.0);
08:40:10:803;08:40:10:737;1448308570.32;(0, 0);0;0;0;0;0;0;0;0;0;0;0;();(-2000.0, -2000.0);
08:40:10:821;08:40:10:806;1448308570.39;(0.38530759811401366, 0.3574048784044054);49.9150352478;1.0;0;0;0;0;0;0;0;0;0;();(-2000.0, -2000.0);
08:40:10:853;08:40:10:806;1448308570.39;(0.38530759811401366, 0.3574048784044054);49.9150352478;1.0;0;0;0;0;0;0;0;0;0;();(-2000.0, -2000.0);
08:40:10:871;08:40:10:806;1448308570.39;(0.38530759811401366, 0.3574048784044054);49.9150352478;1.0;0;0;0;0;0;0;0;0;0;();(-2000.0, -2000.0);
08:40:10:888;08:40:10:874;1448308570.46;(0.384337043762207, 0.3577752007378472);49.7833824158;1.0;0;0;0;0;0;0;0;0;0;();(-2000.0, -2000.0);
08:40:10:904;08:40:10:874;1448308570.46;(0.384337043762207, 0.3577752007378472);49.7833824158;1.0;0;0;0;0;0;0;0;0;0;();(-2000.0, -2000.0);
08:40:10:921;08:40:10:874;1448308570.46;(0.384337043762207, 0.3577752007378472);49.7833824158;1.0;0;0;0;0;0;0;0;0;0;();(-2000.0, -2000.0);
08:40:10:954;08:40:10:937;1448308570.52;(0.3841995716094971, 0.35749465094672306);49.6172866821;1.0;0;0;0;0;0;0;0;0;0;();(-2000.0, -2000.0);
08:40:10:970;08:40:10:937;1448308570.52;(0.3841995716094971, 0.35749465094672306);49.6172866821;1.0;0;0;0;0;0;0;0;0;0;();(-2000.0, -2000.0);
08:40:10:987;08:40:10:937;1448308570.52;(0.3841995716094971, 0.35749465094672306);49.6172866821;1.0;0;0;0;0;0;0;0;0;0;();(-2000.0, -2000.0);
08:40:11:005;08:40:10:937;1448308570.52;(0.3841995716094971, 0.35749465094672306);49.6172866821;1.0;0;0;0;0;0;0;0;0;0;();(-2000.0, -2000.0);
08:40:11:021;08:40:11:012;1448308570.59;(0.3838571310043335, 0.3575740814208984);49.7500419617;1.0;0;0;0;0;0;0;0;0;0;();(-2000.0, -2000.0);
08:40:11:054;08:40:11:012;1448308570.59;(0.3838571310043335, 0.3575740814208984);49.7500419617;1.0;0;0;0;0;0;0;0;0;0;();(-2000.0, -2000.0);
08:40:11:073;08:40:11:068;1448308570.62;(0.38389949798583983, 0.3574504004584418);49.8760375977;1.0;0;0;0;0;0;0;0;0;0;();(-2000.0, -2000.0);
08:40:11:090;08:40:11:069;1448308570.66;(0.3837878704071045, 0.35744734870062933);49.7837562561;1.0;0;0;0;0;0;0;0;0;0;();(-2000.0, -2000.0);
08:40:11:106;08:40:11:069;1448308570.66;(0.3837878704071045, 0.35744734870062933);49.7837562561;1.0;0;0;0;0;0;0;0;0;0;();(-2000.0, -2000.0);
08:40:11:123;08:40:11:069;1448308570.66;(0.3837878704071045, 0.35744734870062933);49.7837562561;1.0;0;0;0;0;0;0;0;0;0;();(-2000.0, -2000.0);
08:40:11:156;08:40:11:147;1448308570.72;(0.3835343599319458, 0.35794588724772136);49.5937995911;1.0;0;0;0;0;0;0;0;0;0;();(-2000.0, -2000.0);
08:40:11:171;08:40:11:147;1448308570.72;(0.3835343599319458, 0.35794588724772136);49.5937995911;1.0;0;0;0;0;0;0;0;0;0;();(-2000.0, -2000.0);
08:40:11:188;08:40:11:147;1448308570.72;(0.3835343599319458, 0.35794588724772136);49.5937995911;1.0;0;0;0;0;0;0;0;0;0;();(-2000.0, -2000.0);
08:40:11:204;08:40:11:147;1448308570.72;(0.3835343599319458, 0.35794588724772136);49.5937995911;1.0;0;0;0;0;0;0;0;0;0;();(-2000.0, -2000.0);
08:40:11:221;08:40:11:208;1448308570.79;(0.38342621326446535, 0.35875100029839413);49.3059539795;1.0;0;0;0;0;0;0;0;0;0;();(-2000.0, -2000.0);
08:40:11:254;08:40:11:208;1448308570.79;(0.38342621326446535, 0.35875100029839413);49.3059539795;1.0;0;0;0;0;0;0;0;0;0;();(-2000.0, -2000.0);
08:40:11:272;08:40:11:269;1448308570.86;(0.3829049587249756, 0.35862405565049915);49.1731987;1.0;0;0;0;0;0;0;0;0;0;();(-2000.0, -2000.0);
08:40:11:288;08:40:11:269;1448308570.86;(0.3829049587249756, 0.35862405565049915);49.1731987;1.0;0;0;0;0;0;0;0;0;0;();(-2000.0, -2000.0);
08:40:11:304;08:40:11:269;1448308570.86;(0.3829049587249756, 0.35862405565049915);49.1731987;1.0;0;0;0;0;0;0;0;0;0;();(-2000.0, -2000.0);
08:40:11:321;08:40:11:269;1448308570.86;(0.3829049587249756, 0.35862405565049915);49.1731987;1.0;0;0;0;0;0;0;0;0;0;();(-2000.0, -2000.0);
08:40:11:357;08:40:11:337;1448308570.92;(0.38289220333099366, 0.3586663140190972);49.098575592;1.0;0;0;0;0;0;0;0;0;0;();(-2000.0, -2000.0);
08:40:11:373;08:40:11:337;1448308570.92;(0.38289220333099366, 0.3586663140190972);49.098575592;1.0;0;0;0;0;0;0;0;0;0;();(-2000.0, -2000.0);
08:40:11:390;08:40:11:337;1448308570.92;(0.38289220333099366, 0.3586663140190972);49.098575592;1.0;0;0;0;0;0;0;0;0;0;();(-2000.0, -2000.0);
08:40:11:405;08:40:11:401;1448308570.99;(0.3827770233154297, 0.35924983554416234);48.6720619202;1.0;0;0;0;0;0;0;0;0;0;();(-2000.0, -2000.0);
08:40:11:421;08:40:11:401;1448308570.99;(0.3827770233154297, 0.35924983554416234);48.6720619202;1.0;0;0;0;0;0;0;0;0;0;();(-2000.0, -2000.0);
08:40:11:455;08:40:11:401;1448308570.99;(0.3827770233154297, 0.35924983554416234);48.6720619202;1.0;0;0;0;0;0;0;0;0;0;();(-2000.0, -2000.0);
08:40:11:472;08:40:11:468;1448308571.06;(0.3783658266067505, 0.34986775716145835);48.2329597473;1.0;0;0;0;0;0;0;0;0;0;();(-2000.0, -2000.0);
08:40:11:488;08:40:11:468;1448308571.06;(0.3783658266067505, 0.34986775716145835);48.2329597473;1.0;0;0;0;0;0;0;0;0;0;();(-2000.0, -2000.0);
08:40:11:505;08:40:11:468;1448308571.06;(0.3783658266067505, 0.34986775716145835);48.2329597473;1.0;0;0;0;0;0;0;0;0;0;();(-2000.0, -2000.0);
08:40:11:521;08:40:11:468;1448308571.06;(0.3783658266067505, 0.34986775716145835);48.2329597473;1.0;0;0;0;0;0;0;0;0;0;();(-2000.0, -2000.0);
08:40:11:556;08:40:11:553;1448308571.12;(0.3777735471725464, 0.35062425401475694);47.9959449768;1.0;0;0;0;0;0;0;0;0;0;();(-2000.0, -2000.0);
08:40:11:571;08:40:11:553;1448308571.12;(0.3777735471725464, 0.35062425401475694);47.9959449768;1.0;0;0;0;0;0;0;0;0;0;();(-2000.0, -2000.0);
08:40:11:590;08:40:11:553;1448308571.12;(0.3777735471725464, 0.35062425401475694);47.9959449768;1.0;0;0;0;0;0;0;0;0;0;();(-2000.0, -2000.0);
08:40:11:609;08:40:11:602;1448308571.19;(0.3775633335113525, 0.351165771484375);48.1344108582;1.0;0;0;0;0;0;0;0;0;0;();(-2000.0, -2000.0);
08:40:11:623;08:40:11:602;1448308571.19;(0.3775633335113525, 0.351165771484375);48.1344108582;1.0;0;0;0;0;0;0;0;0;0;();(-2000.0, -2000.0);
08:40:11:655;08:40:11:602;1448308571.19;(0.3775633335113525, 0.351165771484375);48.1344108582;1.0;0;0;0;0;0;0;0;0;0;();(-2000.0, -2000.0);
08:40:11:671;08:40:11:668;1448308571.26;(0.37741680145263673, 0.3517999860975477);48.0292472839;1.0;0;0;0;0;0;0;0;0;0;();(-2000.0, -2000.0);
08:40:11:688;08:40:11:668;1448308571.26;(0.37741680145263673, 0.3517999860975477);48.0292472839;1.0;0;0;0;0;0;0;0;0;0;();(-2000.0, -2000.0);
08:40:11:705;08:40:11:668;1448308571.26;(0.37741680145263673, 0.3517999860975477);48.0292472839;1.0;0;0;0;0;0;0;0;0;0;();(-2000.0, -2000.0);
08:40:11:721;08:40:11:668;1448308571.26;(0.37741680145263673, 0.3517999860975477);48.0292472839;1.0;0;0;0;0;0;0;0;0;0;();(-2000.0, -2000.0);
08:40:11:757;08:40:11:734;1448308571.32;(0.3772067308425903, 0.3527312384711372);47.9387512207;1.0;0;0;0;0;0;0;0;0;0;();(-2000.0, -2000.0);
08:40:11:774;08:40:11:734;1448308571.32;(0.3772067308425903, 0.3527312384711372);47.9387512207;1.0;0;0;0;0;0;0;0;0;0;();(-2000.0, -2000.0);
08:40:11:789;08:40:11:734;1448308571.32;(0.3772067308425903, 0.3527312384711372);47.9387512207;1.0;0;0;0;0;0;0;0;0;0;();(-2000.0, -2000.0);
08:40:11:804;08:40:11:801;1448308571.39;(0.3774069309234619, 0.3525454627143012);47.6879119873;1.0;0;0;0;0;0;0;0;0;0;();(-2000.0, -2000.0);
08:40:11:821;08:40:11:801;1448308571.39;(0.3774069309234619, 0.3525454627143012);47.6879119873;1.0;0;0;0;0;0;0;0;0;0;();(-2000.0, -2000.0);
08:40:11:855;08:40:11:801;1448308571.39;(0.3774069309234619, 0.3525454627143012);47.6879119873;1.0;0;0;0;0;0;0;0;0;0;();(-2000.0, -2000.0);
08:40:11:872;08:40:11:864;1448308571.46;(0.3775261402130127, 0.3526218838161892);47.2513504028;1.0;0;0;0;0;0;0;0;0;0;();(-2000.0, -2000.0);
08:40:11:887;08:40:11:864;1448308571.46;(0.3775261402130127, 0.3526218838161892);47.2513504028;1.0;0;0;0;0;0;0;0;0;0;();(-2000.0, -2000.0);
08:40:11:904;08:40:11:864;1448308571.46;(0.3775261402130127, 0.3526218838161892);47.2513504028;1.0;0;0;0;0;0;0;0;0;0;();(-2000.0, -2000.0);
08:40:11:924;08:40:11:864;1448308571.46;(0.3775261402130127, 0.3526218838161892);47.2513504028;1.0;0;0;0;0;0;0;0;0;0;();(-2000.0, -2000.0);
08:40:11:957;08:40:11:934;1448308571.52;(0.37754178047180176, 0.35290205213758685);47.1110420227;1.0;0;0;0;0;0;0;0;0;0;();(-2000.0, -2000.0);
08:40:11:974;08:40:11:934;1448308571.52;(0.37754178047180176, 0.35290205213758685);47.1110420227;1.0;0;0;0;0;0;0;0;0;0;();(-2000.0, -2000.0);
08:40:11:991;08:40:11:934;1448308571.52;(0.37754178047180176, 0.35290205213758685);47.1110420227;1.0;0;0;0;0;0;0;0;0;0;();(-2000.0, -2000.0);
08:40:12:008;08:40:12:000;1448308571.56;(0.377579927444458, 0.3527680291069879);47.0134887695;1.0;0;0;0;0;0;0;0;0;0;();(-2000.0, -2000.0);
08:40:12:024;08:40:12:002;1448308571.59;(0.3775048732757568, 0.3532513936360677);47.0282096863;1.0;0;0;0;0;0;0;0;0;0;();(-2000.0, -2000.0);
08:40:12:055;08:40:12:002;1448308571.59;(0.3775048732757568, 0.3532513936360677);47.0282096863;1.0;0;0;0;0;0;0;0;0;0;();(-2000.0, -2000.0);
08:40:12:074;08:40:12:066;1448308571.66;(0.37769498825073244, 0.35231361389160154);46.8046646118;1.0;0;0;0;0;0;0;0;0;0;();(-2000.0, -2000.0);
08:40:12:091;08:40:12:066;1448308571.66;(0.37769498825073244, 0.35231361389160154);46.8046646118;1.0;0;0;0;0;0;0;0;0;0;();(-2000.0, -2000.0);
08:40:12:107;08:40:12:066;1448308571.66;(0.37769498825073244, 0.35231361389160154);46.8046646118;1.0;0;0;0;0;0;0;0;0;0;();(-2000.0, -2000.0);
08:40:12:121;08:40:12:066;1448308571.66;(0.37769498825073244, 0.35231361389160154);46.8046646118;1.0;0;0;0;0;0;0;0;0;0;();(-2000.0, -2000.0);
08:40:12:155;08:40:12:135;1448308571.72;(0.3774219274520874, 0.351865005493164);46.4979400635;1.0;0;0;0;0;0;0;0;0;0;();(-2000.0, -2000.0);
08:40:12:172;08:40:12:135;1448308571.72;(0.3774219274520874, 0.351865005493164);46.4979400635;1.0;0;0;0;0;0;0;0;0;0;();(-2000.0, -2000.0);
08:40:12:188;08:40:12:135;1448308571.72;(0.3774219274520874, 0.351865005493164);46.4979400635;1.0;0;0;0;0;0;0;0;0;0;();(-2000.0, -2000.0);
08:40:12:204;08:40:12:196;1448308571.79;(0.3773287534713745, 0.35161624484592013);46.3138237;1.0;0;0;0;0;0;0;0;0;0;();(-2000.0, -2000.0);
08:40:12:220;08:40:12:196;1448308571.79;(0.3773287534713745, 0.35161624484592013);46.3138237;1.0;0;0;0;0;0;0;0;0;0;();(-2000.0, -2000.0);
08:40:12:254;08:40:12:196;1448308571.79;(0.3773287534713745, 0.35161624484592013);46.3138237;1.0;0;0;0;0;0;0;0;0;0;();(-2000.0, -2000.0);
08:40:12:271;08:40:12:264;1448308571.86;(0.37772212028503416, 0.35210422939724395);46.2453231812;1.0;0;0;0;0;0;0;0;0;0;();(-2000.0, -2000.0);
08:40:12:288;08:40:12:264;1448308571.86;(0.37772212028503416, 0.35210422939724395);46.2453231812;1.0;0;0;0;0;0;0;0;0;0;();(-2000.0, -2000.0);
08:40:12:304;08:40:12:264;1448308571.86;(0.37772212028503416, 0.35210422939724395);46.2453231812;1.0;0;0;0;0;0;0;0;0;0;();(-2000.0, -2000.0);
08:40:12:321;08:40:12:264;1448308571.86;(0.37772212028503416, 0.35210422939724395);46.2453231812;1.0;0;0;0;0;0;0;0;0;0;();(-2000.0, -2000.0);
08:40:12:354;08:40:12:333;1448308571.92;(0.37762768268585206, 0.3522165934244792);46.2013282776;1.0;0;0;0;0;0;0;0;0;0;();(-2000.0, -2000.0);
08:40:12:372;08:40:12:333;1448308571.92;(0.37762768268585206, 0.3522165934244792);46.2013282776;1.0;0;0;0;0;0;0;0;0;0;();(-2000.0, -2000.0);
08:40:12:388;08:40:12:333;1448308571.92;(0.37762768268585206, 0.3522165934244792);46.2013282776;1.0;0;0;0;0;0;0;0;0;0;();(-2000.0, -2000.0);
08:40:12:405;08:40:12:396;1448308571.99;(0.37493927478790284, 0.400061755710178);45.8652839661;1.0;0;0;0;0;0;0;0;0;0;();(-2000.0, -2000.0);
08:40:12:422;08:40:12:396;1448308571.99;(0.37493927478790284, 0.400061755710178);45.8652839661;1.0;0;0;0;0;0;0;0;0;0;();(-2000.0, -2000.0);
08:40:12:456;08:40:12:396;1448308571.99;(0.37493927478790284, 0.400061755710178);45.8652839661;1.0;0;0;0;0;0;0;0;0;0;();(-2000.0, -2000.0);
08:40:12:471;08:40:12:465;1448308572.06;(0.37353692054748533, 0.39856516520182295);45.9509773254;1.0;0;0;0;0;0;0;0;0;0;();(-2000.0, -2000.0);
08:40:12:488;08:40:12:465;1448308572.06;(0.37353692054748533, 0.39856516520182295);45.9509773254;1.0;0;0;0;0;0;0;0;0;0;();(-2000.0, -2000.0);
08:40:12:504;08:40:12:465;1448308572.06;(0.37353692054748533, 0.39856516520182295);45.9509773254;1.0;0;0;0;0;0;0;0;0;0;();(-2000.0, -2000.0);
08:40:12:521;08:40:12:465;1448308572.06;(0.37353692054748533, 0.39856516520182295);45.9509773254;1.0;0;0;0;0;0;0;0;0;0;();(-2000.0, -2000.0);
08:40:12:555;08:40:12:529;1448308572.12;(0.37285149097442627, 0.3982756720648871);45.6979789734;1.0;0;0;0;0;0;0;0;0;0;();(-2000.0, -2000.0);
08:40:12:571;08:40:12:529;1448308572.12;(0.37285149097442627, 0.3982756720648871);45.6979789734;1.0;0;0;0;0;0;0;0;0;0;();(-2000.0, -2000.0);
08:40:12:589;08:40:12:529;1448308572.12;(0.37285149097442627, 0.3982756720648871);45.6979789734;1.0;0;0;0;0;0;0;0;0;0;();(-2000.0, -2000.0);
08:40:12:605;08:40:12:596;1448308572.16;(0.3725093364715576, 0.39845576816134987);45.5688667297;1.0;0;0;0;0;0;0;0;0;0;();(-2000.0, -2000.0);
08:40:12:622;08:40:12:596;1448308572.16;(0.3725093364715576, 0.39845576816134987);45.5688667297;1.0;0;0;0;0;0;0;0;0;0;();(-2000.0, -2000.0);
08:40:12:639;08:40:12:596;1448308572.16;(0.3725093364715576, 0.39845576816134987);45.5688667297;1.0;0;0;0;0;0;0;0;0;0;();(-2000.0, -2000.0);
08:40:12:672;08:40:12:666;1448308572.26;(0.37545249462127683, 0.40016954210069444);46.0332145691;1.0;0;0;0;0;0;0;0;0;0;();(-2000.0, -2000.0);
08:40:12:690;08:40:12:666;1448308572.26;(0.37545249462127683, 0.40016954210069444);46.0332145691;1.0;0;0;0;0;0;0;0;0;0;();(-2000.0, -2000.0);
08:40:12:708;08:40:12:666;1448308572.26;(0.37545249462127683, 0.40016954210069444);46.0332145691;1.0;0;0;0;0;0;0;0;0;0;();(-2000.0, -2000.0);
08:40:12:722;08:40:12:666;1448308572.26;(0.37545249462127683, 0.40016954210069444);46.0332145691;1.0;0;0;0;0;0;0;0;0;0;();(-2000.0, -2000.0);
08:40:12:757;08:40:12:729;1448308572.32;(0.37510027885437014, 0.3995167202419705);45.9679756165;1.0;0;0;0;0;0;0;0;0;0;();(-2000.0, -2000.0);
08:40:12:772;08:40:12:729;1448308572.32;(0.37510027885437014, 0.3995167202419705);45.9679756165;1.0;0;0;0;0;0;0;0;0;0;();(-2000.0, -2000.0);
08:40:12:789;08:40:12:729;1448308572.32;(0.37510027885437014, 0.3995167202419705);45.9679756165;1.0;0;0;0;0;0;0;0;0;0;();(-2000.0, -2000.0);
08:40:12:806;08:40:12:796;1448308572.39;(0.3751478910446167, 0.3993835025363498);45.9714126587;1.0;0;0;0;0;0;0;0;0;0;();(-2000.0, -2000.0);
08:40:12:823;08:40:12:796;1448308572.39;(0.3751478910446167, 0.3993835025363498);45.9714126587;1.0;0;0;0;0;0;0;0;0;0;();(-2000.0, -2000.0);
08:40:12:839;08:40:12:796;1448308572.39;(0.3751478910446167, 0.3993835025363498);45.9714126587;1.0;0;0;0;0;0;0;0;0;0;();(-2000.0, -2000.0);
08:40:12:874;08:40:12:864;1448308572.46;(0.3749714374542236, 0.3995061238606771);46.1580238342;1.0;0;0;0;0;0;0;0;0;0;();(-2000.0, -2000.0);
08:40:12:891;08:40:12:864;1448308572.46;(0.3749714374542236, 0.3995061238606771);46.1580238342;1.0;0;0;0;0;0;0;0;0;0;();(-2000.0, -2000.0);
08:40:12:904;08:40:12:864;1448308572.46;(0.3749714374542236, 0.3995061238606771);46.1580238342;1.0;0;0;0;0;0;0;0;0;0;();(-2000.0, -2000.0);
08:40:12:921;08:40:12:864;1448308572.46;(0.3749714374542236, 0.3995061238606771);46.1580238342;1.0;0;0;0;0;0;0;0;0;0;();(-2000.0, -2000.0);
08:40:12:939;08:40:12:929;1448308572.52;(0.375619912147522, 0.39967185126410587);46.118396759;1.0;0;0;0;0;0;0;0;0;0;();(-2000.0, -2000.0);
08:40:12:973;08:40:12:929;1448308572.52;(0.375619912147522, 0.39967185126410587);46.118396759;1.0;0;0;0;0;0;0;0;0;0;();(-2000.0, -2000.0);
08:40:12:989;08:40:12:929;1448308572.52;(0.375619912147522, 0.39967185126410587);46.118396759;1.0;0;0;0;0;0;0;0;0;0;();(-2000.0, -2000.0);
08:40:13:005;08:40:12:996;1448308572.59;(0.37622919082641604, 0.4000156402587891);46.553894043;1.0;0;0;0;0;0;0;0;0;0;();(-2000.0, -2000.0);
08:40:13:022;08:40:12:996;1448308572.59;(0.37622919082641604, 0.4000156402587891);46.553894043;1.0;0;0;0;0;0;0;0;0;0;();(-2000.0, -2000.0);
08:40:13:039;08:40:12:996;1448308572.59;(0.37622919082641604, 0.4000156402587891);46.553894043;1.0;0;0;0;0;0;0;0;0;0;();(-2000.0, -2000.0);
08:40:13:072;08:40:13:060;1448308572.62;(0.37611804008483884, 0.4002833048502604);46.5085487366;1.0;0;0;0;0;0;0;0;0;0;();(-2000.0, -2000.0);
08:40:13:089;08:40:13:060;1448308572.62;(0.37611804008483884, 0.4002833048502604);46.5085487366;1.0;0;0;0;0;0;0;0;0;0;();(-2000.0, -2000.0);
08:40:13:106;08:40:13:060;1448308572.62;(0.37611804008483884, 0.4002833048502604);46.5085487366;1.0;0;0;0;0;0;0;0;0;0;();(-2000.0, -2000.0);
08:40:13:122;08:40:13:060;1448308572.62;(0.37611804008483884, 0.4002833048502604);46.5085487366;1.0;0;0;0;0;0;0;0;0;0;();(-2000.0, -2000.0);
08:40:13:139;08:40:13:130;1448308572.72;(0.37612595558166506, 0.40066897074381513);46.7449417114;1.0;0;0;0;0;0;0;0;0;0;();(-2000.0, -2000.0);
08:40:13:171;08:40:13:130;1448308572.72;(0.37612595558166506, 0.40066897074381513);46.7449417114;1.0;0;0;0;0;0;0;0;0;0;();(-2000.0, -2000.0);
08:40:13:188;08:40:13:130;1448308572.72;(0.37612595558166506, 0.40066897074381513);46.7449417114;1.0;0;0;0;0;0;0;0;0;0;();(-2000.0, -2000.0);
08:40:13:205;08:40:13:191;1448308572.76;(0.37608840465545657, 0.40113953484429254);46.7938270569;1.0;0;0;0;0;0;0;0;0;0;();(-2000.0, -2000.0);
08:40:13:223;08:40:13:191;1448308572.76;(0.37608840465545657, 0.40113953484429254);46.7938270569;1.0;0;0;0;0;0;0;0;0;0;();(-2000.0, -2000.0);
08:40:13:239;08:40:13:191;1448308572.76;(0.37608840465545657, 0.40113953484429254);46.7938270569;1.0;0;0;0;0;0;0;0;0;0;();(-2000.0, -2000.0);
08:40:13:272;08:40:13:262;1448308572.86;(0.3759684801101685, 0.4013131035698785);46.7825508118;1.0;0;0;0;0;0;0;0;0;0;();(-2000.0, -2000.0);
08:40:13:289;08:40:13:262;1448308572.86;(0.3759684801101685, 0.4013131035698785);46.7825508118;1.0;0;0;0;0;0;0;0;0;0;();(-2000.0, -2000.0);
08:40:13:306;08:40:13:262;1448308572.86;(0.3759684801101685, 0.4013131035698785);46.7825508118;1.0;0;0;0;0;0;0;0;0;0;();(-2000.0, -2000.0);
08:40:13:322;08:40:13:262;1448308572.86;(0.3759684801101685, 0.4013131035698785);46.7825508118;1.0;0;0;0;0;0;0;0;0;0;();(-2000.0, -2000.0);
08:40:13:338;08:40:13:329;1448308572.92;(0.3763170003890991, 0.4013800303141276);46.8350601196;1.0;0;0;0;0;0;0;0;0;0;();(-2000.0, -2000.0);
08:40:13:371;08:40:13:329;1448308572.92;(0.3763170003890991, 0.4013800303141276);46.8350601196;1.0;0;0;0;0;0;0;0;0;0;();(-2000.0, -2000.0);
08:40:13:388;08:40:13:329;1448308572.92;(0.3763170003890991, 0.4013800303141276);46.8350601196;1.0;0;0;0;0;0;0;0;0;0;();(-2000.0, -2000.0);
08:40:13:405;08:40:13:392;1448308572.99;(0.37625267505645754, 0.4018753475613064);47.0776329041;1.0;0;0;0;0;0;0;0;0;0;();(-2000.0, -2000.0);
08:40:13:423;08:40:13:392;1448308572.99;(0.37625267505645754, 0.4018753475613064);47.0776329041;1.0;0;0;0;0;0;0;0;0;0;();(-2000.0, -2000.0);
08:40:13:439;08:40:13:392;1448308572.99;(0.37625267505645754, 0.4018753475613064);47.0776329041;1.0;0;0;0;0;0;0;0;0;0;();(-2000.0, -2000.0);
08:40:13:473;08:40:13:460;1448308573.02;(0.37619969844818113, 0.4018161349826389);47.0520439148;1.0;0;0;0;0;0;0;0;0;0;();(-2000.0, -2000.0);
08:40:13:490;08:40:13:460;1448308573.02;(0.37619969844818113, 0.4018161349826389);47.0520439148;1.0;0;0;0;0;0;0;0;0;0;();(-2000.0, -2000.0);
08:40:13:506;08:40:13:460;1448308573.02;(0.37619969844818113, 0.4018161349826389);47.0520439148;1.0;0;0;0;0;0;0;0;0;0;();(-2000.0, -2000.0);
08:40:13:522;08:40:13:460;1448308573.02;(0.37619969844818113, 0.4018161349826389);47.0520439148;1.0;0;0;0;0;0;0;0;0;0;();(-2000.0, -2000.0);
08:40:13:540;08:40:13:527;1448308573.12;(0.3772916793823242, 0.4129135979546441);46.9717445374;1.0;0;0;0;0;0;0;0;0;0;();(-2000.0, -2000.0);
08:40:13:573;08:40:13:527;1448308573.12;(0.3772916793823242, 0.4129135979546441);46.9717445374;1.0;0;0;0;0;0;0;0;0;0;();(-2000.0, -2000.0);
08:40:13:589;08:40:13:527;1448308573.12;(0.3772916793823242, 0.4129135979546441);46.9717445374;1.0;0;0;0;0;0;0;0;0;0;();(-2000.0, -2000.0);
08:40:13:606;08:40:13:593;1448308573.19;(0.37725305557250977, 0.4131729973687066);47.0139274597;1.0;0;0;0;0;0;0;0;0;0;();(-2000.0, -2000.0);
08:40:13:622;08:40:13:593;1448308573.19;(0.37725305557250977, 0.4131729973687066);47.0139274597;1.0;0;0;0;0;0;0;0;0;0;();(-2000.0, -2000.0);
08:40:13:640;08:40:13:593;1448308573.19;(0.37725305557250977, 0.4131729973687066);47.0139274597;1.0;0;0;0;0;0;0;0;0;0;();(-2000.0, -2000.0);
08:40:13:673;08:40:13:661;1448308573.26;(0.37761242389678956, 0.4134435017903646);46.8255195618;1.0;0;0;0;0;0;0;0;0;0;();(-2000.0, -2000.0);
08:40:13:689;08:40:13:661;1448308573.26;(0.37761242389678956, 0.4134435017903646);46.8255195618;1.0;0;0;0;0;0;0;0;0;0;();(-2000.0, -2000.0);
08:40:13:706;08:40:13:661;1448308573.26;(0.37761242389678956, 0.4134435017903646);46.8255195618;1.0;0;0;0;0;0;0;0;0;0;();(-2000.0, -2000.0);
08:40:13:723;08:40:13:661;1448308573.26;(0.37761242389678956, 0.4134435017903646);46.8255195618;1.0;0;0;0;0;0;0;0;0;0;();(-2000.0, -2000.0);
08:40:13:740;08:40:13:726;1448308573.32;(0.3777081251144409, 0.4136444515652127);46.8072013855;1.0;0;0;0;0;0;0;0;0;0;();(-2000.0, -2000.0);
08:40:13:773;08:40:13:726;1448308573.32;(0.3777081251144409, 0.4136444515652127);46.8072013855;1.0;0;0;0;0;0;0;0;0;0;();(-2000.0, -2000.0);
08:40:13:789;08:40:13:726;1448308573.32;(0.3777081251144409, 0.4136444515652127);46.8072013855;1.0;0;0;0;0;0;0;0;0;0;();(-2000.0, -2000.0);
08:40:13:807;08:40:13:796;1448308573.39;(0.37743029594421384, 0.4134628295898437);47.1058425903;1.0;0;0;0;0;0;0;0;0;0;();(-2000.0, -2000.0);
08:40:13:823;08:40:13:796;1448308573.39;(0.37743029594421384, 0.4134628295898437);47.1058425903;1.0;0;0;0;0;0;0;0;0;0;();(-2000.0, -2000.0);
08:40:13:839;08:40:13:796;1448308573.39;(0.37743029594421384, 0.4134628295898437);47.1058425903;1.0;0;0;0;0;0;0;0;0;0;();(-2000.0, -2000.0);
08:40:13:872;08:40:13:857;1448308573.46;(0.37709999084472656, 0.41310026380750864);47.3181877136;1.0;0;0;0;0;0;0;0;0;0;();(-2000.0, -2000.0);
08:40:13:889;08:40:13:857;1448308573.46;(0.37709999084472656, 0.41310026380750864);47.3181877136;1.0;0;0;0;0;0;0;0;0;0;();(-2000.0, -2000.0);
08:40:13:906;08:40:13:857;1448308573.46;(0.37709999084472656, 0.41310026380750864);47.3181877136;1.0;0;0;0;0;0;0;0;0;0;();(-2000.0, -2000.0);
08:40:13:922;08:40:13:857;1448308573.46;(0.37709999084472656, 0.41310026380750864);47.3181877136;1.0;0;0;0;0;0;0;0;0;0;();(-2000.0, -2000.0);
08:40:13:940;08:40:13:926;1448308573.52;(0.37703239917755127, 0.41301481458875866);47.2055740356;1.0;0;0;0;0;0;0;0;0;0;();(-2000.0, -2000.0);
08:40:13:974;08:40:13:926;1448308573.52;(0.37703239917755127, 0.41301481458875866);47.2055740356;1.0;0;0;0;0;0;0;0;0;0;();(-2000.0, -2000.0);
08:40:13:989;08:40:13:926;1448308573.52;(0.37703239917755127, 0.41301481458875866);47.2055740356;1.0;0;0;0;0;0;0;0;0;0;();(-2000.0, -2000.0);
08:40:14:007;08:40:14:004;1448308573.59;(0.37756431102752686, 0.4195860968695746);47.7900352478;1.0;0;0;0;0;0;0;0;0;0;();(-2000.0, -2000.0);
08:40:14:022;08:40:14:004;1448308573.59;(0.37756431102752686, 0.4195860968695746);47.7900352478;1.0;0;0;0;0;0;0;0;0;0;();(-2000.0, -2000.0);
08:40:14:040;08:40:14:004;1448308573.59;(0.37756431102752686, 0.4195860968695746);47.7900352478;1.0;0;0;0;0;0;0;0;0;0;();(-2000.0, -2000.0);
08:40:14:072;08:40:14:055;1448308573.62;(0.3775286912918091, 0.42007759941948786);47.4970321655;1.0;0;0;0;0;0;0;0;0;0;();(-2000.0, -2000.0);
08:40:14:090;08:40:14:055;1448308573.62;(0.3775286912918091, 0.42007759941948786);47.4970321655;1.0;0;0;0;0;0;0;0;0;0;();(-2000.0, -2000.0);
08:40:14:107;08:40:14:055;1448308573.62;(0.3775286912918091, 0.42007759941948786);47.4970321655;1.0;0;0;0;0;0;0;0;0;0;();(-2000.0, -2000.0);
08:40:14:124;08:40:14:055;1448308573.62;(0.3775286912918091, 0.42007759941948786);47.4970321655;1.0;0;0;0;0;0;0;0;0;0;();(-2000.0, -2000.0);
08:40:14:139;08:40:14:128;1448308573.72;(0.391812801361084, 0.408646223280165);47.8846168518;1.0;0;0;0;0;0;0;0;0;0;();(-2000.0, -2000.0);
08:40:14:173;08:40:14:128;1448308573.72;(0.391812801361084, 0.408646223280165);47.8846168518;1.0;0;0;0;0;0;0;0;0;0;();(-2000.0, -2000.0);
08:40:14:191;08:40:14:188;1448308573.76;(0.3915971517562866, 0.40897801717122395);48.1300468445;1.0;0;0;0;0;0;0;0;0;0;();(-2000.0, -2000.0);
08:40:14:206;08:40:14:188;1448308573.76;(0.3915971517562866, 0.40897801717122395);48.1300468445;1.0;0;0;0;0;0;0;0;0;0;();(-2000.0, -2000.0);
08:40:14:224;08:40:14:188;1448308573.76;(0.3915971517562866, 0.40897801717122395);48.1300468445;1.0;0;0;0;0;0;0;0;0;0;();(-2000.0, -2000.0);
08:40:14:240;08:40:14:188;1448308573.76;(0.3915971517562866, 0.40897801717122395);48.1300468445;1.0;0;0;0;0;0;0;0;0;0;();(-2000.0, -2000.0);
08:40:14:273;08:40:14:258;1448308573.82;(0.3911080598831177, 0.4093587663438585);48.0217018127;1.0;0;0;0;0;0;0;0;0;0;();(-2000.0, -2000.0);
08:40:14:290;08:40:14:258;1448308573.82;(0.3911080598831177, 0.4093587663438585);48.0217018127;1.0;0;0;0;0;0;0;0;0;0;();(-2000.0, -2000.0);
08:40:14:307;08:40:14:258;1448308573.82;(0.3911080598831177, 0.4093587663438585);48.0217018127;1.0;0;0;0;0;0;0;0;0;0;();(-2000.0, -2000.0);
08:40:14:322;08:40:14:258;1448308573.82;(0.3911080598831177, 0.4093587663438585);48.0217018127;1.0;0;0;0;0;0;0;0;0;0;();(-2000.0, -2000.0);
08:40:14:340;08:40:14:327;1448308573.92;(0.3912562370300293, 0.4097633785671658);48.1979789734;1.0;0;0;0;0;0;0;0;0;0;();(-2000.0, -2000.0);
08:40:14:374;08:40:14:327;1448308573.92;(0.3912562370300293, 0.4097633785671658);48.1979789734;1.0;0;0;0;0;0;0;0;0;0;();(-2000.0, -2000.0);
08:40:14:390;08:40:14:327;1448308573.92;(0.3912562370300293, 0.4097633785671658);48.1979789734;1.0;0;0;0;0;0;0;0;0;0;();(-2000.0, -2000.0);
08:40:14:406;08:40:14:388;1448308573.96;(0.39128961563110354, 0.40950147840711804);48.3110694885;1.0;0;0;0;0;0;0;0;0;0;();(-2000.0, -2000.0);
08:40:14:424;08:40:14:388;1448308573.96;(0.39128961563110354, 0.40950147840711804);48.3110694885;1.0;0;0;0;0;0;0;0;0;0;();(-2000.0, -2000.0);
08:40:14:440;08:40:14:388;1448308573.96;(0.39128961563110354, 0.40950147840711804);48.3110694885;1.0;0;0;0;0;0;0;0;0;0;();(-2000.0, -2000.0);
08:40:14:476;08:40:14:457;1448308574.02;(0.4134592294692993, 0.4129359775119358);54.3125457764;0.921095106048;0;0;0;0;0;0;0;0;0;();(-2000.0, -2000.0);
08:40:14:493;08:40:14:457;1448308574.02;(0.4134592294692993, 0.4129359775119358);54.3125457764;0.921095106048;0;0;0;0;0;0;0;0;0;();(-2000.0, -2000.0);
08:40:14:509;08:40:14:457;1448308574.02;(0.4134592294692993, 0.4129359775119358);54.3125457764;0.921095106048;0;0;0;0;0;0;0;0;0;();(-2000.0, -2000.0);
08:40:14:525;08:40:14:522;1448308574.12;(0.44338574409484866, 0.4169003804524739);48.0303573608;1.0;0;0;0;0;0;0;0;0;0;();(-2000.0, -2000.0);
08:40:14:540;08:40:14:522;1448308574.12;(0.44338574409484866, 0.4169003804524739);48.0303573608;1.0;0;0;0;0;0;0;0;0;0;();(-2000.0, -2000.0);
08:40:14:576;08:40:14:522;1448308574.12;(0.44338574409484866, 0.4169003804524739);48.0303573608;1.0;0;0;0;0;0;0;0;0;0;();(-2000.0, -2000.0);
08:40:14:594;08:40:14:587;1448308574.15;(0.44363975524902344, 0.41736365424262156);47.9384117126;1.0;0;0;0;0;0;0;0;0;0;();(-2000.0, -2000.0);
08:40:14:609;08:40:14:589;1448308574.19;(0.44385132789611814, 0.41782624986436634);48.0376701355;1.0;0;0;0;0;0;0;0;0;0;();(-2000.0, -2000.0);
08:40:14:626;08:40:14:589;1448308574.19;(0.44385132789611814, 0.41782624986436634);48.0376701355;1.0;0;0;0;0;0;0;0;0;0;();(-2000.0, -2000.0);
08:40:14:641;08:40:14:589;1448308574.19;(0.44385132789611814, 0.41782624986436634);48.0376701355;1.0;0;0;0;0;0;0;0;0;0;();(-2000.0, -2000.0);
08:40:14:674;08:40:14:659;1448308574.25;(0.4421535491943359, 0.41694950527615016);48.2700195312;0.834301130014;0;0;0;0;0;0;0;0;0;();(-2000.0, -2000.0);
08:40:14:691;08:40:14:659;1448308574.25;(0.4421535491943359, 0.41694950527615016);48.2700195312;0.834301130014;0;0;0;0;0;0;0;0;0;();(-2000.0, -2000.0);
08:40:14:707;08:40:14:659;1448308574.25;(0.4421535491943359, 0.41694950527615016);48.2700195312;0.834301130014;0;0;0;0;0;0;0;0;0;();(-2000.0, -2000.0);
08:40:14:724;08:40:14:721;1448308574.32;(0, 0);0;0;0;0;0;0;0;0;0;0;0;();(-2000.0, -2000.0);
08:40:14:743;08:40:14:721;1448308574.32;(0, 0);0;0;0;0;0;0;0;0;0;0;0;();(-2000.0, -2000.0);
08:40:14:776;08:40:14:721;1448308574.32;(0, 0);0;0;0;0;0;0;0;0;0;0;0;();(-2000.0, -2000.0);
08:40:14:794;08:40:14:787;1448308574.35;(0, 0);0;0;0;0;0;0;0;0;0;0;0;();(-2000.0, -2000.0);
08:40:14:809;08:40:14:789;1448308574.39;(0.4808095932006836, 0.4170704311794705);47.574546814;0.967392828202;0;0;0;0;0;0;0;0;0;();(-2000.0, -2000.0);
08:40:14:824;08:40:14:789;1448308574.39;(0.4808095932006836, 0.4170704311794705);47.574546814;0.967392828202;0;0;0;0;0;0;0;0;0;();(-2000.0, -2000.0);
08:40:14:841;08:40:14:789;1448308574.39;(0.4808095932006836, 0.4170704311794705);47.574546814;0.967392828202;0;0;0;0;0;0;0;0;0;();(-2000.0, -2000.0);
08:40:14:874;08:40:14:851;1448308574.42;(0.4811065673828125, 0.41768875122070315);47.7827568054;1.0;0;0;0;0;0;0;0;0;0;();(-2000.0, -2000.0);
08:40:14:891;08:40:14:851;1448308574.42;(0.4811065673828125, 0.41768875122070315);47.7827568054;1.0;0;0;0;0;0;0;0;0;0;();(-2000.0, -2000.0);
08:40:14:908;08:40:14:851;1448308574.42;(0.4811065673828125, 0.41768875122070315);47.7827568054;1.0;0;0;0;0;0;0;0;0;0;();(-2000.0, -2000.0);
08:40:14:924;08:40:14:920;1448308574.45;(0.4816843032836914, 0.4172686682807074);47.9649505615;1.0;0;0;0;0;0;0;0;0;0;();(-2000.0, -2000.0);
08:40:14:941;08:40:14:928;1448308574.52;(0.48264641761779786, 0.41696285671657984);48.0499305725;1.0;0;0;0;0;0;0;0;0;0;();(-2000.0, -2000.0);
08:40:14:974;08:40:14:928;1448308574.52;(0.48264641761779786, 0.41696285671657984);48.0499305725;1.0;0;0;0;0;0;0;0;0;0;();(-2000.0, -2000.0);
08:40:14:991;08:40:14:984;1448308574.55;(0.48281493186950686, 0.4167263454861111);47.8383598328;1.0;0;0;0;0;0;0;0;0;0;();(-2000.0, -2000.0);
08:40:15:008;08:40:14:984;1448308574.55;(0.48281493186950686, 0.4167263454861111);47.8383598328;1.0;0;0;0;0;0;0;0;0;0;();(-2000.0, -2000.0);
08:40:15:024;08:40:14:984;1448308574.55;(0.48281493186950686, 0.4167263454861111);47.8383598328;1.0;0;0;0;0;0;0;0;0;0;();(-2000.0, -2000.0);
08:40:15:041;08:40:14:984;1448308574.55;(0.48281493186950686, 0.4167263454861111);47.8383598328;1.0;0;0;0;0;0;0;0;0;0;();(-2000.0, -2000.0);
08:40:15:074;08:40:15:053;1448308574.62;(0.48279376029968263, 0.41708251105414496);48.1688194275;1.0;0;0;0;0;0;0;0;0;0;();(-2000.0, -2000.0);
08:40:15:091;08:40:15:053;1448308574.62;(0.48279376029968263, 0.41708251105414496);48.1688194275;1.0;0;0;0;0;0;0;0;0;0;();(-2000.0, -2000.0);
08:40:15:108;08:40:15:053;1448308574.62;(0.48279376029968263, 0.41708251105414496);48.1688194275;1.0;0;0;0;0;0;0;0;0;0;();(-2000.0, -2000.0);
08:40:15:127;08:40:15:053;1448308574.62;(0.48279376029968263, 0.41708251105414496);48.1688194275;1.0;0;0;0;0;0;0;0;0;0;();(-2000.0, -2000.0);
