%Timestamp,timestamp_write;timestamp_gotpupil;eyeTrackerTime;normPos;diameter;confidence;nplanes;listofAirplanesonScreen;lastAction;lastActionDetails;lastActionAirplaneNumber;calculatedScore;positiveScore;negativeScore;collidedAirplaneNumbers;targetPositions;collisionPoint
03:38:47:105;1448290486.7;(0.6160873889923095, 0.7889942381117079);75.8880233765;0.818555453785;0;0;0;0;0;0;0;0;0;();(-2000.0, -2000.0);
03:38:47:118;03:38:47:101;1448290486.73;(0.6150843620300293, 0.7909923129611545);77.0693817139;0.714154018115;0;0;0;0;0;0;0;0;0;();(-2000.0, -2000.0);
03:38:47:126;03:38:47:101;1448290486.73;(0.6150843620300293, 0.7909923129611545);77.0693817139;0.714154018115;0;0;0;0;0;0;0;0;0;();(-2000.0, -2000.0);
03:38:47:134;03:38:47:101;1448290486.73;(0.6150843620300293, 0.7909923129611545);77.0693817139;0.714154018115;0;0;0;0;0;0;0;0;0;();(-2000.0, -2000.0);
03:38:47:142;03:38:47:101;1448290486.73;(0.6150843620300293, 0.7909923129611545);77.0693817139;0.714154018115;0;0;0;0;0;0;0;0;0;();(-2000.0, -2000.0);
03:38:47:146;03:38:47:101;1448290486.73;(0.6150843620300293, 0.7909923129611545);77.0693817139;0.714154018115;0;0;0;0;0;0;0;0;0;();(-2000.0, -2000.0);
03:38:47:150;03:38:47:101;1448290486.73;(0.6150843620300293, 0.7909923129611545);77.0693817139;0.714154018115;0;0;0;0;0;0;0;0;0;();(-2000.0, -2000.0);
03:38:47:154;03:38:47:150;1448290486.76;(0.3656228303909302, 0.8952832698822022);19.8989944458;0.694642682286;0;0;0;0;0;0;0;0;0;();(-2000.0, -2000.0);
03:38:47:160;03:38:47:153;1448290486.8;(0.6172115802764893, 0.7905284033881294);75.2456359863;0.692550418018;0;0;0;0;0;0;0;0;0;();(-2000.0, -2000.0);
03:38:47:163;03:38:47:153;1448290486.8;(0.6172115802764893, 0.7905284033881294);75.2456359863;0.692550418018;0;0;0;0;0;0;0;0;0;();(-2000.0, -2000.0);
03:38:47:167;03:38:47:153;1448290486.8;(0.6172115802764893, 0.7905284033881294);75.2456359863;0.692550418018;0;0;0;0;0;0;0;0;0;();(-2000.0, -2000.0);
03:38:47:171;03:38:47:153;1448290486.8;(0.6172115802764893, 0.7905284033881294);75.2456359863;0.692550418018;0;0;0;0;0;0;0;0;0;();(-2000.0, -2000.0);
03:38:47:176;03:38:47:153;1448290486.8;(0.6172115802764893, 0.7905284033881294);75.2456359863;0.692550418018;0;0;0;0;0;0;0;0;0;();(-2000.0, -2000.0);
03:38:47:180;03:38:47:153;1448290486.8;(0.6172115802764893, 0.7905284033881294);75.2456359863;0.692550418018;0;0;0;0;0;0;0;0;0;();(-2000.0, -2000.0);
03:38:47:183;03:38:47:153;1448290486.8;(0.6172115802764893, 0.7905284033881294);75.2456359863;0.692550418018;0;0;0;0;0;0;0;0;0;();(-2000.0, -2000.0);
03:38:47:187;03:38:47:153;1448290486.8;(0.6172115802764893, 0.7905284033881294);75.2456359863;0.692550418018;0;0;0;0;0;0;0;0;0;();(-2000.0, -2000.0);
03:38:47:192;03:38:47:153;1448290486.8;(0.6172115802764893, 0.7905284033881294);75.2456359863;0.692550418018;0;0;0;0;0;0;0;0;0;();(-2000.0, -2000.0);
03:38:47:195;03:38:47:153;1448290486.8;(0.6172115802764893, 0.7905284033881294);75.2456359863;0.692550418018;0;0;0;0;0;0;0;0;0;();(-2000.0, -2000.0);
03:38:47:199;03:38:47:153;1448290486.8;(0.6172115802764893, 0.7905284033881294);75.2456359863;0.692550418018;0;0;0;0;0;0;0;0;0;();(-2000.0, -2000.0);
03:38:47:203;03:38:47:153;1448290486.8;(0.6172115802764893, 0.7905284033881294);75.2456359863;0.692550418018;0;0;0;0;0;0;0;0;0;();(-2000.0, -2000.0);
03:38:47:207;03:38:47:153;1448290486.8;(0.6172115802764893, 0.7905284033881294);75.2456359863;0.692550418018;0;0;0;0;0;0;0;0;0;();(-2000.0, -2000.0);
03:38:47:212;03:38:47:153;1448290486.8;(0.6172115802764893, 0.7905284033881294);75.2456359863;0.692550418018;0;0;0;0;0;0;0;0;0;();(-2000.0, -2000.0);
03:38:47:229;03:38:47:221;1448290486.86;(0.6619771957397461, 0.7770773357815213);73.2687530518;0.748475196944;0;0;0;0;0;0;0;0;0;();(-2000.0, -2000.0);
03:38:47:246;03:38:47:221;1448290486.86;(0.6619771957397461, 0.7770773357815213);73.2687530518;0.748475196944;0;0;0;0;0;0;0;0;0;();(-2000.0, -2000.0);
03:38:47:261;03:38:47:221;1448290486.86;(0.6619771957397461, 0.7770773357815213);73.2687530518;0.748475196944;0;0;0;0;0;0;0;0;0;();(-2000.0, -2000.0);
03:38:47:281;03:38:47:221;1448290486.86;(0.6619771957397461, 0.7770773357815213);73.2687530518;0.748475196944;0;0;0;0;0;0;0;0;0;();(-2000.0, -2000.0);
03:38:47:315;03:38:47:286;1448290486.94;(0.6596541404724121, 0.7765715069240994);72.1393356323;1.0;0;0;0;0;0;0;0;0;0;();(-2000.0, -2000.0);
03:38:47:332;03:38:47:286;1448290486.94;(0.6596541404724121, 0.7765715069240994);72.1393356323;1.0;0;0;0;0;0;0;0;0;0;();(-2000.0, -2000.0);
03:38:47:349;03:38:47:286;1448290486.94;(0.6596541404724121, 0.7765715069240994);72.1393356323;1.0;0;0;0;0;0;0;0;0;0;();(-2000.0, -2000.0);
03:38:47:365;03:38:47:355;1448290487.0;(0.6599007606506347, 0.7761886596679688);73.3808746338;0.914719825836;0;0;0;0;0;0;0;0;0;();(-2000.0, -2000.0);
03:38:47:381;03:38:47:355;1448290487.0;(0.6599007606506347, 0.7761886596679688);73.3808746338;0.914719825836;0;0;0;0;0;0;0;0;0;();(-2000.0, -2000.0);
03:38:47:416;03:38:47:355;1448290487.0;(0.6599007606506347, 0.7761886596679688);73.3808746338;0.914719825836;0;0;0;0;0;0;0;0;0;();(-2000.0, -2000.0);
03:38:47:434;03:38:47:425;1448290487.06;(0.6597292423248291, 0.7770701090494792);73.6415252686;0.969704956;0;0;0;0;0;0;0;0;0;();(-2000.0, -2000.0);
03:38:47:447;03:38:47:425;1448290487.06;(0.6597292423248291, 0.7770701090494792);73.6415252686;0.969704956;0;0;0;0;0;0;0;0;0;();(-2000.0, -2000.0);
03:38:47:463;03:38:47:425;1448290487.06;(0.6597292423248291, 0.7770701090494792);73.6415252686;0.969704956;0;0;0;0;0;0;0;0;0;();(-2000.0, -2000.0);
03:38:47:479;03:38:47:425;1448290487.06;(0.6597292423248291, 0.7770701090494792);73.6415252686;0.969704956;0;0;0;0;0;0;0;0;0;();(-2000.0, -2000.0);
03:38:47:516;03:38:47:486;1448290487.13;(0.6594602584838867, 0.7768001980251736);73.9246444702;0.962494839243;0;0;0;0;0;0;0;0;0;();(-2000.0, -2000.0);
03:38:47:532;03:38:47:486;1448290487.13;(0.6594602584838867, 0.7768001980251736);73.9246444702;0.962494839243;0;0;0;0;0;0;0;0;0;();(-2000.0, -2000.0);
03:38:47:546;03:38:47:486;1448290487.13;(0.6594602584838867, 0.7768001980251736);73.9246444702;0.962494839243;0;0;0;0;0;0;0;0;0;();(-2000.0, -2000.0);
03:38:47:563;03:38:47:553;1448290487.2;(0.6594780445098877, 0.7765655093722873);75.2206878662;0.922142722615;0;0;0;0;0;0;0;0;0;();(-2000.0, -2000.0);
03:38:47:580;03:38:47:553;1448290487.2;(0.6594780445098877, 0.7765655093722873);75.2206878662;0.922142722615;0;0;0;0;0;0;0;0;0;();(-2000.0, -2000.0);
03:38:47:613;03:38:47:553;1448290487.2;(0.6594780445098877, 0.7765655093722873);75.2206878662;0.922142722615;0;0;0;0;0;0;0;0;0;();(-2000.0, -2000.0);
03:38:47:629;03:38:47:616;1448290487.26;(0.6594915390014648, 0.7754674911499023);75.4822769165;0.994091255145;0;0;0;0;0;0;0;0;0;();(-2000.0, -2000.0);
03:38:47:646;03:38:47:616;1448290487.26;(0.6594915390014648, 0.7754674911499023);75.4822769165;0.994091255145;0;0;0;0;0;0;0;0;0;();(-2000.0, -2000.0);
03:38:47:663;03:38:47:616;1448290487.26;(0.6594915390014648, 0.7754674911499023);75.4822769165;0.994091255145;0;0;0;0;0;0;0;0;0;();(-2000.0, -2000.0);
03:38:47:680;03:38:47:616;1448290487.26;(0.6594915390014648, 0.7754674911499023);75.4822769165;0.994091255145;0;0;0;0;0;0;0;0;0;();(-2000.0, -2000.0);
03:38:47:713;03:38:47:685;1448290487.33;(0.6594930648803711, 0.7750437630547418);76.2437515259;0.921122479873;0;0;0;0;0;0;0;0;0;();(-2000.0, -2000.0);
03:38:47:730;03:38:47:685;1448290487.33;(0.6594930648803711, 0.7750437630547418);76.2437515259;0.921122479873;0;0;0;0;0;0;0;0;0;();(-2000.0, -2000.0);
03:38:47:746;03:38:47:685;1448290487.33;(0.6594930648803711, 0.7750437630547418);76.2437515259;0.921122479873;0;0;0;0;0;0;0;0;0;();(-2000.0, -2000.0);
03:38:47:763;03:38:47:752;1448290487.4;(0.6592133998870849, 0.7750551011827257);76.1053390503;0.882711478299;0;0;0;0;0;0;0;0;0;();(-2000.0, -2000.0);
03:38:47:779;03:38:47:752;1448290487.4;(0.6592133998870849, 0.7750551011827257);76.1053390503;0.882711478299;0;0;0;0;0;0;0;0;0;();(-2000.0, -2000.0);
03:38:47:813;03:38:47:752;1448290487.4;(0.6592133998870849, 0.7750551011827257);76.1053390503;0.882711478299;0;0;0;0;0;0;0;0;0;();(-2000.0, -2000.0);
03:38:47:830;03:38:47:816;1448290487.46;(0.7032337665557862, 0.7550445132785373);74.8185577393;0.82235389451;0;0;0;0;0;0;0;0;0;();(-2000.0, -2000.0);
03:38:47:846;03:38:47:816;1448290487.46;(0.7032337665557862, 0.7550445132785373);74.8185577393;0.82235389451;0;0;0;0;0;0;0;0;0;();(-2000.0, -2000.0);
03:38:47:862;03:38:47:816;1448290487.46;(0.7032337665557862, 0.7550445132785373);74.8185577393;0.82235389451;0;0;0;0;0;0;0;0;0;();(-2000.0, -2000.0);
03:38:47:878;03:38:47:816;1448290487.46;(0.7032337665557862, 0.7550445132785373);74.8185577393;0.82235389451;0;0;0;0;0;0;0;0;0;();(-2000.0, -2000.0);
03:38:47:914;03:38:47:884;1448290487.53;(0.727855634689331, 0.7268239339192708);69.370223999;0.879677724164;0;0;0;0;0;0;0;0;0;();(-2000.0, -2000.0);
03:38:47:930;03:38:47:884;1448290487.53;(0.727855634689331, 0.7268239339192708);69.370223999;0.879677724164;0;0;0;0;0;0;0;0;0;();(-2000.0, -2000.0);
03:38:47:946;03:38:47:884;1448290487.53;(0.727855634689331, 0.7268239339192708);69.370223999;0.879677724164;0;0;0;0;0;0;0;0;0;();(-2000.0, -2000.0);
03:38:47:963;03:38:47:947;1448290487.56;(0.7335630893707276, 0.7226023356119792);73.8268203735;0.966438261275;0;0;0;0;0;0;0;0;0;();(-2000.0, -2000.0);
03:38:47:979;03:38:47:947;1448290487.56;(0.7335630893707276, 0.7226023356119792);73.8268203735;0.966438261275;0;0;0;0;0;0;0;0;0;();(-2000.0, -2000.0);
03:38:48:013;03:38:47:947;1448290487.56;(0.7335630893707276, 0.7226023356119792);73.8268203735;0.966438261275;0;0;0;0;0;0;0;0;0;();(-2000.0, -2000.0);
03:38:48:032;03:38:48:023;1448290487.66;(0.7367810249328614, 0.7214155620998807);74.3852615356;0.929577675677;0;0;0;0;0;0;0;0;0;();(-2000.0, -2000.0);
03:38:48:049;03:38:48:023;1448290487.66;(0.7367810249328614, 0.7214155620998807);74.3852615356;0.929577675677;0;0;0;0;0;0;0;0;0;();(-2000.0, -2000.0);
03:38:48:065;03:38:48:023;1448290487.66;(0.7367810249328614, 0.7214155620998807);74.3852615356;0.929577675677;0;0;0;0;0;0;0;0;0;();(-2000.0, -2000.0);
03:38:48:080;03:38:48:023;1448290487.66;(0.7367810249328614, 0.7214155620998807);74.3852615356;0.929577675677;0;0;0;0;0;0;0;0;0;();(-2000.0, -2000.0);
03:38:48:112;03:38:48:084;1448290487.73;(0.7369771003723145, 0.7219050513373482);73.9739456177;0.808321483524;0;0;0;0;0;0;0;0;0;();(-2000.0, -2000.0);
03:38:48:130;03:38:48:084;1448290487.73;(0.7369771003723145, 0.7219050513373482);73.9739456177;0.808321483524;0;0;0;0;0;0;0;0;0;();(-2000.0, -2000.0);
03:38:48:145;03:38:48:084;1448290487.73;(0.7369771003723145, 0.7219050513373482);73.9739456177;0.808321483524;0;0;0;0;0;0;0;0;0;();(-2000.0, -2000.0);
03:38:48:163;03:38:48:149;1448290487.8;(0.7363843441009521, 0.7245101716783311);74.4650650024;0.716414529024;0;0;0;0;0;0;0;0;0;();(-2000.0, -2000.0);
03:38:48:179;03:38:48:149;1448290487.8;(0.7363843441009521, 0.7245101716783311);74.4650650024;0.716414529024;0;0;0;0;0;0;0;0;0;();(-2000.0, -2000.0);
03:38:48:214;03:38:48:149;1448290487.8;(0.7363843441009521, 0.7245101716783311);74.4650650024;0.716414529024;0;0;0;0;0;0;0;0;0;();(-2000.0, -2000.0);
03:38:48:229;03:38:48:217;1448290487.86;(0.7551309585571289, 0.7152741326226129);70.8593978882;0.663372280437;0;0;0;0;0;0;0;0;0;();(-2000.0, -2000.0);
03:38:48:247;03:38:48:217;1448290487.86;(0.7551309585571289, 0.7152741326226129);70.8593978882;0.663372280437;0;0;0;0;0;0;0;0;0;();(-2000.0, -2000.0);
03:38:48:262;03:38:48:217;1448290487.86;(0.7551309585571289, 0.7152741326226129);70.8593978882;0.663372280437;0;0;0;0;0;0;0;0;0;();(-2000.0, -2000.0);
03:38:48:279;03:38:48:217;1448290487.86;(0.7551309585571289, 0.7152741326226129);70.8593978882;0.663372280437;0;0;0;0;0;0;0;0;0;();(-2000.0, -2000.0);
03:38:48:315;03:38:48:282;1448290487.93;(0.7706231117248535, 0.7076361550225152);71.0200424194;0.882969973487;0;0;0;0;0;0;0;0;0;();(-2000.0, -2000.0);
03:38:48:332;03:38:48:282;1448290487.93;(0.7706231117248535, 0.7076361550225152);71.0200424194;0.882969973487;0;0;0;0;0;0;0;0;0;();(-2000.0, -2000.0);
03:38:48:347;03:38:48:282;1448290487.93;(0.7706231117248535, 0.7076361550225152);71.0200424194;0.882969973487;0;0;0;0;0;0;0;0;0;();(-2000.0, -2000.0);
03:38:48:364;03:38:48:350;1448290488.0;(0.7714999675750732, 0.70931273566352);70.2939605713;1.0;0;0;0;0;0;0;0;0;0;();(-2000.0, -2000.0);
03:38:48:380;03:38:48:350;1448290488.0;(0.7714999675750732, 0.70931273566352);70.2939605713;1.0;0;0;0;0;0;0;0;0;0;();(-2000.0, -2000.0);
03:38:48:412;03:38:48:350;1448290488.0;(0.7714999675750732, 0.70931273566352);70.2939605713;1.0;0;0;0;0;0;0;0;0;0;();(-2000.0, -2000.0);
03:38:48:430;03:38:48:416;1448290488.06;(0.7718830585479737, 0.7102403216891818);69.8748092651;1.0;0;0;0;0;0;0;0;0;0;();(-2000.0, -2000.0);
03:38:48:447;03:38:48:416;1448290488.06;(0.7718830585479737, 0.7102403216891818);69.8748092651;1.0;0;0;0;0;0;0;0;0;0;();(-2000.0, -2000.0);
03:38:48:463;03:38:48:416;1448290488.06;(0.7718830585479737, 0.7102403216891818);69.8748092651;1.0;0;0;0;0;0;0;0;0;0;();(-2000.0, -2000.0);
03:38:48:479;03:38:48:416;1448290488.06;(0.7718830585479737, 0.7102403216891818);69.8748092651;1.0;0;0;0;0;0;0;0;0;0;();(-2000.0, -2000.0);
03:38:48:514;03:38:48:483;1448290488.13;(0.7719287395477294, 0.7103685590955946);70.2875595093;1.0;0;0;0;0;0;0;0;0;0;();(-2000.0, -2000.0);
03:38:48:530;03:38:48:483;1448290488.13;(0.7719287395477294, 0.7103685590955946);70.2875595093;1.0;0;0;0;0;0;0;0;0;0;();(-2000.0, -2000.0);
03:38:48:547;03:38:48:483;1448290488.13;(0.7719287395477294, 0.7103685590955946);70.2875595093;1.0;0;0;0;0;0;0;0;0;0;();(-2000.0, -2000.0);
03:38:48:564;03:38:48:549;1448290488.2;(0.7719690799713135, 0.710345204671224);70.9213409424;1.0;0;0;0;0;0;0;0;0;0;();(-2000.0, -2000.0);
03:38:48:580;03:38:48:549;1448290488.2;(0.7719690799713135, 0.710345204671224);70.9213409424;1.0;0;0;0;0;0;0;0;0;0;();(-2000.0, -2000.0);
03:38:48:614;03:38:48:549;1448290488.2;(0.7719690799713135, 0.710345204671224);70.9213409424;1.0;0;0;0;0;0;0;0;0;0;();(-2000.0, -2000.0);
03:38:48:633;03:38:48:620;1448290488.26;(0.7648809432983399, 0.718244849310981);69.7066192627;0.866775355035;0;0;0;0;0;0;0;0;0;();(-2000.0, -2000.0);
03:38:48:649;03:38:48:620;1448290488.26;(0.7648809432983399, 0.718244849310981);69.7066192627;0.866775355035;0;0;0;0;0;0;0;0;0;();(-2000.0, -2000.0);
03:38:48:666;03:38:48:620;1448290488.26;(0.7648809432983399, 0.718244849310981);69.7066192627;0.866775355035;0;0;0;0;0;0;0;0;0;();(-2000.0, -2000.0);
03:38:48:680;03:38:48:620;1448290488.26;(0.7648809432983399, 0.718244849310981);69.7066192627;0.866775355035;0;0;0;0;0;0;0;0;0;();(-2000.0, -2000.0);
03:38:48:717;03:38:48:684;1448290488.33;(0.7335193634033204, 0.7456522623697917);70.1688613892;0.704234379446;0;0;0;0;0;0;0;0;0;();(-2000.0, -2000.0);
03:38:48:733;03:38:48:684;1448290488.33;(0.7335193634033204, 0.7456522623697917);70.1688613892;0.704234379446;0;0;0;0;0;0;0;0;0;();(-2000.0, -2000.0);
03:38:48:747;03:38:48:684;1448290488.33;(0.7335193634033204, 0.7456522623697917);70.1688613892;0.704234379446;0;0;0;0;0;0;0;0;0;();(-2000.0, -2000.0);
03:38:48:763;03:38:48:750;1448290488.4;(0.7363739013671875, 0.7431964450412326);72.7921142578;1.0;0;0;0;0;0;0;0;0;0;();(-2000.0, -2000.0);
03:38:48:781;03:38:48:750;1448290488.4;(0.7363739013671875, 0.7431964450412326);72.7921142578;1.0;0;0;0;0;0;0;0;0;0;();(-2000.0, -2000.0);
03:38:48:816;03:38:48:812;1448290488.46;(0.7360610008239746, 0.7436491224500867);74.4214019775;0.960974657595;0;0;0;0;0;0;0;0;0;();(-2000.0, -2000.0);
03:38:48:833;03:38:48:812;1448290488.46;(0.7360610008239746, 0.7436491224500867);74.4214019775;0.960974657595;0;0;0;0;0;0;0;0;0;();(-2000.0, -2000.0);
03:38:48:849;03:38:48:812;1448290488.46;(0.7360610008239746, 0.7436491224500867);74.4214019775;0.960974657595;0;0;0;0;0;0;0;0;0;();(-2000.0, -2000.0);
03:38:48:866;03:38:48:812;1448290488.46;(0.7360610008239746, 0.7436491224500867);74.4214019775;0.960974657595;0;0;0;0;0;0;0;0;0;();(-2000.0, -2000.0);
03:38:48:883;03:38:48:812;1448290488.46;(0.7360610008239746, 0.7436491224500867);74.4214019775;0.960974657595;0;0;0;0;0;0;0;0;0;();(-2000.0, -2000.0);
03:38:48:915;03:38:48:889;1448290488.53;(0.7358041763305664, 0.7446659088134766);74.3343429565;1.0;0;0;0;0;0;0;0;0;0;();(-2000.0, -2000.0);
03:38:48:931;03:38:48:889;1448290488.53;(0.7358041763305664, 0.7446659088134766);74.3343429565;1.0;0;0;0;0;0;0;0;0;0;();(-2000.0, -2000.0);
03:38:48:953;03:38:48:946;1448290488.6;(0.780888557434082, 0.7022659513685439);75.4261779785;0.867196925273;0;0;0;0;0;0;0;0;0;();(-2000.0, -2000.0);
03:38:48:966;03:38:48:946;1448290488.6;(0.780888557434082, 0.7022659513685439);75.4261779785;0.867196925273;0;0;0;0;0;0;0;0;0;();(-2000.0, -2000.0);
03:38:48:983;03:38:48:946;1448290488.6;(0.780888557434082, 0.7022659513685439);75.4261779785;0.867196925273;0;0;0;0;0;0;0;0;0;();(-2000.0, -2000.0);
03:38:49:014;03:38:48:946;1448290488.6;(0.780888557434082, 0.7022659513685439);75.4261779785;0.867196925273;0;0;0;0;0;0;0;0;0;();(-2000.0, -2000.0);
03:38:49:031;03:38:49:018;1448290488.66;(0.7843056201934815, 0.6968207889133029);75.181098938;1.0;0;0;0;0;0;0;0;0;0;();(-2000.0, -2000.0);
03:38:49:048;03:38:49:018;1448290488.66;(0.7843056201934815, 0.6968207889133029);75.181098938;1.0;0;0;0;0;0;0;0;0;0;();(-2000.0, -2000.0);
03:38:49:064;03:38:49:018;1448290488.66;(0.7843056201934815, 0.6968207889133029);75.181098938;1.0;0;0;0;0;0;0;0;0;0;();(-2000.0, -2000.0);
03:38:49:081;03:38:49:018;1448290488.66;(0.7843056201934815, 0.6968207889133029);75.181098938;1.0;0;0;0;0;0;0;0;0;0;();(-2000.0, -2000.0);
03:38:49:113;03:38:49:085;1448290488.73;(0.7838300704956055, 0.6988958994547526);75.0083847046;1.0;0;0;0;0;0;0;0;0;0;();(-2000.0, -2000.0);
03:38:49:130;03:38:49:085;1448290488.73;(0.7838300704956055, 0.6988958994547526);75.0083847046;1.0;0;0;0;0;0;0;0;0;0;();(-2000.0, -2000.0);
03:38:49:148;03:38:49:145;1448290488.8;(0.7829168796539306, 0.7014628304375543);74.4432067871;1.0;0;0;0;0;0;0;0;0;0;();(-2000.0, -2000.0);
03:38:49:165;03:38:49:145;1448290488.8;(0.7829168796539306, 0.7014628304375543);74.4432067871;1.0;0;0;0;0;0;0;0;0;0;();(-2000.0, -2000.0);
03:38:49:180;03:38:49:145;1448290488.8;(0.7829168796539306, 0.7014628304375543);74.4432067871;1.0;0;0;0;0;0;0;0;0;0;();(-2000.0, -2000.0);
03:38:49:215;03:38:49:212;1448290488.86;(0.786012601852417, 0.702156024509006);75.5722503662;0.794345374506;0;0;0;0;0;0;0;0;0;();(-2000.0, -2000.0);
03:38:49:231;03:38:49:212;1448290488.86;(0.786012601852417, 0.702156024509006);75.5722503662;0.794345374506;0;0;0;0;0;0;0;0;0;();(-2000.0, -2000.0);
03:38:49:246;03:38:49:212;1448290488.86;(0.786012601852417, 0.702156024509006);75.5722503662;0.794345374506;0;0;0;0;0;0;0;0;0;();(-2000.0, -2000.0);
03:38:49:265;03:38:49:212;1448290488.86;(0.786012601852417, 0.702156024509006);75.5722503662;0.794345374506;0;0;0;0;0;0;0;0;0;();(-2000.0, -2000.0);
03:38:49:281;03:38:49:277;1448290488.93;(0.7953822612762451, 0.6946853849622938);73.3562927246;0.894347763089;0;0;0;0;0;0;0;0;0;();(-2000.0, -2000.0);
03:38:49:314;03:38:49:277;1448290488.93;(0.7953822612762451, 0.6946853849622938);73.3562927246;0.894347763089;0;0;0;0;0;0;0;0;0;();(-2000.0, -2000.0);
03:38:49:330;03:38:49:277;1448290488.93;(0.7953822612762451, 0.6946853849622938);73.3562927246;0.894347763089;0;0;0;0;0;0;0;0;0;();(-2000.0, -2000.0);
03:38:49:347;03:38:49:344;1448290489.0;(0.7955628395080566, 0.6969385782877604);73.5722503662;1.0;0;0;0;0;0;0;0;0;0;();(-2000.0, -2000.0);
03:38:49:363;03:38:49:344;1448290489.0;(0.7955628395080566, 0.6969385782877604);73.5722503662;1.0;0;0;0;0;0;0;0;0;0;();(-2000.0, -2000.0);
03:38:49:380;03:38:49:344;1448290489.0;(0.7955628395080566, 0.6969385782877604);73.5722503662;1.0;0;0;0;0;0;0;0;0;0;();(-2000.0, -2000.0);
03:38:49:397;03:38:49:344;1448290489.0;(0.7955628395080566, 0.6969385782877604);73.5722503662;1.0;0;0;0;0;0;0;0;0;0;();(-2000.0, -2000.0);
03:38:49:430;03:38:49:414;1448290489.06;(0.7916590690612793, 0.6964324315388997);72.5895767212;1.0;0;0;0;0;0;0;0;0;0;();(-2000.0, -2000.0);
03:38:49:448;03:38:49:414;1448290489.06;(0.7916590690612793, 0.6964324315388997);72.5895767212;1.0;0;0;0;0;0;0;0;0;0;();(-2000.0, -2000.0);
03:38:49:465;03:38:49:414;1448290489.06;(0.7916590690612793, 0.6964324315388997);72.5895767212;1.0;0;0;0;0;0;0;0;0;0;();(-2000.0, -2000.0);
03:38:49:481;03:38:49:476;1448290489.13;(0.3516049385070801, 0.6493627972073025);20.410484314;0.786766058343;0;0;0;0;0;0;0;0;0;();(-2000.0, -2000.0);
03:38:49:516;03:38:49:476;1448290489.13;(0.3516049385070801, 0.6493627972073025);20.410484314;0.786766058343;0;0;0;0;0;0;0;0;0;();(-2000.0, -2000.0);
03:38:49:534;03:38:49:476;1448290489.13;(0.3516049385070801, 0.6493627972073025);20.410484314;0.786766058343;0;0;0;0;0;0;0;0;0;();(-2000.0, -2000.0);
03:38:49:547;03:38:49:543;1448290489.16;(0, 0);0;0;0;0;0;0;0;0;0;0;0;();(-2000.0, -2000.0);
03:38:49:565;03:38:49:543;1448290489.16;(0, 0);0;0;0;0;0;0;0;0;0;0;0;();(-2000.0, -2000.0);
03:38:49:581;03:38:49:543;1448290489.16;(0, 0);0;0;0;0;0;0;0;0;0;0;0;();(-2000.0, -2000.0);
03:38:49:598;03:38:49:543;1448290489.16;(0, 0);0;0;0;0;0;0;0;0;0;0;0;();(-2000.0, -2000.0);
03:38:49:632;03:38:49:609;1448290489.24;(0.6288381099700928, 0.787435319688585);73.8515625;0.881502248105;0;0;0;0;0;0;0;0;0;();(-2000.0, -2000.0);
03:38:49:648;03:38:49:609;1448290489.24;(0.6288381099700928, 0.787435319688585);73.8515625;0.881502248105;0;0;0;0;0;0;0;0;0;();(-2000.0, -2000.0);
03:38:49:665;03:38:49:609;1448290489.24;(0.6288381099700928, 0.787435319688585);73.8515625;0.881502248105;0;0;0;0;0;0;0;0;0;();(-2000.0, -2000.0);
03:38:49:681;03:38:49:677;1448290489.3;(0.6292293071746826, 0.7871838675604926);74.3187026978;0.866658497016;0;0;0;0;0;0;0;0;0;();(-2000.0, -2000.0);
03:38:49:698;03:38:49:679;1448290489.33;(0.6292281150817871, 0.78739382425944);74.5934143066;0.901933625112;0;0;0;0;0;0;0;0;0;();(-2000.0, -2000.0);
03:38:49:731;03:38:49:679;1448290489.33;(0.6292281150817871, 0.78739382425944);74.5934143066;0.901933625112;0;0;0;0;0;0;0;0;0;();(-2000.0, -2000.0);
03:38:49:748;03:38:49:744;1448290489.4;(0.6293633460998536, 0.7880835427178277);74.491569519;0.929583600069;0;0;0;0;0;0;0;0;0;();(-2000.0, -2000.0);
03:38:49:765;03:38:49:744;1448290489.4;(0.6293633460998536, 0.7880835427178277);74.491569519;0.929583600069;0;0;0;0;0;0;0;0;0;();(-2000.0, -2000.0);
03:38:49:781;03:38:49:744;1448290489.4;(0.6293633460998536, 0.7880835427178277);74.491569519;0.929583600069;0;0;0;0;0;0;0;0;0;();(-2000.0, -2000.0);
03:38:49:798;03:38:49:744;1448290489.4;(0.6293633460998536, 0.7880835427178277);74.491569519;0.929583600069;0;0;0;0;0;0;0;0;0;();(-2000.0, -2000.0);
03:38:49:831;03:38:49:808;1448290489.46;(0.34794809818267824, 0.8673012309604221);36.2725944519;0.655101493682;0;0;0;0;0;0;0;0;0;();(-2000.0, -2000.0);
03:38:49:848;03:38:49:808;1448290489.46;(0.34794809818267824, 0.8673012309604221);36.2725944519;0.655101493682;0;0;0;0;0;0;0;0;0;();(-2000.0, -2000.0);
03:38:49:865;03:38:49:808;1448290489.46;(0.34794809818267824, 0.8673012309604221);36.2725944519;0.655101493682;0;0;0;0;0;0;0;0;0;();(-2000.0, -2000.0);
03:38:49:881;03:38:49:874;1448290489.5;(0.6313474655151368, 0.7860230127970378);75.1288528442;0.866329804604;0;0;0;0;0;0;0;0;0;();(-2000.0, -2000.0);
03:38:49:900;03:38:49:885;1448290489.53;(0.6314323425292969, 0.786474863688151);75.9962997437;0.844001716857;0;0;0;0;0;0;0;0;0;();(-2000.0, -2000.0);
03:38:49:931;03:38:49:885;1448290489.53;(0.6314323425292969, 0.786474863688151);75.9962997437;0.844001716857;0;0;0;0;0;0;0;0;0;();(-2000.0, -2000.0);
03:38:49:948;03:38:49:939;1448290489.6;(0.586205244064331, 0.7807947158813476);75.2792739868;0.764089923153;0;0;0;0;0;0;0;0;0;();(-2000.0, -2000.0);
03:38:49:965;03:38:49:939;1448290489.6;(0.586205244064331, 0.7807947158813476);75.2792739868;0.764089923153;0;0;0;0;0;0;0;0;0;();(-2000.0, -2000.0);
03:38:49:981;03:38:49:939;1448290489.6;(0.586205244064331, 0.7807947158813476);75.2792739868;0.764089923153;0;0;0;0;0;0;0;0;0;();(-2000.0, -2000.0);
03:38:49:998;03:38:49:939;1448290489.6;(0.586205244064331, 0.7807947158813476);75.2792739868;0.764089923153;0;0;0;0;0;0;0;0;0;();(-2000.0, -2000.0);
03:38:50:031;03:38:50:012;1448290489.66;(0.5843268871307373, 0.7848780314127604);75.8003997803;0.856183343686;0;0;0;0;0;0;0;0;0;();(-2000.0, -2000.0);
03:38:50:048;03:38:50:012;1448290489.66;(0.5843268871307373, 0.7848780314127604);75.8003997803;0.856183343686;0;0;0;0;0;0;0;0;0;();(-2000.0, -2000.0);
03:38:50:065;03:38:50:012;1448290489.66;(0.5843268871307373, 0.7848780314127604);75.8003997803;0.856183343686;0;0;0;0;0;0;0;0;0;();(-2000.0, -2000.0);
03:38:50:082;03:38:50:073;1448290489.73;(0.5847415447235107, 0.7841935051812066);75.686882019;0.887982107307;0;0;0;0;0;0;0;0;0;();(-2000.0, -2000.0);
03:38:50:098;03:38:50:073;1448290489.73;(0.5847415447235107, 0.7841935051812066);75.686882019;0.887982107307;0;0;0;0;0;0;0;0;0;();(-2000.0, -2000.0);
03:38:50:132;03:38:50:073;1448290489.73;(0.5847415447235107, 0.7841935051812066);75.686882019;0.887982107307;0;0;0;0;0;0;0;0;0;();(-2000.0, -2000.0);
03:38:50:148;03:38:50:141;1448290489.8;(0.5857223510742188, 0.7848506927490234);75.8695678711;0.844482406715;0;0;0;0;0;0;0;0;0;();(-2000.0, -2000.0);
03:38:50:165;03:38:50:141;1448290489.8;(0.5857223510742188, 0.7848506927490234);75.8695678711;0.844482406715;0;0;0;0;0;0;0;0;0;();(-2000.0, -2000.0);
03:38:50:182;03:38:50:141;1448290489.8;(0.5857223510742188, 0.7848506927490234);75.8695678711;0.844482406715;0;0;0;0;0;0;0;0;0;();(-2000.0, -2000.0);
03:38:50:198;03:38:50:141;1448290489.8;(0.5857223510742188, 0.7848506927490234);75.8695678711;0.844482406715;0;0;0;0;0;0;0;0;0;();(-2000.0, -2000.0);
03:38:50:232;03:38:50:210;1448290489.86;(0.5866621971130371, 0.7844128926595052);75.2884597778;0.818194467594;0;0;0;0;0;0;0;0;0;();(-2000.0, -2000.0);
03:38:50:249;03:38:50:210;1448290489.86;(0.5866621971130371, 0.7844128926595052);75.2884597778;0.818194467594;0;0;0;0;0;0;0;0;0;();(-2000.0, -2000.0);
03:38:50:266;03:38:50:210;1448290489.86;(0.5866621971130371, 0.7844128926595052);75.2884597778;0.818194467594;0;0;0;0;0;0;0;0;0;();(-2000.0, -2000.0);
03:38:50:282;03:38:50:273;1448290489.9;(0.5831854343414307, 0.7889356401231553);73.9121932983;0.797764496371;0;0;0;0;0;0;0;0;0;();(-2000.0, -2000.0);
03:38:50:299;03:38:50:273;1448290489.9;(0.5831854343414307, 0.7889356401231553);73.9121932983;0.797764496371;0;0;0;0;0;0;0;0;0;();(-2000.0, -2000.0);
03:38:50:332;03:38:50:273;1448290489.9;(0.5831854343414307, 0.7889356401231553);73.9121932983;0.797764496371;0;0;0;0;0;0;0;0;0;();(-2000.0, -2000.0);
03:38:50:349;03:38:50:344;1448290490.0;(0.5242229461669922, 0.8065619680616591);70.2131347656;0.877058414833;0;0;0;0;0;0;0;0;0;();(-2000.0, -2000.0);
03:38:50:365;03:38:50:344;1448290490.0;(0.5242229461669922, 0.8065619680616591);70.2131347656;0.877058414833;0;0;0;0;0;0;0;0;0;();(-2000.0, -2000.0);
03:38:50:382;03:38:50:344;1448290490.0;(0.5242229461669922, 0.8065619680616591);70.2131347656;0.877058414833;0;0;0;0;0;0;0;0;0;();(-2000.0, -2000.0);
03:38:50:399;03:38:50:344;1448290490.0;(0.5242229461669922, 0.8065619680616591);70.2131347656;0.877058414833;0;0;0;0;0;0;0;0;0;();(-2000.0, -2000.0);
03:38:50:432;03:38:50:407;1448290490.06;(0.2883411169052124, 0.8404704411824544);20.0521297455;0.626120512527;0;0;0;0;0;0;0;0;0;();(-2000.0, -2000.0);
03:38:50:449;03:38:50:407;1448290490.06;(0.2883411169052124, 0.8404704411824544);20.0521297455;0.626120512527;0;0;0;0;0;0;0;0;0;();(-2000.0, -2000.0);
03:38:50:465;03:38:50:407;1448290490.06;(0.2883411169052124, 0.8404704411824544);20.0521297455;0.626120512527;0;0;0;0;0;0;0;0;0;();(-2000.0, -2000.0);
03:38:50:482;03:38:50:473;1448290490.13;(0.5410276412963867, 0.8053436279296875);69.909614563;0.857049192005;0;0;0;0;0;0;0;0;0;();(-2000.0, -2000.0);
03:38:50:499;03:38:50:473;1448290490.13;(0.5410276412963867, 0.8053436279296875);69.909614563;0.857049192005;0;0;0;0;0;0;0;0;0;();(-2000.0, -2000.0);
03:38:50:532;03:38:50:473;1448290490.13;(0.5410276412963867, 0.8053436279296875);69.909614563;0.857049192005;0;0;0;0;0;0;0;0;0;();(-2000.0, -2000.0);
03:38:50:548;03:38:50:539;1448290490.2;(0.4946927070617676, 0.803795337677002);70.1760253906;0.843202325349;0;0;0;0;0;0;0;0;0;();(-2000.0, -2000.0);
03:38:50:565;03:38:50:539;1448290490.2;(0.4946927070617676, 0.803795337677002);70.1760253906;0.843202325349;0;0;0;0;0;0;0;0;0;();(-2000.0, -2000.0);
03:38:50:583;03:38:50:539;1448290490.2;(0.4946927070617676, 0.803795337677002);70.1760253906;0.843202325349;0;0;0;0;0;0;0;0;0;();(-2000.0, -2000.0);
03:38:50:599;03:38:50:539;1448290490.2;(0.4946927070617676, 0.803795337677002);70.1760253906;0.843202325349;0;0;0;0;0;0;0;0;0;();(-2000.0, -2000.0);
03:38:50:632;03:38:50:604;1448290490.26;(0.49885053634643556, 0.8078322410583496);70.2920913696;0.700832023642;0;0;0;0;0;0;0;0;0;();(-2000.0, -2000.0);
03:38:50:648;03:38:50:604;1448290490.26;(0.49885053634643556, 0.8078322410583496);70.2920913696;0.700832023642;0;0;0;0;0;0;0;0;0;();(-2000.0, -2000.0);
03:38:50:666;03:38:50:604;1448290490.26;(0.49885053634643556, 0.8078322410583496);70.2920913696;0.700832023642;0;0;0;0;0;0;0;0;0;();(-2000.0, -2000.0);
03:38:50:681;03:38:50:673;1448290490.33;(0.5108154773712158, 0.8082368002997504);70.8730316162;0.838372008183;0;0;0;0;0;0;0;0;0;();(-2000.0, -2000.0);
03:38:50:698;03:38:50:673;1448290490.33;(0.5108154773712158, 0.8082368002997504);70.8730316162;0.838372008183;0;0;0;0;0;0;0;0;0;();(-2000.0, -2000.0);
03:38:50:733;03:38:50:673;1448290490.33;(0.5108154773712158, 0.8082368002997504);70.8730316162;0.838372008183;0;0;0;0;0;0;0;0;0;();(-2000.0, -2000.0);
03:38:50:749;03:38:50:735;1448290490.36;(0.5240087985992432, 0.807872454325358);68.3295669556;0.86726610346;0;0;0;0;0;0;0;0;0;();(-2000.0, -2000.0);
03:38:50:766;03:38:50:735;1448290490.36;(0.5240087985992432, 0.807872454325358);68.3295669556;0.86726610346;0;0;0;0;0;0;0;0;0;();(-2000.0, -2000.0);
03:38:50:782;03:38:50:735;1448290490.36;(0.5240087985992432, 0.807872454325358);68.3295669556;0.86726610346;0;0;0;0;0;0;0;0;0;();(-2000.0, -2000.0);
03:38:50:799;03:38:50:735;1448290490.36;(0.5240087985992432, 0.807872454325358);68.3295669556;0.86726610346;0;0;0;0;0;0;0;0;0;();(-2000.0, -2000.0);
03:38:50:833;03:38:50:805;1448290490.46;(0, 0);0;0;0;0;0;0;0;0;0;0;0;();(-2000.0, -2000.0);
03:38:50:849;03:38:50:805;1448290490.46;(0, 0);0;0;0;0;0;0;0;0;0;0;0;();(-2000.0, -2000.0);
03:38:50:866;03:38:50:805;1448290490.46;(0, 0);0;0;0;0;0;0;0;0;0;0;0;();(-2000.0, -2000.0);
03:38:50:883;03:38:50:805;1448290490.46;(0, 0);0;0;0;0;0;0;0;0;0;0;0;();(-2000.0, -2000.0);
03:38:50:899;03:38:50:805;1448290490.46;(0, 0);0;0;0;0;0;0;0;0;0;0;0;();(-2000.0, -2000.0);
03:38:50:932;03:38:50:805;1448290490.46;(0, 0);0;0;0;0;0;0;0;0;0;0;0;();(-2000.0, -2000.0);
03:38:50:949;03:38:50:946;1448290490.58;(0.5399220943450928, 0.8084062894185384);70.5365371704;0.84675187618;0;0;0;0;0;0;0;0;0;();(-2000.0, -2000.0);
03:38:50:966;03:38:50:946;1448290490.58;(0.5399220943450928, 0.8084062894185384);70.5365371704;0.84675187618;0;0;0;0;0;0;0;0;0;();(-2000.0, -2000.0);
03:38:50:981;03:38:50:946;1448290490.58;(0.5399220943450928, 0.8084062894185384);70.5365371704;0.84675187618;0;0;0;0;0;0;0;0;0;();(-2000.0, -2000.0);
03:38:50:999;03:38:50:946;1448290490.58;(0.5399220943450928, 0.8084062894185384);70.5365371704;0.84675187618;0;0;0;0;0;0;0;0;0;();(-2000.0, -2000.0);
03:38:51:032;03:38:51:009;1448290490.63;(0.5484745502471924, 0.8077879905700683);70.1828689575;0.8686321562;0;0;0;0;0;0;0;0;0;();(-2000.0, -2000.0);
03:38:51:049;03:38:51:009;1448290490.63;(0.5484745502471924, 0.8077879905700683);70.1828689575;0.8686321562;0;0;0;0;0;0;0;0;0;();(-2000.0, -2000.0);
03:38:51:066;03:38:51:009;1448290490.63;(0.5484745502471924, 0.8077879905700683);70.1828689575;0.8686321562;0;0;0;0;0;0;0;0;0;();(-2000.0, -2000.0);
03:38:51:083;03:38:51:070;1448290490.73;(0.558540678024292, 0.7985090149773492);68.8240127563;0.662812307162;0;0;0;0;0;0;0;0;0;();(-2000.0, -2000.0);
03:38:51:100;03:38:51:070;1448290490.73;(0.558540678024292, 0.7985090149773492);68.8240127563;0.662812307162;0;0;0;0;0;0;0;0;0;();(-2000.0, -2000.0);
03:38:51:132;03:38:51:070;1448290490.73;(0.558540678024292, 0.7985090149773492);68.8240127563;0.662812307162;0;0;0;0;0;0;0;0;0;();(-2000.0, -2000.0);
03:38:51:150;03:38:51:136;1448290490.8;(0.5599206924438477, 0.7998552640279134);71.0514984131;0.838517935531;0;0;0;0;0;0;0;0;0;();(-2000.0, -2000.0);
03:38:51:166;03:38:51:136;1448290490.8;(0.5599206924438477, 0.7998552640279134);71.0514984131;0.838517935531;0;0;0;0;0;0;0;0;0;();(-2000.0, -2000.0);
03:38:51:183;03:38:51:136;1448290490.8;(0.5599206924438477, 0.7998552640279134);71.0514984131;0.838517935531;0;0;0;0;0;0;0;0;0;();(-2000.0, -2000.0);
03:38:51:199;03:38:51:136;1448290490.8;(0.5599206924438477, 0.7998552640279134);71.0514984131;0.838517935531;0;0;0;0;0;0;0;0;0;();(-2000.0, -2000.0);
03:38:51:232;03:38:51:205;1448290490.86;(0.561612892150879, 0.8004439989725749);71.2473754883;1.0;0;0;0;0;0;0;0;0;0;();(-2000.0, -2000.0);
03:38:51:250;03:38:51:205;1448290490.86;(0.561612892150879, 0.8004439989725749);71.2473754883;1.0;0;0;0;0;0;0;0;0;0;();(-2000.0, -2000.0);
03:38:51:266;03:38:51:205;1448290490.86;(0.561612892150879, 0.8004439989725749);71.2473754883;1.0;0;0;0;0;0;0;0;0;0;();(-2000.0, -2000.0);
03:38:51:283;03:38:51:270;1448290490.93;(0.5616339683532715, 0.799925094180637);70.1168212891;0.923549250074;0;0;0;0;0;0;0;0;0;();(-2000.0, -2000.0);
03:38:51:299;03:38:51:270;1448290490.93;(0.5616339683532715, 0.799925094180637);70.1168212891;0.923549250074;0;0;0;0;0;0;0;0;0;();(-2000.0, -2000.0);
03:38:51:333;03:38:51:270;1448290490.93;(0.5616339683532715, 0.799925094180637);70.1168212891;0.923549250074;0;0;0;0;0;0;0;0;0;();(-2000.0, -2000.0);
03:38:51:349;03:38:51:335;1448290490.96;(0.5481775283813477, 0.788366953531901);70.7722167969;0.740776691064;0;0;0;0;0;0;0;0;0;();(-2000.0, -2000.0);
03:38:51:366;03:38:51:335;1448290490.96;(0.5481775283813477, 0.788366953531901);70.7722167969;0.740776691064;0;0;0;0;0;0;0;0;0;();(-2000.0, -2000.0);
03:38:51:383;03:38:51:335;1448290490.96;(0.5481775283813477, 0.788366953531901);70.7722167969;0.740776691064;0;0;0;0;0;0;0;0;0;();(-2000.0, -2000.0);
03:38:51:399;03:38:51:335;1448290490.96;(0.5481775283813477, 0.788366953531901);70.7722167969;0.740776691064;0;0;0;0;0;0;0;0;0;();(-2000.0, -2000.0);
03:38:51:433;03:38:51:335;1448290490.96;(0.5481775283813477, 0.788366953531901);70.7722167969;0.740776691064;0;0;0;0;0;0;0;0;0;();(-2000.0, -2000.0);
03:38:51:450;03:38:51:335;1448290490.96;(0.5481775283813477, 0.788366953531901);70.7722167969;0.740776691064;0;0;0;0;0;0;0;0;0;();(-2000.0, -2000.0);
03:38:51:467;03:38:51:335;1448290490.96;(0.5481775283813477, 0.788366953531901);70.7722167969;0.740776691064;0;0;0;0;0;0;0;0;0;();(-2000.0, -2000.0);
03:38:51:484;03:38:51:480;1448290491.13;(0.5504284381866456, 0.7892993503146701);70.995475769;0.897550135603;0;0;0;0;0;0;0;0;0;();(-2000.0, -2000.0);
03:38:51:500;03:38:51:480;1448290491.13;(0.5504284381866456, 0.7892993503146701);70.995475769;0.897550135603;0;0;0;0;0;0;0;0;0;();(-2000.0, -2000.0);
03:38:51:532;03:38:51:480;1448290491.13;(0.5504284381866456, 0.7892993503146701);70.995475769;0.897550135603;0;0;0;0;0;0;0;0;0;();(-2000.0, -2000.0);
03:38:51:549;03:38:51:538;1448290491.2;(0.5503195285797119, 0.7888527552286784);70.9139633179;0.940573976259;0;0;0;0;0;0;0;0;0;();(-2000.0, -2000.0);
03:38:51:567;03:38:51:538;1448290491.2;(0.5503195285797119, 0.7888527552286784);70.9139633179;0.940573976259;0;0;0;0;0;0;0;0;0;();(-2000.0, -2000.0);
03:38:51:583;03:38:51:538;1448290491.2;(0.5503195285797119, 0.7888527552286784);70.9139633179;0.940573976259;0;0;0;0;0;0;0;0;0;();(-2000.0, -2000.0);
03:38:51:600;03:38:51:538;1448290491.2;(0.5503195285797119, 0.7888527552286784);70.9139633179;0.940573976259;0;0;0;0;0;0;0;0;0;();(-2000.0, -2000.0);
03:38:51:633;03:38:51:599;1448290491.23;(0.5726752281188965, 0.7871452967325846);77.895401001;0.677168752687;0;0;0;0;0;0;0;0;0;();(-2000.0, -2000.0);
03:38:51:649;03:38:51:599;1448290491.23;(0.5726752281188965, 0.7871452967325846);77.895401001;0.677168752687;0;0;0;0;0;0;0;0;0;();(-2000.0, -2000.0);
03:38:51:666;03:38:51:599;1448290491.23;(0.5726752281188965, 0.7871452967325846);77.895401001;0.677168752687;0;0;0;0;0;0;0;0;0;();(-2000.0, -2000.0);
03:38:51:683;03:38:51:673;1448290491.33;(0, 0);0;0;0;0;0;0;0;0;0;0;0;();(-2000.0, -2000.0);
03:38:51:699;03:38:51:673;1448290491.33;(0, 0);0;0;0;0;0;0;0;0;0;0;0;();(-2000.0, -2000.0);
03:38:51:733;03:38:51:673;1448290491.33;(0, 0);0;0;0;0;0;0;0;0;0;0;0;();(-2000.0, -2000.0);
03:38:51:752;03:38:51:673;1448290491.33;(0, 0);0;0;0;0;0;0;0;0;0;0;0;();(-2000.0, -2000.0);
03:38:51:769;03:38:51:673;1448290491.33;(0, 0);0;0;0;0;0;0;0;0;0;0;0;();(-2000.0, -2000.0);
03:38:51:785;03:38:51:673;1448290491.33;(0, 0);0;0;0;0;0;0;0;0;0;0;0;();(-2000.0, -2000.0);
03:38:51:802;03:38:51:781;1448290491.36;(0.5905590534210206, 0.7795636494954428);70.6802749634;0.844582953826;0;0;0;0;0;0;0;0;0;();(-2000.0, -2000.0);
03:38:51:833;03:38:51:823;1448290491.46;(0.5891298294067383, 0.7781364017062717);70.6352386475;1.0;0;0;0;0;0;0;0;0;0;();(-2000.0, -2000.0);
03:38:51:850;03:38:51:823;1448290491.46;(0.5891298294067383, 0.7781364017062717);70.6352386475;1.0;0;0;0;0;0;0;0;0;0;();(-2000.0, -2000.0);
03:38:51:867;03:38:51:823;1448290491.46;(0.5891298294067383, 0.7781364017062717);70.6352386475;1.0;0;0;0;0;0;0;0;0;0;();(-2000.0, -2000.0);
03:38:51:883;03:38:51:870;1448290491.53;(0, 0);0;0;0;0;0;0;0;0;0;0;0;();(-2000.0, -2000.0);
03:38:51:900;03:38:51:870;1448290491.53;(0, 0);0;0;0;0;0;0;0;0;0;0;0;();(-2000.0, -2000.0);
03:38:51:934;03:38:51:930;1448290491.56;(0.6653215885162354, 0.7628275765313043);69.4903411865;0.755470431112;0;0;0;0;0;0;0;0;0;();(-2000.0, -2000.0);
03:38:51:950;03:38:51:930;1448290491.56;(0.6653215885162354, 0.7628275765313043);69.4903411865;0.755470431112;0;0;0;0;0;0;0;0;0;();(-2000.0, -2000.0);
03:38:51:967;03:38:51:930;1448290491.56;(0.6653215885162354, 0.7628275765313043);69.4903411865;0.755470431112;0;0;0;0;0;0;0;0;0;();(-2000.0, -2000.0);
03:38:51:982;03:38:51:930;1448290491.56;(0.6653215885162354, 0.7628275765313043);69.4903411865;0.755470431112;0;0;0;0;0;0;0;0;0;();(-2000.0, -2000.0);
03:38:52:000;03:38:51:930;1448290491.56;(0.6653215885162354, 0.7628275765313043);69.4903411865;0.755470431112;0;0;0;0;0;0;0;0;0;();(-2000.0, -2000.0);
03:38:52:033;03:38:51:930;1448290491.56;(0.6653215885162354, 0.7628275765313043);69.4903411865;0.755470431112;0;0;0;0;0;0;0;0;0;();(-2000.0, -2000.0);
03:38:52:050;03:38:51:930;1448290491.56;(0.6653215885162354, 0.7628275765313043);69.4903411865;0.755470431112;0;0;0;0;0;0;0;0;0;();(-2000.0, -2000.0);
03:38:52:068;03:38:52:065;1448290491.63;(0.6654359340667725, 0.767502933078342);70.6220779419;0.7978877213;0;0;0;0;0;0;0;0;0;();(-2000.0, -2000.0);
03:38:52:083;03:38:52:074;1448290491.73;(0.6629301071166992, 0.7680290434095595);72.8550567627;0.885538990291;0;0;0;0;0;0;0;0;0;();(-2000.0, -2000.0);
03:38:52:100;03:38:52:074;1448290491.73;(0.6629301071166992, 0.7680290434095595);72.8550567627;0.885538990291;0;0;0;0;0;0;0;0;0;();(-2000.0, -2000.0);
03:38:52:135;03:38:52:074;1448290491.73;(0.6629301071166992, 0.7680290434095595);72.8550567627;0.885538990291;0;0;0;0;0;0;0;0;0;();(-2000.0, -2000.0);
03:38:52:152;03:38:52:143;1448290491.8;(0.6618775367736817, 0.7671057595147027);73.3640518188;0.803600017815;0;0;0;0;0;0;0;0;0;();(-2000.0, -2000.0);
03:38:52:170;03:38:52:143;1448290491.8;(0.6618775367736817, 0.7671057595147027);73.3640518188;0.803600017815;0;0;0;0;0;0;0;0;0;();(-2000.0, -2000.0);
03:38:52:186;03:38:52:143;1448290491.8;(0.6618775367736817, 0.7671057595147027);73.3640518188;0.803600017815;0;0;0;0;0;0;0;0;0;();(-2000.0, -2000.0);
03:38:52:203;03:38:52:143;1448290491.8;(0.6618775367736817, 0.7671057595147027);73.3640518188;0.803600017815;0;0;0;0;0;0;0;0;0;();(-2000.0, -2000.0);
03:38:52:236;03:38:52:211;1448290491.86;(0, 0);0;0;0;0;0;0;0;0;0;0;0;();(-2000.0, -2000.0);
03:38:52:253;03:38:52:211;1448290491.86;(0, 0);0;0;0;0;0;0;0;0;0;0;0;();(-2000.0, -2000.0);
03:38:52:269;03:38:52:211;1448290491.86;(0, 0);0;0;0;0;0;0;0;0;0;0;0;();(-2000.0, -2000.0);
03:38:52:286;03:38:52:211;1448290491.86;(0, 0);0;0;0;0;0;0;0;0;0;0;0;();(-2000.0, -2000.0);
03:38:52:303;03:38:52:211;1448290491.86;(0, 0);0;0;0;0;0;0;0;0;0;0;0;();(-2000.0, -2000.0);
03:38:52:334;03:38:52:211;1448290491.86;(0, 0);0;0;0;0;0;0;0;0;0;0;0;();(-2000.0, -2000.0);
03:38:52:350;03:38:52:211;1448290491.86;(0, 0);0;0;0;0;0;0;0;0;0;0;0;();(-2000.0, -2000.0);
03:38:52:367;03:38:52:357;1448290492.0;(0.7046555519104004, 0.7283060073852539);74.923500061;0.803898549238;0;0;0;0;0;0;0;0;0;();(-2000.0, -2000.0);
03:38:52:383;03:38:52:357;1448290492.0;(0.7046555519104004, 0.7283060073852539);74.923500061;0.803898549238;0;0;0;0;0;0;0;0;0;();(-2000.0, -2000.0);
03:38:52:400;03:38:52:397;1448290492.06;(0.7029440402984619, 0.730743514166938);74.4158477783;0.809599115358;0;0;0;0;0;0;0;0;0;();(-2000.0, -2000.0);
03:38:52:433;03:38:52:397;1448290492.06;(0.7029440402984619, 0.730743514166938);74.4158477783;0.809599115358;0;0;0;0;0;0;0;0;0;();(-2000.0, -2000.0);
03:38:52:450;03:38:52:397;1448290492.06;(0.7029440402984619, 0.730743514166938);74.4158477783;0.809599115358;0;0;0;0;0;0;0;0;0;();(-2000.0, -2000.0);
03:38:52:468;03:38:52:465;1448290492.13;(0.6981929779052735, 0.7303961859809027);76.1171264648;0.918873756597;0;0;0;0;0;0;0;0;0;();(-2000.0, -2000.0);
03:38:52:484;03:38:52:465;1448290492.13;(0.6981929779052735, 0.7303961859809027);76.1171264648;0.918873756597;0;0;0;0;0;0;0;0;0;();(-2000.0, -2000.0);
03:38:52:500;03:38:52:465;1448290492.13;(0.6981929779052735, 0.7303961859809027);76.1171264648;0.918873756597;0;0;0;0;0;0;0;0;0;();(-2000.0, -2000.0);
03:38:52:535;03:38:52:531;1448290492.16;(0.6951598644256591, 0.7329137802124024);74.7995452881;0.933402432836;0;0;0;0;0;0;0;0;0;();(-2000.0, -2000.0);
03:38:52:550;03:38:52:531;1448290492.16;(0.6951598644256591, 0.7329137802124024);74.7995452881;0.933402432836;0;0;0;0;0;0;0;0;0;();(-2000.0, -2000.0);
03:38:52:566;03:38:52:531;1448290492.16;(0.6951598644256591, 0.7329137802124024);74.7995452881;0.933402432836;0;0;0;0;0;0;0;0;0;();(-2000.0, -2000.0);
03:38:52:584;03:38:52:531;1448290492.16;(0.6951598644256591, 0.7329137802124024);74.7995452881;0.933402432836;0;0;0;0;0;0;0;0;0;();(-2000.0, -2000.0);
03:38:52:601;03:38:52:531;1448290492.16;(0.6951598644256591, 0.7329137802124024);74.7995452881;0.933402432836;0;0;0;0;0;0;0;0;0;();(-2000.0, -2000.0);
03:38:52:633;03:38:52:531;1448290492.16;(0.6951598644256591, 0.7329137802124024);74.7995452881;0.933402432836;0;0;0;0;0;0;0;0;0;();(-2000.0, -2000.0);
03:38:52:650;03:38:52:641;1448290492.26;(0.7266350746154785, 0.7339164098103841);76.0363082886;0.847743573921;0;0;0;0;0;0;0;0;0;();(-2000.0, -2000.0);
03:38:52:667;03:38:52:663;1448290492.29;(0.726678991317749, 0.7409762700398763);74.2509231567;0.708778353557;0;0;0;0;0;0;0;0;0;();(-2000.0, -2000.0);
03:38:52:683;03:38:52:663;1448290492.29;(0.726678991317749, 0.7409762700398763);74.2509231567;0.708778353557;0;0;0;0;0;0;0;0;0;();(-2000.0, -2000.0);
03:38:52:701;03:38:52:663;1448290492.29;(0.726678991317749, 0.7409762700398763);74.2509231567;0.708778353557;0;0;0;0;0;0;0;0;0;();(-2000.0, -2000.0);
03:38:52:733;03:38:52:729;1448290492.36;(0.7196389198303222, 0.7401639090643989);74.1034164429;0.9501798098;0;0;0;0;0;0;0;0;0;();(-2000.0, -2000.0);
03:38:52:750;03:38:52:729;1448290492.36;(0.7196389198303222, 0.7401639090643989);74.1034164429;0.9501798098;0;0;0;0;0;0;0;0;0;();(-2000.0, -2000.0);
03:38:52:767;03:38:52:729;1448290492.36;(0.7196389198303222, 0.7401639090643989);74.1034164429;0.9501798098;0;0;0;0;0;0;0;0;0;();(-2000.0, -2000.0);
03:38:52:784;03:38:52:729;1448290492.36;(0.7196389198303222, 0.7401639090643989);74.1034164429;0.9501798098;0;0;0;0;0;0;0;0;0;();(-2000.0, -2000.0);
03:38:52:800;03:38:52:797;1448290492.39;(0.719089412689209, 0.7422593010796441);75.8264770508;0.814439836971;0;0;0;0;0;0;0;0;0;();(-2000.0, -2000.0);
03:38:52:833;03:38:52:803;1448290492.46;(0.7148634433746338, 0.745431243048774);75.0167388916;0.759910365462;0;0;0;0;0;0;0;0;0;();(-2000.0, -2000.0);
03:38:52:850;03:38:52:803;1448290492.46;(0.7148634433746338, 0.745431243048774);75.0167388916;0.759910365462;0;0;0;0;0;0;0;0;0;();(-2000.0, -2000.0);
03:38:52:867;03:38:52:803;1448290492.46;(0.7148634433746338, 0.745431243048774);75.0167388916;0.759910365462;0;0;0;0;0;0;0;0;0;();(-2000.0, -2000.0);
03:38:52:884;03:38:52:803;1448290492.46;(0.7148634433746338, 0.745431243048774);75.0167388916;0.759910365462;0;0;0;0;0;0;0;0;0;();(-2000.0, -2000.0);
03:38:52:900;03:38:52:803;1448290492.46;(0.7148634433746338, 0.745431243048774);75.0167388916;0.759910365462;0;0;0;0;0;0;0;0;0;();(-2000.0, -2000.0);
03:38:52:936;03:38:52:803;1448290492.46;(0.7148634433746338, 0.745431243048774);75.0167388916;0.759910365462;0;0;0;0;0;0;0;0;0;();(-2000.0, -2000.0);
03:38:52:955;03:38:52:949;1448290492.53;(0.7095301628112793, 0.7441466649373372);73.7390975952;0.934376689021;0;0;0;0;0;0;0;0;0;();(-2000.0, -2000.0);
03:38:52:971;03:38:52:964;1448290492.59;(0.7060712337493896, 0.7488910886976454);74.053024292;0.979025584896;0;0;0;0;0;0;0;0;0;();(-2000.0, -2000.0);
03:38:52:986;03:38:52:964;1448290492.59;(0.7060712337493896, 0.7488910886976454);74.053024292;0.979025584896;0;0;0;0;0;0;0;0;0;();(-2000.0, -2000.0);
03:38:53:002;03:38:52:995;1448290492.63;(0.7045156002044678, 0.751993899875217);74.567741394;0.906372554831;0;0;0;0;0;0;0;0;0;();(-2000.0, -2000.0);
03:38:53:020;03:38:52:995;1448290492.63;(0.7045156002044678, 0.751993899875217);74.567741394;0.906372554831;0;0;0;0;0;0;0;0;0;();(-2000.0, -2000.0);
03:38:53:053;03:38:52:995;1448290492.63;(0.7045156002044678, 0.751993899875217);74.567741394;0.906372554831;0;0;0;0;0;0;0;0;0;();(-2000.0, -2000.0);
03:38:53:071;03:38:53:065;1448290492.73;(0, 0);0;0;0;0;0;0;0;0;0;0;0;();(-2000.0, -2000.0);
03:38:53:087;03:38:53:065;1448290492.73;(0, 0);0;0;0;0;0;0;0;0;0;0;0;();(-2000.0, -2000.0);
03:38:53:103;03:38:53:065;1448290492.73;(0, 0);0;0;0;0;0;0;0;0;0;0;0;();(-2000.0, -2000.0);
03:38:53:120;03:38:53:065;1448290492.73;(0, 0);0;0;0;0;0;0;0;0;0;0;0;();(-2000.0, -2000.0);
03:38:53:153;03:38:53:134;1448290492.79;(0.7511212348937988, 0.533942625257704);19.6269130707;0.620998058155;0;0;0;0;0;0;0;0;0;();(-2000.0, -2000.0);
03:38:53:170;03:38:53:134;1448290492.79;(0.7511212348937988, 0.533942625257704);19.6269130707;0.620998058155;0;0;0;0;0;0;0;0;0;();(-2000.0, -2000.0);
03:38:53:184;03:38:53:134;1448290492.79;(0.7511212348937988, 0.533942625257704);19.6269130707;0.620998058155;0;0;0;0;0;0;0;0;0;();(-2000.0, -2000.0);
03:38:53:201;03:38:53:134;1448290492.79;(0.7511212348937988, 0.533942625257704);19.6269130707;0.620998058155;0;0;0;0;0;0;0;0;0;();(-2000.0, -2000.0);
03:38:53:234;03:38:53:134;1448290492.79;(0.7511212348937988, 0.533942625257704);19.6269130707;0.620998058155;0;0;0;0;0;0;0;0;0;();(-2000.0, -2000.0);
03:38:53:251;03:38:53:237;1448290492.83;(0.3404435157775879, 0.66676820119222);20.9370441437;0.732796797445;0;0;0;0;0;0;0;0;0;();(-2000.0, -2000.0);
03:38:53:268;03:38:53:259;1448290492.87;(0.6912575721740722, 0.7596477932400174);75.4929351807;0.809785344292;0;0;0;0;0;0;0;0;0;();(-2000.0, -2000.0);
03:38:53:284;03:38:53:259;1448290492.87;(0.6912575721740722, 0.7596477932400174);75.4929351807;0.809785344292;0;0;0;0;0;0;0;0;0;();(-2000.0, -2000.0);
03:38:53:304;03:38:53:259;1448290492.87;(0.6912575721740722, 0.7596477932400174);75.4929351807;0.809785344292;0;0;0;0;0;0;0;0;0;();(-2000.0, -2000.0);
03:38:53:336;03:38:53:332;1448290492.99;(0.6906724452972413, 0.7606719334920248);77.2894668579;0.819738531704;0;0;0;0;0;0;0;0;0;();(-2000.0, -2000.0);
03:38:53:351;03:38:53:332;1448290492.99;(0.6906724452972413, 0.7606719334920248);77.2894668579;0.819738531704;0;0;0;0;0;0;0;0;0;();(-2000.0, -2000.0);
03:38:53:367;03:38:53:332;1448290492.99;(0.6906724452972413, 0.7606719334920248);77.2894668579;0.819738531704;0;0;0;0;0;0;0;0;0;();(-2000.0, -2000.0);
03:38:53:384;03:38:53:332;1448290492.99;(0.6906724452972413, 0.7606719334920248);77.2894668579;0.819738531704;0;0;0;0;0;0;0;0;0;();(-2000.0, -2000.0);
03:38:53:402;03:38:53:391;1448290493.03;(0, 0);0;0;0;0;0;0;0;0;0;0;0;();(-2000.0, -2000.0);
03:38:53:434;03:38:53:391;1448290493.03;(0, 0);0;0;0;0;0;0;0;0;0;0;0;();(-2000.0, -2000.0);
03:38:53:450;03:38:53:391;1448290493.03;(0, 0);0;0;0;0;0;0;0;0;0;0;0;();(-2000.0, -2000.0);
03:38:53:467;03:38:53:391;1448290493.03;(0, 0);0;0;0;0;0;0;0;0;0;0;0;();(-2000.0, -2000.0);
03:38:53:485;03:38:53:391;1448290493.03;(0, 0);0;0;0;0;0;0;0;0;0;0;0;();(-2000.0, -2000.0);
03:38:53:500;03:38:53:391;1448290493.03;(0, 0);0;0;0;0;0;0;0;0;0;0;0;();(-2000.0, -2000.0);
03:38:53:534;03:38:53:527;1448290493.19;(0.7511353015899658, 0.7143067253960503);79.6404266357;0.846709009663;0;0;0;0;0;0;0;0;0;();(-2000.0, -2000.0);
03:38:53:551;03:38:53:527;1448290493.19;(0.7511353015899658, 0.7143067253960503);79.6404266357;0.846709009663;0;0;0;0;0;0;0;0;0;();(-2000.0, -2000.0);
03:38:53:568;03:38:53:527;1448290493.19;(0.7511353015899658, 0.7143067253960503);79.6404266357;0.846709009663;0;0;0;0;0;0;0;0;0;();(-2000.0, -2000.0);
03:38:53:584;03:38:53:527;1448290493.19;(0.7511353015899658, 0.7143067253960503);79.6404266357;0.846709009663;0;0;0;0;0;0;0;0;0;();(-2000.0, -2000.0);
03:38:53:600;03:38:53:590;1448290493.23;(0.747601318359375, 0.7158839967515733);78.1792602539;1.0;0;0;0;0;0;0;0;0;0;();(-2000.0, -2000.0);
03:38:53:617;03:38:53:590;1448290493.23;(0.747601318359375, 0.7158839967515733);78.1792602539;1.0;0;0;0;0;0;0;0;0;0;();(-2000.0, -2000.0);
03:38:53:651;03:38:53:590;1448290493.23;(0.747601318359375, 0.7158839967515733);78.1792602539;1.0;0;0;0;0;0;0;0;0;0;();(-2000.0, -2000.0);
03:38:53:667;03:38:53:662;1448290493.33;(0.7373564720153809, 0.7244068993462456);77.3529281616;0.962922855955;0;0;0;0;0;0;0;0;0;();(-2000.0, -2000.0);
03:38:53:686;03:38:53:662;1448290493.33;(0.7373564720153809, 0.7244068993462456);77.3529281616;0.962922855955;0;0;0;0;0;0;0;0;0;();(-2000.0, -2000.0);
03:38:53:704;03:38:53:662;1448290493.33;(0.7373564720153809, 0.7244068993462456);77.3529281616;0.962922855955;0;0;0;0;0;0;0;0;0;();(-2000.0, -2000.0);
03:38:53:720;03:38:53:662;1448290493.33;(0.7373564720153809, 0.7244068993462456);77.3529281616;0.962922855955;0;0;0;0;0;0;0;0;0;();(-2000.0, -2000.0);
03:38:53:753;03:38:53:662;1448290493.33;(0.7373564720153809, 0.7244068993462456);77.3529281616;0.962922855955;0;0;0;0;0;0;0;0;0;();(-2000.0, -2000.0);
03:38:53:770;03:38:53:662;1448290493.33;(0.7373564720153809, 0.7244068993462456);77.3529281616;0.962922855955;0;0;0;0;0;0;0;0;0;();(-2000.0, -2000.0);
03:38:53:784;03:38:53:662;1448290493.33;(0.7373564720153809, 0.7244068993462456);77.3529281616;0.962922855955;0;0;0;0;0;0;0;0;0;();(-2000.0, -2000.0);
03:38:53:801;03:38:53:662;1448290493.33;(0.7373564720153809, 0.7244068993462456);77.3529281616;0.962922855955;0;0;0;0;0;0;0;0;0;();(-2000.0, -2000.0);
03:38:53:820;03:38:53:816;1448290493.39;(0.7334066867828369, 0.7316627714369033);77.786026001;0.712898325851;0;0;0;0;0;0;0;0;0;();(-2000.0, -2000.0);
03:38:53:852;03:38:53:818;1448290493.43;(0.7281177520751954, 0.732425668504503);78.8034057617;0.815615989368;0;0;0;0;0;0;0;0;0;();(-2000.0, -2000.0);
03:38:53:869;03:38:53:857;1448290493.49;(0, 0);0;0;0;0;0;0;0;0;0;0;0;();(-2000.0, -2000.0);
03:38:53:885;03:38:53:857;1448290493.49;(0, 0);0;0;0;0;0;0;0;0;0;0;0;();(-2000.0, -2000.0);
03:38:53:904;03:38:53:857;1448290493.49;(0, 0);0;0;0;0;0;0;0;0;0;0;0;();(-2000.0, -2000.0);
03:38:53:921;03:38:53:857;1448290493.49;(0, 0);0;0;0;0;0;0;0;0;0;0;0;();(-2000.0, -2000.0);
03:38:53:952;03:38:53:925;1448290493.56;(0.7504321575164795, 0.7289870580037434);76.8154907227;1.0;0;0;0;0;0;0;0;0;0;();(-2000.0, -2000.0);
03:38:53:968;03:38:53:925;1448290493.56;(0.7504321575164795, 0.7289870580037434);76.8154907227;1.0;0;0;0;0;0;0;0;0;0;();(-2000.0, -2000.0);
03:38:53:984;03:38:53:925;1448290493.56;(0.7504321575164795, 0.7289870580037434);76.8154907227;1.0;0;0;0;0;0;0;0;0;0;();(-2000.0, -2000.0);
03:38:54:002;03:38:53:993;1448290493.66;(0, 0);0;0;0;0;0;0;0;0;0;0;0;();(-2000.0, -2000.0);
03:38:54:018;03:38:53:993;1448290493.66;(0, 0);0;0;0;0;0;0;0;0;0;0;0;();(-2000.0, -2000.0);
03:38:54:052;03:38:53:993;1448290493.66;(0, 0);0;0;0;0;0;0;0;0;0;0;0;();(-2000.0, -2000.0);
03:38:54:069;03:38:53:993;1448290493.66;(0, 0);0;0;0;0;0;0;0;0;0;0;0;();(-2000.0, -2000.0);
03:38:54:085;03:38:53:993;1448290493.66;(0, 0);0;0;0;0;0;0;0;0;0;0;0;();(-2000.0, -2000.0);
03:38:54:102;03:38:53:993;1448290493.66;(0, 0);0;0;0;0;0;0;0;0;0;0;0;();(-2000.0, -2000.0);
03:38:54:119;03:38:54:104;1448290493.69;(0.7410397052764892, 0.7280054728190104);77.5119094849;0.816434862788;0;0;0;0;0;0;0;0;0;();(-2000.0, -2000.0);
03:38:54:152;03:38:54:125;1448290493.76;(0.7627633571624756, 0.7254444122314453);77.4123001099;0.993915814647;0;0;0;0;0;0;0;0;0;();(-2000.0, -2000.0);
03:38:54:168;03:38:54:125;1448290493.76;(0.7627633571624756, 0.7254444122314453);77.4123001099;0.993915814647;0;0;0;0;0;0;0;0;0;();(-2000.0, -2000.0);
03:38:54:186;03:38:54:125;1448290493.76;(0.7627633571624756, 0.7254444122314453);77.4123001099;0.993915814647;0;0;0;0;0;0;0;0;0;();(-2000.0, -2000.0);
03:38:54:202;03:38:54:190;1448290493.83;(0.7577650547027588, 0.7278102662828234);77.0952148438;0.764811512275;0;0;0;0;0;0;0;0;0;();(-2000.0, -2000.0);
03:38:54:219;03:38:54:190;1448290493.83;(0.7577650547027588, 0.7278102662828234);77.0952148438;0.764811512275;0;0;0;0;0;0;0;0;0;();(-2000.0, -2000.0);
03:38:54:252;03:38:54:190;1448290493.83;(0.7577650547027588, 0.7278102662828234);77.0952148438;0.764811512275;0;0;0;0;0;0;0;0;0;();(-2000.0, -2000.0);
03:38:54:269;03:38:54:259;1448290493.89;(0.755596923828125, 0.7302071041531033);76.1800460815;0.750557278017;0;0;0;0;0;0;0;0;0;();(-2000.0, -2000.0);
03:38:54:285;03:38:54:259;1448290493.89;(0.755596923828125, 0.7302071041531033);76.1800460815;0.750557278017;0;0;0;0;0;0;0;0;0;();(-2000.0, -2000.0);
03:38:54:302;03:38:54:259;1448290493.89;(0.755596923828125, 0.7302071041531033);76.1800460815;0.750557278017;0;0;0;0;0;0;0;0;0;();(-2000.0, -2000.0);
03:38:54:319;03:38:54:259;1448290493.89;(0.755596923828125, 0.7302071041531033);76.1800460815;0.750557278017;0;0;0;0;0;0;0;0;0;();(-2000.0, -2000.0);
03:38:54:352;03:38:54:259;1448290493.89;(0.755596923828125, 0.7302071041531033);76.1800460815;0.750557278017;0;0;0;0;0;0;0;0;0;();(-2000.0, -2000.0);
03:38:54:368;03:38:54:259;1448290493.89;(0.755596923828125, 0.7302071041531033);76.1800460815;0.750557278017;0;0;0;0;0;0;0;0;0;();(-2000.0, -2000.0);
03:38:54:385;03:38:54:259;1448290493.89;(0.755596923828125, 0.7302071041531033);76.1800460815;0.750557278017;0;0;0;0;0;0;0;0;0;();(-2000.0, -2000.0);
03:38:54:402;03:38:54:394;1448290494.03;(0, 0);0;0;0;0;0;0;0;0;0;0;0;();(-2000.0, -2000.0);
03:38:54:419;03:38:54:394;1448290494.03;(0, 0);0;0;0;0;0;0;0;0;0;0;0;();(-2000.0, -2000.0);
03:38:54:452;03:38:54:394;1448290494.03;(0, 0);0;0;0;0;0;0;0;0;0;0;0;();(-2000.0, -2000.0);
03:38:54:469;03:38:54:457;1448290494.09;(0.9112795829772949, 0.3771539900037978);22.7245903015;0.640964638552;0;0;0;0;0;0;0;0;0;();(-2000.0, -2000.0);
03:38:54:485;03:38:54:457;1448290494.09;(0.9112795829772949, 0.3771539900037978);22.7245903015;0.640964638552;0;0;0;0;0;0;0;0;0;();(-2000.0, -2000.0);
03:38:54:502;03:38:54:457;1448290494.09;(0.9112795829772949, 0.3771539900037978);22.7245903015;0.640964638552;0;0;0;0;0;0;0;0;0;();(-2000.0, -2000.0);
03:38:54:519;03:38:54:457;1448290494.09;(0.9112795829772949, 0.3771539900037978);22.7245903015;0.640964638552;0;0;0;0;0;0;0;0;0;();(-2000.0, -2000.0);
03:38:54:553;03:38:54:519;1448290494.13;(0.7330766677856445, 0.7140060424804687);67.2596206665;0.657238059281;0;0;0;0;0;0;0;0;0;();(-2000.0, -2000.0);
03:38:54:569;03:38:54:519;1448290494.13;(0.7330766677856445, 0.7140060424804687);67.2596206665;0.657238059281;0;0;0;0;0;0;0;0;0;();(-2000.0, -2000.0);
03:38:54:586;03:38:54:519;1448290494.13;(0.7330766677856445, 0.7140060424804687);67.2596206665;0.657238059281;0;0;0;0;0;0;0;0;0;();(-2000.0, -2000.0);
03:38:54:602;03:38:54:591;1448290494.23;(0.7329711437225341, 0.7202676561143664);76.2019424438;1.0;0;0;0;0;0;0;0;0;0;();(-2000.0, -2000.0);
03:38:54:619;03:38:54:591;1448290494.23;(0.7329711437225341, 0.7202676561143664);76.2019424438;1.0;0;0;0;0;0;0;0;0;0;();(-2000.0, -2000.0);
03:38:54:652;03:38:54:591;1448290494.23;(0.7329711437225341, 0.7202676561143664);76.2019424438;1.0;0;0;0;0;0;0;0;0;0;();(-2000.0, -2000.0);
03:38:54:669;03:38:54:591;1448290494.23;(0.7329711437225341, 0.7202676561143664);76.2019424438;1.0;0;0;0;0;0;0;0;0;0;();(-2000.0, -2000.0);
03:38:54:686;03:38:54:591;1448290494.23;(0.7329711437225341, 0.7202676561143664);76.2019424438;1.0;0;0;0;0;0;0;0;0;0;();(-2000.0, -2000.0);
03:38:54:702;03:38:54:591;1448290494.23;(0.7329711437225341, 0.7202676561143664);76.2019424438;1.0;0;0;0;0;0;0;0;0;0;();(-2000.0, -2000.0);
03:38:54:719;03:38:54:591;1448290494.23;(0.7329711437225341, 0.7202676561143664);76.2019424438;1.0;0;0;0;0;0;0;0;0;0;();(-2000.0, -2000.0);
03:38:54:752;03:38:54:738;1448290494.36;(0.7347636699676514, 0.7188106113009982);77.3295822144;1.0;0;0;0;0;0;0;0;0;0;();(-2000.0, -2000.0);
03:38:54:771;03:38:54:738;1448290494.36;(0.7347636699676514, 0.7188106113009982);77.3295822144;1.0;0;0;0;0;0;0;0;0;0;();(-2000.0, -2000.0);
03:38:54:788;03:38:54:738;1448290494.36;(0.7347636699676514, 0.7188106113009982);77.3295822144;1.0;0;0;0;0;0;0;0;0;0;();(-2000.0, -2000.0);
03:38:54:803;03:38:54:794;1448290494.43;(0.743064546585083, 0.7411297268337673);78.7616577148;0.974784370818;0;0;0;0;0;0;0;0;0;();(-2000.0, -2000.0);
03:38:54:819;03:38:54:794;1448290494.43;(0.743064546585083, 0.7411297268337673);78.7616577148;0.974784370818;0;0;0;0;0;0;0;0;0;();(-2000.0, -2000.0);
03:38:54:852;03:38:54:794;1448290494.43;(0.743064546585083, 0.7411297268337673);78.7616577148;0.974784370818;0;0;0;0;0;0;0;0;0;();(-2000.0, -2000.0);
03:38:54:868;03:38:54:855;1448290494.49;(0.7455678462982178, 0.7423252953423394);79.7957305908;0.806378559594;0;0;0;0;0;0;0;0;0;();(-2000.0, -2000.0);
03:38:54:885;03:38:54:855;1448290494.49;(0.7455678462982178, 0.7423252953423394);79.7957305908;0.806378559594;0;0;0;0;0;0;0;0;0;();(-2000.0, -2000.0);
03:38:54:902;03:38:54:855;1448290494.49;(0.7455678462982178, 0.7423252953423394);79.7957305908;0.806378559594;0;0;0;0;0;0;0;0;0;();(-2000.0, -2000.0);
03:38:54:919;03:38:54:855;1448290494.49;(0.7455678462982178, 0.7423252953423394);79.7957305908;0.806378559594;0;0;0;0;0;0;0;0;0;();(-2000.0, -2000.0);
03:38:54:952;03:38:54:922;1448290494.56;(0.7431504726409912, 0.7366491105821398);77.962348938;0.933091875632;0;0;0;0;0;0;0;0;0;();(-2000.0, -2000.0);
03:38:54:969;03:38:54:922;1448290494.56;(0.7431504726409912, 0.7366491105821398);77.962348938;0.933091875632;0;0;0;0;0;0;0;0;0;();(-2000.0, -2000.0);
03:38:54:986;03:38:54:922;1448290494.56;(0.7431504726409912, 0.7366491105821398);77.962348938;0.933091875632;0;0;0;0;0;0;0;0;0;();(-2000.0, -2000.0);
03:38:55:003;03:38:54:922;1448290494.56;(0.7431504726409912, 0.7366491105821398);77.962348938;0.933091875632;0;0;0;0;0;0;0;0;0;();(-2000.0, -2000.0);
03:38:55:018;03:38:54:922;1448290494.56;(0.7431504726409912, 0.7366491105821398);77.962348938;0.933091875632;0;0;0;0;0;0;0;0;0;();(-2000.0, -2000.0);
03:38:55:053;03:38:54:922;1448290494.56;(0.7431504726409912, 0.7366491105821398);77.962348938;0.933091875632;0;0;0;0;0;0;0;0;0;();(-2000.0, -2000.0);
03:38:55:068;03:38:54:922;1448290494.56;(0.7431504726409912, 0.7366491105821398);77.962348938;0.933091875632;0;0;0;0;0;0;0;0;0;();(-2000.0, -2000.0);
03:38:55:087;03:38:55:084;1448290494.66;(0.7421966552734375, 0.7376256730821398);78.9187011719;1.0;0;0;0;0;0;0;0;0;0;();(-2000.0, -2000.0);
03:38:55:103;03:38:55:085;1448290494.69;(0.7415234565734863, 0.7379276487562392);79.2788467407;1.0;0;0;0;0;0;0;0;0;0;();(-2000.0, -2000.0);
03:38:55:118;03:38:55:085;1448290494.69;(0.7415234565734863, 0.7379276487562392);79.2788467407;1.0;0;0;0;0;0;0;0;0;0;();(-2000.0, -2000.0);
03:38:55:153;03:38:55:123;1448290494.79;(0.7394527435302735, 0.7391562355889214);78.536895752;0.823290632861;0;0;0;0;0;0;0;0;0;();(-2000.0, -2000.0);
03:38:55:170;03:38:55:123;1448290494.79;(0.7394527435302735, 0.7391562355889214);78.536895752;0.823290632861;0;0;0;0;0;0;0;0;0;();(-2000.0, -2000.0);
03:38:55:187;03:38:55:183;1448290494.83;(0.737846040725708, 0.7403386857774523);78.4447402954;0.771012720517;0;0;0;0;0;0;0;0;0;();(-2000.0, -2000.0);
03:38:55:203;03:38:55:183;1448290494.83;(0.737846040725708, 0.7403386857774523);78.4447402954;0.771012720517;0;0;0;0;0;0;0;0;0;();(-2000.0, -2000.0);
03:38:55:220;03:38:55:183;1448290494.83;(0.737846040725708, 0.7403386857774523);78.4447402954;0.771012720517;0;0;0;0;0;0;0;0;0;();(-2000.0, -2000.0);
03:38:55:253;03:38:55:183;1448290494.83;(0.737846040725708, 0.7403386857774523);78.4447402954;0.771012720517;0;0;0;0;0;0;0;0;0;();(-2000.0, -2000.0);
03:38:55:269;03:38:55:256;1448290494.9;(0.7317413330078125, 0.6971164491441515);79.0136947632;0.911022933219;0;0;0;0;0;0;0;0;0;();(-2000.0, -2000.0);
03:38:55:287;03:38:55:256;1448290494.9;(0.7317413330078125, 0.6971164491441515);79.0136947632;0.911022933219;0;0;0;0;0;0;0;0;0;();(-2000.0, -2000.0);
03:38:55:302;03:38:55:256;1448290494.9;(0.7317413330078125, 0.6971164491441515);79.0136947632;0.911022933219;0;0;0;0;0;0;0;0;0;();(-2000.0, -2000.0);
03:38:55:319;03:38:55:256;1448290494.9;(0.7317413330078125, 0.6971164491441515);79.0136947632;0.911022933219;0;0;0;0;0;0;0;0;0;();(-2000.0, -2000.0);
03:38:55:354;03:38:55:256;1448290494.9;(0.7317413330078125, 0.6971164491441515);79.0136947632;0.911022933219;0;0;0;0;0;0;0;0;0;();(-2000.0, -2000.0);
03:38:55:372;03:38:55:256;1448290494.9;(0.7317413330078125, 0.6971164491441515);79.0136947632;0.911022933219;0;0;0;0;0;0;0;0;0;();(-2000.0, -2000.0);
03:38:55:388;03:38:55:256;1448290494.9;(0.7317413330078125, 0.6971164491441515);79.0136947632;0.911022933219;0;0;0;0;0;0;0;0;0;();(-2000.0, -2000.0);
03:38:55:401;03:38:55:256;1448290494.9;(0.7317413330078125, 0.6971164491441515);79.0136947632;0.911022933219;0;0;0;0;0;0;0;0;0;();(-2000.0, -2000.0);
03:38:55:419;03:38:55:416;1448290495.03;(0.7324708461761474, 0.6983205371432835);79.4515838623;0.843565948564;0;0;0;0;0;0;0;0;0;();(-2000.0, -2000.0);
03:38:55:452;03:38:55:416;1448290495.03;(0.7324708461761474, 0.6983205371432835);79.4515838623;0.843565948564;0;0;0;0;0;0;0;0;0;();(-2000.0, -2000.0);
03:38:55:472;03:38:55:416;1448290495.03;(0.7324708461761474, 0.6983205371432835);79.4515838623;0.843565948564;0;0;0;0;0;0;0;0;0;();(-2000.0, -2000.0);
03:38:55:488;03:38:55:472;1448290495.09;(0.7362829208374023, 0.6987640592787001);79.9014816284;0.739857774632;0;0;0;0;0;0;0;0;0;();(-2000.0, -2000.0);
03:38:55:505;03:38:55:472;1448290495.09;(0.7362829208374023, 0.6987640592787001);79.9014816284;0.739857774632;0;0;0;0;0;0;0;0;0;();(-2000.0, -2000.0);
03:38:55:520;03:38:55:516;1448290495.16;(0.33839805126190187, 0.8443936559889051);21.4696559906;0.613327395624;0;0;0;0;0;0;0;0;0;();(-2000.0, -2000.0);
03:38:55:553;03:38:55:516;1448290495.16;(0.33839805126190187, 0.8443936559889051);21.4696559906;0.613327395624;0;0;0;0;0;0;0;0;0;();(-2000.0, -2000.0);
03:38:55:570;03:38:55:516;1448290495.16;(0.33839805126190187, 0.8443936559889051);21.4696559906;0.613327395624;0;0;0;0;0;0;0;0;0;();(-2000.0, -2000.0);
03:38:55:589;03:38:55:586;1448290495.23;(0.7372295379638671, 0.6961232079399957);80.1077194214;0.787783009923;0;0;0;0;0;0;0;0;0;();(-2000.0, -2000.0);
03:38:55:603;03:38:55:586;1448290495.23;(0.7372295379638671, 0.6961232079399957);80.1077194214;0.787783009923;0;0;0;0;0;0;0;0;0;();(-2000.0, -2000.0);
03:38:55:620;03:38:55:586;1448290495.23;(0.7372295379638671, 0.6961232079399957);80.1077194214;0.787783009923;0;0;0;0;0;0;0;0;0;();(-2000.0, -2000.0);
03:38:55:653;03:38:55:586;1448290495.23;(0.7372295379638671, 0.6961232079399957);80.1077194214;0.787783009923;0;0;0;0;0;0;0;0;0;();(-2000.0, -2000.0);
03:38:55:672;03:38:55:657;1448290495.29;(0, 0);0;0;0;0;0;0;0;0;0;0;0;();(-2000.0, -2000.0);
03:38:55:689;03:38:55:657;1448290495.29;(0, 0);0;0;0;0;0;0;0;0;0;0;0;();(-2000.0, -2000.0);
03:38:55:704;03:38:55:657;1448290495.29;(0, 0);0;0;0;0;0;0;0;0;0;0;0;();(-2000.0, -2000.0);
03:38:55:720;03:38:55:716;1448290495.36;(0.7523100852966309, 0.6596458858913845);79.6620788574;0.618009772858;0;0;0;0;0;0;0;0;0;();(-2000.0, -2000.0);
03:38:55:753;03:38:55:716;1448290495.36;(0.7523100852966309, 0.6596458858913845);79.6620788574;0.618009772858;0;0;0;0;0;0;0;0;0;();(-2000.0, -2000.0);
03:38:55:773;03:38:55:716;1448290495.36;(0.7523100852966309, 0.6596458858913845);79.6620788574;0.618009772858;0;0;0;0;0;0;0;0;0;();(-2000.0, -2000.0);
03:38:55:787;03:38:55:784;1448290495.39;(0, 0);0;0;0;0;0;0;0;0;0;0;0;();(-2000.0, -2000.0);
03:38:55:803;03:38:55:784;1448290495.39;(0, 0);0;0;0;0;0;0;0;0;0;0;0;();(-2000.0, -2000.0);
03:38:55:822;03:38:55:784;1448290495.39;(0, 0);0;0;0;0;0;0;0;0;0;0;0;();(-2000.0, -2000.0);
03:38:55:858;03:38:55:851;1448290495.49;(0.7518510341644287, 0.6609840816921658);79.7328872681;1.0;0;0;0;0;0;0;0;0;0;();(-2000.0, -2000.0);
03:38:55:872;03:38:55:851;1448290495.49;(0.7518510341644287, 0.6609840816921658);79.7328872681;1.0;0;0;0;0;0;0;0;0;0;();(-2000.0, -2000.0);
03:38:55:889;03:38:55:851;1448290495.49;(0.7518510341644287, 0.6609840816921658);79.7328872681;1.0;0;0;0;0;0;0;0;0;0;();(-2000.0, -2000.0);
03:38:55:904;03:38:55:851;1448290495.49;(0.7518510341644287, 0.6609840816921658);79.7328872681;1.0;0;0;0;0;0;0;0;0;0;();(-2000.0, -2000.0);
03:38:55:920;03:38:55:916;1448290495.56;(0.7517340660095215, 0.661451636420356);79.606086731;1.0;0;0;0;0;0;0;0;0;0;();(-2000.0, -2000.0);
03:38:55:954;03:38:55:916;1448290495.56;(0.7517340660095215, 0.661451636420356);79.606086731;1.0;0;0;0;0;0;0;0;0;0;();(-2000.0, -2000.0);
03:38:55:970;03:38:55:916;1448290495.56;(0.7517340660095215, 0.661451636420356);79.606086731;1.0;0;0;0;0;0;0;0;0;0;();(-2000.0, -2000.0);
03:38:55:987;03:38:55:984;1448290495.63;(0.7517931461334229, 0.6613114251030816);79.4022293091;1.0;0;0;0;0;0;0;0;0;0;();(-2000.0, -2000.0);
03:38:56:003;03:38:55:984;1448290495.63;(0.7517931461334229, 0.6613114251030816);79.4022293091;1.0;0;0;0;0;0;0;0;0;0;();(-2000.0, -2000.0);
03:38:56:020;03:38:55:984;1448290495.63;(0.7517931461334229, 0.6613114251030816);79.4022293091;1.0;0;0;0;0;0;0;0;0;0;();(-2000.0, -2000.0);
03:38:56:053;03:38:56:048;1448290495.69;(0.7527512550354004, 0.6613039016723633);79.0896453857;0.963295019445;0;0;0;0;0;0;0;0;0;();(-2000.0, -2000.0);
03:38:56:070;03:38:56:048;1448290495.69;(0.7527512550354004, 0.6613039016723633);79.0896453857;0.963295019445;0;0;0;0;0;0;0;0;0;();(-2000.0, -2000.0);
03:38:56:087;03:38:56:048;1448290495.69;(0.7527512550354004, 0.6613039016723633);79.0896453857;0.963295019445;0;0;0;0;0;0;0;0;0;();(-2000.0, -2000.0);
03:38:56:104;03:38:56:048;1448290495.69;(0.7527512550354004, 0.6613039016723633);79.0896453857;0.963295019445;0;0;0;0;0;0;0;0;0;();(-2000.0, -2000.0);
03:38:56:120;03:38:56:117;1448290495.76;(0, 0);0;0;0;0;0;0;0;0;0;0;0;();(-2000.0, -2000.0);
03:38:56:153;03:38:56:117;1448290495.76;(0, 0);0;0;0;0;0;0;0;0;0;0;0;();(-2000.0, -2000.0);
03:38:56:170;03:38:56:117;1448290495.76;(0, 0);0;0;0;0;0;0;0;0;0;0;0;();(-2000.0, -2000.0);
03:38:56:187;03:38:56:181;1448290495.83;(0.7141750812530517, 0.6929879506429036);77.4521713257;0.622549051105;0;0;0;0;0;0;0;0;0;();(-2000.0, -2000.0);
03:38:56:204;03:38:56:181;1448290495.83;(0.7141750812530517, 0.6929879506429036);77.4521713257;0.622549051105;0;0;0;0;0;0;0;0;0;();(-2000.0, -2000.0);
03:38:56:220;03:38:56:181;1448290495.83;(0.7141750812530517, 0.6929879506429036);77.4521713257;0.622549051105;0;0;0;0;0;0;0;0;0;();(-2000.0, -2000.0);
03:38:56:253;03:38:56:248;1448290495.89;(0.7159003257751465, 0.6913063685099283);78.6547164917;0.875359905569;0;0;0;0;0;0;0;0;0;();(-2000.0, -2000.0);
03:38:56:270;03:38:56:248;1448290495.89;(0.7159003257751465, 0.6913063685099283);78.6547164917;0.875359905569;0;0;0;0;0;0;0;0;0;();(-2000.0, -2000.0);
03:38:56:287;03:38:56:248;1448290495.89;(0.7159003257751465, 0.6913063685099283);78.6547164917;0.875359905569;0;0;0;0;0;0;0;0;0;();(-2000.0, -2000.0);
03:38:56:303;03:38:56:248;1448290495.89;(0.7159003257751465, 0.6913063685099283);78.6547164917;0.875359905569;0;0;0;0;0;0;0;0;0;();(-2000.0, -2000.0);
03:38:56:320;03:38:56:313;1448290495.96;(0.7181691646575927, 0.6917124430338542);79.637878418;0.850226491281;0;0;0;0;0;0;0;0;0;();(-2000.0, -2000.0);
03:38:56:354;03:38:56:313;1448290495.96;(0.7181691646575927, 0.6917124430338542);79.637878418;0.850226491281;0;0;0;0;0;0;0;0;0;();(-2000.0, -2000.0);
03:38:56:371;03:38:56:313;1448290495.96;(0.7181691646575927, 0.6917124430338542);79.637878418;0.850226491281;0;0;0;0;0;0;0;0;0;();(-2000.0, -2000.0);
03:38:56:389;03:38:56:380;1448290495.99;(0.7200796127319335, 0.687415885925293);74.9745483398;0.660855946706;0;0;0;0;0;0;0;0;0;();(-2000.0, -2000.0);
03:38:56:406;03:38:56:380;1448290495.99;(0.7200796127319335, 0.687415885925293);74.9745483398;0.660855946706;0;0;0;0;0;0;0;0;0;();(-2000.0, -2000.0);
03:38:56:422;03:38:56:380;1448290495.99;(0.7200796127319335, 0.687415885925293);74.9745483398;0.660855946706;0;0;0;0;0;0;0;0;0;();(-2000.0, -2000.0);
03:38:56:456;03:38:56:452;1448290496.09;(0.7194114208221436, 0.6918609619140625);78.8827896118;1.0;0;0;0;0;0;0;0;0;0;();(-2000.0, -2000.0);
03:38:56:471;03:38:56:452;1448290496.09;(0.7194114208221436, 0.6918609619140625);78.8827896118;1.0;0;0;0;0;0;0;0;0;0;();(-2000.0, -2000.0);
03:38:56:486;03:38:56:452;1448290496.09;(0.7194114208221436, 0.6918609619140625);78.8827896118;1.0;0;0;0;0;0;0;0;0;0;();(-2000.0, -2000.0);
03:38:56:503;03:38:56:452;1448290496.09;(0.7194114208221436, 0.6918609619140625);78.8827896118;1.0;0;0;0;0;0;0;0;0;0;();(-2000.0, -2000.0);
03:38:56:521;03:38:56:512;1448290496.16;(0, 0);0;0;0;0;0;0;0;0;0;0;0;();(-2000.0, -2000.0);
03:38:56:557;03:38:56:512;1448290496.16;(0, 0);0;0;0;0;0;0;0;0;0;0;0;();(-2000.0, -2000.0);
03:38:56:573;03:38:56:512;1448290496.16;(0, 0);0;0;0;0;0;0;0;0;0;0;0;();(-2000.0, -2000.0);
03:38:56:590;03:38:56:583;1448290496.23;(0.7169425964355469, 0.7473051071166992);80.1835250854;0.809398944993;0;0;0;0;0;0;0;0;0;();(-2000.0, -2000.0);
03:38:56:607;03:38:56:583;1448290496.23;(0.7169425964355469, 0.7473051071166992);80.1835250854;0.809398944993;0;0;0;0;0;0;0;0;0;();(-2000.0, -2000.0);
03:38:56:623;03:38:56:583;1448290496.23;(0.7169425964355469, 0.7473051071166992);80.1835250854;0.809398944993;0;0;0;0;0;0;0;0;0;();(-2000.0, -2000.0);
03:38:56:656;03:38:56:645;1448290496.29;(0.7173617362976075, 0.7472194247775608);79.6699066162;0.86700298496;0;0;0;0;0;0;0;0;0;();(-2000.0, -2000.0);
03:38:56:674;03:38:56:645;1448290496.29;(0.7173617362976075, 0.7472194247775608);79.6699066162;0.86700298496;0;0;0;0;0;0;0;0;0;();(-2000.0, -2000.0);
03:38:56:690;03:38:56:645;1448290496.29;(0.7173617362976075, 0.7472194247775608);79.6699066162;0.86700298496;0;0;0;0;0;0;0;0;0;();(-2000.0, -2000.0);
03:38:56:706;03:38:56:645;1448290496.29;(0.7173617362976075, 0.7472194247775608);79.6699066162;0.86700298496;0;0;0;0;0;0;0;0;0;();(-2000.0, -2000.0);
03:38:56:720;03:38:56:713;1448290496.36;(0.7182628631591796, 0.7472233878241645);79.7921829224;0.915879126704;0;0;0;0;0;0;0;0;0;();(-2000.0, -2000.0);
03:38:56:755;03:38:56:713;1448290496.36;(0.7182628631591796, 0.7472233878241645);79.7921829224;0.915879126704;0;0;0;0;0;0;0;0;0;();(-2000.0, -2000.0);
03:38:56:770;03:38:56:713;1448290496.36;(0.7182628631591796, 0.7472233878241645);79.7921829224;0.915879126704;0;0;0;0;0;0;0;0;0;();(-2000.0, -2000.0);
03:38:56:790;03:38:56:783;1448290496.43;(0.7193281650543213, 0.7468383153279623);80.0542984009;0.877655940225;0;0;0;0;0;0;0;0;0;();(-2000.0, -2000.0);
03:38:56:806;03:38:56:783;1448290496.43;(0.7193281650543213, 0.7468383153279623);80.0542984009;0.877655940225;0;0;0;0;0;0;0;0;0;();(-2000.0, -2000.0);
03:38:56:823;03:38:56:783;1448290496.43;(0.7193281650543213, 0.7468383153279623);80.0542984009;0.877655940225;0;0;0;0;0;0;0;0;0;();(-2000.0, -2000.0);
03:38:56:854;03:38:56:844;1448290496.49;(0, 0);0;0;0;0;0;0;0;0;0;0;0;();(-2000.0, -2000.0);
03:38:56:873;03:38:56:844;1448290496.49;(0, 0);0;0;0;0;0;0;0;0;0;0;0;();(-2000.0, -2000.0);
03:38:56:890;03:38:56:844;1448290496.49;(0, 0);0;0;0;0;0;0;0;0;0;0;0;();(-2000.0, -2000.0);
03:38:56:906;03:38:56:844;1448290496.49;(0, 0);0;0;0;0;0;0;0;0;0;0;0;();(-2000.0, -2000.0);
03:38:56:923;03:38:56:914;1448290496.56;(0.6938405990600586, 0.7670152876112196);79.6868972778;0.625664868395;0;0;0;0;0;0;0;0;0;();(-2000.0, -2000.0);
03:38:56:956;03:38:56:914;1448290496.56;(0.6938405990600586, 0.7670152876112196);79.6868972778;0.625664868395;0;0;0;0;0;0;0;0;0;();(-2000.0, -2000.0);
03:38:56:973;03:38:56:914;1448290496.56;(0.6938405990600586, 0.7670152876112196);79.6868972778;0.625664868395;0;0;0;0;0;0;0;0;0;();(-2000.0, -2000.0);
03:38:56:988;03:38:56:979;1448290496.63;(0, 0);0;0;0;0;0;0;0;0;0;0;0;();(-2000.0, -2000.0);
03:38:57:005;03:38:56:979;1448290496.63;(0, 0);0;0;0;0;0;0;0;0;0;0;0;();(-2000.0, -2000.0);
03:38:57:023;03:38:56:979;1448290496.63;(0, 0);0;0;0;0;0;0;0;0;0;0;0;();(-2000.0, -2000.0);
03:38:57:040;03:38:56:979;1448290496.63;(0, 0);0;0;0;0;0;0;0;0;0;0;0;();(-2000.0, -2000.0);
03:38:57:074;03:38:57:046;1448290496.69;(0.6962891578674316, 0.7624224980672201);79.5603256226;0.843115878031;0;0;0;0;0;0;0;0;0;();(-2000.0, -2000.0);
03:38:57:091;03:38:57:046;1448290496.69;(0.6962891578674316, 0.7624224980672201);79.5603256226;0.843115878031;0;0;0;0;0;0;0;0;0;();(-2000.0, -2000.0);
03:38:57:107;03:38:57:046;1448290496.69;(0.6962891578674316, 0.7624224980672201);79.5603256226;0.843115878031;0;0;0;0;0;0;0;0;0;();(-2000.0, -2000.0);
03:38:57:124;03:38:57:116;1448290496.76;(0.6967549324035645, 0.7588995615641276);81.3476333618;0.656447576869;0;0;0;0;0;0;0;0;0;();(-2000.0, -2000.0);
03:38:57:154;03:38:57:116;1448290496.76;(0.6967549324035645, 0.7588995615641276);81.3476333618;0.656447576869;0;0;0;0;0;0;0;0;0;();(-2000.0, -2000.0);
03:38:57:174;03:38:57:116;1448290496.76;(0.6967549324035645, 0.7588995615641276);81.3476333618;0.656447576869;0;0;0;0;0;0;0;0;0;();(-2000.0, -2000.0);
03:38:57:191;03:38:57:182;1448290496.83;(0.6969700813293457, 0.7725494384765625);80.7371139526;0.878227003224;0;0;0;0;0;0;0;0;0;();(-2000.0, -2000.0);
03:38:57:207;03:38:57:182;1448290496.83;(0.6969700813293457, 0.7725494384765625);80.7371139526;0.878227003224;0;0;0;0;0;0;0;0;0;();(-2000.0, -2000.0);
03:38:57:223;03:38:57:182;1448290496.83;(0.6969700813293457, 0.7725494384765625);80.7371139526;0.878227003224;0;0;0;0;0;0;0;0;0;();(-2000.0, -2000.0);
03:38:57:240;03:38:57:182;1448290496.83;(0.6969700813293457, 0.7725494384765625);80.7371139526;0.878227003224;0;0;0;0;0;0;0;0;0;();(-2000.0, -2000.0);
03:38:57:274;03:38:57:245;1448290496.89;(0, 0);0;0;0;0;0;0;0;0;0;0;0;();(-2000.0, -2000.0);
03:38:57:291;03:38:57:245;1448290496.89;(0, 0);0;0;0;0;0;0;0;0;0;0;0;();(-2000.0, -2000.0);
03:38:57:307;03:38:57:245;1448290496.89;(0, 0);0;0;0;0;0;0;0;0;0;0;0;();(-2000.0, -2000.0);
03:38:57:321;03:38:57:312;1448290496.96;(0.6086109638214111, 0.7949446042378744);84.8250427246;0.68938165996;0;0;0;0;0;0;0;0;0;();(-2000.0, -2000.0);
03:38:57:354;03:38:57:312;1448290496.96;(0.6086109638214111, 0.7949446042378744);84.8250427246;0.68938165996;0;0;0;0;0;0;0;0;0;();(-2000.0, -2000.0);
03:38:57:371;03:38:57:312;1448290496.96;(0.6086109638214111, 0.7949446042378744);84.8250427246;0.68938165996;0;0;0;0;0;0;0;0;0;();(-2000.0, -2000.0);
03:38:57:388;03:38:57:376;1448290497.03;(0.6136813640594483, 0.797551695505778);79.0581130981;0.683642037006;0;0;0;0;0;0;0;0;0;();(-2000.0, -2000.0);
03:38:57:405;03:38:57:376;1448290497.03;(0.6136813640594483, 0.797551695505778);79.0581130981;0.683642037006;0;0;0;0;0;0;0;0;0;();(-2000.0, -2000.0);
03:38:57:422;03:38:57:376;1448290497.03;(0.6136813640594483, 0.797551695505778);79.0581130981;0.683642037006;0;0;0;0;0;0;0;0;0;();(-2000.0, -2000.0);
03:38:57:455;03:38:57:445;1448290497.09;(0.6149494171142578, 0.7901989830864801);80.4303207397;0.856500528664;0;0;0;0;0;0;0;0;0;();(-2000.0, -2000.0);
03:38:57:471;03:38:57:445;1448290497.09;(0.6149494171142578, 0.7901989830864801);80.4303207397;0.856500528664;0;0;0;0;0;0;0;0;0;();(-2000.0, -2000.0);
03:38:57:488;03:38:57:445;1448290497.09;(0.6149494171142578, 0.7901989830864801);80.4303207397;0.856500528664;0;0;0;0;0;0;0;0;0;();(-2000.0, -2000.0);
03:38:57:504;03:38:57:445;1448290497.09;(0.6149494171142578, 0.7901989830864801);80.4303207397;0.856500528664;0;0;0;0;0;0;0;0;0;();(-2000.0, -2000.0);
03:38:57:521;03:38:57:509;1448290497.13;(0, 0);0;0;0;0;0;0;0;0;0;0;0;();(-2000.0, -2000.0);
03:38:57:555;03:38:57:509;1448290497.13;(0, 0);0;0;0;0;0;0;0;0;0;0;0;();(-2000.0, -2000.0);
03:38:57:572;03:38:57:509;1448290497.13;(0, 0);0;0;0;0;0;0;0;0;0;0;0;();(-2000.0, -2000.0);
03:38:57:588;03:38:57:577;1448290497.23;(0, 0);0;0;0;0;0;0;0;0;0;0;0;();(-2000.0, -2000.0);
03:38:57:605;03:38:57:577;1448290497.23;(0, 0);0;0;0;0;0;0;0;0;0;0;0;();(-2000.0, -2000.0);
03:38:57:623;03:38:57:577;1448290497.23;(0, 0);0;0;0;0;0;0;0;0;0;0;0;();(-2000.0, -2000.0);
03:38:57:640;03:38:57:577;1448290497.23;(0, 0);0;0;0;0;0;0;0;0;0;0;0;();(-2000.0, -2000.0);
03:38:57:671;03:38:57:639;1448290497.26;(0.5992530822753906, 0.8079044977823893);81.6169967651;0.708153847325;0;0;0;0;0;0;0;0;0;();(-2000.0, -2000.0);
03:38:57:688;03:38:57:639;1448290497.26;(0.5992530822753906, 0.8079044977823893);81.6169967651;0.708153847325;0;0;0;0;0;0;0;0;0;();(-2000.0, -2000.0);
03:38:57:705;03:38:57:639;1448290497.26;(0.5992530822753906, 0.8079044977823893);81.6169967651;0.708153847325;0;0;0;0;0;0;0;0;0;();(-2000.0, -2000.0);
03:38:57:722;03:38:57:715;1448290497.33;(0.6013959884643555, 0.7989856508043077);80.196182251;0.815985198991;0;0;0;0;0;0;0;0;0;();(-2000.0, -2000.0);
03:38:57:737;03:38:57:722;1448290497.36;(0.3274219512939453, 0.8061268594529893);18.3870716095;0.669928281692;0;0;0;0;0;0;0;0;0;();(-2000.0, -2000.0);
03:38:57:772;03:38:57:722;1448290497.36;(0.3274219512939453, 0.8061268594529893);18.3870716095;0.669928281692;0;0;0;0;0;0;0;0;0;();(-2000.0, -2000.0);
03:38:57:788;03:38:57:777;1448290497.43;(0.6041150093078613, 0.7976642502678766);79.0795593262;0.708342553868;0;0;0;0;0;0;0;0;0;();(-2000.0, -2000.0);
03:38:57:805;03:38:57:777;1448290497.43;(0.6041150093078613, 0.7976642502678766);79.0795593262;0.708342553868;0;0;0;0;0;0;0;0;0;();(-2000.0, -2000.0);
03:38:57:822;03:38:57:777;1448290497.43;(0.6041150093078613, 0.7976642502678766);79.0795593262;0.708342553868;0;0;0;0;0;0;0;0;0;();(-2000.0, -2000.0);
03:38:57:839;03:38:57:777;1448290497.43;(0.6041150093078613, 0.7976642502678766);79.0795593262;0.708342553868;0;0;0;0;0;0;0;0;0;();(-2000.0, -2000.0);
03:38:57:872;03:38:57:842;1448290497.49;(0, 0);0;0;0;0;0;0;0;0;0;0;0;();(-2000.0, -2000.0);
03:38:57:891;03:38:57:842;1448290497.49;(0, 0);0;0;0;0;0;0;0;0;0;0;0;();(-2000.0, -2000.0);
03:38:57:907;03:38:57:842;1448290497.49;(0, 0);0;0;0;0;0;0;0;0;0;0;0;();(-2000.0, -2000.0);
03:38:57:922;03:38:57:915;1448290497.56;(0.3837203741073608, 0.9116693602667915);19.3989677429;0.736514689747;0;0;0;0;0;0;0;0;0;();(-2000.0, -2000.0);
03:38:57:938;03:38:57:915;1448290497.56;(0.3837203741073608, 0.9116693602667915);19.3989677429;0.736514689747;0;0;0;0;0;0;0;0;0;();(-2000.0, -2000.0);
03:38:57:972;03:38:57:915;1448290497.56;(0.3837203741073608, 0.9116693602667915);19.3989677429;0.736514689747;0;0;0;0;0;0;0;0;0;();(-2000.0, -2000.0);
03:38:57:991;03:38:57:979;1448290497.63;(0.6096482276916504, 0.7984000523885091);79.1312637329;0.872892529828;0;0;0;0;0;0;0;0;0;();(-2000.0, -2000.0);
03:38:58:007;03:38:57:979;1448290497.63;(0.6096482276916504, 0.7984000523885091);79.1312637329;0.872892529828;0;0;0;0;0;0;0;0;0;();(-2000.0, -2000.0);
03:38:58:024;03:38:57:979;1448290497.63;(0.6096482276916504, 0.7984000523885091);79.1312637329;0.872892529828;0;0;0;0;0;0;0;0;0;();(-2000.0, -2000.0);
03:38:58:038;03:38:57:979;1448290497.63;(0.6096482276916504, 0.7984000523885091);79.1312637329;0.872892529828;0;0;0;0;0;0;0;0;0;();(-2000.0, -2000.0);
03:38:58:077;03:38:58:042;1448290497.69;(0, 0);0;0;0;0;0;0;0;0;0;0;0;();(-2000.0, -2000.0);
03:38:58:091;03:38:58:042;1448290497.69;(0, 0);0;0;0;0;0;0;0;0;0;0;0;();(-2000.0, -2000.0);
03:38:58:107;03:38:58:042;1448290497.69;(0, 0);0;0;0;0;0;0;0;0;0;0;0;();(-2000.0, -2000.0);
03:38:58:124;03:38:58:113;1448290497.76;(0, 0);0;0;0;0;0;0;0;0;0;0;0;();(-2000.0, -2000.0);
03:38:58:141;03:38:58:113;1448290497.76;(0, 0);0;0;0;0;0;0;0;0;0;0;0;();(-2000.0, -2000.0);
03:38:58:174;03:38:58:113;1448290497.76;(0, 0);0;0;0;0;0;0;0;0;0;0;0;();(-2000.0, -2000.0);
03:38:58:192;03:38:58:177;1448290497.83;(0.6359097957611084, 0.7950591299268934);77.0074996948;0.944390226036;0;0;0;0;0;0;0;0;0;();(-2000.0, -2000.0);
03:38:58:208;03:38:58:177;1448290497.83;(0.6359097957611084, 0.7950591299268934);77.0074996948;0.944390226036;0;0;0;0;0;0;0;0;0;();(-2000.0, -2000.0);
03:38:58:222;03:38:58:177;1448290497.83;(0.6359097957611084, 0.7950591299268934);77.0074996948;0.944390226036;0;0;0;0;0;0;0;0;0;();(-2000.0, -2000.0);
03:38:58:238;03:38:58:177;1448290497.83;(0.6359097957611084, 0.7950591299268934);77.0074996948;0.944390226036;0;0;0;0;0;0;0;0;0;();(-2000.0, -2000.0);
03:38:58:272;03:38:58:241;1448290497.89;(0.6361464023590088, 0.7969969961378309);77.2943725586;0.804279956698;0;0;0;0;0;0;0;0;0;();(-2000.0, -2000.0);
03:38:58:288;03:38:58:241;1448290497.89;(0.6361464023590088, 0.7969969961378309);77.2943725586;0.804279956698;0;0;0;0;0;0;0;0;0;();(-2000.0, -2000.0);
03:38:58:305;03:38:58:241;1448290497.89;(0.6361464023590088, 0.7969969961378309);77.2943725586;0.804279956698;0;0;0;0;0;0;0;0;0;();(-2000.0, -2000.0);
03:38:58:322;03:38:58:308;1448290497.96;(0.6362491607666015, 0.7972937901814778);76.4098052979;0.827676696184;0;0;0;0;0;0;0;0;0;();(-2000.0, -2000.0);
03:38:58:339;03:38:58:308;1448290497.96;(0.6362491607666015, 0.7972937901814778);76.4098052979;0.827676696184;0;0;0;0;0;0;0;0;0;();(-2000.0, -2000.0);
03:38:58:372;03:38:58:308;1448290497.96;(0.6362491607666015, 0.7972937901814778);76.4098052979;0.827676696184;0;0;0;0;0;0;0;0;0;();(-2000.0, -2000.0);
03:38:58:389;03:38:58:375;1448290498.03;(0.6366940975189209, 0.7972387843661838);76.2305755615;0.918295670087;0;0;0;0;0;0;0;0;0;();(-2000.0, -2000.0);
03:38:58:406;03:38:58:375;1448290498.03;(0.6366940975189209, 0.7972387843661838);76.2305755615;0.918295670087;0;0;0;0;0;0;0;0;0;();(-2000.0, -2000.0);
03:38:58:422;03:38:58:375;1448290498.03;(0.6366940975189209, 0.7972387843661838);76.2305755615;0.918295670087;0;0;0;0;0;0;0;0;0;();(-2000.0, -2000.0);
03:38:58:439;03:38:58:375;1448290498.03;(0.6366940975189209, 0.7972387843661838);76.2305755615;0.918295670087;0;0;0;0;0;0;0;0;0;();(-2000.0, -2000.0);
03:38:58:472;03:38:58:442;1448290498.09;(0.6364235877990723, 0.7969214757283529);75.3475570679;0.966653863946;0;0;0;0;0;0;0;0;0;();(-2000.0, -2000.0);
03:38:58:489;03:38:58:442;1448290498.09;(0.6364235877990723, 0.7969214757283529);75.3475570679;0.966653863946;0;0;0;0;0;0;0;0;0;();(-2000.0, -2000.0);
03:38:58:505;03:38:58:442;1448290498.09;(0.6364235877990723, 0.7969214757283529);75.3475570679;0.966653863946;0;0;0;0;0;0;0;0;0;();(-2000.0, -2000.0);
03:38:58:522;03:38:58:508;1448290498.16;(0, 0);0;0;0;0;0;0;0;0;0;0;0;();(-2000.0, -2000.0);
03:38:58:539;03:38:58:508;1448290498.16;(0, 0);0;0;0;0;0;0;0;0;0;0;0;();(-2000.0, -2000.0);
03:38:58:572;03:38:58:508;1448290498.16;(0, 0);0;0;0;0;0;0;0;0;0;0;0;();(-2000.0, -2000.0);
03:38:58:589;03:38:58:575;1448290498.23;(0, 0);0;0;0;0;0;0;0;0;0;0;0;();(-2000.0, -2000.0);
03:38:58:605;03:38:58:575;1448290498.23;(0, 0);0;0;0;0;0;0;0;0;0;0;0;();(-2000.0, -2000.0);
03:38:58:622;03:38:58:575;1448290498.23;(0, 0);0;0;0;0;0;0;0;0;0;0;0;();(-2000.0, -2000.0);
03:38:58:639;03:38:58:575;1448290498.23;(0, 0);0;0;0;0;0;0;0;0;0;0;0;();(-2000.0, -2000.0);
03:38:58:673;03:38:58:642;1448290498.29;(0.7391358852386475, 0.7374532911512587);71.9605407715;0.980329377764;0;0;0;0;0;0;0;0;0;();(-2000.0, -2000.0);
03:38:58:689;03:38:58:642;1448290498.29;(0.7391358852386475, 0.7374532911512587);71.9605407715;0.980329377764;0;0;0;0;0;0;0;0;0;();(-2000.0, -2000.0);
03:38:58:707;03:38:58:703;1448290498.33;(0.7389995574951171, 0.736994637383355);72.2593917847;0.877394793099;0;0;0;0;0;0;0;0;0;();(-2000.0, -2000.0);
03:38:58:723;03:38:58:705;1448290498.36;(0.7387009143829346, 0.7366463979085287);72.0185012817;0.893445142909;0;0;0;0;0;0;0;0;0;();(-2000.0, -2000.0);
03:38:58:739;03:38:58:705;1448290498.36;(0.7387009143829346, 0.7366463979085287);72.0185012817;0.893445142909;0;0;0;0;0;0;0;0;0;();(-2000.0, -2000.0);
03:38:58:772;03:38:58:768;1448290498.43;(0.7387438297271729, 0.736976072523329);70.8523101807;0.973226889;0;0;0;0;0;0;0;0;0;();(-2000.0, -2000.0);
03:38:58:789;03:38:58:768;1448290498.43;(0.7387438297271729, 0.736976072523329);70.8523101807;0.973226889;0;0;0;0;0;0;0;0;0;();(-2000.0, -2000.0);
03:38:58:805;03:38:58:768;1448290498.43;(0.7387438297271729, 0.736976072523329);70.8523101807;0.973226889;0;0;0;0;0;0;0;0;0;();(-2000.0, -2000.0);
03:38:58:822;03:38:58:768;1448290498.43;(0.7387438297271729, 0.736976072523329);70.8523101807;0.973226889;0;0;0;0;0;0;0;0;0;();(-2000.0, -2000.0);
03:38:58:840;03:38:58:836;1448290498.49;(0.7405081748962402, 0.7453857209947374);70.7060012817;0.785471045911;0;0;0;0;0;0;0;0;0;();(-2000.0, -2000.0);
03:38:58:872;03:38:58:836;1448290498.49;(0.7405081748962402, 0.7453857209947374);70.7060012817;0.785471045911;0;0;0;0;0;0;0;0;0;();(-2000.0, -2000.0);
03:38:58:889;03:38:58:836;1448290498.49;(0.7405081748962402, 0.7453857209947374);70.7060012817;0.785471045911;0;0;0;0;0;0;0;0;0;();(-2000.0, -2000.0);
03:38:58:908;03:38:58:904;1448290498.56;(0.7408365726470947, 0.7438624064127604);68.5721435547;0.877924726336;0;0;0;0;0;0;0;0;0;();(-2000.0, -2000.0);
03:38:58:923;03:38:58:904;1448290498.56;(0.7408365726470947, 0.7438624064127604);68.5721435547;0.877924726336;0;0;0;0;0;0;0;0;0;();(-2000.0, -2000.0);
03:38:58:939;03:38:58:904;1448290498.56;(0.7408365726470947, 0.7438624064127604);68.5721435547;0.877924726336;0;0;0;0;0;0;0;0;0;();(-2000.0, -2000.0);
03:38:58:972;03:38:58:968;1448290498.63;(0.7409096240997315, 0.7449468188815647);68.4810180664;0.858031171879;0;0;0;0;0;0;0;0;0;();(-2000.0, -2000.0);
03:38:58:989;03:38:58:968;1448290498.63;(0.7409096240997315, 0.7449468188815647);68.4810180664;0.858031171879;0;0;0;0;0;0;0;0;0;();(-2000.0, -2000.0);
03:38:59:008;03:38:58:968;1448290498.63;(0.7409096240997315, 0.7449468188815647);68.4810180664;0.858031171879;0;0;0;0;0;0;0;0;0;();(-2000.0, -2000.0);
03:38:59:024;03:38:58:968;1448290498.63;(0.7409096240997315, 0.7449468188815647);68.4810180664;0.858031171879;0;0;0;0;0;0;0;0;0;();(-2000.0, -2000.0);
03:38:59:039;03:38:58:968;1448290498.63;(0.7409096240997315, 0.7449468188815647);68.4810180664;0.858031171879;0;0;0;0;0;0;0;0;0;();(-2000.0, -2000.0);
03:38:59:072;03:38:59:043;1448290498.69;(0.7410505771636963, 0.7450023863050672);68.6874465942;0.882464329442;0;0;0;0;0;0;0;0;0;();(-2000.0, -2000.0);
03:38:59:089;03:38:59:043;1448290498.69;(0.7410505771636963, 0.7450023863050672);68.6874465942;0.882464329442;0;0;0;0;0;0;0;0;0;();(-2000.0, -2000.0);
03:38:59:106;03:38:59:100;1448290498.76;(0.7405783176422119, 0.7430898878309462);67.3325576782;0.901091396543;0;0;0;0;0;0;0;0;0;();(-2000.0, -2000.0);
03:38:59:123;03:38:59:100;1448290498.76;(0.7405783176422119, 0.7430898878309462);67.3325576782;0.901091396543;0;0;0;0;0;0;0;0;0;();(-2000.0, -2000.0);
03:38:59:139;03:38:59:100;1448290498.76;(0.7405783176422119, 0.7430898878309462);67.3325576782;0.901091396543;0;0;0;0;0;0;0;0;0;();(-2000.0, -2000.0);
03:38:59:173;03:38:59:169;1448290498.83;(0.7401226043701172, 0.7431852552625868);66.5345993042;1.0;0;0;0;0;0;0;0;0;0;();(-2000.0, -2000.0);
03:38:59:189;03:38:59:169;1448290498.83;(0.7401226043701172, 0.7431852552625868);66.5345993042;1.0;0;0;0;0;0;0;0;0;0;();(-2000.0, -2000.0);
03:38:59:207;03:38:59:169;1448290498.83;(0.7401226043701172, 0.7431852552625868);66.5345993042;1.0;0;0;0;0;0;0;0;0;0;();(-2000.0, -2000.0);
03:38:59:223;03:38:59:169;1448290498.83;(0.7401226043701172, 0.7431852552625868);66.5345993042;1.0;0;0;0;0;0;0;0;0;0;();(-2000.0, -2000.0);
03:38:59:240;03:38:59:236;1448290498.89;(0.7396556377410889, 0.7445326487223307);66.5154647827;1.0;0;0;0;0;0;0;0;0;0;();(-2000.0, -2000.0);
03:38:59:273;03:38:59:236;1448290498.89;(0.7396556377410889, 0.7445326487223307);66.5154647827;1.0;0;0;0;0;0;0;0;0;0;();(-2000.0, -2000.0);
03:38:59:289;03:38:59:236;1448290498.89;(0.7396556377410889, 0.7445326487223307);66.5154647827;1.0;0;0;0;0;0;0;0;0;0;();(-2000.0, -2000.0);
03:38:59:306;03:38:59:300;1448290498.96;(0.7396087169647216, 0.7453557544284397);66.1491699219;0.894679758108;0;0;0;0;0;0;0;0;0;();(-2000.0, -2000.0);
03:38:59:323;03:38:59:300;1448290498.96;(0.7396087169647216, 0.7453557544284397);66.1491699219;0.894679758108;0;0;0;0;0;0;0;0;0;();(-2000.0, -2000.0);
03:38:59:342;03:38:59:300;1448290498.96;(0.7396087169647216, 0.7453557544284397);66.1491699219;0.894679758108;0;0;0;0;0;0;0;0;0;();(-2000.0, -2000.0);
03:38:59:373;03:38:59:368;1448290499.03;(0.7394493579864502, 0.7458020740085178);66.4554595947;0.991270742014;0;0;0;0;0;0;0;0;0;();(-2000.0, -2000.0);
03:38:59:389;03:38:59:368;1448290499.03;(0.7394493579864502, 0.7458020740085178);66.4554595947;0.991270742014;0;0;0;0;0;0;0;0;0;();(-2000.0, -2000.0);
03:38:59:406;03:38:59:368;1448290499.03;(0.7394493579864502, 0.7458020740085178);66.4554595947;0.991270742014;0;0;0;0;0;0;0;0;0;();(-2000.0, -2000.0);
03:38:59:423;03:38:59:368;1448290499.03;(0.7394493579864502, 0.7458020740085178);66.4554595947;0.991270742014;0;0;0;0;0;0;0;0;0;();(-2000.0, -2000.0);
03:38:59:440;03:38:59:433;1448290499.09;(0.7391768455505371, 0.7455168618096246);66.3736953735;1.0;0;0;0;0;0;0;0;0;0;();(-2000.0, -2000.0);
03:38:59:473;03:38:59:433;1448290499.09;(0.7391768455505371, 0.7455168618096246);66.3736953735;1.0;0;0;0;0;0;0;0;0;0;();(-2000.0, -2000.0);
03:38:59:490;03:38:59:433;1448290499.09;(0.7391768455505371, 0.7455168618096246);66.3736953735;1.0;0;0;0;0;0;0;0;0;0;();(-2000.0, -2000.0);
03:38:59:509;03:38:59:501;1448290499.16;(0.7390964984893799, 0.7470129648844401);65.9496536255;0.96811362746;0;0;0;0;0;0;0;0;0;();(-2000.0, -2000.0);
03:38:59:526;03:38:59:501;1448290499.16;(0.7390964984893799, 0.7470129648844401);65.9496536255;0.96811362746;0;0;0;0;0;0;0;0;0;();(-2000.0, -2000.0);
03:38:59:540;03:38:59:501;1448290499.16;(0.7390964984893799, 0.7470129648844401);65.9496536255;0.96811362746;0;0;0;0;0;0;0;0;0;();(-2000.0, -2000.0);
03:38:59:573;03:38:59:569;1448290499.23;(0.738950777053833, 0.7460714975992839);65.3405380249;0.933671241002;0;0;0;0;0;0;0;0;0;();(-2000.0, -2000.0);
03:38:59:590;03:38:59:569;1448290499.23;(0.738950777053833, 0.7460714975992839);65.3405380249;0.933671241002;0;0;0;0;0;0;0;0;0;();(-2000.0, -2000.0);
03:38:59:607;03:38:59:569;1448290499.23;(0.738950777053833, 0.7460714975992839);65.3405380249;0.933671241002;0;0;0;0;0;0;0;0;0;();(-2000.0, -2000.0);
03:38:59:623;03:38:59:569;1448290499.23;(0.738950777053833, 0.7460714975992839);65.3405380249;0.933671241002;0;0;0;0;0;0;0;0;0;();(-2000.0, -2000.0);
03:38:59:639;03:38:59:631;1448290499.26;(0, 0);0;0;0;0;0;0;0;0;0;0;0;();(-2000.0, -2000.0);
03:38:59:674;03:38:59:631;1448290499.26;(0, 0);0;0;0;0;0;0;0;0;0;0;0;();(-2000.0, -2000.0);
03:38:59:690;03:38:59:631;1448290499.26;(0, 0);0;0;0;0;0;0;0;0;0;0;0;();(-2000.0, -2000.0);
03:38:59:707;03:38:59:701;1448290499.33;(0.7248216152191163, 0.6605257670084635);64.1135940552;0.81716919174;0;0;0;0;0;0;0;0;0;();(-2000.0, -2000.0);
03:38:59:724;03:38:59:701;1448290499.33;(0.7248216152191163, 0.6605257670084635);64.1135940552;0.81716919174;0;0;0;0;0;0;0;0;0;();(-2000.0, -2000.0);
03:38:59:740;03:38:59:701;1448290499.33;(0.7248216152191163, 0.6605257670084635);64.1135940552;0.81716919174;0;0;0;0;0;0;0;0;0;();(-2000.0, -2000.0);
03:38:59:773;03:38:59:767;1448290499.43;(0.724576759338379, 0.6616547690497505);65.2719650269;1.0;0;0;0;0;0;0;0;0;0;();(-2000.0, -2000.0);
03:38:59:790;03:38:59:767;1448290499.43;(0.724576759338379, 0.6616547690497505);65.2719650269;1.0;0;0;0;0;0;0;0;0;0;();(-2000.0, -2000.0);
03:38:59:806;03:38:59:767;1448290499.43;(0.724576759338379, 0.6616547690497505);65.2719650269;1.0;0;0;0;0;0;0;0;0;0;();(-2000.0, -2000.0);
03:38:59:823;03:38:59:767;1448290499.43;(0.724576759338379, 0.6616547690497505);65.2719650269;1.0;0;0;0;0;0;0;0;0;0;();(-2000.0, -2000.0);
03:38:59:841;03:38:59:833;1448290499.49;(0.7243573188781738, 0.6635899013943143);65.8791732788;1.0;0;0;0;0;0;0;0;0;0;();(-2000.0, -2000.0);
03:38:59:874;03:38:59:833;1448290499.49;(0.7243573188781738, 0.6635899013943143);65.8791732788;1.0;0;0;0;0;0;0;0;0;0;();(-2000.0, -2000.0);
03:38:59:890;03:38:59:833;1448290499.49;(0.7243573188781738, 0.6635899013943143);65.8791732788;1.0;0;0;0;0;0;0;0;0;0;();(-2000.0, -2000.0);
03:38:59:907;03:38:59:900;1448290499.56;(0.7242793083190918, 0.663510513305664);66.8200836182;1.0;0;0;0;0;0;0;0;0;0;();(-2000.0, -2000.0);
03:38:59:923;03:38:59:900;1448290499.56;(0.7242793083190918, 0.663510513305664);66.8200836182;1.0;0;0;0;0;0;0;0;0;0;();(-2000.0, -2000.0);
03:38:59:941;03:38:59:900;1448290499.56;(0.7242793083190918, 0.663510513305664);66.8200836182;1.0;0;0;0;0;0;0;0;0;0;();(-2000.0, -2000.0);
03:38:59:973;03:38:59:965;1448290499.63;(0.7244665622711182, 0.6636556201510959);67.9480438232;1.0;0;0;0;0;0;0;0;0;0;();(-2000.0, -2000.0);
03:38:59:991;03:38:59:965;1448290499.63;(0.7244665622711182, 0.6636556201510959);67.9480438232;1.0;0;0;0;0;0;0;0;0;0;();(-2000.0, -2000.0);
03:39:00:007;03:38:59:965;1448290499.63;(0.7244665622711182, 0.6636556201510959);67.9480438232;1.0;0;0;0;0;0;0;0;0;0;();(-2000.0, -2000.0);
03:39:00:023;03:38:59:965;1448290499.63;(0.7244665622711182, 0.6636556201510959);67.9480438232;1.0;0;0;0;0;0;0;0;0;0;();(-2000.0, -2000.0);
03:39:00:040;03:39:00:033;1448290499.69;(0.7240598678588868, 0.6626495361328125);68.4580383301;1.0;0;0;0;0;0;0;0;0;0;();(-2000.0, -2000.0);
03:39:00:074;03:39:00:033;1448290499.69;(0.7240598678588868, 0.6626495361328125);68.4580383301;1.0;0;0;0;0;0;0;0;0;0;();(-2000.0, -2000.0);
03:39:00:091;03:39:00:033;1448290499.69;(0.7240598678588868, 0.6626495361328125);68.4580383301;1.0;0;0;0;0;0;0;0;0;0;();(-2000.0, -2000.0);
03:39:00:107;03:39:00:097;1448290499.76;(0.724077558517456, 0.662881194220649);69.7396774292;1.0;0;0;0;0;0;0;0;0;0;();(-2000.0, -2000.0);
03:39:00:123;03:39:00:097;1448290499.76;(0.724077558517456, 0.662881194220649);69.7396774292;1.0;0;0;0;0;0;0;0;0;0;();(-2000.0, -2000.0);
03:39:00:140;03:39:00:097;1448290499.76;(0.724077558517456, 0.662881194220649);69.7396774292;1.0;0;0;0;0;0;0;0;0;0;();(-2000.0, -2000.0);
03:39:00:173;03:39:00:164;1448290499.83;(0.7243420124053955, 0.6629339218139648);70.8843841553;1.0;0;0;0;0;0;0;0;0;0;();(-2000.0, -2000.0);
03:39:00:190;03:39:00:164;1448290499.83;(0.7243420124053955, 0.6629339218139648);70.8843841553;1.0;0;0;0;0;0;0;0;0;0;();(-2000.0, -2000.0);
03:39:00:207;03:39:00:164;1448290499.83;(0.7243420124053955, 0.6629339218139648);70.8843841553;1.0;0;0;0;0;0;0;0;0;0;();(-2000.0, -2000.0);
03:39:00:224;03:39:00:164;1448290499.83;(0.7243420124053955, 0.6629339218139648);70.8843841553;1.0;0;0;0;0;0;0;0;0;0;();(-2000.0, -2000.0);
03:39:00:241;03:39:00:233;1448290499.89;(0.7249448776245118, 0.6624047173394096);71.3718795776;1.0;0;0;0;0;0;0;0;0;0;();(-2000.0, -2000.0);
03:39:00:273;03:39:00:233;1448290499.89;(0.7249448776245118, 0.6624047173394096);71.3718795776;1.0;0;0;0;0;0;0;0;0;0;();(-2000.0, -2000.0);
03:39:00:291;03:39:00:233;1448290499.89;(0.7249448776245118, 0.6624047173394096);71.3718795776;1.0;0;0;0;0;0;0;0;0;0;();(-2000.0, -2000.0);
03:39:00:307;03:39:00:297;1448290499.96;(0.7254288196563721, 0.663602680630154);72.0021209717;0.98236164547;0;0;0;0;0;0;0;0;0;();(-2000.0, -2000.0);
03:39:00:324;03:39:00:297;1448290499.96;(0.7254288196563721, 0.663602680630154);72.0021209717;0.98236164547;0;0;0;0;0;0;0;0;0;();(-2000.0, -2000.0);
03:39:00:341;03:39:00:297;1448290499.96;(0.7254288196563721, 0.663602680630154);72.0021209717;0.98236164547;0;0;0;0;0;0;0;0;0;();(-2000.0, -2000.0);
03:39:00:375;03:39:00:370;1448290500.03;(0.7251012325286865, 0.6626477983262804);72.5263824463;1.0;0;0;0;0;0;0;0;0;0;();(-2000.0, -2000.0);
03:39:00:391;03:39:00:370;1448290500.03;(0.7251012325286865, 0.6626477983262804);72.5263824463;1.0;0;0;0;0;0;0;0;0;0;();(-2000.0, -2000.0);
03:39:00:407;03:39:00:370;1448290500.03;(0.7251012325286865, 0.6626477983262804);72.5263824463;1.0;0;0;0;0;0;0;0;0;0;();(-2000.0, -2000.0);
03:39:00:424;03:39:00:370;1448290500.03;(0.7251012325286865, 0.6626477983262804);72.5263824463;1.0;0;0;0;0;0;0;0;0;0;();(-2000.0, -2000.0);
03:39:00:441;03:39:00:428;1448290500.09;(0.725517749786377, 0.6630238850911458);73.4345016479;1.0;0;0;0;0;0;0;0;0;0;();(-2000.0, -2000.0);
03:39:00:474;03:39:00:428;1448290500.09;(0.725517749786377, 0.6630238850911458);73.4345016479;1.0;0;0;0;0;0;0;0;0;0;();(-2000.0, -2000.0);
03:39:00:491;03:39:00:428;1448290500.09;(0.725517749786377, 0.6630238850911458);73.4345016479;1.0;0;0;0;0;0;0;0;0;0;();(-2000.0, -2000.0);
03:39:00:507;03:39:00:497;1448290500.16;(0, 0);0;0;0;0;0;0;0;0;0;0;0;();(-2000.0, -2000.0);
03:39:00:524;03:39:00:497;1448290500.16;(0, 0);0;0;0;0;0;0;0;0;0;0;0;();(-2000.0, -2000.0);
03:39:00:541;03:39:00:497;1448290500.16;(0, 0);0;0;0;0;0;0;0;0;0;0;0;();(-2000.0, -2000.0);
03:39:00:574;03:39:00:562;1448290500.19;(0.659736156463623, 0.764374648200141);73.6204910278;0.891466164295;0;0;0;0;0;0;0;0;0;();(-2000.0, -2000.0);
03:39:00:591;03:39:00:562;1448290500.19;(0.659736156463623, 0.764374648200141);73.6204910278;0.891466164295;0;0;0;0;0;0;0;0;0;();(-2000.0, -2000.0);
03:39:00:607;03:39:00:562;1448290500.19;(0.659736156463623, 0.764374648200141);73.6204910278;0.891466164295;0;0;0;0;0;0;0;0;0;();(-2000.0, -2000.0);
03:39:00:624;03:39:00:562;1448290500.19;(0.659736156463623, 0.764374648200141);73.6204910278;0.891466164295;0;0;0;0;0;0;0;0;0;();(-2000.0, -2000.0);
03:39:00:642;03:39:00:639;1448290500.26;(0.6394026756286622, 0.7825617896185981);75.9185028076;0.66733869884;0;0;0;0;0;0;0;0;0;();(-2000.0, -2000.0);
03:39:00:676;03:39:00:639;1448290500.26;(0.6394026756286622, 0.7825617896185981);75.9185028076;0.66733869884;0;0;0;0;0;0;0;0;0;();(-2000.0, -2000.0);
03:39:00:693;03:39:00:639;1448290500.26;(0.6394026756286622, 0.7825617896185981);75.9185028076;0.66733869884;0;0;0;0;0;0;0;0;0;();(-2000.0, -2000.0);
03:39:00:708;03:39:00:699;1448290500.33;(0.6400133609771729, 0.7887555652194553);75.2144546509;0.782453635694;0;0;0;0;0;0;0;0;0;();(-2000.0, -2000.0);
03:39:00:724;03:39:00:699;1448290500.33;(0.6400133609771729, 0.7887555652194553);75.2144546509;0.782453635694;0;0;0;0;0;0;0;0;0;();(-2000.0, -2000.0);
03:39:00:740;03:39:00:699;1448290500.33;(0.6400133609771729, 0.7887555652194553);75.2144546509;0.782453635694;0;0;0;0;0;0;0;0;0;();(-2000.0, -2000.0);
03:39:00:775;03:39:00:761;1448290500.43;(0.6457798480987549, 0.789991972181532);82.0425720215;0.733401158928;0;0;0;0;0;0;0;0;0;();(-2000.0, -2000.0);
03:39:00:791;03:39:00:761;1448290500.43;(0.6457798480987549, 0.789991972181532);82.0425720215;0.733401158928;0;0;0;0;0;0;0;0;0;();(-2000.0, -2000.0);
03:39:00:807;03:39:00:761;1448290500.43;(0.6457798480987549, 0.789991972181532);82.0425720215;0.733401158928;0;0;0;0;0;0;0;0;0;();(-2000.0, -2000.0);
03:39:00:824;03:39:00:761;1448290500.43;(0.6457798480987549, 0.789991972181532);82.0425720215;0.733401158928;0;0;0;0;0;0;0;0;0;();(-2000.0, -2000.0);
03:39:00:841;03:39:00:826;1448290500.46;(0, 0);0;0;0;0;0;0;0;0;0;0;0;();(-2000.0, -2000.0);
03:39:00:875;03:39:00:826;1448290500.46;(0, 0);0;0;0;0;0;0;0;0;0;0;0;();(-2000.0, -2000.0);
03:39:00:891;03:39:00:826;1448290500.46;(0, 0);0;0;0;0;0;0;0;0;0;0;0;();(-2000.0, -2000.0);
03:39:00:907;03:39:00:898;1448290500.56;(0, 0);0;0;0;0;0;0;0;0;0;0;0;();(-2000.0, -2000.0);
03:39:00:925;03:39:00:898;1448290500.56;(0, 0);0;0;0;0;0;0;0;0;0;0;0;();(-2000.0, -2000.0);
03:39:00:940;03:39:00:898;1448290500.56;(0, 0);0;0;0;0;0;0;0;0;0;0;0;();(-2000.0, -2000.0);
03:39:00:957;03:39:00:898;1448290500.56;(0, 0);0;0;0;0;0;0;0;0;0;0;0;();(-2000.0, -2000.0);
03:39:00:990;03:39:00:961;1448290500.59;(0.5875842571258545, 0.7929686016506619);74.7762908936;0.893650046258;0;0;0;0;0;0;0;0;0;();(-2000.0, -2000.0);
03:39:01:010;03:39:00:961;1448290500.59;(0.5875842571258545, 0.7929686016506619);74.7762908936;0.893650046258;0;0;0;0;0;0;0;0;0;();(-2000.0, -2000.0);
03:39:01:027;03:39:00:961;1448290500.59;(0.5875842571258545, 0.7929686016506619);74.7762908936;0.893650046258;0;0;0;0;0;0;0;0;0;();(-2000.0, -2000.0);
03:39:01:045;03:39:01:037;1448290500.69;(0.587376070022583, 0.7927969190809462);75.1361236572;0.917277893152;0;0;0;0;0;0;0;0;0;();(-2000.0, -2000.0);
03:39:01:060;03:39:01:037;1448290500.69;(0.587376070022583, 0.7927969190809462);75.1361236572;0.917277893152;0;0;0;0;0;0;0;0;0;();(-2000.0, -2000.0);
03:39:01:094;03:39:01:037;1448290500.69;(0.587376070022583, 0.7927969190809462);75.1361236572;0.917277893152;0;0;0;0;0;0;0;0;0;();(-2000.0, -2000.0);
03:39:01:111;03:39:01:100;1448290500.76;(0.5880568981170654, 0.7925124910142687);74.9338150024;0.935208012517;0;0;0;0;0;0;0;0;0;();(-2000.0, -2000.0);
03:39:01:126;03:39:01:100;1448290500.76;(0.5880568981170654, 0.7925124910142687);74.9338150024;0.935208012517;0;0;0;0;0;0;0;0;0;();(-2000.0, -2000.0);
03:39:01:143;03:39:01:100;1448290500.76;(0.5880568981170654, 0.7925124910142687);74.9338150024;0.935208012517;0;0;0;0;0;0;0;0;0;();(-2000.0, -2000.0);
03:39:01:160;03:39:01:100;1448290500.76;(0.5880568981170654, 0.7925124910142687);74.9338150024;0.935208012517;0;0;0;0;0;0;0;0;0;();(-2000.0, -2000.0);
03:39:01:192;03:39:01:158;1448290500.79;(0.5846385478973388, 0.7895275963677301);75.0256652832;0.782757788888;0;0;0;0;0;0;0;0;0;();(-2000.0, -2000.0);
03:39:01:208;03:39:01:158;1448290500.79;(0.5846385478973388, 0.7895275963677301);75.0256652832;0.782757788888;0;0;0;0;0;0;0;0;0;();(-2000.0, -2000.0);
03:39:01:225;03:39:01:158;1448290500.79;(0.5846385478973388, 0.7895275963677301);75.0256652832;0.782757788888;0;0;0;0;0;0;0;0;0;();(-2000.0, -2000.0);
03:39:01:241;03:39:01:229;1448290500.86;(0, 0);0;0;0;0;0;0;0;0;0;0;0;();(-2000.0, -2000.0);
03:39:01:258;03:39:01:229;1448290500.86;(0, 0);0;0;0;0;0;0;0;0;0;0;0;();(-2000.0, -2000.0);
03:39:01:292;03:39:01:229;1448290500.86;(0, 0);0;0;0;0;0;0;0;0;0;0;0;();(-2000.0, -2000.0);
03:39:01:308;03:39:01:295;1448290500.93;(0.5794728755950928, 0.7885036468505859);75.0522689819;0.822944095949;0;0;0;0;0;0;0;0;0;();(-2000.0, -2000.0);
03:39:01:324;03:39:01:295;1448290500.93;(0.5794728755950928, 0.7885036468505859);75.0522689819;0.822944095949;0;0;0;0;0;0;0;0;0;();(-2000.0, -2000.0);
03:39:01:341;03:39:01:295;1448290500.93;(0.5794728755950928, 0.7885036468505859);75.0522689819;0.822944095949;0;0;0;0;0;0;0;0;0;();(-2000.0, -2000.0);
03:39:01:358;03:39:01:295;1448290500.93;(0.5794728755950928, 0.7885036468505859);75.0522689819;0.822944095949;0;0;0;0;0;0;0;0;0;();(-2000.0, -2000.0);
03:39:01:392;03:39:01:361;1448290500.99;(0.5821195602416992, 0.7888738844129775);75.1999969482;0.805853220184;0;0;0;0;0;0;0;0;0;();(-2000.0, -2000.0);
03:39:01:408;03:39:01:361;1448290500.99;(0.5821195602416992, 0.7888738844129775);75.1999969482;0.805853220184;0;0;0;0;0;0;0;0;0;();(-2000.0, -2000.0);
03:39:01:425;03:39:01:361;1448290500.99;(0.5821195602416992, 0.7888738844129775);75.1999969482;0.805853220184;0;0;0;0;0;0;0;0;0;();(-2000.0, -2000.0);
03:39:01:441;03:39:01:428;1448290501.06;(0.583047342300415, 0.7890596177842881);74.779624939;0.640515938144;0;0;0;0;0;0;0;0;0;();(-2000.0, -2000.0);
03:39:01:475;03:39:01:428;1448290501.06;(0.583047342300415, 0.7890596177842881);74.779624939;0.640515938144;0;0;0;0;0;0;0;0;0;();(-2000.0, -2000.0);
03:39:01:492;03:39:01:428;1448290501.06;(0.583047342300415, 0.7890596177842881);74.779624939;0.640515938144;0;0;0;0;0;0;0;0;0;();(-2000.0, -2000.0);
03:39:01:509;03:39:01:497;1448290501.16;(0, 0);0;0;0;0;0;0;0;0;0;0;0;();(-2000.0, -2000.0);
03:39:01:525;03:39:01:497;1448290501.16;(0, 0);0;0;0;0;0;0;0;0;0;0;0;();(-2000.0, -2000.0);
03:39:01:541;03:39:01:497;1448290501.16;(0, 0);0;0;0;0;0;0;0;0;0;0;0;();(-2000.0, -2000.0);
03:39:01:558;03:39:01:555;1448290501.19;(0, 0);0;0;0;0;0;0;0;0;0;0;0;();(-2000.0, -2000.0);
03:39:01:592;03:39:01:555;1448290501.19;(0, 0);0;0;0;0;0;0;0;0;0;0;0;();(-2000.0, -2000.0);
03:39:01:608;03:39:01:555;1448290501.19;(0, 0);0;0;0;0;0;0;0;0;0;0;0;();(-2000.0, -2000.0);
03:39:01:626;03:39:01:623;1448290501.23;(0, 0);0;0;0;0;0;0;0;0;0;0;0;();(-2000.0, -2000.0);
03:39:01:642;03:39:01:624;1448290501.26;(0.5707425117492676, 0.7915056864420573);70.7961273193;0.848626281302;0;0;0;0;0;0;0;0;0;();(-2000.0, -2000.0);
03:39:01:658;03:39:01:624;1448290501.26;(0.5707425117492676, 0.7915056864420573);70.7961273193;0.848626281302;0;0;0;0;0;0;0;0;0;();(-2000.0, -2000.0);
03:39:01:692;03:39:01:624;1448290501.26;(0.5707425117492676, 0.7915056864420573);70.7961273193;0.848626281302;0;0;0;0;0;0;0;0;0;();(-2000.0, -2000.0);
03:39:01:708;03:39:01:696;1448290501.36;(0.5707600593566895, 0.7864771736992731);71.3171691895;0.800225221696;0;0;0;0;0;0;0;0;0;();(-2000.0, -2000.0);
03:39:01:725;03:39:01:696;1448290501.36;(0.5707600593566895, 0.7864771736992731);71.3171691895;0.800225221696;0;0;0;0;0;0;0;0;0;();(-2000.0, -2000.0);
03:39:01:742;03:39:01:696;1448290501.36;(0.5707600593566895, 0.7864771736992731);71.3171691895;0.800225221696;0;0;0;0;0;0;0;0;0;();(-2000.0, -2000.0);
03:39:01:759;03:39:01:755;1448290501.39;(0.5716034889221191, 0.7868569691975912);70.7109680176;0.946666832071;0;0;0;0;0;0;0;0;0;();(-2000.0, -2000.0);
03:39:01:791;03:39:01:755;1448290501.39;(0.5716034889221191, 0.7868569691975912);70.7109680176;0.946666832071;0;0;0;0;0;0;0;0;0;();(-2000.0, -2000.0);
03:39:01:807;03:39:01:755;1448290501.39;(0.5716034889221191, 0.7868569691975912);70.7109680176;0.946666832071;0;0;0;0;0;0;0;0;0;();(-2000.0, -2000.0);
03:39:01:824;03:39:01:755;1448290501.39;(0.5716034889221191, 0.7868569691975912);70.7109680176;0.946666832071;0;0;0;0;0;0;0;0;0;();(-2000.0, -2000.0);
03:39:01:841;03:39:01:828;1448290501.46;(0, 0);0;0;0;0;0;0;0;0;0;0;0;();(-2000.0, -2000.0);
03:39:01:858;03:39:01:828;1448290501.46;(0, 0);0;0;0;0;0;0;0;0;0;0;0;();(-2000.0, -2000.0);
03:39:01:891;03:39:01:888;1448290501.53;(0.5757806777954102, 0.7918526543511285);70.5327148438;0.738124350676;0;0;0;0;0;0;0;0;0;();(-2000.0, -2000.0);
03:39:01:908;03:39:01:888;1448290501.53;(0.5757806777954102, 0.7918526543511285);70.5327148438;0.738124350676;0;0;0;0;0;0;0;0;0;();(-2000.0, -2000.0);
03:39:01:925;03:39:01:888;1448290501.53;(0.5757806777954102, 0.7918526543511285);70.5327148438;0.738124350676;0;0;0;0;0;0;0;0;0;();(-2000.0, -2000.0);
03:39:01:944;03:39:01:888;1448290501.53;(0.5757806777954102, 0.7918526543511285);70.5327148438;0.738124350676;0;0;0;0;0;0;0;0;0;();(-2000.0, -2000.0);
03:39:01:962;03:39:01:955;1448290501.56;(0.5761505603790283, 0.7900219811333551);68.9093399048;0.918486665954;0;0;0;0;0;0;0;0;0;();(-2000.0, -2000.0);
03:39:01:994;03:39:01:958;1448290501.59;(0.5761097431182861, 0.7850081549750434);69.5285339355;0.692269554756;0;0;0;0;0;0;0;0;0;();(-2000.0, -2000.0);
03:39:02:011;03:39:01:958;1448290501.59;(0.5761097431182861, 0.7850081549750434);69.5285339355;0.692269554756;0;0;0;0;0;0;0;0;0;();(-2000.0, -2000.0);
03:39:02:027;03:39:02:023;1448290501.63;(0.5756986618041993, 0.7932626088460286);68.7574081421;0.615828982306;0;0;0;0;0;0;0;0;0;();(-2000.0, -2000.0);
03:39:02:042;03:39:02:030;1448290501.69;(0.5764683723449707, 0.786751471625434);69.9253463745;0.713984692759;0;0;0;0;0;0;0;0;0;();(-2000.0, -2000.0);
03:39:02:058;03:39:02:030;1448290501.69;(0.5764683723449707, 0.786751471625434);69.9253463745;0.713984692759;0;0;0;0;0;0;0;0;0;();(-2000.0, -2000.0);
03:39:02:094;03:39:02:087;1448290501.73;(0.3446146249771118, 0.8836914433373345);34.6169090271;0.670028693402;0;0;0;0;0;0;0;0;0;();(-2000.0, -2000.0);
03:39:02:112;03:39:02:087;1448290501.73;(0.3446146249771118, 0.8836914433373345);34.6169090271;0.670028693402;0;0;0;0;0;0;0;0;0;();(-2000.0, -2000.0);
03:39:02:127;03:39:02:087;1448290501.73;(0.3446146249771118, 0.8836914433373345);34.6169090271;0.670028693402;0;0;0;0;0;0;0;0;0;();(-2000.0, -2000.0);
03:39:02:144;03:39:02:087;1448290501.73;(0.3446146249771118, 0.8836914433373345);34.6169090271;0.670028693402;0;0;0;0;0;0;0;0;0;();(-2000.0, -2000.0);
03:39:02:163;03:39:02:157;1448290501.79;(0.5788716316223145, 0.7882948133680556);69.3415374756;0.708092996213;0;0;0;0;0;0;0;0;0;();(-2000.0, -2000.0);
03:39:02:195;03:39:02:157;1448290501.79;(0.5788716316223145, 0.7882948133680556);69.3415374756;0.708092996213;0;0;0;0;0;0;0;0;0;();(-2000.0, -2000.0);
03:39:02:211;03:39:02:157;1448290501.79;(0.5788716316223145, 0.7882948133680556);69.3415374756;0.708092996213;0;0;0;0;0;0;0;0;0;();(-2000.0, -2000.0);
03:39:02:228;03:39:02:221;1448290501.83;(0.5805997848510742, 0.7927280637953016);70.8334197998;0.828571946798;0;0;0;0;0;0;0;0;0;();(-2000.0, -2000.0);
03:39:02:245;03:39:02:231;1448290501.89;(0, 0);0;0;0;0;0;0;0;0;0;0;0;();(-2000.0, -2000.0);
03:39:02:262;03:39:02:231;1448290501.89;(0, 0);0;0;0;0;0;0;0;0;0;0;0;();(-2000.0, -2000.0);
03:39:02:292;03:39:02:287;1448290501.93;(0.5942646980285644, 0.7834196090698242);70.6608886719;0.795634615647;0;0;0;0;0;0;0;0;0;();(-2000.0, -2000.0);
03:39:02:309;03:39:02:287;1448290501.93;(0.5942646980285644, 0.7834196090698242);70.6608886719;0.795634615647;0;0;0;0;0;0;0;0;0;();(-2000.0, -2000.0);
03:39:02:326;03:39:02:287;1448290501.93;(0.5942646980285644, 0.7834196090698242);70.6608886719;0.795634615647;0;0;0;0;0;0;0;0;0;();(-2000.0, -2000.0);
03:39:02:343;03:39:02:287;1448290501.93;(0.5942646980285644, 0.7834196090698242);70.6608886719;0.795634615647;0;0;0;0;0;0;0;0;0;();(-2000.0, -2000.0);
03:39:02:361;03:39:02:358;1448290502.03;(0.5967761516571045, 0.7772212346394857);73.0413665771;0.736174674193;0;0;0;0;0;0;0;0;0;();(-2000.0, -2000.0);
03:39:02:394;03:39:02:358;1448290502.03;(0.5967761516571045, 0.7772212346394857);73.0413665771;0.736174674193;0;0;0;0;0;0;0;0;0;();(-2000.0, -2000.0);
03:39:02:411;03:39:02:358;1448290502.03;(0.5967761516571045, 0.7772212346394857);73.0413665771;0.736174674193;0;0;0;0;0;0;0;0;0;();(-2000.0, -2000.0);
03:39:02:428;03:39:02:421;1448290502.06;(0.5973153591156006, 0.7764326519436306);73.0428161621;0.68245049533;0;0;0;0;0;0;0;0;0;();(-2000.0, -2000.0);
03:39:02:444;03:39:02:421;1448290502.06;(0.5973153591156006, 0.7764326519436306);73.0428161621;0.68245049533;0;0;0;0;0;0;0;0;0;();(-2000.0, -2000.0);
03:39:02:462;03:39:02:421;1448290502.06;(0.5973153591156006, 0.7764326519436306);73.0428161621;0.68245049533;0;0;0;0;0;0;0;0;0;();(-2000.0, -2000.0);
03:39:02:494;03:39:02:487;1448290502.09;(0.3610257625579834, 0.8747177124023438);18.5799751282;0.87789897214;0;0;0;0;0;0;0;0;0;();(-2000.0, -2000.0);
03:39:02:511;03:39:02:490;1448290502.13;(0.5730576992034913, 0.8077936172485352);73.3462753296;0.942223439214;0;0;0;0;0;0;0;0;0;();(-2000.0, -2000.0);
03:39:02:528;03:39:02:490;1448290502.13;(0.5730576992034913, 0.8077936172485352);73.3462753296;0.942223439214;0;0;0;0;0;0;0;0;0;();(-2000.0, -2000.0);
03:39:02:542;03:39:02:490;1448290502.13;(0.5730576992034913, 0.8077936172485352);73.3462753296;0.942223439214;0;0;0;0;0;0;0;0;0;();(-2000.0, -2000.0);
03:39:02:559;03:39:02:552;1448290502.19;(0.5749526500701905, 0.802670669555664);73.286567688;0.602074182719;0;0;0;0;0;0;0;0;0;();(-2000.0, -2000.0);
03:39:02:592;03:39:02:552;1448290502.19;(0.5749526500701905, 0.802670669555664);73.286567688;0.602074182719;0;0;0;0;0;0;0;0;0;();(-2000.0, -2000.0);
03:39:02:609;03:39:02:552;1448290502.19;(0.5749526500701905, 0.802670669555664);73.286567688;0.602074182719;0;0;0;0;0;0;0;0;0;();(-2000.0, -2000.0);
03:39:02:625;03:39:02:552;1448290502.19;(0.5749526500701905, 0.802670669555664);73.286567688;0.602074182719;0;0;0;0;0;0;0;0;0;();(-2000.0, -2000.0);
03:39:02:641;03:39:02:630;1448290502.29;(0.5741678237915039, 0.8072113672892253);74.5327453613;0.896619841258;0;0;0;0;0;0;0;0;0;();(-2000.0, -2000.0);
03:39:02:658;03:39:02:630;1448290502.29;(0.5741678237915039, 0.8072113672892253);74.5327453613;0.896619841258;0;0;0;0;0;0;0;0;0;();(-2000.0, -2000.0);
03:39:02:692;03:39:02:686;1448290502.33;(0.5770704746246338, 0.8043179935879178);72.0641479492;0.635597296897;0;0;0;0;0;0;0;0;0;();(-2000.0, -2000.0);
03:39:02:708;03:39:02:686;1448290502.33;(0.5770704746246338, 0.8043179935879178);72.0641479492;0.635597296897;0;0;0;0;0;0;0;0;0;();(-2000.0, -2000.0);
03:39:02:726;03:39:02:686;1448290502.33;(0.5770704746246338, 0.8043179935879178);72.0641479492;0.635597296897;0;0;0;0;0;0;0;0;0;();(-2000.0, -2000.0);
03:39:02:743;03:39:02:686;1448290502.33;(0.5770704746246338, 0.8043179935879178);72.0641479492;0.635597296897;0;0;0;0;0;0;0;0;0;();(-2000.0, -2000.0);
03:39:02:760;03:39:02:753;1448290502.4;(0.9194175720214843, 0.6106402079264324);36.5736961365;0.731060604022;0;0;0;0;0;0;0;0;0;();(-2000.0, -2000.0);
03:39:02:792;03:39:02:753;1448290502.4;(0.9194175720214843, 0.6106402079264324);36.5736961365;0.731060604022;0;0;0;0;0;0;0;0;0;();(-2000.0, -2000.0);
03:39:02:808;03:39:02:753;1448290502.4;(0.9194175720214843, 0.6106402079264324);36.5736961365;0.731060604022;0;0;0;0;0;0;0;0;0;();(-2000.0, -2000.0);
03:39:02:826;03:39:02:819;1448290502.46;(0.5742166996002197, 0.8194490750630696);72.3335189819;0.863499569447;0;0;0;0;0;0;0;0;0;();(-2000.0, -2000.0);
03:39:02:842;03:39:02:819;1448290502.46;(0.5742166996002197, 0.8194490750630696);72.3335189819;0.863499569447;0;0;0;0;0;0;0;0;0;();(-2000.0, -2000.0);
03:39:02:858;03:39:02:819;1448290502.46;(0.5742166996002197, 0.8194490750630696);72.3335189819;0.863499569447;0;0;0;0;0;0;0;0;0;();(-2000.0, -2000.0);
03:39:02:892;03:39:02:884;1448290502.53;(0.3774930477142334, 0.8972501648796929);21.6687068939;0.625237679189;0;0;0;0;0;0;0;0;0;();(-2000.0, -2000.0);
03:39:02:909;03:39:02:884;1448290502.53;(0.3774930477142334, 0.8972501648796929);21.6687068939;0.625237679189;0;0;0;0;0;0;0;0;0;();(-2000.0, -2000.0);
03:39:02:926;03:39:02:884;1448290502.53;(0.3774930477142334, 0.8972501648796929);21.6687068939;0.625237679189;0;0;0;0;0;0;0;0;0;();(-2000.0, -2000.0);
03:39:02:942;03:39:02:884;1448290502.53;(0.3774930477142334, 0.8972501648796929);21.6687068939;0.625237679189;0;0;0;0;0;0;0;0;0;();(-2000.0, -2000.0);
03:39:02:959;03:39:02:956;1448290502.59;(0.5785227298736573, 0.8117483986748589);73.2451324463;0.81804287988;0;0;0;0;0;0;0;0;0;();(-2000.0, -2000.0);
03:39:02:995;03:39:02:956;1448290502.59;(0.5785227298736573, 0.8117483986748589);73.2451324463;0.81804287988;0;0;0;0;0;0;0;0;0;();(-2000.0, -2000.0);
03:39:03:012;03:39:02:956;1448290502.59;(0.5785227298736573, 0.8117483986748589);73.2451324463;0.81804287988;0;0;0;0;0;0;0;0;0;();(-2000.0, -2000.0);
03:39:03:029;03:39:03:022;1448290502.66;(0.5808068752288819, 0.8102012952168782);74.8159408569;0.835469905604;0;0;0;0;0;0;0;0;0;();(-2000.0, -2000.0);
03:39:03:045;03:39:03:022;1448290502.66;(0.5808068752288819, 0.8102012952168782);74.8159408569;0.835469905604;0;0;0;0;0;0;0;0;0;();(-2000.0, -2000.0);
03:39:03:062;03:39:03:022;1448290502.66;(0.5808068752288819, 0.8102012952168782);74.8159408569;0.835469905604;0;0;0;0;0;0;0;0;0;();(-2000.0, -2000.0);
03:39:03:097;03:39:03:090;1448290502.73;(0, 0);0;0;0;0;0;0;0;0;0;0;0;();(-2000.0, -2000.0);
03:39:03:110;03:39:03:090;1448290502.73;(0, 0);0;0;0;0;0;0;0;0;0;0;0;();(-2000.0, -2000.0);
03:39:03:127;03:39:03:090;1448290502.73;(0, 0);0;0;0;0;0;0;0;0;0;0;0;();(-2000.0, -2000.0);
03:39:03:143;03:39:03:090;1448290502.73;(0, 0);0;0;0;0;0;0;0;0;0;0;0;();(-2000.0, -2000.0);
03:39:03:160;03:39:03:152;1448290502.79;(0.5151354312896729, 0.8123215993245443);73.5027008057;0.703855937934;0;0;0;0;0;0;0;0;0;();(-2000.0, -2000.0);
03:39:03:195;03:39:03:152;1448290502.79;(0.5151354312896729, 0.8123215993245443);73.5027008057;0.703855937934;0;0;0;0;0;0;0;0;0;();(-2000.0, -2000.0);
03:39:03:212;03:39:03:152;1448290502.79;(0.5151354312896729, 0.8123215993245443);73.5027008057;0.703855937934;0;0;0;0;0;0;0;0;0;();(-2000.0, -2000.0);
03:39:03:229;03:39:03:218;1448290502.86;(0.5236969947814941, 0.8092369503445096);74.9695968628;0.600336671476;0;0;0;0;0;0;0;0;0;();(-2000.0, -2000.0);
03:39:03:245;03:39:03:218;1448290502.86;(0.5236969947814941, 0.8092369503445096);74.9695968628;0.600336671476;0;0;0;0;0;0;0;0;0;();(-2000.0, -2000.0);
03:39:03:260;03:39:03:218;1448290502.86;(0.5236969947814941, 0.8092369503445096);74.9695968628;0.600336671476;0;0;0;0;0;0;0;0;0;();(-2000.0, -2000.0);
03:39:03:293;03:39:03:288;1448290502.93;(0.5341101169586182, 0.8070706473456488);75.4275894165;0.606122860928;0;0;0;0;0;0;0;0;0;();(-2000.0, -2000.0);
03:39:03:310;03:39:03:288;1448290502.93;(0.5341101169586182, 0.8070706473456488);75.4275894165;0.606122860928;0;0;0;0;0;0;0;0;0;();(-2000.0, -2000.0);
03:39:03:326;03:39:03:288;1448290502.93;(0.5341101169586182, 0.8070706473456488);75.4275894165;0.606122860928;0;0;0;0;0;0;0;0;0;();(-2000.0, -2000.0);
03:39:03:343;03:39:03:288;1448290502.93;(0.5341101169586182, 0.8070706473456488);75.4275894165;0.606122860928;0;0;0;0;0;0;0;0;0;();(-2000.0, -2000.0);
03:39:03:360;03:39:03:352;1448290502.99;(0.5432912349700928, 0.8084538989596897);76.4600601196;0.684078683013;0;0;0;0;0;0;0;0;0;();(-2000.0, -2000.0);
03:39:03:393;03:39:03:352;1448290502.99;(0.5432912349700928, 0.8084538989596897);76.4600601196;0.684078683013;0;0;0;0;0;0;0;0;0;();(-2000.0, -2000.0);
03:39:03:410;03:39:03:352;1448290502.99;(0.5432912349700928, 0.8084538989596897);76.4600601196;0.684078683013;0;0;0;0;0;0;0;0;0;();(-2000.0, -2000.0);
03:39:03:427;03:39:03:416;1448290503.06;(0.5313145160675049, 0.8081095377604166);74.8322601318;0.931613189424;0;0;0;0;0;0;0;0;0;();(-2000.0, -2000.0);
03:39:03:443;03:39:03:416;1448290503.06;(0.5313145160675049, 0.8081095377604166);74.8322601318;0.931613189424;0;0;0;0;0;0;0;0;0;();(-2000.0, -2000.0);
03:39:03:460;03:39:03:416;1448290503.06;(0.5313145160675049, 0.8081095377604166);74.8322601318;0.931613189424;0;0;0;0;0;0;0;0;0;();(-2000.0, -2000.0);
03:39:03:494;03:39:03:485;1448290503.13;(0.5311699390411377, 0.806335163116455);76.2337036133;0.706655356839;0;0;0;0;0;0;0;0;0;();(-2000.0, -2000.0);
03:39:03:510;03:39:03:485;1448290503.13;(0.5311699390411377, 0.806335163116455);76.2337036133;0.706655356839;0;0;0;0;0;0;0;0;0;();(-2000.0, -2000.0);
03:39:03:526;03:39:03:485;1448290503.13;(0.5311699390411377, 0.806335163116455);76.2337036133;0.706655356839;0;0;0;0;0;0;0;0;0;();(-2000.0, -2000.0);
03:39:03:543;03:39:03:485;1448290503.13;(0.5311699390411377, 0.806335163116455);76.2337036133;0.706655356839;0;0;0;0;0;0;0;0;0;();(-2000.0, -2000.0);
03:39:03:560;03:39:03:548;1448290503.19;(0.5375723361968994, 0.8099283748202853);73.5214920044;0.82266413758;0;0;0;0;0;0;0;0;0;();(-2000.0, -2000.0);
03:39:03:593;03:39:03:548;1448290503.19;(0.5375723361968994, 0.8099283748202853);73.5214920044;0.82266413758;0;0;0;0;0;0;0;0;0;();(-2000.0, -2000.0);
03:39:03:610;03:39:03:548;1448290503.19;(0.5375723361968994, 0.8099283748202853);73.5214920044;0.82266413758;0;0;0;0;0;0;0;0;0;();(-2000.0, -2000.0);
03:39:03:626;03:39:03:616;1448290503.26;(0.5399104595184326, 0.8065263536241319);71.7258529663;0.844151705349;0;0;0;0;0;0;0;0;0;();(-2000.0, -2000.0);
03:39:03:643;03:39:03:616;1448290503.26;(0.5399104595184326, 0.8065263536241319);71.7258529663;0.844151705349;0;0;0;0;0;0;0;0;0;();(-2000.0, -2000.0);
03:39:03:660;03:39:03:616;1448290503.26;(0.5399104595184326, 0.8065263536241319);71.7258529663;0.844151705349;0;0;0;0;0;0;0;0;0;();(-2000.0, -2000.0);
03:39:03:694;03:39:03:685;1448290503.33;(0, 0);0;0;0;0;0;0;0;0;0;0;0;();(-2000.0, -2000.0);
03:39:03:710;03:39:03:685;1448290503.33;(0, 0);0;0;0;0;0;0;0;0;0;0;0;();(-2000.0, -2000.0);
03:39:03:727;03:39:03:685;1448290503.33;(0, 0);0;0;0;0;0;0;0;0;0;0;0;();(-2000.0, -2000.0);
03:39:03:745;03:39:03:685;1448290503.33;(0, 0);0;0;0;0;0;0;0;0;0;0;0;();(-2000.0, -2000.0);
03:39:03:763;03:39:03:751;1448290503.39;(0.5679280281066894, 0.8151677873399523);76.7102203369;0.800030511778;0;0;0;0;0;0;0;0;0;();(-2000.0, -2000.0);
03:39:03:796;03:39:03:751;1448290503.39;(0.5679280281066894, 0.8151677873399523);76.7102203369;0.800030511778;0;0;0;0;0;0;0;0;0;();(-2000.0, -2000.0);
03:39:03:813;03:39:03:751;1448290503.39;(0.5679280281066894, 0.8151677873399523);76.7102203369;0.800030511778;0;0;0;0;0;0;0;0;0;();(-2000.0, -2000.0);
03:39:03:827;03:39:03:819;1448290503.46;(0.591912841796875, 0.8181582980685764);73.6415634155;0.78079287464;0;0;0;0;0;0;0;0;0;();(-2000.0, -2000.0);
03:39:03:844;03:39:03:819;1448290503.46;(0.591912841796875, 0.8181582980685764);73.6415634155;0.78079287464;0;0;0;0;0;0;0;0;0;();(-2000.0, -2000.0);
