%Timestamp,timestamp_write;timestamp_gotpupil;eyetrackertime;norm_pos;diameter;confidence;timestamp_gotbitdata;CRC;SEQ;AnalogOutp1;AnalogOutp2;AnalogOutp3;AnalogOutp4;AnalogOutp5;AnalogOutp6;DigitalOutp1;DigitalOutp2;igitalOutp3;DigitalOutp4;nplanes;lastaction;lastactiondetails;lastactionairplanenumber;positivescore;negativescore;collidedairplanenumbers;targetpositions;collision_point
12:02:51:729;1448277531.34;(0, 0);0;0;;;;;;;;;;;;;;0;0;0;;0;0;();();(0.0, 0.0);
12:02:51:732;12:02:51:723;1448277531.4;(0, 0);0;0;;;;;;;;;;;;;;0;0;0;;0;0;();();(-2000.0, -2000.0);
12:02:51:734;12:02:51:723;1448277531.4;(0, 0);0;0;;;;;;;;;;;;;;0;0;0;;0;0;();();(-2000.0, -2000.0);
12:02:51:736;12:02:51:723;1448277531.4;(0, 0);0;0;;;;;;;;;;;;;;0;0;0;;0;0;();();(-2000.0, -2000.0);
12:02:51:738;12:02:51:723;1448277531.4;(0, 0);0;0;;;;;;;;;;;;;;0;0;0;;0;0;();();(-2000.0, -2000.0);
12:02:51:740;12:02:51:723;1448277531.4;(0, 0);0;0;;;;;;;;;;;;;;0;0;0;;0;0;();();(-2000.0, -2000.0);
12:02:51:741;12:02:51:723;1448277531.4;(0, 0);0;0;;;;;;;;;;;;;;0;0;0;;0;0;();();(-2000.0, -2000.0);
12:02:51:743;12:02:51:723;1448277531.4;(0, 0);0;0;;;;;;;;;;;;;;0;0;0;;0;0;();();(-2000.0, -2000.0);
12:02:51:745;12:02:51:723;1448277531.4;(0, 0);0;0;;;;;;;;;;;;;;0;0;0;;0;0;();();(-2000.0, -2000.0);
12:02:51:747;12:02:51:723;1448277531.4;(0, 0);0;0;;;;;;;;;;;;;;0;0;0;;0;0;();();(-2000.0, -2000.0);
12:02:51:749;12:02:51:723;1448277531.4;(0, 0);0;0;;;;;;;;;;;;;;0;0;0;;0;0;();();(-2000.0, -2000.0);
12:02:51:751;12:02:51:723;1448277531.4;(0, 0);0;0;;;;;;;;;;;;;;0;0;0;;0;0;();();(-2000.0, -2000.0);
12:02:51:753;12:02:51:723;1448277531.4;(0, 0);0;0;;;;;;;;;;;;;;0;0;0;;0;0;();();(-2000.0, -2000.0);
12:02:51:755;12:02:51:723;1448277531.4;(0, 0);0;0;;;;;;;;;;;;;;0;0;0;;0;0;();();(-2000.0, -2000.0);
12:02:51:757;12:02:51:723;1448277531.4;(0, 0);0;0;;;;;;;;;;;;;;0;0;0;;0;0;();();(-2000.0, -2000.0);
12:02:51:759;12:02:51:723;1448277531.4;(0, 0);0;0;;;;;;;;;;;;;;0;0;0;;0;0;();();(-2000.0, -2000.0);
12:02:51:761;12:02:51:723;1448277531.4;(0, 0);0;0;;;;;;;;;;;;;;0;0;0;;0;0;();();(-2000.0, -2000.0);
12:02:51:763;12:02:51:723;1448277531.4;(0, 0);0;0;;;;;;;;;;;;;;0;0;0;;0;0;();();(-2000.0, -2000.0);
12:02:51:771;12:02:51:723;1448277531.4;(0, 0);0;0;;;;;;;;;;;;;;0;0;0;;0;0;();();(-2000.0, -2000.0);
12:02:51:804;12:02:51:792;1448277531.47;(0, 0);0;0;;;;;;;;;;;;;;0;0;0;;0;0;();();(-2000.0, -2000.0);
12:02:51:821;12:02:51:792;1448277531.47;(0, 0);0;0;;;;;;;;;;;;;;0;0;0;;0;0;();();(-2000.0, -2000.0);
12:02:51:838;12:02:51:792;1448277531.47;(0, 0);0;0;;;;;;;;;;;;;;0;0;0;;0;0;();();(-2000.0, -2000.0);
12:02:51:855;12:02:51:792;1448277531.47;(0, 0);0;0;;;;;;;;;;;;;;0;0;0;;0;0;();();(-2000.0, -2000.0);
12:02:51:871;12:02:51:856;1448277531.54;(0, 0);0;0;;;;;;;;;;;;;;0;0;0;;0;0;();();(-2000.0, -2000.0);
12:02:57:072;12:02:57:036;1448277536.74;(0.2991493225097656, 0.18941226535373268);19.2626552582;0.778280729698;;;;;;;;;;;;;;2;0;0;;0;0;();();(-2000.0, -2000.0);
12:02:57:076;12:02:57:036;1448277536.74;(0.2991493225097656, 0.18941226535373268);19.2626552582;0.778280729698;;;;;;;;;;;;;;2;0;0;;0;0;();();(-2000.0, -2000.0);
12:02:57:079;12:02:57:036;1448277536.74;(0.2991493225097656, 0.18941226535373268);19.2626552582;0.778280729698;;;;;;;;;;;;;;2;0;0;;0;0;();();(-2000.0, -2000.0);
12:02:57:080;12:02:57:036;1448277536.74;(0.2991493225097656, 0.18941226535373268);19.2626552582;0.778280729698;;;;;;;;;;;;;;2;0;0;;0;0;();();(-2000.0, -2000.0);
12:02:57:081;12:02:57:036;1448277536.74;(0.2991493225097656, 0.18941226535373268);19.2626552582;0.778280729698;;;;;;;;;;;;;;2;0;0;;0;0;();();(-2000.0, -2000.0);
12:02:57:082;12:02:57:036;1448277536.74;(0.2991493225097656, 0.18941226535373268);19.2626552582;0.778280729698;;;;;;;;;;;;;;2;0;0;;0;0;();();(-2000.0, -2000.0);
12:02:57:084;12:02:57:036;1448277536.74;(0.2991493225097656, 0.18941226535373268);19.2626552582;0.778280729698;;;;;;;;;;;;;;2;0;0;;0;0;();();(-2000.0, -2000.0);
12:02:57:085;12:02:57:036;1448277536.74;(0.2991493225097656, 0.18941226535373268);19.2626552582;0.778280729698;;;;;;;;;;;;;;2;0;0;;0;0;();();(-2000.0, -2000.0);
12:02:57:086;12:02:57:036;1448277536.74;(0.2991493225097656, 0.18941226535373268);19.2626552582;0.778280729698;;;;;;;;;;;;;;2;0;0;;0;0;();();(-2000.0, -2000.0);
12:02:57:087;12:02:57:036;1448277536.74;(0.2991493225097656, 0.18941226535373268);19.2626552582;0.778280729698;;;;;;;;;;;;;;2;0;0;;0;0;();();(-2000.0, -2000.0);
12:02:57:089;12:02:57:036;1448277536.74;(0.2991493225097656, 0.18941226535373268);19.2626552582;0.778280729698;;;;;;;;;;;;;;2;0;0;;0;0;();();(-2000.0, -2000.0);
12:02:57:090;12:02:57:036;1448277536.74;(0.2991493225097656, 0.18941226535373268);19.2626552582;0.778280729698;;;;;;;;;;;;;;2;0;0;;0;0;();();(-2000.0, -2000.0);
12:02:57:091;12:02:57:036;1448277536.74;(0.2991493225097656, 0.18941226535373268);19.2626552582;0.778280729698;;;;;;;;;;;;;;2;0;0;;0;0;();();(-2000.0, -2000.0);
12:02:57:092;12:02:57:036;1448277536.74;(0.2991493225097656, 0.18941226535373268);19.2626552582;0.778280729698;;;;;;;;;;;;;;2;0;0;;0;0;();();(-2000.0, -2000.0);
12:02:57:094;12:02:57:036;1448277536.74;(0.2991493225097656, 0.18941226535373268);19.2626552582;0.778280729698;;;;;;;;;;;;;;2;0;0;;0;0;();();(-2000.0, -2000.0);
12:02:57:095;12:02:57:036;1448277536.74;(0.2991493225097656, 0.18941226535373268);19.2626552582;0.778280729698;;;;;;;;;;;;;;2;0;0;;0;0;();();(-2000.0, -2000.0);
12:02:57:108;12:02:57:036;1448277536.74;(0.2991493225097656, 0.18941226535373268);19.2626552582;0.778280729698;;;;;;;;;;;;;;2;0;0;;0;0;();();(-2000.0, -2000.0);
12:02:57:109;12:02:57:036;1448277536.74;(0.2991493225097656, 0.18941226535373268);19.2626552582;0.778280729698;;;;;;;;;;;;;;2;0;0;;0;0;();();(-2000.0, -2000.0);
12:02:57:111;12:02:57:036;1448277536.74;(0.2991493225097656, 0.18941226535373268);19.2626552582;0.778280729698;;;;;;;;;;;;;;2;0;0;;0;0;();();(-2000.0, -2000.0);
12:02:57:126;12:02:57:036;1448277536.74;(0.2991493225097656, 0.18941226535373268);19.2626552582;0.778280729698;;;;;;;;;;;;;;2;0;0;;0;0;();();(-2000.0, -2000.0);
12:02:57:160;12:02:57:036;1448277536.74;(0.2991493225097656, 0.18941226535373268);19.2626552582;0.778280729698;;;;;;;;;;;;;;2;0;0;;0;0;();();(-2000.0, -2000.0);
12:02:57:178;12:02:57:036;1448277536.74;(0.2991493225097656, 0.18941226535373268);19.2626552582;0.778280729698;;;;;;;;;;;;;;2;0;0;;0;0;();();(-2000.0, -2000.0);
12:02:57:193;12:02:57:192;1448277536.87;(0, 0);0;0;;;;;;;;;;;;;;2;0;0;;0;0;();();(-2000.0, -2000.0);
12:02:57:210;12:02:57:192;1448277536.87;(0, 0);0;0;;;;;;;;;;;;;;2;0;0;;0;0;();();(-2000.0, -2000.0);
12:02:57:227;12:02:57:192;1448277536.87;(0, 0);0;0;;;;;;;;;;;;;;2;0;0;;0;0;();();(-2000.0, -2000.0);
12:02:57:260;12:02:57:192;1448277536.87;(0, 0);0;0;;;;;;;;;;;;;;2;0;0;;0;0;();();(-2000.0, -2000.0);
12:02:57:277;12:02:57:192;1448277536.87;(0, 0);0;0;;;;;;;;;;;;;;2;0;0;;0;0;();();(-2000.0, -2000.0);
12:02:57:293;12:02:57:192;1448277536.87;(0, 0);0;0;;;;;;;;;;;;;;2;0;0;;0;0;();();(-2000.0, -2000.0);
12:02:57:309;12:02:57:300;1448277537.0;(0, 0);0;0;;;;;;;;;;;;;;2;0;0;;0;0;();();(-2000.0, -2000.0);
12:02:57:326;12:02:57:300;1448277537.0;(0, 0);0;0;;;;;;;;;;;;;;2;0;0;;0;0;();();(-2000.0, -2000.0);
12:02:57:360;12:02:57:300;1448277537.0;(0, 0);0;0;;;;;;;;;;;;;;2;0;0;;0;0;();();(-2000.0, -2000.0);
12:02:57:376;12:02:57:367;1448277537.07;(0, 0);0;0;;;;;;;;;;;;;;2;0;0;;0;0;();();(-2000.0, -2000.0);
12:02:57:393;12:02:57:367;1448277537.07;(0, 0);0;0;;;;;;;;;;;;;;2;0;0;;0;0;();();(-2000.0, -2000.0);
12:02:57:410;12:02:57:367;1448277537.07;(0, 0);0;0;;;;;;;;;;;;;;2;0;0;;0;0;();();(-2000.0, -2000.0);
12:02:57:427;12:02:57:367;1448277537.07;(0, 0);0;0;;;;;;;;;;;;;;2;0;0;;0;0;();();(-2000.0, -2000.0);
12:02:57:460;12:02:57:432;1448277537.14;(0.3223942041397095, 0.20268105400933156);23.1146793365;0.705033709511;;;;;;;;;;;;;;2;0;0;;0;0;();();(-2000.0, -2000.0);
12:02:57:478;12:02:57:432;1448277537.14;(0.3223942041397095, 0.20268105400933156);23.1146793365;0.705033709511;;;;;;;;;;;;;;2;0;0;;0;0;();();(-2000.0, -2000.0);
12:02:57:493;12:02:57:432;1448277537.14;(0.3223942041397095, 0.20268105400933156);23.1146793365;0.705033709511;;;;;;;;;;;;;;2;0;0;;0;0;();();(-2000.0, -2000.0);
12:02:57:510;12:02:57:500;1448277537.2;(0, 0);0;0;;;;;;;;;;;;;;2;0;0;;0;0;();();(-2000.0, -2000.0);
12:02:57:528;12:02:57:500;1448277537.2;(0, 0);0;0;;;;;;;;;;;;;;2;0;0;;0;0;();();(-2000.0, -2000.0);
12:02:57:560;12:02:57:500;1448277537.2;(0, 0);0;0;;;;;;;;;;;;;;2;0;0;;0;0;();();(-2000.0, -2000.0);
12:02:57:577;12:02:57:568;1448277537.27;(0, 0);0;0;;;;;;;;;;;;;;2;0;0;;0;0;();();(-2000.0, -2000.0);
12:02:57:593;12:02:57:568;1448277537.27;(0, 0);0;0;;;;;;;;;;;;;;2;0;0;;0;0;();();(-2000.0, -2000.0);
12:02:57:610;12:02:57:568;1448277537.27;(0, 0);0;0;;;;;;;;;;;;;;2;0;0;;0;0;();();(-2000.0, -2000.0);
12:02:57:627;12:02:57:568;1448277537.27;(0, 0);0;0;;;;;;;;;;;;;;2;0;0;;0;0;();();(-2000.0, -2000.0);
12:02:57:660;12:02:57:631;1448277537.34;(0.3160897970199585, 0.2037550184461806);24.0003967285;0.664036251552;;;;;;;;;;;;;;2;0;0;;0;0;();();(-2000.0, -2000.0);
12:02:57:677;12:02:57:631;1448277537.34;(0.3160897970199585, 0.2037550184461806);24.0003967285;0.664036251552;;;;;;;;;;;;;;2;0;0;;0;0;();();(-2000.0, -2000.0);
12:02:57:693;12:02:57:631;1448277537.34;(0.3160897970199585, 0.2037550184461806);24.0003967285;0.664036251552;;;;;;;;;;;;;;2;0;0;;0;0;();();(-2000.0, -2000.0);
12:02:57:710;12:02:57:701;1448277537.4;(0, 0);0;0;;;;;;;;;;;;;;2;0;0;;0;0;();();(-2000.0, -2000.0);
12:02:57:727;12:02:57:701;1448277537.4;(0, 0);0;0;;;;;;;;;;;;;;2;0;0;;0;0;();();(-2000.0, -2000.0);
12:02:57:760;12:02:57:701;1448277537.4;(0, 0);0;0;;;;;;;;;;;;;;2;0;0;;0;0;();();(-2000.0, -2000.0);
12:02:57:777;12:02:57:701;1448277537.4;(0, 0);0;0;;;;;;;;;;;;;;2;0;0;;0;0;();();(-2000.0, -2000.0);
12:02:57:793;12:02:57:701;1448277537.4;(0, 0);0;0;;;;;;;;;;;;;;2;0;0;;0;0;();();(-2000.0, -2000.0);
12:02:57:810;12:02:57:701;1448277537.4;(0, 0);0;0;;;;;;;;;;;;;;2;0;0;;0;0;();();(-2000.0, -2000.0);
12:02:57:827;12:02:57:701;1448277537.4;(0, 0);0;0;;;;;;;;;;;;;;2;0;0;;0;0;();();(-2000.0, -2000.0);
12:02:57:860;12:02:57:832;1448277537.47;(0.6131568431854248, 0.20042783949110243);32.9889564514;0.743297524159;;;;;;;;;;;;;;2;0;0;;0;0;();();(-2000.0, -2000.0);
12:02:57:877;12:02:57:832;1448277537.47;(0.6131568431854248, 0.20042783949110243);32.9889564514;0.743297524159;;;;;;;;;;;;;;2;0;0;;0;0;();();(-2000.0, -2000.0);
12:02:57:894;12:02:57:832;1448277537.47;(0.6131568431854248, 0.20042783949110243);32.9889564514;0.743297524159;;;;;;;;;;;;;;2;0;0;;0;0;();();(-2000.0, -2000.0);
12:02:57:912;12:02:57:900;1448277537.6;(0, 0);0;0;;;;;;;;;;;;;;2;0;0;;0;0;();();(-2000.0, -2000.0);
12:02:57:927;12:02:57:900;1448277537.6;(0, 0);0;0;;;;;;;;;;;;;;2;0;0;;0;0;();();(-2000.0, -2000.0);
12:02:57:960;12:02:57:900;1448277537.6;(0, 0);0;0;;;;;;;;;;;;;;2;0;0;;0;0;();();(-2000.0, -2000.0);
12:02:57:977;12:02:57:964;1448277537.67;(0, 0);0;0;;;;;;;;;;;;;;2;0;0;;0;0;();();(-2000.0, -2000.0);
12:02:57:994;12:02:57:964;1448277537.67;(0, 0);0;0;;;;;;;;;;;;;;2;0;0;;0;0;();();(-2000.0, -2000.0);
12:02:58:010;12:02:57:964;1448277537.67;(0, 0);0;0;;;;;;;;;;;;;;2;0;0;;0;0;();();(-2000.0, -2000.0);
12:02:58:027;12:02:57:964;1448277537.67;(0, 0);0;0;;;;;;;;;;;;;;2;0;0;;0;0;();();(-2000.0, -2000.0);
12:02:58:061;12:02:58:032;1448277537.74;(0, 0);0;0;;;;;;;;;;;;;;2;0;0;;0;0;();();(-2000.0, -2000.0);
12:02:58:077;12:02:58:032;1448277537.74;(0, 0);0;0;;;;;;;;;;;;;;2;0;0;;0;0;();();(-2000.0, -2000.0);
12:02:58:093;12:02:58:032;1448277537.74;(0, 0);0;0;;;;;;;;;;;;;;2;0;0;;0;0;();();(-2000.0, -2000.0);
12:02:58:110;12:02:58:032;1448277537.74;(0, 0);0;0;;;;;;;;;;;;;;2;0;0;;0;0;();();(-2000.0, -2000.0);
12:02:58:127;12:02:58:032;1448277537.74;(0, 0);0;0;;;;;;;;;;;;;;2;0;0;;0;0;();();(-2000.0, -2000.0);
12:02:58:160;12:02:58:032;1448277537.74;(0, 0);0;0;;;;;;;;;;;;;;2;0;0;;0;0;();();(-2000.0, -2000.0);
12:02:58:177;12:02:58:163;1448277537.87;(0, 0);0;0;;;;;;;;;;;;;;2;0;0;;0;0;();();(-2000.0, -2000.0);
12:02:58:195;12:02:58:163;1448277537.87;(0, 0);0;0;;;;;;;;;;;;;;2;0;0;;0;0;();();(-2000.0, -2000.0);
12:02:58:211;12:02:58:163;1448277537.87;(0, 0);0;0;;;;;;;;;;;;;;2;0;0;;0;0;();();(-2000.0, -2000.0);
12:02:58:227;12:02:58:163;1448277537.87;(0, 0);0;0;;;;;;;;;;;;;;2;0;0;;0;0;();();(-2000.0, -2000.0);
12:02:58:260;12:02:58:232;1448277537.94;(0, 0);0;0;;;;;;;;;;;;;;2;0;0;;0;0;();();(-2000.0, -2000.0);
12:02:58:277;12:02:58:232;1448277537.94;(0, 0);0;0;;;;;;;;;;;;;;2;0;0;;0;0;();();(-2000.0, -2000.0);
12:02:58:294;12:02:58:232;1448277537.94;(0, 0);0;0;;;;;;;;;;;;;;2;0;0;;0;0;();();(-2000.0, -2000.0);
12:02:58:311;12:02:58:232;1448277537.94;(0, 0);0;0;;;;;;;;;;;;;;2;0;0;;0;0;();();(-2000.0, -2000.0);
12:02:58:327;12:02:58:232;1448277537.94;(0, 0);0;0;;;;;;;;;;;;;;2;0;0;;0;0;();();(-2000.0, -2000.0);
12:02:58:360;12:02:58:232;1448277537.94;(0, 0);0;0;;;;;;;;;;;;;;2;0;0;;0;0;();();(-2000.0, -2000.0);
12:02:58:377;12:02:58:364;1448277538.0;(0.3149960279464722, 0.20350740220811636);23.7985363007;0.81541737289;;;;;;;;;;;;;;2;0;0;;0;0;();();(-2000.0, -2000.0);
12:02:58:394;12:02:58:364;1448277538.0;(0.3149960279464722, 0.20350740220811636);23.7985363007;0.81541737289;;;;;;;;;;;;;;2;0;0;;0;0;();();(-2000.0, -2000.0);
12:02:58:410;12:02:58:364;1448277538.0;(0.3149960279464722, 0.20350740220811636);23.7985363007;0.81541737289;;;;;;;;;;;;;;2;0;0;;0;0;();();(-2000.0, -2000.0);
12:02:58:427;12:02:58:364;1448277538.0;(0.3149960279464722, 0.20350740220811636);23.7985363007;0.81541737289;;;;;;;;;;;;;;2;0;0;;0;0;();();(-2000.0, -2000.0);
12:02:58:461;12:02:58:427;1448277538.07;(0, 0);0;0;;;;;;;;;;;;;;2;0;0;;0;0;();();(-2000.0, -2000.0);
12:02:58:477;12:02:58:427;1448277538.07;(0, 0);0;0;;;;;;;;;;;;;;2;0;0;;0;0;();();(-2000.0, -2000.0);
12:02:58:494;12:02:58:427;1448277538.07;(0, 0);0;0;;;;;;;;;;;;;;2;0;0;;0;0;();();(-2000.0, -2000.0);
12:02:58:511;12:02:58:496;1448277538.2;(0, 0);0;0;;;;;;;;;;;;;;2;0;0;;0;0;();();(-2000.0, -2000.0);
12:02:58:528;12:02:58:496;1448277538.2;(0, 0);0;0;;;;;;;;;;;;;;2;0;0;;0;0;();();(-2000.0, -2000.0);
12:02:58:561;12:02:58:496;1448277538.2;(0, 0);0;0;;;;;;;;;;;;;;2;0;0;;0;0;();();(-2000.0, -2000.0);
12:02:58:578;12:02:58:496;1448277538.2;(0, 0);0;0;;;;;;;;;;;;;;2;0;0;;0;0;();();(-2000.0, -2000.0);
12:02:58:594;12:02:58:496;1448277538.2;(0, 0);0;0;;;;;;;;;;;;;;2;0;0;;0;0;();();(-2000.0, -2000.0);
12:02:58:611;12:02:58:496;1448277538.2;(0, 0);0;0;;;;;;;;;;;;;;2;0;0;;0;0;();();(-2000.0, -2000.0);
12:02:58:629;12:02:58:629;1448277538.34;(0, 0);0;0;;;;;;;;;;;;;;2;0;0;;0;0;();();(-2000.0, -2000.0);
12:02:58:661;12:02:58:629;1448277538.34;(0, 0);0;0;;;;;;;;;;;;;;2;0;0;;0;0;();();(-2000.0, -2000.0);
12:02:58:677;12:02:58:629;1448277538.34;(0, 0);0;0;;;;;;;;;;;;;;2;0;0;;0;0;();();(-2000.0, -2000.0);
12:02:58:694;12:02:58:629;1448277538.34;(0, 0);0;0;;;;;;;;;;;;;;2;0;0;;0;0;();();(-2000.0, -2000.0);
12:02:58:711;12:02:58:629;1448277538.34;(0, 0);0;0;;;;;;;;;;;;;;2;0;0;;0;0;();();(-2000.0, -2000.0);
12:02:58:728;12:02:58:629;1448277538.34;(0, 0);0;0;;;;;;;;;;;;;;2;0;0;;0;0;();();(-2000.0, -2000.0);
12:02:58:762;12:02:58:629;1448277538.34;(0, 0);0;0;;;;;;;;;;;;;;2;0;0;;0;0;();();(-2000.0, -2000.0);
12:02:58:777;12:02:58:764;1448277538.47;(0, 0);0;0;;;;;;;;;;;;;;2;0;0;;0;0;();();(-2000.0, -2000.0);
12:02:58:794;12:02:58:764;1448277538.47;(0, 0);0;0;;;;;;;;;;;;;;2;0;0;;0;0;();();(-2000.0, -2000.0);
12:02:58:811;12:02:58:764;1448277538.47;(0, 0);0;0;;;;;;;;;;;;;;2;0;0;;0;0;();();(-2000.0, -2000.0);
12:02:58:828;12:02:58:764;1448277538.47;(0, 0);0;0;;;;;;;;;;;;;;2;0;0;;0;0;();();(-2000.0, -2000.0);
12:02:58:861;12:02:58:764;1448277538.47;(0, 0);0;0;;;;;;;;;;;;;;2;0;0;;0;0;();();(-2000.0, -2000.0);
12:02:58:877;12:02:58:764;1448277538.47;(0, 0);0;0;;;;;;;;;;;;;;2;0;0;;0;0;();();(-2000.0, -2000.0);
12:02:58:895;12:02:58:764;1448277538.47;(0, 0);0;0;;;;;;;;;;;;;;2;0;0;;0;0;();();(-2000.0, -2000.0);
12:02:58:912;12:02:58:896;1448277538.54;(0, 0);0;0;;;;;;;;;;;;;;2;0;0;;0;0;();();(-2000.0, -2000.0);
12:02:58:928;12:02:58:896;1448277538.54;(0, 0);0;0;;;;;;;;;;;;;;2;0;0;;0;0;();();(-2000.0, -2000.0);
12:02:58:961;12:02:58:896;1448277538.54;(0, 0);0;0;;;;;;;;;;;;;;2;0;0;;0;0;();();(-2000.0, -2000.0);
12:02:58:978;12:02:58:964;1448277538.67;(0, 0);0;0;;;;;;;;;;;;;;2;0;0;;0;0;();();(-2000.0, -2000.0);
12:02:58:995;12:02:58:964;1448277538.67;(0, 0);0;0;;;;;;;;;;;;;;2;0;0;;0;0;();();(-2000.0, -2000.0);
12:02:59:012;12:02:58:964;1448277538.67;(0, 0);0;0;;;;;;;;;;;;;;2;0;0;;0;0;();();(-2000.0, -2000.0);
12:02:59:028;12:02:58:964;1448277538.67;(0, 0);0;0;;;;;;;;;;;;;;2;0;0;;0;0;();();(-2000.0, -2000.0);
12:02:59:062;12:02:58:964;1448277538.67;(0, 0);0;0;;;;;;;;;;;;;;2;0;0;;0;0;();();(-2000.0, -2000.0);
12:02:59:078;12:02:58:964;1448277538.67;(0, 0);0;0;;;;;;;;;;;;;;2;0;0;;0;0;();();(-2000.0, -2000.0);
12:02:59:094;12:02:59:091;1448277538.74;(0, 0);0;0;;;;;;;;;;;;;;2;0;0;;0;0;();();(-2000.0, -2000.0);
12:02:59:111;12:02:59:091;1448277538.74;(0, 0);0;0;;;;;;;;;;;;;;2;0;0;;0;0;();();(-2000.0, -2000.0);
12:02:59:128;12:02:59:091;1448277538.74;(0, 0);0;0;;;;;;;;;;;;;;2;0;0;;0;0;();();(-2000.0, -2000.0);
12:02:59:161;12:02:59:091;1448277538.74;(0, 0);0;0;;;;;;;;;;;;;;2;0;0;;0;0;();();(-2000.0, -2000.0);
12:02:59:178;12:02:59:163;1448277538.8;(0, 0);0;0;;;;;;;;;;;;;;2;0;0;;0;0;();();(-2000.0, -2000.0);
12:02:59:194;12:02:59:163;1448277538.8;(0, 0);0;0;;;;;;;;;;;;;;2;0;0;;0;0;();();(-2000.0, -2000.0);
12:02:59:212;12:02:59:163;1448277538.8;(0, 0);0;0;;;;;;;;;;;;;;2;0;0;;0;0;();();(-2000.0, -2000.0);
12:02:59:231;12:02:59:228;1448277538.94;(0.8768181800842285, 0.2881840176052517);20.6335430145;0.613115854965;;;;;;;;;;;;;;4;0;0;;0;0;();();(-2000.0, -2000.0);
12:02:59:262;12:02:59:228;1448277538.94;(0.8768181800842285, 0.2881840176052517);20.6335430145;0.613115854965;;;;;;;;;;;;;;4;0;0;;0;0;();();(-2000.0, -2000.0);
12:02:59:279;12:02:59:228;1448277538.94;(0.8768181800842285, 0.2881840176052517);20.6335430145;0.613115854965;;;;;;;;;;;;;;4;0;0;;0;0;();();(-2000.0, -2000.0);
12:02:59:294;12:02:59:228;1448277538.94;(0.8768181800842285, 0.2881840176052517);20.6335430145;0.613115854965;;;;;;;;;;;;;;4;0;0;;0;0;();();(-2000.0, -2000.0);
12:02:59:312;12:02:59:228;1448277538.94;(0.8768181800842285, 0.2881840176052517);20.6335430145;0.613115854965;;;;;;;;;;;;;;4;0;0;;0;0;();();(-2000.0, -2000.0);
12:02:59:329;12:02:59:228;1448277538.94;(0.8768181800842285, 0.2881840176052517);20.6335430145;0.613115854965;;;;;;;;;;;;;;4;0;0;;0;0;();();(-2000.0, -2000.0);
12:02:59:361;12:02:59:228;1448277538.94;(0.8768181800842285, 0.2881840176052517);20.6335430145;0.613115854965;;;;;;;;;;;;;;4;0;0;;0;0;();();(-2000.0, -2000.0);
12:02:59:378;12:02:59:362;1448277539.07;(0, 0);0;0;;;;;;;;;;;;;;4;0;0;;0;0;();();(-2000.0, -2000.0);
12:02:59:395;12:02:59:362;1448277539.07;(0, 0);0;0;;;;;;;;;;;;;;4;0;0;;0;0;();();(-2000.0, -2000.0);
12:02:59:411;12:02:59:362;1448277539.07;(0, 0);0;0;;;;;;;;;;;;;;4;0;0;;0;0;();();(-2000.0, -2000.0);
12:02:59:428;12:02:59:362;1448277539.07;(0, 0);0;0;;;;;;;;;;;;;;4;0;0;;0;0;();();(-2000.0, -2000.0);
12:02:59:461;12:02:59:362;1448277539.07;(0, 0);0;0;;;;;;;;;;;;;;4;0;0;;0;0;();();(-2000.0, -2000.0);
12:02:59:478;12:02:59:362;1448277539.07;(0, 0);0;0;;;;;;;;;;;;;;4;0;0;;0;0;();();(-2000.0, -2000.0);
12:02:59:495;12:02:59:492;1448277539.14;(0, 0);0;0;;;;;;;;;;;;;;4;0;0;;0;0;();();(-2000.0, -2000.0);
12:02:59:512;12:02:59:492;1448277539.14;(0, 0);0;0;;;;;;;;;;;;;;4;0;0;;0;0;();();(-2000.0, -2000.0);
12:02:59:528;12:02:59:492;1448277539.14;(0, 0);0;0;;;;;;;;;;;;;;4;0;0;;0;0;();();(-2000.0, -2000.0);
12:02:59:562;12:02:59:556;1448277539.2;(0, 0);0;0;;;;;;;;;;;;;;4;0;0;;0;0;();();(-2000.0, -2000.0);
12:02:59:579;12:02:59:556;1448277539.2;(0, 0);0;0;;;;;;;;;;;;;;4;0;0;;0;0;();();(-2000.0, -2000.0);
12:02:59:595;12:02:59:556;1448277539.2;(0, 0);0;0;;;;;;;;;;;;;;4;0;0;;0;0;();();(-2000.0, -2000.0);
12:02:59:612;12:02:59:556;1448277539.2;(0, 0);0;0;;;;;;;;;;;;;;4;0;0;;0;0;();();(-2000.0, -2000.0);
12:02:59:628;12:02:59:624;1448277539.27;(0, 0);0;0;;;;;;;;;;;;;;4;0;0;;0;0;();();(-2000.0, -2000.0);
12:02:59:662;12:02:59:624;1448277539.27;(0, 0);0;0;;;;;;;;;;;;;;4;0;0;;0;0;();();(-2000.0, -2000.0);
12:02:59:678;12:02:59:624;1448277539.27;(0, 0);0;0;;;;;;;;;;;;;;4;0;0;;0;0;();();(-2000.0, -2000.0);
12:02:59:695;12:02:59:691;1448277539.34;(0, 0);0;0;;;;;;;;;;;;;;4;0;0;;0;0;();();(-2000.0, -2000.0);
12:02:59:711;12:02:59:691;1448277539.34;(0, 0);0;0;;;;;;;;;;;;;;4;0;0;;0;0;();();(-2000.0, -2000.0);
12:02:59:728;12:02:59:691;1448277539.34;(0, 0);0;0;;;;;;;;;;;;;;4;0;0;;0;0;();();(-2000.0, -2000.0);
12:02:59:761;12:02:59:756;1448277539.4;(0, 0);0;0;;;;;;;;;;;;;;4;0;0;;0;0;();();(-2000.0, -2000.0);
12:02:59:779;12:02:59:756;1448277539.4;(0, 0);0;0;;;;;;;;;;;;;;4;0;0;;0;0;();();(-2000.0, -2000.0);
12:02:59:795;12:02:59:756;1448277539.4;(0, 0);0;0;;;;;;;;;;;;;;4;0;0;;0;0;();();(-2000.0, -2000.0);
12:02:59:812;12:02:59:756;1448277539.4;(0, 0);0;0;;;;;;;;;;;;;;4;0;0;;0;0;();();(-2000.0, -2000.0);
12:02:59:828;12:02:59:823;1448277539.47;(0, 0);0;0;;;;;;;;;;;;;;4;0;0;;0;0;();();(-2000.0, -2000.0);
12:02:59:861;12:02:59:823;1448277539.47;(0, 0);0;0;;;;;;;;;;;;;;4;0;0;;0;0;();();(-2000.0, -2000.0);
12:02:59:878;12:02:59:823;1448277539.47;(0, 0);0;0;;;;;;;;;;;;;;4;0;0;;0;0;();();(-2000.0, -2000.0);
12:02:59:895;12:02:59:893;1448277539.54;(0, 0);0;0;;;;;;;;;;;;;;4;0;0;;0;0;();();(-2000.0, -2000.0);
12:02:59:912;12:02:59:893;1448277539.54;(0, 0);0;0;;;;;;;;;;;;;;4;0;0;;0;0;();();(-2000.0, -2000.0);
12:02:59:929;12:02:59:893;1448277539.54;(0, 0);0;0;;;;;;;;;;;;;;4;0;0;;0;0;();();(-2000.0, -2000.0);
12:02:59:946;12:02:59:893;1448277539.54;(0, 0);0;0;;;;;;;;;;;;;;4;0;0;;0;0;();();(-2000.0, -2000.0);
12:02:59:979;12:02:59:960;1448277539.67;(0, 0);0;0;;;;;;;;;;;;;;4;0;0;;0;0;();();(-2000.0, -2000.0);
12:02:59:995;12:02:59:960;1448277539.67;(0, 0);0;0;;;;;;;;;;;;;;4;0;0;;0;0;();();(-2000.0, -2000.0);
12:03:00:013;12:02:59:960;1448277539.67;(0, 0);0;0;;;;;;;;;;;;;;4;0;0;;0;0;();();(-2000.0, -2000.0);
12:03:00:029;12:02:59:960;1448277539.67;(0, 0);0;0;;;;;;;;;;;;;;4;0;0;;0;0;();();(-2000.0, -2000.0);
12:03:00:062;12:02:59:960;1448277539.67;(0, 0);0;0;;;;;;;;;;;;;;4;0;0;;0;0;();();(-2000.0, -2000.0);
12:03:00:078;12:02:59:960;1448277539.67;(0, 0);0;0;;;;;;;;;;;;;;4;0;0;;0;0;();();(-2000.0, -2000.0);
12:03:00:096;12:03:00:096;1448277539.74;(0, 0);0;0;;;;;;;;;;;;;;4;0;0;;0;0;();();(-2000.0, -2000.0);
12:03:00:113;12:03:00:096;1448277539.74;(0, 0);0;0;;;;;;;;;;;;;;4;0;0;;0;0;();();(-2000.0, -2000.0);
12:03:00:128;12:03:00:096;1448277539.74;(0, 0);0;0;;;;;;;;;;;;;;4;0;0;;0;0;();();(-2000.0, -2000.0);
12:03:00:146;12:03:00:096;1448277539.74;(0, 0);0;0;;;;;;;;;;;;;;4;0;0;;0;0;();();(-2000.0, -2000.0);
12:03:00:179;12:03:00:156;1448277539.8;(0, 0);0;0;;;;;;;;;;;;;;4;0;0;;0;0;();();(-2000.0, -2000.0);
12:03:00:196;12:03:00:156;1448277539.8;(0, 0);0;0;;;;;;;;;;;;;;4;0;0;;0;0;();();(-2000.0, -2000.0);
12:03:00:212;12:03:00:156;1448277539.8;(0, 0);0;0;;;;;;;;;;;;;;4;0;0;;0;0;();();(-2000.0, -2000.0);
12:03:00:229;12:03:00:156;1448277539.8;(0, 0);0;0;;;;;;;;;;;;;;4;0;0;;0;0;();();(-2000.0, -2000.0);
12:03:00:246;12:03:00:229;1448277539.87;(0.3197412252426147, 0.20760574340820315);19.2838096619;0.619922738484;;;;;;;;;;;;;;4;0;0;;0;0;();();(-2000.0, -2000.0);
12:03:00:279;12:03:00:229;1448277539.87;(0.3197412252426147, 0.20760574340820315);19.2838096619;0.619922738484;;;;;;;;;;;;;;4;0;0;;0;0;();();(-2000.0, -2000.0);
12:03:00:295;12:03:00:288;1448277539.94;(0, 0);0;0;;;;;;;;;;;;;;4;0;0;;0;0;();();(-2000.0, -2000.0);
12:03:00:312;12:03:00:288;1448277539.94;(0, 0);0;0;;;;;;;;;;;;;;4;0;0;;0;0;();();(-2000.0, -2000.0);
12:03:00:329;12:03:00:288;1448277539.94;(0, 0);0;0;;;;;;;;;;;;;;4;0;0;;0;0;();();(-2000.0, -2000.0);
12:03:00:346;12:03:00:288;1448277539.94;(0, 0);0;0;;;;;;;;;;;;;;4;0;0;;0;0;();();(-2000.0, -2000.0);
12:03:00:379;12:03:00:375;1448277540.0;(0.520229721069336, 0.19289805094401047);20.6803340912;0.690810146892;;;;;;;;;;;;;;4;0;0;;0;0;();();(-2000.0, -2000.0);
12:03:00:396;12:03:00:375;1448277540.0;(0.520229721069336, 0.19289805094401047);20.6803340912;0.690810146892;;;;;;;;;;;;;;4;0;0;;0;0;();();(-2000.0, -2000.0);
12:03:00:412;12:03:00:375;1448277540.0;(0.520229721069336, 0.19289805094401047);20.6803340912;0.690810146892;;;;;;;;;;;;;;4;0;0;;0;0;();();(-2000.0, -2000.0);
12:03:00:430;12:03:00:421;1448277540.07;(0.6619733810424805, 0.2141591389973958);40.0452423096;0.645535509775;;;;;;;;;;;;;;4;0;0;;0;0;();();(-2000.0, -2000.0);
12:03:00:463;12:03:00:421;1448277540.07;(0.6619733810424805, 0.2141591389973958);40.0452423096;0.645535509775;;;;;;;;;;;;;;4;0;0;;0;0;();();(-2000.0, -2000.0);
12:03:00:479;12:03:00:421;1448277540.07;(0.6619733810424805, 0.2141591389973958);40.0452423096;0.645535509775;;;;;;;;;;;;;;4;0;0;;0;0;();();(-2000.0, -2000.0);
12:03:00:495;12:03:00:488;1448277540.14;(0, 0);0;0;;;;;;;;;;;;;;4;0;0;;0;0;();();(-2000.0, -2000.0);
12:03:00:512;12:03:00:488;1448277540.14;(0, 0);0;0;;;;;;;;;;;;;;4;0;0;;0;0;();();(-2000.0, -2000.0);
12:03:00:529;12:03:00:488;1448277540.14;(0, 0);0;0;;;;;;;;;;;;;;4;0;0;;0;0;();();(-2000.0, -2000.0);
12:03:00:563;12:03:00:556;1448277540.2;(0, 0);0;0;;;;;;;;;;;;;;4;0;0;;0;0;();();(-2000.0, -2000.0);
12:03:00:579;12:03:00:556;1448277540.2;(0, 0);0;0;;;;;;;;;;;;;;4;0;0;;0;0;();();(-2000.0, -2000.0);
12:03:00:596;12:03:00:556;1448277540.2;(0, 0);0;0;;;;;;;;;;;;;;4;0;0;;0;0;();();(-2000.0, -2000.0);
12:03:00:612;12:03:00:556;1448277540.2;(0, 0);0;0;;;;;;;;;;;;;;4;0;0;;0;0;();();(-2000.0, -2000.0);
12:03:00:630;12:03:00:620;1448277540.27;(0.32294292449951173, 0.20122587415907123);22.0329341888;0.769099072561;;;;;;;;;;;;;;4;0;0;;0;0;();();(-2000.0, -2000.0);
12:03:00:646;12:03:00:620;1448277540.27;(0.32294292449951173, 0.20122587415907123);22.0329341888;0.769099072561;;;;;;;;;;;;;;4;0;0;;0;0;();();(-2000.0, -2000.0);
12:03:00:679;12:03:00:620;1448277540.27;(0.32294292449951173, 0.20122587415907123);22.0329341888;0.769099072561;;;;;;;;;;;;;;4;0;0;;0;0;();();(-2000.0, -2000.0);
12:03:00:696;12:03:00:696;1448277540.34;(0, 0);0;0;;;;;;;;;;;;;;4;0;0;;0;0;();();(-2000.0, -2000.0);
12:03:00:713;12:03:00:696;1448277540.34;(0, 0);0;0;;;;;;;;;;;;;;4;0;0;;0;0;();();(-2000.0, -2000.0);
12:03:00:730;12:03:00:696;1448277540.34;(0, 0);0;0;;;;;;;;;;;;;;4;0;0;;0;0;();();(-2000.0, -2000.0);
12:03:00:747;12:03:00:696;1448277540.34;(0, 0);0;0;;;;;;;;;;;;;;4;0;0;;0;0;();();(-2000.0, -2000.0);
12:03:00:781;12:03:00:753;1448277540.4;(0, 0);0;0;;;;;;;;;;;;;;4;0;0;;0;0;();();(-2000.0, -2000.0);
12:03:00:797;12:03:00:753;1448277540.4;(0, 0);0;0;;;;;;;;;;;;;;4;0;0;;0;0;();();(-2000.0, -2000.0);
12:03:00:813;12:03:00:753;1448277540.4;(0, 0);0;0;;;;;;;;;;;;;;4;0;0;;0;0;();();(-2000.0, -2000.0);
12:03:00:829;12:03:00:820;1448277540.47;(0, 0);0;0;;;;;;;;;;;;;;4;0;0;;0;0;();();(-2000.0, -2000.0);
12:03:00:846;12:03:00:820;1448277540.47;(0, 0);0;0;;;;;;;;;;;;;;4;0;0;;0;0;();();(-2000.0, -2000.0);
12:03:00:879;12:03:00:820;1448277540.47;(0, 0);0;0;;;;;;;;;;;;;;4;0;0;;0;0;();();(-2000.0, -2000.0);
12:03:00:896;12:03:00:883;1448277540.54;(0.32657883167266843, 0.2042911105685764);27.3810482025;0.645783919011;;;;;;;;;;;;;;4;0;0;;0;0;();();(-2000.0, -2000.0);
12:03:00:913;12:03:00:883;1448277540.54;(0.32657883167266843, 0.2042911105685764);27.3810482025;0.645783919011;;;;;;;;;;;;;;4;0;0;;0;0;();();(-2000.0, -2000.0);
12:03:00:930;12:03:00:883;1448277540.54;(0.32657883167266843, 0.2042911105685764);27.3810482025;0.645783919011;;;;;;;;;;;;;;4;0;0;;0;0;();();(-2000.0, -2000.0);
12:03:00:946;12:03:00:883;1448277540.54;(0.32657883167266843, 0.2042911105685764);27.3810482025;0.645783919011;;;;;;;;;;;;;;4;0;0;;0;0;();();(-2000.0, -2000.0);
12:03:00:980;12:03:00:883;1448277540.54;(0.32657883167266843, 0.2042911105685764);27.3810482025;0.645783919011;;;;;;;;;;;;;;4;0;0;;0;0;();();(-2000.0, -2000.0);
12:03:00:996;12:03:00:981;1448277540.6;(0, 0);0;0;;;;;;;;;;;;;;4;0;0;;0;0;();();(-2000.0, -2000.0);
12:03:01:013;12:03:00:981;1448277540.6;(0, 0);0;0;;;;;;;;;;;;;;4;0;0;;0;0;();();(-2000.0, -2000.0);
12:03:01:029;12:03:00:981;1448277540.6;(0, 0);0;0;;;;;;;;;;;;;;4;0;0;;0;0;();();(-2000.0, -2000.0);
12:03:01:046;12:03:00:981;1448277540.6;(0, 0);0;0;;;;;;;;;;;;;;4;0;0;;0;0;();();(-2000.0, -2000.0);
12:03:01:080;12:03:00:981;1448277540.6;(0, 0);0;0;;;;;;;;;;;;;;4;0;0;;0;0;();();(-2000.0, -2000.0);
12:03:01:097;12:03:01:084;1448277540.74;(0, 0);0;0;;;;;;;;;;;;;;4;0;0;;0;0;();();(-2000.0, -2000.0);
12:03:01:113;12:03:01:084;1448277540.74;(0, 0);0;0;;;;;;;;;;;;;;4;0;0;;0;0;();();(-2000.0, -2000.0);
12:03:01:130;12:03:01:084;1448277540.74;(0, 0);0;0;;;;;;;;;;;;;;4;0;0;;0;0;();();(-2000.0, -2000.0);
12:03:01:146;12:03:01:084;1448277540.74;(0, 0);0;0;;;;;;;;;;;;;;4;0;0;;0;0;();();(-2000.0, -2000.0);
12:03:01:180;12:03:01:151;1448277540.8;(0, 0);0;0;;;;;;;;;;;;;;4;0;0;;0;0;();();(-2000.0, -2000.0);
12:03:01:196;12:03:01:151;1448277540.8;(0, 0);0;0;;;;;;;;;;;;;;4;0;0;;0;0;();();(-2000.0, -2000.0);
12:03:01:214;12:03:01:151;1448277540.8;(0, 0);0;0;;;;;;;;;;;;;;4;0;0;;0;0;();();(-2000.0, -2000.0);
12:03:01:230;12:03:01:226;1448277540.87;(0.5021151065826416, 0.22799623277452252);30.9175491333;0.611845006425;;;;;;;;;;;;;;4;0;0;;0;0;();();(-2000.0, -2000.0);
12:03:01:247;12:03:01:226;1448277540.87;(0.5021151065826416, 0.22799623277452252);30.9175491333;0.611845006425;;;;;;;;;;;;;;4;0;0;;0;0;();();(-2000.0, -2000.0);
12:03:01:280;12:03:01:226;1448277540.87;(0.5021151065826416, 0.22799623277452252);30.9175491333;0.611845006425;;;;;;;;;;;;;;4;0;0;;0;0;();();(-2000.0, -2000.0);
12:03:01:296;12:03:01:284;1448277540.94;(0, 0);0;0;;;;;;;;;;;;;;4;0;0;;0;0;();();(-2000.0, -2000.0);
12:03:01:313;12:03:01:284;1448277540.94;(0, 0);0;0;;;;;;;;;;;;;;4;0;0;;0;0;();();(-2000.0, -2000.0);
12:03:01:330;12:03:01:284;1448277540.94;(0, 0);0;0;;;;;;;;;;;;;;4;0;0;;0;0;();();(-2000.0, -2000.0);
12:03:01:346;12:03:01:284;1448277540.94;(0, 0);0;0;;;;;;;;;;;;;;4;0;0;;0;0;();();(-2000.0, -2000.0);
12:03:01:380;12:03:01:352;1448277541.0;(0, 0);0;0;;;;;;;;;;;;;;4;0;0;;0;0;();();(-2000.0, -2000.0);
12:03:01:397;12:03:01:352;1448277541.0;(0, 0);0;0;;;;;;;;;;;;;;4;0;0;;0;0;();();(-2000.0, -2000.0);
12:03:01:414;12:03:01:352;1448277541.0;(0, 0);0;0;;;;;;;;;;;;;;4;0;0;;0;0;();();(-2000.0, -2000.0);
12:03:01:430;12:03:01:417;1448277541.07;(0, 0);0;0;;;;;;;;;;;;;;4;0;0;;0;0;();();(-2000.0, -2000.0);
12:03:01:446;12:03:01:417;1448277541.07;(0, 0);0;0;;;;;;;;;;;;;;4;0;0;;0;0;();();(-2000.0, -2000.0);
12:03:01:480;12:03:01:417;1448277541.07;(0, 0);0;0;;;;;;;;;;;;;;4;0;0;;0;0;();();(-2000.0, -2000.0);
12:03:01:497;12:03:01:484;1448277541.14;(0, 0);0;0;;;;;;;;;;;;;;4;0;0;;0;0;();();(-2000.0, -2000.0);
12:03:01:514;12:03:01:484;1448277541.14;(0, 0);0;0;;;;;;;;;;;;;;4;0;0;;0;0;();();(-2000.0, -2000.0);
12:03:01:530;12:03:01:484;1448277541.14;(0, 0);0;0;;;;;;;;;;;;;;4;0;0;;0;0;();();(-2000.0, -2000.0);
12:03:01:547;12:03:01:484;1448277541.14;(0, 0);0;0;;;;;;;;;;;;;;4;0;0;;0;0;();();(-2000.0, -2000.0);
12:03:01:580;12:03:01:549;1448277541.2;(0, 0);0;0;;;;;;;;;;;;;;4;0;0;;0;0;();();(-2000.0, -2000.0);
12:03:01:596;12:03:01:549;1448277541.2;(0, 0);0;0;;;;;;;;;;;;;;4;0;0;;0;0;();();(-2000.0, -2000.0);
12:03:01:613;12:03:01:549;1448277541.2;(0, 0);0;0;;;;;;;;;;;;;;4;0;0;;0;0;();();(-2000.0, -2000.0);
12:03:01:630;12:03:01:618;1448277541.27;(0, 0);0;0;;;;;;;;;;;;;;4;0;0;;0;0;();();(-2000.0, -2000.0);
12:03:01:647;12:03:01:618;1448277541.27;(0, 0);0;0;;;;;;;;;;;;;;4;0;0;;0;0;();();(-2000.0, -2000.0);
12:03:01:680;12:03:01:618;1448277541.27;(0, 0);0;0;;;;;;;;;;;;;;4;0;0;;0;0;();();(-2000.0, -2000.0);
12:03:01:697;12:03:01:618;1448277541.27;(0, 0);0;0;;;;;;;;;;;;;;4;0;0;;0;0;();();(-2000.0, -2000.0);
12:03:01:714;12:03:01:697;1448277541.34;(0, 0);0;0;;;;;;;;;;;;;;4;0;0;;0;0;();();(-2000.0, -2000.0);
12:03:01:731;12:03:01:697;1448277541.34;(0, 0);0;0;;;;;;;;;;;;;;4;0;0;;0;0;();();(-2000.0, -2000.0);
12:03:01:747;12:03:01:697;1448277541.34;(0, 0);0;0;;;;;;;;;;;;;;4;0;0;;0;0;();();(-2000.0, -2000.0);
12:03:01:780;12:03:01:747;1448277541.4;(0, 0);0;0;;;;;;;;;;;;;;4;0;0;;0;0;();();(-2000.0, -2000.0);
12:03:01:797;12:03:01:747;1448277541.4;(0, 0);0;0;;;;;;;;;;;;;;4;0;0;;0;0;();();(-2000.0, -2000.0);
12:03:01:814;12:03:01:747;1448277541.4;(0, 0);0;0;;;;;;;;;;;;;;4;0;0;;0;0;();();(-2000.0, -2000.0);
12:03:01:831;12:03:01:819;1448277541.47;(0.3224722623825073, 0.2002758449978299);21.402431488;0.906551854271;;;;;;;;;;;;;;4;0;0;;0;0;();();(-2000.0, -2000.0);
12:03:01:847;12:03:01:819;1448277541.47;(0.3224722623825073, 0.2002758449978299);21.402431488;0.906551854271;;;;;;;;;;;;;;4;0;0;;0;0;();();(-2000.0, -2000.0);
12:03:01:880;12:03:01:879;1448277541.54;(0, 0);0;0;;;;;;;;;;;;;;4;0;0;;0;0;();();(-2000.0, -2000.0);
12:03:01:897;12:03:01:879;1448277541.54;(0, 0);0;0;;;;;;;;;;;;;;4;0;0;;0;0;();();(-2000.0, -2000.0);
12:03:01:913;12:03:01:879;1448277541.54;(0, 0);0;0;;;;;;;;;;;;;;4;0;0;;0;0;();();(-2000.0, -2000.0);
12:03:01:931;12:03:01:879;1448277541.54;(0, 0);0;0;;;;;;;;;;;;;;4;0;0;;0;0;();();(-2000.0, -2000.0);
12:03:01:947;12:03:01:879;1448277541.54;(0, 0);0;0;;;;;;;;;;;;;;4;0;0;;0;0;();();(-2000.0, -2000.0);
12:03:01:981;12:03:01:948;1448277541.6;(0.6153971195220947, 0.21669989691840275);28.3987731934;0.629924504076;;;;;;;;;;;;;;4;0;0;;0;0;();();(-2000.0, -2000.0);
12:03:01:997;12:03:01:948;1448277541.6;(0.6153971195220947, 0.21669989691840275);28.3987731934;0.629924504076;;;;;;;;;;;;;;4;0;0;;0;0;();();(-2000.0, -2000.0);
12:03:02:013;12:03:01:948;1448277541.6;(0.6153971195220947, 0.21669989691840275);28.3987731934;0.629924504076;;;;;;;;;;;;;;4;0;0;;0;0;();();(-2000.0, -2000.0);
12:03:02:031;12:03:02:021;1448277541.67;(0.32288446426391604, 0.20479838053385413);22.225944519;0.613190527718;;;;;;;;;;;;;;4;0;0;;0;0;();();(-2000.0, -2000.0);
12:03:02:046;12:03:02:021;1448277541.67;(0.32288446426391604, 0.20479838053385413);22.225944519;0.613190527718;;;;;;;;;;;;;;4;0;0;;0;0;();();(-2000.0, -2000.0);
12:03:02:080;12:03:02:079;1448277541.74;(0, 0);0;0;;;;;;;;;;;;;;4;0;0;;0;0;();();(-2000.0, -2000.0);
12:03:02:097;12:03:02:079;1448277541.74;(0, 0);0;0;;;;;;;;;;;;;;4;0;0;;0;0;();();(-2000.0, -2000.0);
12:03:02:114;12:03:02:079;1448277541.74;(0, 0);0;0;;;;;;;;;;;;;;4;0;0;;0;0;();();(-2000.0, -2000.0);
12:03:02:130;12:03:02:079;1448277541.74;(0, 0);0;0;;;;;;;;;;;;;;4;0;0;;0;0;();();(-2000.0, -2000.0);
12:03:02:148;12:03:02:079;1448277541.74;(0, 0);0;0;;;;;;;;;;;;;;4;0;0;;0;0;();();(-2000.0, -2000.0);
12:03:02:181;12:03:02:148;1448277541.8;(0, 0);0;0;;;;;;;;;;;;;;4;0;0;;0;0;();();(-2000.0, -2000.0);
12:03:02:198;12:03:02:148;1448277541.8;(0, 0);0;0;;;;;;;;;;;;;;4;0;0;;0;0;();();(-2000.0, -2000.0);
12:03:02:214;12:03:02:212;1448277541.87;(0.6157511234283447, 0.1872077094184028);35.9761428833;0.608905643316;;;;;;;;;;;;;;4;0;0;;0;0;();();(-2000.0, -2000.0);
12:03:02:230;12:03:02:212;1448277541.87;(0.6157511234283447, 0.1872077094184028);35.9761428833;0.608905643316;;;;;;;;;;;;;;4;0;0;;0;0;();();(-2000.0, -2000.0);
12:03:02:247;12:03:02:212;1448277541.87;(0.6157511234283447, 0.1872077094184028);35.9761428833;0.608905643316;;;;;;;;;;;;;;4;0;0;;0;0;();();(-2000.0, -2000.0);
12:03:02:280;12:03:02:279;1448277541.94;(0, 0);0;0;;;;;;;;;;;;;;4;0;0;;0;0;();();(-2000.0, -2000.0);
12:03:02:298;12:03:02:279;1448277541.94;(0, 0);0;0;;;;;;;;;;;;;;4;0;0;;0;0;();();(-2000.0, -2000.0);
12:03:02:314;12:03:02:279;1448277541.94;(0, 0);0;0;;;;;;;;;;;;;;4;0;0;;0;0;();();(-2000.0, -2000.0);
12:03:02:331;12:03:02:279;1448277541.94;(0, 0);0;0;;;;;;;;;;;;;;4;0;0;;0;0;();();(-2000.0, -2000.0);
12:03:02:348;12:03:02:279;1448277541.94;(0, 0);0;0;;;;;;;;;;;;;;4;0;0;;0;0;();();(-2000.0, -2000.0);
12:03:02:380;12:03:02:348;1448277542.0;(0, 0);0;0;;;;;;;;;;;;;;4;0;0;;0;0;();();(-2000.0, -2000.0);
12:03:02:398;12:03:02:348;1448277542.0;(0, 0);0;0;;;;;;;;;;;;;;4;0;0;;0;0;();();(-2000.0, -2000.0);
12:03:02:414;12:03:02:413;1448277542.07;(0, 0);0;0;;;;;;;;;;;;;;4;0;0;;0;0;();();(-2000.0, -2000.0);
12:03:02:431;12:03:02:413;1448277542.07;(0, 0);0;0;;;;;;;;;;;;;;4;0;0;;0;0;();();(-2000.0, -2000.0);
12:03:02:448;12:03:02:413;1448277542.07;(0, 0);0;0;;;;;;;;;;;;;;4;0;0;;0;0;();();(-2000.0, -2000.0);
12:03:02:481;12:03:02:479;1448277542.14;(0, 0);0;0;;;;;;;;;;;;;;4;0;0;;0;0;();();(-2000.0, -2000.0);
12:03:02:497;12:03:02:479;1448277542.14;(0, 0);0;0;;;;;;;;;;;;;;4;0;0;;0;0;();();(-2000.0, -2000.0);
12:03:02:514;12:03:02:479;1448277542.14;(0, 0);0;0;;;;;;;;;;;;;;4;0;0;;0;0;();();(-2000.0, -2000.0);
12:03:02:531;12:03:02:479;1448277542.14;(0, 0);0;0;;;;;;;;;;;;;;4;0;0;;0;0;();();(-2000.0, -2000.0);
12:03:02:547;12:03:02:543;1448277542.2;(0, 0);0;0;;;;;;;;;;;;;;4;0;0;;0;0;();();(-2000.0, -2000.0);
12:03:02:581;12:03:02:543;1448277542.2;(0, 0);0;0;;;;;;;;;;;;;;4;0;0;;0;0;();();(-2000.0, -2000.0);
12:03:02:597;12:03:02:543;1448277542.2;(0, 0);0;0;;;;;;;;;;;;;;4;0;0;;0;0;();();(-2000.0, -2000.0);
12:03:02:614;12:03:02:613;1448277542.27;(0, 0);0;0;;;;;;;;;;;;;;4;0;0;;0;0;();();(-2000.0, -2000.0);
12:03:02:631;12:03:02:613;1448277542.27;(0, 0);0;0;;;;;;;;;;;;;;4;0;0;;0;0;();();(-2000.0, -2000.0);
12:03:02:648;12:03:02:613;1448277542.27;(0, 0);0;0;;;;;;;;;;;;;;4;0;0;;0;0;();();(-2000.0, -2000.0);
12:03:02:681;12:03:02:676;1448277542.34;(0.31582441329956057, 0.201758066813151);24.3629760742;0.643469293909;;;;;;;;;;;;;;4;0;0;;0;0;();();(-2000.0, -2000.0);
12:03:02:698;12:03:02:676;1448277542.34;(0.31582441329956057, 0.201758066813151);24.3629760742;0.643469293909;;;;;;;;;;;;;;4;0;0;;0;0;();();(-2000.0, -2000.0);
12:03:02:714;12:03:02:676;1448277542.34;(0.31582441329956057, 0.201758066813151);24.3629760742;0.643469293909;;;;;;;;;;;;;;4;0;0;;0;0;();();(-2000.0, -2000.0);
12:03:02:731;12:03:02:676;1448277542.34;(0.31582441329956057, 0.201758066813151);24.3629760742;0.643469293909;;;;;;;;;;;;;;4;0;0;;0;0;();();(-2000.0, -2000.0);
12:03:02:748;12:03:02:745;1448277542.4;(0, 0);0;0;;;;;;;;;;;;;;4;0;0;;0;0;();();(-2000.0, -2000.0);
12:03:02:781;12:03:02:745;1448277542.4;(0, 0);0;0;;;;;;;;;;;;;;4;0;0;;0;0;();();(-2000.0, -2000.0);
12:03:02:797;12:03:02:745;1448277542.4;(0, 0);0;0;;;;;;;;;;;;;;4;0;0;;0;0;();();(-2000.0, -2000.0);
12:03:02:815;12:03:02:814;1448277542.47;(0, 0);0;0;;;;;;;;;;;;;;4;0;0;;0;0;();();(-2000.0, -2000.0);
12:03:02:832;12:03:02:814;1448277542.47;(0, 0);0;0;;;;;;;;;;;;;;4;0;0;;0;0;();();(-2000.0, -2000.0);
12:03:02:848;12:03:02:814;1448277542.47;(0, 0);0;0;;;;;;;;;;;;;;4;0;0;;0;0;();();(-2000.0, -2000.0);
12:03:02:881;12:03:02:876;1448277542.54;(0, 0);0;0;;;;;;;;;;;;;;4;0;0;;0;0;();();(-2000.0, -2000.0);
12:03:02:898;12:03:02:876;1448277542.54;(0, 0);0;0;;;;;;;;;;;;;;4;0;0;;0;0;();();(-2000.0, -2000.0);
12:03:02:914;12:03:02:876;1448277542.54;(0, 0);0;0;;;;;;;;;;;;;;4;0;0;;0;0;();();(-2000.0, -2000.0);
12:03:02:931;12:03:02:876;1448277542.54;(0, 0);0;0;;;;;;;;;;;;;;4;0;0;;0;0;();();(-2000.0, -2000.0);
12:03:02:948;12:03:02:943;1448277542.6;(0, 0);0;0;;;;;;;;;;;;;;4;0;0;;0;0;();();(-2000.0, -2000.0);
12:03:02:981;12:03:02:943;1448277542.6;(0, 0);0;0;;;;;;;;;;;;;;4;0;0;;0;0;();();(-2000.0, -2000.0);
12:03:02:998;12:03:02:943;1448277542.6;(0, 0);0;0;;;;;;;;;;;;;;4;0;0;;0;0;();();(-2000.0, -2000.0);
12:03:03:014;12:03:03:008;1448277542.67;(0, 0);0;0;;;;;;;;;;;;;;4;0;0;;0;0;();();(-2000.0, -2000.0);
12:03:03:031;12:03:03:008;1448277542.67;(0, 0);0;0;;;;;;;;;;;;;;4;0;0;;0;0;();();(-2000.0, -2000.0);
12:03:03:047;12:03:03:008;1448277542.67;(0, 0);0;0;;;;;;;;;;;;;;4;0;0;;0;0;();();(-2000.0, -2000.0);
12:03:03:081;12:03:03:076;1448277542.74;(0, 0);0;0;;;;;;;;;;;;;;4;0;0;;0;0;();();(-2000.0, -2000.0);
12:03:03:098;12:03:03:076;1448277542.74;(0, 0);0;0;;;;;;;;;;;;;;4;0;0;;0;0;();();(-2000.0, -2000.0);
12:03:03:114;12:03:03:076;1448277542.74;(0, 0);0;0;;;;;;;;;;;;;;4;0;0;;0;0;();();(-2000.0, -2000.0);
12:03:03:131;12:03:03:076;1448277542.74;(0, 0);0;0;;;;;;;;;;;;;;4;0;0;;0;0;();();(-2000.0, -2000.0);
12:03:03:148;12:03:03:144;1448277542.8;(0, 0);0;0;;;;;;;;;;;;;;4;0;0;;0;0;();();(-2000.0, -2000.0);
12:03:03:181;12:03:03:144;1448277542.8;(0, 0);0;0;;;;;;;;;;;;;;4;0;0;;0;0;();();(-2000.0, -2000.0);
12:03:03:198;12:03:03:144;1448277542.8;(0, 0);0;0;;;;;;;;;;;;;;4;0;0;;0;0;();();(-2000.0, -2000.0);
12:03:03:214;12:03:03:207;1448277542.87;(0, 0);0;0;;;;;;;;;;;;;;4;0;0;;0;0;();();(-2000.0, -2000.0);
12:03:03:231;12:03:03:207;1448277542.87;(0, 0);0;0;;;;;;;;;;;;;;4;0;0;;0;0;();();(-2000.0, -2000.0);
12:03:03:249;12:03:03:207;1448277542.87;(0, 0);0;0;;;;;;;;;;;;;;4;0;0;;0;0;();();(-2000.0, -2000.0);
12:03:03:282;12:03:03:276;1448277542.94;(0.9189897537231445, 0.07083028157552085);18.3682193756;0.62821001459;;;;;;;;;;;;;;4;0;0;;0;0;();();(-2000.0, -2000.0);
12:03:03:298;12:03:03:276;1448277542.94;(0.9189897537231445, 0.07083028157552085);18.3682193756;0.62821001459;;;;;;;;;;;;;;4;0;0;;0;0;();();(-2000.0, -2000.0);
12:03:03:315;12:03:03:276;1448277542.94;(0.9189897537231445, 0.07083028157552085);18.3682193756;0.62821001459;;;;;;;;;;;;;;4;0;0;;0;0;();();(-2000.0, -2000.0);
12:03:03:332;12:03:03:276;1448277542.94;(0.9189897537231445, 0.07083028157552085);18.3682193756;0.62821001459;;;;;;;;;;;;;;4;0;0;;0;0;();();(-2000.0, -2000.0);
12:03:03:349;12:03:03:340;1448277543.0;(0, 0);0;0;;;;;;;;;;;;;;4;0;0;;0;0;();();(-2000.0, -2000.0);
12:03:03:381;12:03:03:340;1448277543.0;(0, 0);0;0;;;;;;;;;;;;;;4;0;0;;0;0;();();(-2000.0, -2000.0);
12:03:03:399;12:03:03:340;1448277543.0;(0, 0);0;0;;;;;;;;;;;;;;4;0;0;;0;0;();();(-2000.0, -2000.0);
12:03:03:416;12:03:03:409;1448277543.07;(0, 0);0;0;;;;;;;;;;;;;;4;0;0;;0;0;();();(-2000.0, -2000.0);
12:03:03:432;12:03:03:409;1448277543.07;(0, 0);0;0;;;;;;;;;;;;;;4;0;0;;0;0;();();(-2000.0, -2000.0);
12:03:03:449;12:03:03:409;1448277543.07;(0, 0);0;0;;;;;;;;;;;;;;4;0;0;;0;0;();();(-2000.0, -2000.0);
12:03:03:482;12:03:03:476;1448277543.14;(0, 0);0;0;;;;;;;;;;;;;;4;0;0;;0;0;();();(-2000.0, -2000.0);
12:03:03:499;12:03:03:476;1448277543.14;(0, 0);0;0;;;;;;;;;;;;;;4;0;0;;0;0;();();(-2000.0, -2000.0);
12:03:03:515;12:03:03:476;1448277543.14;(0, 0);0;0;;;;;;;;;;;;;;4;0;0;;0;0;();();(-2000.0, -2000.0);
12:03:03:532;12:03:03:476;1448277543.14;(0, 0);0;0;;;;;;;;;;;;;;4;0;0;;0;0;();();(-2000.0, -2000.0);
12:03:03:549;12:03:03:540;1448277543.2;(0, 0);0;0;;;;;;;;;;;;;;4;0;0;;0;0;();();(-2000.0, -2000.0);
12:03:03:582;12:03:03:540;1448277543.2;(0, 0);0;0;;;;;;;;;;;;;;4;0;0;;0;0;();();(-2000.0, -2000.0);
12:03:03:598;12:03:03:540;1448277543.2;(0, 0);0;0;;;;;;;;;;;;;;4;0;0;;0;0;();();(-2000.0, -2000.0);
12:03:03:615;12:03:03:608;1448277543.27;(0, 0);0;0;;;;;;;;;;;;;;4;0;0;;0;0;();();(-2000.0, -2000.0);
12:03:03:632;12:03:03:608;1448277543.27;(0, 0);0;0;;;;;;;;;;;;;;4;0;0;;0;0;();();(-2000.0, -2000.0);
12:03:03:648;12:03:03:608;1448277543.27;(0, 0);0;0;;;;;;;;;;;;;;4;0;0;;0;0;();();(-2000.0, -2000.0);
12:03:03:681;12:03:03:672;1448277543.34;(0, 0);0;0;;;;;;;;;;;;;;4;0;0;;0;0;();();(-2000.0, -2000.0);
12:03:03:699;12:03:03:672;1448277543.34;(0, 0);0;0;;;;;;;;;;;;;;4;0;0;;0;0;();();(-2000.0, -2000.0);
12:03:03:715;12:03:03:672;1448277543.34;(0, 0);0;0;;;;;;;;;;;;;;4;0;0;;0;0;();();(-2000.0, -2000.0);
12:03:03:732;12:03:03:672;1448277543.34;(0, 0);0;0;;;;;;;;;;;;;;4;0;0;;0;0;();();(-2000.0, -2000.0);
12:03:03:749;12:03:03:740;1448277543.4;(0, 0);0;0;;;;;;;;;;;;;;4;0;0;;0;0;();();(-2000.0, -2000.0);
12:03:03:782;12:03:03:740;1448277543.4;(0, 0);0;0;;;;;;;;;;;;;;4;0;0;;0;0;();();(-2000.0, -2000.0);
12:03:03:798;12:03:03:740;1448277543.4;(0, 0);0;0;;;;;;;;;;;;;;4;0;0;;0;0;();();(-2000.0, -2000.0);
12:03:03:816;12:03:03:808;1448277543.47;(0, 0);0;0;;;;;;;;;;;;;;4;0;0;;0;0;();();(-2000.0, -2000.0);
12:03:03:832;12:03:03:808;1448277543.47;(0, 0);0;0;;;;;;;;;;;;;;4;0;0;;0;0;();();(-2000.0, -2000.0);
12:03:03:849;12:03:03:808;1448277543.47;(0, 0);0;0;;;;;;;;;;;;;;4;0;0;;0;0;();();(-2000.0, -2000.0);
12:03:03:866;12:03:03:808;1448277543.47;(0, 0);0;0;;;;;;;;;;;;;;4;0;0;;0;0;();();(-2000.0, -2000.0);
12:03:03:899;12:03:03:872;1448277543.54;(0, 0);0;0;;;;;;;;;;;;;;4;0;0;;0;0;();();(-2000.0, -2000.0);
12:03:03:916;12:03:03:872;1448277543.54;(0, 0);0;0;;;;;;;;;;;;;;4;0;0;;0;0;();();(-2000.0, -2000.0);
12:03:03:933;12:03:03:872;1448277543.54;(0, 0);0;0;;;;;;;;;;;;;;6;0;0;;0;0;();();(-2000.0, -2000.0);
12:03:03:949;12:03:03:941;1448277543.6;(0, 0);0;0;;;;;;;;;;;;;;6;0;0;;0;0;();();(-2000.0, -2000.0);
12:03:03:981;12:03:03:941;1448277543.6;(0, 0);0;0;;;;;;;;;;;;;;6;0;0;;0;0;();();(-2000.0, -2000.0);
12:03:03:999;12:03:03:941;1448277543.6;(0, 0);0;0;;;;;;;;;;;;;;6;0;0;;0;0;();();(-2000.0, -2000.0);
12:03:04:016;12:03:04:004;1448277543.67;(0, 0);0;0;;;;;;;;;;;;;;6;0;0;;0;0;();();(-2000.0, -2000.0);
12:03:04:032;12:03:04:004;1448277543.67;(0, 0);0;0;;;;;;;;;;;;;;6;0;0;;0;0;();();(-2000.0, -2000.0);
12:03:04:048;12:03:04:004;1448277543.67;(0, 0);0;0;;;;;;;;;;;;;;6;0;0;;0;0;();();(-2000.0, -2000.0);
12:03:04:066;12:03:04:004;1448277543.67;(0, 0);0;0;;;;;;;;;;;;;;6;0;0;;0;0;();();(-2000.0, -2000.0);
12:03:04:099;12:03:04:071;1448277543.74;(0, 0);0;0;;;;;;;;;;;;;;6;0;0;;0;0;();();(-2000.0, -2000.0);
12:03:04:116;12:03:04:071;1448277543.74;(0, 0);0;0;;;;;;;;;;;;;;6;0;0;;0;0;();();(-2000.0, -2000.0);
12:03:04:133;12:03:04:071;1448277543.74;(0, 0);0;0;;;;;;;;;;;;;;6;0;0;;0;0;();();(-2000.0, -2000.0);
12:03:04:149;12:03:04:071;1448277543.74;(0, 0);0;0;;;;;;;;;;;;;;6;0;0;;0;0;();();(-2000.0, -2000.0);
12:03:04:167;12:03:04:153;1448277543.8;(0, 0);0;0;;;;;;;;;;;;;;6;0;0;;0;0;();();(-2000.0, -2000.0);
12:03:04:199;12:03:04:153;1448277543.8;(0, 0);0;0;;;;;;;;;;;;;;6;0;0;;0;0;();();(-2000.0, -2000.0);
12:03:04:215;12:03:04:203;1448277543.87;(0, 0);0;0;;;;;;;;;;;;;;6;0;0;;0;0;();();(-2000.0, -2000.0);
12:03:04:233;12:03:04:203;1448277543.87;(0, 0);0;0;;;;;;;;;;;;;;6;0;0;;0;0;();();(-2000.0, -2000.0);
12:03:04:249;12:03:04:203;1448277543.87;(0, 0);0;0;;;;;;;;;;;;;;6;0;0;;0;0;();();(-2000.0, -2000.0);
12:03:04:266;12:03:04:203;1448277543.87;(0, 0);0;0;;;;;;;;;;;;;;6;0;0;;0;0;();();(-2000.0, -2000.0);
12:03:04:299;12:03:04:271;1448277543.94;(0, 0);0;0;;;;;;;;;;;;;;6;0;0;;0;0;();();(-2000.0, -2000.0);
12:03:04:315;12:03:04:271;1448277543.94;(0, 0);0;0;;;;;;;;;;;;;;6;0;0;;0;0;();();(-2000.0, -2000.0);
12:03:04:333;12:03:04:271;1448277543.94;(0, 0);0;0;;;;;;;;;;;;;;6;0;0;;0;0;();();(-2000.0, -2000.0);
12:03:04:350;12:03:04:336;1448277544.0;(0, 0);0;0;;;;;;;;;;;;;;6;0;0;;0;0;();();(-2000.0, -2000.0);
12:03:04:383;12:03:04:336;1448277544.0;(0, 0);0;0;;;;;;;;;;;;;;6;0;0;;0;0;();();(-2000.0, -2000.0);
12:03:04:399;12:03:04:336;1448277544.0;(0, 0);0;0;;;;;;;;;;;;;;6;0;0;;0;0;();();(-2000.0, -2000.0);
12:03:04:416;12:03:04:406;1448277544.07;(0, 0);0;0;;;;;;;;;;;;;;6;0;0;;0;0;();();(-2000.0, -2000.0);
12:03:04:432;12:03:04:406;1448277544.07;(0, 0);0;0;;;;;;;;;;;;;;6;0;0;;0;0;();();(-2000.0, -2000.0);
12:03:04:449;12:03:04:406;1448277544.07;(0, 0);0;0;;;;;;;;;;;;;;6;0;0;;0;0;();();(-2000.0, -2000.0);
12:03:04:466;12:03:04:406;1448277544.07;(0, 0);0;0;;;;;;;;;;;;;;6;0;0;;0;0;();();(-2000.0, -2000.0);
12:03:04:500;12:03:04:492;1448277544.14;(0, 0);0;0;;;;;;;;;;;;;;6;0;0;;0;0;();();(-2000.0, -2000.0);
12:03:04:516;12:03:04:492;1448277544.14;(0, 0);0;0;;;;;;;;;;;;;;6;0;0;;0;0;();();(-2000.0, -2000.0);
12:03:04:532;12:03:04:492;1448277544.14;(0, 0);0;0;;;;;;;;;;;;;;6;0;0;;0;0;();();(-2000.0, -2000.0);
12:03:04:550;12:03:04:535;1448277544.2;(0, 0);0;0;;;;;;;;;;;;;;6;0;0;;0;0;();();(-2000.0, -2000.0);
12:03:04:566;12:03:04:535;1448277544.2;(0, 0);0;0;;;;;;;;;;;;;;6;0;0;;0;0;();();(-2000.0, -2000.0);
12:03:04:599;12:03:04:535;1448277544.2;(0, 0);0;0;;;;;;;;;;;;;;6;0;0;;0;0;();();(-2000.0, -2000.0);
12:03:04:617;12:03:04:604;1448277544.27;(0.3300304412841797, 0.20819447835286453);34.2839698792;0.602290865833;;;;;;;;;;;;;;6;0;0;;0;0;();();(-2000.0, -2000.0);
12:03:04:633;12:03:04:604;1448277544.27;(0.3300304412841797, 0.20819447835286453);34.2839698792;0.602290865833;;;;;;;;;;;;;;6;0;0;;0;0;();();(-2000.0, -2000.0);
12:03:04:650;12:03:04:604;1448277544.27;(0.3300304412841797, 0.20819447835286453);34.2839698792;0.602290865833;;;;;;;;;;;;;;6;0;0;;0;0;();();(-2000.0, -2000.0);
12:03:04:666;12:03:04:604;1448277544.27;(0.3300304412841797, 0.20819447835286453);34.2839698792;0.602290865833;;;;;;;;;;;;;;6;0;0;;0;0;();();(-2000.0, -2000.0);
12:03:04:700;12:03:04:668;1448277544.34;(0, 0);0;0;;;;;;;;;;;;;;6;0;0;;0;0;();();(-2000.0, -2000.0);
12:03:04:716;12:03:04:668;1448277544.34;(0, 0);0;0;;;;;;;;;;;;;;6;0;0;;0;0;();();(-2000.0, -2000.0);
12:03:04:733;12:03:04:668;1448277544.34;(0, 0);0;0;;;;;;;;;;;;;;6;0;0;;0;0;();();(-2000.0, -2000.0);
12:03:04:749;12:03:04:737;1448277544.4;(0, 0);0;0;;;;;;;;;;;;;;6;0;0;;0;0;();();(-2000.0, -2000.0);
12:03:04:766;12:03:04:737;1448277544.4;(0, 0);0;0;;;;;;;;;;;;;;6;0;0;;0;0;();();(-2000.0, -2000.0);
12:03:04:799;12:03:04:737;1448277544.4;(0, 0);0;0;;;;;;;;;;;;;;6;0;0;;0;0;();();(-2000.0, -2000.0);
12:03:04:816;12:03:04:804;1448277544.47;(0.6156710624694824, 0.17565663655598962);39.5530776978;0.652815673609;;;;;;;;;;;;;;6;0;0;;0;0;();();(-2000.0, -2000.0);
12:03:04:833;12:03:04:804;1448277544.47;(0.6156710624694824, 0.17565663655598962);39.5530776978;0.652815673609;;;;;;;;;;;;;;6;0;0;;0;0;();();(-2000.0, -2000.0);
12:03:04:850;12:03:04:804;1448277544.47;(0.6156710624694824, 0.17565663655598962);39.5530776978;0.652815673609;;;;;;;;;;;;;;6;0;0;;0;0;();();(-2000.0, -2000.0);
12:03:04:866;12:03:04:804;1448277544.47;(0.6156710624694824, 0.17565663655598962);39.5530776978;0.652815673609;;;;;;;;;;;;;;6;0;0;;0;0;();();(-2000.0, -2000.0);
12:03:04:899;12:03:04:868;1448277544.54;(0.3221141815185547, 0.20612970987955725);26.3409938812;0.738740241842;;;;;;;;;;;;;;6;0;0;;0;0;();();(-2000.0, -2000.0);
12:03:04:916;12:03:04:868;1448277544.54;(0.3221141815185547, 0.20612970987955725);26.3409938812;0.738740241842;;;;;;;;;;;;;;6;0;0;;0;0;();();(-2000.0, -2000.0);
12:03:04:933;12:03:04:868;1448277544.54;(0.3221141815185547, 0.20612970987955725);26.3409938812;0.738740241842;;;;;;;;;;;;;;6;0;0;;0;0;();();(-2000.0, -2000.0);
12:03:04:949;12:03:04:935;1448277544.6;(0, 0);0;0;;;;;;;;;;;;;;6;0;0;;0;0;();();(-2000.0, -2000.0);
12:03:04:966;12:03:04:935;1448277544.6;(0, 0);0;0;;;;;;;;;;;;;;6;0;0;;0;0;();();(-2000.0, -2000.0);
12:03:04:999;12:03:04:935;1448277544.6;(0, 0);0;0;;;;;;;;;;;;;;6;0;0;;0;0;();();(-2000.0, -2000.0);
12:03:05:017;12:03:05:000;1448277544.67;(0, 0);0;0;;;;;;;;;;;;;;6;0;0;;0;0;();();(-2000.0, -2000.0);
12:03:05:034;12:03:05:000;1448277544.67;(0, 0);0;0;;;;;;;;;;;;;;6;0;0;;0;0;();();(-2000.0, -2000.0);
12:03:05:050;12:03:05:000;1448277544.67;(0, 0);0;0;;;;;;;;;;;;;;6;0;0;;0;0;();();(-2000.0, -2000.0);
12:03:05:067;12:03:05:000;1448277544.67;(0, 0);0;0;;;;;;;;;;;;;;6;0;0;;0;0;();();(-2000.0, -2000.0);
12:03:05:100;12:03:05:068;1448277544.74;(0, 0);0;0;;;;;;;;;;;;;;6;0;0;;0;0;();();(-2000.0, -2000.0);
12:03:05:116;12:03:05:068;1448277544.74;(0, 0);0;0;;;;;;;;;;;;;;6;0;0;;0;0;();();(-2000.0, -2000.0);
12:03:05:133;12:03:05:068;1448277544.74;(0, 0);0;0;;;;;;;;;;;;;;6;0;0;;0;0;();();(-2000.0, -2000.0);
12:03:05:150;12:03:05:135;1448277544.8;(0, 0);0;0;;;;;;;;;;;;;;6;0;0;;0;0;();();(-2000.0, -2000.0);
12:03:05:168;12:03:05:135;1448277544.8;(0, 0);0;0;;;;;;;;;;;;;;6;0;0;;0;0;();();(-2000.0, -2000.0);
12:03:05:199;12:03:05:135;1448277544.8;(0, 0);0;0;;;;;;;;;;;;;;6;0;0;;0;0;();();(-2000.0, -2000.0);
12:03:05:217;12:03:05:203;1448277544.87;(0, 0);0;0;;;;;;;;;;;;;;6;0;0;;0;0;();();(-2000.0, -2000.0);
12:03:05:234;12:03:05:203;1448277544.87;(0, 0);0;0;;;;;;;;;;;;;;6;0;0;;0;0;();();(-2000.0, -2000.0);
12:03:05:250;12:03:05:203;1448277544.87;(0, 0);0;0;;;;;;;;;;;;;;6;0;0;;0;0;();();(-2000.0, -2000.0);
12:03:05:267;12:03:05:203;1448277544.87;(0, 0);0;0;;;;;;;;;;;;;;6;0;0;;0;0;();();(-2000.0, -2000.0);
12:03:05:300;12:03:05:267;1448277544.94;(0, 0);0;0;;;;;;;;;;;;;;6;0;0;;0;0;();();(-2000.0, -2000.0);
12:03:05:317;12:03:05:267;1448277544.94;(0, 0);0;0;;;;;;;;;;;;;;6;0;0;;0;0;();();(-2000.0, -2000.0);
12:03:05:334;12:03:05:334;1448277545.0;(0, 0);0;0;;;;;;;;;;;;;;6;0;0;;0;0;();();(-2000.0, -2000.0);
12:03:05:351;12:03:05:334;1448277545.0;(0, 0);0;0;;;;;;;;;;;;;;6;0;0;;0;0;();();(-2000.0, -2000.0);
12:03:05:366;12:03:05:334;1448277545.0;(0, 0);0;0;;;;;;;;;;;;;;6;0;0;;0;0;();();(-2000.0, -2000.0);
12:03:05:400;12:03:05:334;1448277545.0;(0, 0);0;0;;;;;;;;;;;;;;6;0;0;;0;0;();();(-2000.0, -2000.0);
12:03:05:417;12:03:05:402;1448277545.07;(0, 0);0;0;;;;;;;;;;;;;;6;0;0;;0;0;();();(-2000.0, -2000.0);
12:03:05:434;12:03:05:402;1448277545.07;(0, 0);0;0;;;;;;;;;;;;;;6;0;0;;0;0;();();(-2000.0, -2000.0);
12:03:05:450;12:03:05:402;1448277545.07;(0, 0);0;0;;;;;;;;;;;;;;6;0;0;;0;0;();();(-2000.0, -2000.0);
12:03:05:467;12:03:05:402;1448277545.07;(0, 0);0;0;;;;;;;;;;;;;;6;0;0;;0;0;();();(-2000.0, -2000.0);
12:03:05:501;12:03:05:468;1448277545.14;(0, 0);0;0;;;;;;;;;;;;;;6;0;0;;0;0;();();(-2000.0, -2000.0);
12:03:05:517;12:03:05:468;1448277545.14;(0, 0);0;0;;;;;;;;;;;;;;6;0;0;;0;0;();();(-2000.0, -2000.0);
12:03:05:534;12:03:05:532;1448277545.2;(0.520641565322876, 0.18784400092230902);23.9786567688;0.693333163507;;;;;;;;;;;;;;6;0;0;;0;0;();();(-2000.0, -2000.0);
12:03:05:550;12:03:05:532;1448277545.2;(0.520641565322876, 0.18784400092230902);23.9786567688;0.693333163507;;;;;;;;;;;;;;6;0;0;;0;0;();();(-2000.0, -2000.0);
12:03:05:567;12:03:05:532;1448277545.2;(0.520641565322876, 0.18784400092230902);23.9786567688;0.693333163507;;;;;;;;;;;;;;6;0;0;;0;0;();();(-2000.0, -2000.0);
12:03:05:600;12:03:05:532;1448277545.2;(0.520641565322876, 0.18784400092230902);23.9786567688;0.693333163507;;;;;;;;;;;;;;6;0;0;;0;0;();();(-2000.0, -2000.0);
12:03:05:617;12:03:05:608;1448277545.27;(0, 0);0;0;;;;;;;;;;;;;;6;0;0;;0;0;();();(-2000.0, -2000.0);
12:03:05:634;12:03:05:608;1448277545.27;(0, 0);0;0;;;;;;;;;;;;;;6;0;0;;0;0;();();(-2000.0, -2000.0);
12:03:05:650;12:03:05:608;1448277545.27;(0, 0);0;0;;;;;;;;;;;;;;6;0;0;;0;0;();();(-2000.0, -2000.0);
12:03:05:667;12:03:05:666;1448277545.34;(0, 0);0;0;;;;;;;;;;;;;;6;0;0;;0;0;();();(-2000.0, -2000.0);
12:03:05:701;12:03:05:666;1448277545.34;(0, 0);0;0;;;;;;;;;;;;;;6;0;0;;0;0;();();(-2000.0, -2000.0);
12:03:05:717;12:03:05:666;1448277545.34;(0, 0);0;0;;;;;;;;;;;;;;6;0;0;;0;0;();();(-2000.0, -2000.0);
12:03:05:734;12:03:05:731;1448277545.4;(0, 0);0;0;;;;;;;;;;;;;;6;0;0;;0;0;();();(-2000.0, -2000.0);
12:03:05:750;12:03:05:731;1448277545.4;(0, 0);0;0;;;;;;;;;;;;;;6;0;0;;0;0;();();(-2000.0, -2000.0);
12:03:05:767;12:03:05:731;1448277545.4;(0, 0);0;0;;;;;;;;;;;;;;6;0;0;;0;0;();();(-2000.0, -2000.0);
12:03:05:802;12:03:05:796;1448277545.47;(0, 0);0;0;;;;;;;;;;;;;;6;0;0;;0;0;();();(-2000.0, -2000.0);
12:03:05:818;12:03:05:796;1448277545.47;(0, 0);0;0;;;;;;;;;;;;;;6;0;0;;0;0;();();(-2000.0, -2000.0);
12:03:05:834;12:03:05:796;1448277545.47;(0, 0);0;0;;;;;;;;;;;;;;6;0;0;;0;0;();();(-2000.0, -2000.0);
12:03:05:851;12:03:05:796;1448277545.47;(0, 0);0;0;;;;;;;;;;;;;;6;0;0;;0;0;();();(-2000.0, -2000.0);
12:03:05:867;12:03:05:864;1448277545.54;(0, 0);0;0;;;;;;;;;;;;;;6;0;0;;0;0;();();(-2000.0, -2000.0);
12:03:05:901;12:03:05:864;1448277545.54;(0, 0);0;0;;;;;;;;;;;;;;6;0;0;;0;0;();();(-2000.0, -2000.0);
12:03:05:917;12:03:05:864;1448277545.54;(0, 0);0;0;;;;;;;;;;;;;;6;0;0;;0;0;();();(-2000.0, -2000.0);
12:03:05:934;12:03:05:932;1448277545.6;(0, 0);0;0;;;;;;;;;;;;;;6;0;0;;0;0;();();(-2000.0, -2000.0);
12:03:05:951;12:03:05:932;1448277545.6;(0, 0);0;0;;;;;;;;;;;;;;6;0;0;;0;0;();();(-2000.0, -2000.0);
12:03:05:967;12:03:05:932;1448277545.6;(0, 0);0;0;;;;;;;;;;;;;;6;0;0;;0;0;();();(-2000.0, -2000.0);
12:03:06:001;12:03:05:996;1448277545.67;(0, 0);0;0;;;;;;;;;;;;;;6;0;0;;0;0;();();(-2000.0, -2000.0);
12:03:06:017;12:03:05:996;1448277545.67;(0, 0);0;0;;;;;;;;;;;;;;6;0;0;;0;0;();();(-2000.0, -2000.0);
12:03:06:034;12:03:05:996;1448277545.67;(0, 0);0;0;;;;;;;;;;;;;;6;0;0;;0;0;();();(-2000.0, -2000.0);
12:03:06:051;12:03:05:996;1448277545.67;(0, 0);0;0;;;;;;;;;;;;;;6;0;0;;0;0;();();(-2000.0, -2000.0);
12:03:06:068;12:03:06:064;1448277545.74;(0, 0);0;0;;;;;;;;;;;;;;6;0;0;;0;0;();();(-2000.0, -2000.0);
12:03:06:101;12:03:06:064;1448277545.74;(0, 0);0;0;;;;;;;;;;;;;;6;0;0;;0;0;();();(-2000.0, -2000.0);
12:03:06:117;12:03:06:064;1448277545.74;(0, 0);0;0;;;;;;;;;;;;;;6;0;0;;0;0;();();(-2000.0, -2000.0);
12:03:06:134;12:03:06:128;1448277545.8;(0, 0);0;0;;;;;;;;;;;;;;6;0;0;;0;0;();();(-2000.0, -2000.0);
12:03:06:150;12:03:06:128;1448277545.8;(0, 0);0;0;;;;;;;;;;;;;;6;0;0;;0;0;();();(-2000.0, -2000.0);
12:03:06:168;12:03:06:128;1448277545.8;(0, 0);0;0;;;;;;;;;;;;;;6;0;0;;0;0;();();(-2000.0, -2000.0);
12:03:06:200;12:03:06:196;1448277545.87;(0, 0);0;0;;;;;;;;;;;;;;6;0;0;;0;0;();();(-2000.0, -2000.0);
12:03:06:218;12:03:06:196;1448277545.87;(0, 0);0;0;;;;;;;;;;;;;;6;0;0;;0;0;();();(-2000.0, -2000.0);
12:03:06:234;12:03:06:196;1448277545.87;(0, 0);0;0;;;;;;;;;;;;;;6;0;0;;0;0;();();(-2000.0, -2000.0);
12:03:06:251;12:03:06:196;1448277545.87;(0, 0);0;0;;;;;;;;;;;;;;6;0;0;;0;0;();();(-2000.0, -2000.0);
12:03:06:268;12:03:06:263;1448277545.94;(0.32507905960083006, 0.20742001003689237);27.9658985138;0.715058678892;;;;;;;;;;;;;;6;0;0;;0;0;();();(-2000.0, -2000.0);
12:03:06:300;12:03:06:263;1448277545.94;(0.32507905960083006, 0.20742001003689237);27.9658985138;0.715058678892;;;;;;;;;;;;;;6;0;0;;0;0;();();(-2000.0, -2000.0);
12:03:06:318;12:03:06:263;1448277545.94;(0.32507905960083006, 0.20742001003689237);27.9658985138;0.715058678892;;;;;;;;;;;;;;6;0;0;;0;0;();();(-2000.0, -2000.0);
12:03:06:334;12:03:06:328;1448277546.0;(0, 0);0;0;;;;;;;;;;;;;;6;0;0;;0;0;();();(-2000.0, -2000.0);
12:03:06:351;12:03:06:328;1448277546.0;(0, 0);0;0;;;;;;;;;;;;;;6;0;0;;0;0;();();(-2000.0, -2000.0);
12:03:06:367;12:03:06:328;1448277546.0;(0, 0);0;0;;;;;;;;;;;;;;6;0;0;;0;0;();();(-2000.0, -2000.0);
12:03:06:402;12:03:06:328;1448277546.0;(0, 0);0;0;;;;;;;;;;;;;;6;0;0;;0;0;();();(-2000.0, -2000.0);
12:03:06:418;12:03:06:403;1448277546.07;(0, 0);0;0;;;;;;;;;;;;;;6;0;0;;0;0;();();(-2000.0, -2000.0);
12:03:06:435;12:03:06:403;1448277546.07;(0, 0);0;0;;;;;;;;;;;;;;6;0;0;;0;0;();();(-2000.0, -2000.0);
12:03:06:451;12:03:06:403;1448277546.07;(0, 0);0;0;;;;;;;;;;;;;;6;0;0;;0;0;();();(-2000.0, -2000.0);
12:03:06:468;12:03:06:460;1448277546.14;(0.8940963745117188, 0.27486402723524306);28.7528400421;0.611025213393;;;;;;;;;;;;;;6;0;0;;0;0;();();(-2000.0, -2000.0);
12:03:06:501;12:03:06:460;1448277546.14;(0.8940963745117188, 0.27486402723524306);28.7528400421;0.611025213393;;;;;;;;;;;;;;6;0;0;;0;0;();();(-2000.0, -2000.0);
12:03:06:517;12:03:06:460;1448277546.14;(0.8940963745117188, 0.27486402723524306);28.7528400421;0.611025213393;;;;;;;;;;;;;;6;0;0;;0;0;();();(-2000.0, -2000.0);
12:03:06:535;12:03:06:528;1448277546.2;(0.3208869457244873, 0.20176196628146703);26.8743629456;0.829253163545;;;;;;;;;;;;;;6;0;0;;0;0;();();(-2000.0, -2000.0);
12:03:06:551;12:03:06:528;1448277546.2;(0.3208869457244873, 0.20176196628146703);26.8743629456;0.829253163545;;;;;;;;;;;;;;6;0;0;;0;0;();();(-2000.0, -2000.0);
12:03:06:568;12:03:06:528;1448277546.2;(0.3208869457244873, 0.20176196628146703);26.8743629456;0.829253163545;;;;;;;;;;;;;;6;0;0;;0;0;();();(-2000.0, -2000.0);
12:03:06:601;12:03:06:596;1448277546.27;(0, 0);0;0;;;;;;;;;;;;;;6;0;0;;0;0;();();(-2000.0, -2000.0);
12:03:06:618;12:03:06:596;1448277546.27;(0, 0);0;0;;;;;;;;;;;;;;6;0;0;;0;0;();();(-2000.0, -2000.0);
12:03:06:635;12:03:06:596;1448277546.27;(0, 0);0;0;;;;;;;;;;;;;;6;0;0;;0;0;();();(-2000.0, -2000.0);
12:03:06:651;12:03:06:596;1448277546.27;(0, 0);0;0;;;;;;;;;;;;;;6;0;0;;0;0;();();(-2000.0, -2000.0);
12:03:06:667;12:03:06:660;1448277546.34;(0, 0);0;0;;;;;;;;;;;;;;6;0;0;;0;0;();();(-2000.0, -2000.0);
12:03:06:701;12:03:06:660;1448277546.34;(0, 0);0;0;;;;;;;;;;;;;;6;0;0;;0;0;();();(-2000.0, -2000.0);
12:03:06:717;12:03:06:660;1448277546.34;(0, 0);0;0;;;;;;;;;;;;;;6;0;0;;0;0;();();(-2000.0, -2000.0);
12:03:06:735;12:03:06:729;1448277546.4;(0, 0);0;0;;;;;;;;;;;;;;6;0;0;;0;0;();();(-2000.0, -2000.0);
12:03:06:751;12:03:06:729;1448277546.4;(0, 0);0;0;;;;;;;;;;;;;;6;0;0;;0;0;();();(-2000.0, -2000.0);
12:03:06:768;12:03:06:729;1448277546.4;(0, 0);0;0;;;;;;;;;;;;;;6;0;0;;0;0;();();(-2000.0, -2000.0);
12:03:06:802;12:03:06:792;1448277546.47;(0, 0);0;0;;;;;;;;;;;;;;6;0;0;;0;0;();();(-2000.0, -2000.0);
12:03:06:818;12:03:06:792;1448277546.47;(0, 0);0;0;;;;;;;;;;;;;;6;0;0;;0;0;();();(-2000.0, -2000.0);
12:03:06:834;12:03:06:792;1448277546.47;(0, 0);0;0;;;;;;;;;;;;;;6;0;0;;0;0;();();(-2000.0, -2000.0);
12:03:06:851;12:03:06:792;1448277546.47;(0, 0);0;0;;;;;;;;;;;;;;6;0;0;;0;0;();();(-2000.0, -2000.0);
12:03:06:868;12:03:06:860;1448277546.54;(0, 0);0;0;;;;;;;;;;;;;;6;0;0;;0;0;();();(-2000.0, -2000.0);
12:03:06:901;12:03:06:860;1448277546.54;(0, 0);0;0;;;;;;;;;;;;;;6;0;0;;0;0;();();(-2000.0, -2000.0);
12:03:06:918;12:03:06:860;1448277546.54;(0, 0);0;0;;;;;;;;;;;;;;6;0;0;;0;0;();();(-2000.0, -2000.0);
12:03:06:935;12:03:06:928;1448277546.6;(0, 0);0;0;;;;;;;;;;;;;;6;0;0;;0;0;();();(-2000.0, -2000.0);
12:03:06:952;12:03:06:928;1448277546.6;(0, 0);0;0;;;;;;;;;;;;;;6;0;0;;0;0;();();(-2000.0, -2000.0);
12:03:06:968;12:03:06:928;1448277546.6;(0, 0);0;0;;;;;;;;;;;;;;6;0;0;;0;0;();();(-2000.0, -2000.0);
12:03:07:001;12:03:06:991;1448277546.67;(0, 0);0;0;;;;;;;;;;;;;;6;0;0;;0;0;();();(-2000.0, -2000.0);
12:03:07:018;12:03:06:991;1448277546.67;(0, 0);0;0;;;;;;;;;;;;;;6;0;0;;0;0;();();(-2000.0, -2000.0);
12:03:07:035;12:03:06:991;1448277546.67;(0, 0);0;0;;;;;;;;;;;;;;6;0;0;;0;0;();();(-2000.0, -2000.0);
12:03:07:051;12:03:06:991;1448277546.67;(0, 0);0;0;;;;;;;;;;;;;;6;0;0;;0;0;();();(-2000.0, -2000.0);
12:03:07:068;12:03:07:060;1448277546.74;(0, 0);0;0;;;;;;;;;;;;;;6;0;0;;0;0;();();(-2000.0, -2000.0);
12:03:07:101;12:03:07:060;1448277546.74;(0, 0);0;0;;;;;;;;;;;;;;6;0;0;;0;0;();();(-2000.0, -2000.0);
12:03:07:118;12:03:07:060;1448277546.74;(0, 0);0;0;;;;;;;;;;;;;;6;0;0;;0;0;();();(-2000.0, -2000.0);
12:03:07:135;12:03:07:123;1448277546.8;(0, 0);0;0;;;;;;;;;;;;;;6;0;0;;0;0;();();(-2000.0, -2000.0);
12:03:07:151;12:03:07:123;1448277546.8;(0, 0);0;0;;;;;;;;;;;;;;6;0;0;;0;0;();();(-2000.0, -2000.0);
12:03:07:168;12:03:07:123;1448277546.8;(0, 0);0;0;;;;;;;;;;;;;;6;0;0;;0;0;();();(-2000.0, -2000.0);
12:03:07:201;12:03:07:191;1448277546.87;(0, 0);0;0;;;;;;;;;;;;;;6;0;0;;0;0;();();(-2000.0, -2000.0);
12:03:07:219;12:03:07:191;1448277546.87;(0, 0);0;0;;;;;;;;;;;;;;6;0;0;;0;0;();();(-2000.0, -2000.0);
12:03:07:235;12:03:07:191;1448277546.87;(0, 0);0;0;;;;;;;;;;;;;;6;0;0;;0;0;();();(-2000.0, -2000.0);
12:03:07:252;12:03:07:191;1448277546.87;(0, 0);0;0;;;;;;;;;;;;;;6;0;0;;0;0;();();(-2000.0, -2000.0);
12:03:07:269;12:03:07:260;1448277546.94;(0, 0);0;0;;;;;;;;;;;;;;6;0;0;;0;0;();();(-2000.0, -2000.0);
12:03:07:301;12:03:07:260;1448277546.94;(0, 0);0;0;;;;;;;;;;;;;;6;0;0;;0;0;();();(-2000.0, -2000.0);
12:03:07:318;12:03:07:260;1448277546.94;(0, 0);0;0;;;;;;;;;;;;;;6;0;0;;0;0;();();(-2000.0, -2000.0);
12:03:07:335;12:03:07:323;1448277547.0;(0.3200616121292114, 0.20288365681966147);19.8421363831;0.745195843821;;;;;;;;;;;;;;6;0;0;;0;0;();();(-2000.0, -2000.0);
12:03:07:352;12:03:07:323;1448277547.0;(0.3200616121292114, 0.20288365681966147);19.8421363831;0.745195843821;;;;;;;;;;;;;;6;0;0;;0;0;();();(-2000.0, -2000.0);
12:03:07:369;12:03:07:323;1448277547.0;(0.3200616121292114, 0.20288365681966147);19.8421363831;0.745195843821;;;;;;;;;;;;;;6;0;0;;0;0;();();(-2000.0, -2000.0);
12:03:07:402;12:03:07:392;1448277547.07;(0, 0);0;0;;;;;;;;;;;;;;6;0;0;;0;0;();();(-2000.0, -2000.0);
12:03:07:419;12:03:07:392;1448277547.07;(0, 0);0;0;;;;;;;;;;;;;;6;0;0;;0;0;();();(-2000.0, -2000.0);
12:03:07:435;12:03:07:392;1448277547.07;(0, 0);0;0;;;;;;;;;;;;;;6;0;0;;0;0;();();(-2000.0, -2000.0);
12:03:07:451;12:03:07:392;1448277547.07;(0, 0);0;0;;;;;;;;;;;;;;6;0;0;;0;0;();();(-2000.0, -2000.0);
12:03:07:469;12:03:07:456;1448277547.14;(0, 0);0;0;;;;;;;;;;;;;;6;0;0;;0;0;();();(-2000.0, -2000.0);
12:03:07:485;12:03:07:456;1448277547.14;(0, 0);0;0;;;;;;;;;;;;;;6;0;0;;0;0;();();(-2000.0, -2000.0);
12:03:07:519;12:03:07:456;1448277547.14;(0, 0);0;0;;;;;;;;;;;;;;6;0;0;;0;0;();();(-2000.0, -2000.0);
12:03:07:535;12:03:07:524;1448277547.2;(0, 0);0;0;;;;;;;;;;;;;;6;0;0;;0;0;();();(-2000.0, -2000.0);
12:03:07:552;12:03:07:524;1448277547.2;(0, 0);0;0;;;;;;;;;;;;;;6;0;0;;0;0;();();(-2000.0, -2000.0);
12:03:07:568;12:03:07:524;1448277547.2;(0, 0);0;0;;;;;;;;;;;;;;6;0;0;;0;0;();();(-2000.0, -2000.0);
12:03:07:602;12:03:07:592;1448277547.27;(0, 0);0;0;;;;;;;;;;;;;;6;0;0;;0;0;();();(-2000.0, -2000.0);
12:03:07:619;12:03:07:592;1448277547.27;(0, 0);0;0;;;;;;;;;;;;;;6;0;0;;0;0;();();(-2000.0, -2000.0);
12:03:07:635;12:03:07:592;1448277547.27;(0, 0);0;0;;;;;;;;;;;;;;6;0;0;;0;0;();();(-2000.0, -2000.0);
12:03:07:653;12:03:07:592;1448277547.27;(0, 0);0;0;;;;;;;;;;;;;;6;0;0;;0;0;();();(-2000.0, -2000.0);
12:03:07:669;12:03:07:656;1448277547.34;(0.33904831409454345, 0.23253470526801212);20.6999073029;0.773543205257;;;;;;;;;;;;;;6;0;0;;0;0;();();(-2000.0, -2000.0);
12:03:07:702;12:03:07:656;1448277547.34;(0.33904831409454345, 0.23253470526801212);20.6999073029;0.773543205257;;;;;;;;;;;;;;6;0;0;;0;0;();();(-2000.0, -2000.0);
12:03:07:719;12:03:07:656;1448277547.34;(0.33904831409454345, 0.23253470526801212);20.6999073029;0.773543205257;;;;;;;;;;;;;;6;0;0;;0;0;();();(-2000.0, -2000.0);
12:03:07:735;12:03:07:724;1448277547.4;(0, 0);0;0;;;;;;;;;;;;;;6;0;0;;0;0;();();(-2000.0, -2000.0);
12:03:07:752;12:03:07:724;1448277547.4;(0, 0);0;0;;;;;;;;;;;;;;6;0;0;;0;0;();();(-2000.0, -2000.0);
12:03:07:768;12:03:07:724;1448277547.4;(0, 0);0;0;;;;;;;;;;;;;;6;0;0;;0;0;();();(-2000.0, -2000.0);
12:03:07:804;12:03:07:787;1448277547.47;(0, 0);0;0;;;;;;;;;;;;;;6;0;0;;0;0;();();(-2000.0, -2000.0);
12:03:07:818;12:03:07:787;1448277547.47;(0, 0);0;0;;;;;;;;;;;;;;6;0;0;;0;0;();();(-2000.0, -2000.0);
12:03:07:836;12:03:07:787;1448277547.47;(0, 0);0;0;;;;;;;;;;;;;;6;0;0;;0;0;();();(-2000.0, -2000.0);
12:03:07:852;12:03:07:787;1448277547.47;(0, 0);0;0;;;;;;;;;;;;;;6;0;0;;0;0;();();(-2000.0, -2000.0);
12:03:07:868;12:03:07:856;1448277547.54;(0, 0);0;0;;;;;;;;;;;;;;6;0;0;;0;0;();();(-2000.0, -2000.0);
12:03:07:902;12:03:07:856;1448277547.54;(0, 0);0;0;;;;;;;;;;;;;;6;0;0;;0;0;();();(-2000.0, -2000.0);
12:03:07:919;12:03:07:856;1448277547.54;(0, 0);0;0;;;;;;;;;;;;;;6;0;0;;0;0;();();(-2000.0, -2000.0);
12:03:07:936;12:03:07:924;1448277547.6;(0.6181625843048095, 0.21062486436631944);33.6745414734;0.697786827829;;;;;;;;;;;;;;6;0;0;;0;0;();();(-2000.0, -2000.0);
12:03:07:953;12:03:07:924;1448277547.6;(0.6181625843048095, 0.21062486436631944);33.6745414734;0.697786827829;;;;;;;;;;;;;;6;0;0;;0;0;();();(-2000.0, -2000.0);
12:03:07:969;12:03:07:924;1448277547.6;(0.6181625843048095, 0.21062486436631944);33.6745414734;0.697786827829;;;;;;;;;;;;;;6;0;0;;0;0;();();(-2000.0, -2000.0);
12:03:07:986;12:03:07:924;1448277547.6;(0.6181625843048095, 0.21062486436631944);33.6745414734;0.697786827829;;;;;;;;;;;;;;6;0;0;;0;0;();();(-2000.0, -2000.0);
12:03:08:019;12:03:07:987;1448277547.67;(0, 0);0;0;;;;;;;;;;;;;;6;0;0;;0;0;();();(-2000.0, -2000.0);
12:03:08:036;12:03:07:987;1448277547.67;(0, 0);0;0;;;;;;;;;;;;;;6;0;0;;0;0;();();(-2000.0, -2000.0);
12:03:08:052;12:03:07:987;1448277547.67;(0, 0);0;0;;;;;;;;;;;;;;6;0;0;;0;0;();();(-2000.0, -2000.0);
12:03:08:069;12:03:08:056;1448277547.74;(0, 0);0;0;;;;;;;;;;;;;;6;0;0;;0;0;();();(-2000.0, -2000.0);
12:03:08:102;12:03:08:056;1448277547.74;(0, 0);0;0;;;;;;;;;;;;;;6;0;0;;0;0;();();(-2000.0, -2000.0);
12:03:08:120;12:03:08:120;1448277547.8;(0, 0);0;0;;;;;;;;;;;;;;6;0;0;;0;0;();();(-2000.0, -2000.0);
12:03:08:137;12:03:08:120;1448277547.8;(0, 0);0;0;;;;;;;;;;;;;;6;0;0;;0;0;();();(-2000.0, -2000.0);
12:03:08:153;12:03:08:120;1448277547.8;(0, 0);0;0;;;;;;;;;;;;;;6;0;0;;0;0;();();(-2000.0, -2000.0);
12:03:08:169;12:03:08:120;1448277547.8;(0, 0);0;0;;;;;;;;;;;;;;6;0;0;;0;0;();();(-2000.0, -2000.0);
12:03:08:186;12:03:08:120;1448277547.8;(0, 0);0;0;;;;;;;;;;;;;;6;0;0;;0;0;();();(-2000.0, -2000.0);
12:03:08:219;12:03:08:188;1448277547.87;(0, 0);0;0;;;;;;;;;;;;;;6;0;0;;0;0;();();(-2000.0, -2000.0);
12:03:08:235;12:03:08:188;1448277547.87;(0, 0);0;0;;;;;;;;;;;;;;6;0;0;;0;0;();();(-2000.0, -2000.0);
12:03:08:253;12:03:08:252;1448277547.94;(0, 0);0;0;;;;;;;;;;;;;;6;0;0;;0;0;();();(-2000.0, -2000.0);
12:03:08:269;12:03:08:252;1448277547.94;(0, 0);0;0;;;;;;;;;;;;;;6;0;0;;0;0;();();(-2000.0, -2000.0);
12:03:08:286;12:03:08:252;1448277547.94;(0, 0);0;0;;;;;;;;;;;;;;6;0;0;;0;0;();();(-2000.0, -2000.0);
12:03:08:319;12:03:08:252;1448277547.94;(0, 0);0;0;;;;;;;;;;;;;;6;0;0;;0;0;();();(-2000.0, -2000.0);
12:03:08:335;12:03:08:319;1448277548.0;(0.6121525764465332, 0.17954872979058156);62.71509552;0.633008054691;;;;;;;;;;;;;;6;0;0;;0;0;();();(-2000.0, -2000.0);
12:03:08:352;12:03:08:319;1448277548.0;(0.6121525764465332, 0.17954872979058156);62.71509552;0.633008054691;;;;;;;;;;;;;;6;0;0;;0;0;();();(-2000.0, -2000.0);
12:03:08:370;12:03:08:319;1448277548.0;(0.6121525764465332, 0.17954872979058156);62.71509552;0.633008054691;;;;;;;;;;;;;;6;0;0;;0;0;();();(-2000.0, -2000.0);
12:03:08:386;12:03:08:319;1448277548.0;(0.6121525764465332, 0.17954872979058156);62.71509552;0.633008054691;;;;;;;;;;;;;;6;0;0;;0;0;();();(-2000.0, -2000.0);
12:03:08:420;12:03:08:388;1448277548.07;(0.6002737045288086, 0.2289038764105903);23.8450641632;0.817968163334;;;;;;;;;;;;;;6;0;0;;0;0;();();(-2000.0, -2000.0);
12:03:08:436;12:03:08:388;1448277548.07;(0.6002737045288086, 0.2289038764105903);23.8450641632;0.817968163334;;;;;;;;;;;;;;6;0;0;;0;0;();();(-2000.0, -2000.0);
12:03:08:453;12:03:08:452;1448277548.14;(0, 0);0;0;;;;;;;;;;;;;;6;0;0;;0;0;();();(-2000.0, -2000.0);
12:03:08:471;12:03:08:452;1448277548.14;(0, 0);0;0;;;;;;;;;;;;;;6;0;0;;0;0;();();(-2000.0, -2000.0);
12:03:08:486;12:03:08:452;1448277548.14;(0, 0);0;0;;;;;;;;;;;;;;6;0;0;;0;0;();();(-2000.0, -2000.0);
12:03:08:520;12:03:08:452;1448277548.14;(0, 0);0;0;;;;;;;;;;;;;;6;0;0;;0;0;();();(-2000.0, -2000.0);
12:03:08:537;12:03:08:520;1448277548.2;(0, 0);0;0;;;;;;;;;;;;;;6;0;0;;0;0;();();(-2000.0, -2000.0);
12:03:08:553;12:03:08:520;1448277548.2;(0, 0);0;0;;;;;;;;;;;;;;6;0;0;;0;0;();();(-2000.0, -2000.0);
12:03:08:569;12:03:08:520;1448277548.2;(0, 0);0;0;;;;;;;;;;;;;;6;0;0;;0;0;();();(-2000.0, -2000.0);
12:03:08:586;12:03:08:520;1448277548.2;(0, 0);0;0;;;;;;;;;;;;;;6;0;0;;0;0;();();(-2000.0, -2000.0);
12:03:08:620;12:03:08:591;1448277548.27;(0, 0);0;0;;;;;;;;;;;;;;6;0;0;;0;0;();();(-2000.0, -2000.0);
12:03:08:636;12:03:08:591;1448277548.27;(0, 0);0;0;;;;;;;;;;;;;;6;0;0;;0;0;();();(-2000.0, -2000.0);
12:03:08:653;12:03:08:652;1448277548.34;(0.6024425983428955, 0.23357560899522567);24.7839565277;0.635392129766;;;;;;;;;;;;;;6;0;0;;0;0;();();(-2000.0, -2000.0);
12:03:08:670;12:03:08:652;1448277548.34;(0.6024425983428955, 0.23357560899522567);24.7839565277;0.635392129766;;;;;;;;;;;;;;6;0;0;;0;0;();();(-2000.0, -2000.0);
12:03:08:686;12:03:08:652;1448277548.34;(0.6024425983428955, 0.23357560899522567);24.7839565277;0.635392129766;;;;;;;;;;;;;;6;0;0;;0;0;();();(-2000.0, -2000.0);
12:03:08:720;12:03:08:652;1448277548.34;(0.6024425983428955, 0.23357560899522567);24.7839565277;0.635392129766;;;;;;;;;;;;;;6;0;0;;0;0;();();(-2000.0, -2000.0);
12:03:08:737;12:03:08:720;1448277548.4;(0, 0);0;0;;;;;;;;;;;;;;6;0;0;;0;0;();();(-2000.0, -2000.0);
12:03:08:753;12:03:08:720;1448277548.4;(0, 0);0;0;;;;;;;;;;;;;;6;0;0;;0;0;();();(-2000.0, -2000.0);
12:03:08:769;12:03:08:720;1448277548.4;(0, 0);0;0;;;;;;;;;;;;;;6;0;0;;0;0;();();(-2000.0, -2000.0);
12:03:08:788;12:03:08:784;1448277548.47;(0, 0);0;0;;;;;;;;;;;;;;6;0;0;;0;0;();();(-2000.0, -2000.0);
12:03:08:820;12:03:08:784;1448277548.47;(0, 0);0;0;;;;;;;;;;;;;;6;0;0;;0;0;();();(-2000.0, -2000.0);
12:03:08:836;12:03:08:784;1448277548.47;(0, 0);0;0;;;;;;;;;;;;;;6;0;0;;0;0;();();(-2000.0, -2000.0);
12:03:08:853;12:03:08:852;1448277548.54;(0.3253964900970459, 0.20502098931206603);23.016828537;0.767081072055;;;;;;;;;;;;;;6;0;0;;0;0;();();(-2000.0, -2000.0);
12:03:08:869;12:03:08:852;1448277548.54;(0.3253964900970459, 0.20502098931206603);23.016828537;0.767081072055;;;;;;;;;;;;;;6;0;0;;0;0;();();(-2000.0, -2000.0);
12:03:08:886;12:03:08:852;1448277548.54;(0.3253964900970459, 0.20502098931206603);23.016828537;0.767081072055;;;;;;;;;;;;;;6;0;0;;0;0;();();(-2000.0, -2000.0);
12:03:08:920;12:03:08:916;1448277548.6;(0, 0);0;0;;;;;;;;;;;;;;6;0;0;;0;0;();();(-2000.0, -2000.0);
12:03:08:937;12:03:08:916;1448277548.6;(0, 0);0;0;;;;;;;;;;;;;;6;0;0;;0;0;();();(-2000.0, -2000.0);
12:03:08:954;12:03:08:916;1448277548.6;(0, 0);0;0;;;;;;;;;;;;;;6;0;0;;0;0;();();(-2000.0, -2000.0);
12:03:08:970;12:03:08:916;1448277548.6;(0, 0);0;0;;;;;;;;;;;;;;6;0;0;;0;0;();();(-2000.0, -2000.0);
12:03:08:987;12:03:08:984;1448277548.67;(0.3201035499572754, 0.2035260518391927);20.8403110504;0.65291904729;;;;;;;;;;;;;;6;0;0;;0;0;();();(-2000.0, -2000.0);
12:03:09:020;12:03:08:984;1448277548.67;(0.3201035499572754, 0.2035260518391927);20.8403110504;0.65291904729;;;;;;;;;;;;;;6;0;0;;0;0;();();(-2000.0, -2000.0);
12:03:09:036;12:03:08:984;1448277548.67;(0.3201035499572754, 0.2035260518391927);20.8403110504;0.65291904729;;;;;;;;;;;;;;6;0;0;;0;0;();();(-2000.0, -2000.0);
12:03:09:053;12:03:09:052;1448277548.74;(0, 0);0;0;;;;;;;;;;;;;;6;0;0;;0;0;();();(-2000.0, -2000.0);
12:03:09:071;12:03:09:052;1448277548.74;(0, 0);0;0;;;;;;;;;;;;;;6;0;0;;0;0;();();(-2000.0, -2000.0);
12:03:09:086;12:03:09:052;1448277548.74;(0, 0);0;0;;;;;;;;;;;;;;6;0;0;;0;0;();();(-2000.0, -2000.0);
12:03:09:121;12:03:09:115;1448277548.8;(0, 0);0;0;;;;;;;;;;;;;;6;0;0;;0;0;();();(-2000.0, -2000.0);
12:03:09:137;12:03:09:115;1448277548.8;(0, 0);0;0;;;;;;;;;;;;;;6;0;0;;0;0;();();(-2000.0, -2000.0);
12:03:09:153;12:03:09:115;1448277548.8;(0, 0);0;0;;;;;;;;;;;;;;6;0;0;;0;0;();();(-2000.0, -2000.0);
12:03:09:170;12:03:09:115;1448277548.8;(0, 0);0;0;;;;;;;;;;;;;;6;0;0;;0;0;();();(-2000.0, -2000.0);
12:03:09:187;12:03:09:184;1448277548.87;(0, 0);0;0;;;;;;;;;;;;;;6;0;0;;0;0;();();(-2000.0, -2000.0);
12:03:09:220;12:03:09:184;1448277548.87;(0, 0);0;0;;;;;;;;;;;;;;6;0;0;;0;0;();();(-2000.0, -2000.0);
12:03:09:237;12:03:09:184;1448277548.87;(0, 0);0;0;;;;;;;;;;;;;;6;0;0;;0;0;();();(-2000.0, -2000.0);
12:03:09:253;12:03:09:247;1448277548.94;(0, 0);0;0;;;;;;;;;;;;;;6;0;0;;0;0;();();(-2000.0, -2000.0);
12:03:09:270;12:03:09:247;1448277548.94;(0, 0);0;0;;;;;;;;;;;;;;6;0;0;;0;0;();();(-2000.0, -2000.0);
12:03:09:287;12:03:09:247;1448277548.94;(0, 0);0;0;;;;;;;;;;;;;;6;0;0;;0;0;();();(-2000.0, -2000.0);
12:03:09:321;12:03:09:316;1448277549.0;(0, 0);0;0;;;;;;;;;;;;;;6;0;0;;0;0;();();(-2000.0, -2000.0);
12:03:09:336;12:03:09:316;1448277549.0;(0, 0);0;0;;;;;;;;;;;;;;6;0;0;;0;0;();();(-2000.0, -2000.0);
12:03:09:353;12:03:09:316;1448277549.0;(0, 0);0;0;;;;;;;;;;;;;;6;0;0;;0;0;();();(-2000.0, -2000.0);
12:03:09:370;12:03:09:316;1448277549.0;(0, 0);0;0;;;;;;;;;;;;;;6;0;0;;0;0;();();(-2000.0, -2000.0);
12:03:09:387;12:03:09:384;1448277549.07;(0, 0);0;0;;;;;;;;;;;;;;6;0;0;;0;0;();();(-2000.0, -2000.0);
12:03:09:420;12:03:09:384;1448277549.07;(0, 0);0;0;;;;;;;;;;;;;;6;0;0;;0;0;();();(-2000.0, -2000.0);
12:03:09:436;12:03:09:384;1448277549.07;(0, 0);0;0;;;;;;;;;;;;;;6;0;0;;0;0;();();(-2000.0, -2000.0);
12:03:09:455;12:03:09:452;1448277549.14;(0, 0);0;0;;;;;;;;;;;;;;6;0;0;;0;0;();();(-2000.0, -2000.0);
12:03:09:473;12:03:09:452;1448277549.14;(0, 0);0;0;;;;;;;;;;;;;;8;0;0;;0;0;();();(-2000.0, -2000.0);
12:03:09:486;12:03:09:452;1448277549.14;(0, 0);0;0;;;;;;;;;;;;;;8;0;0;;0;0;();();(-2000.0, -2000.0);
12:03:09:520;12:03:09:516;1448277549.2;(0, 0);0;0;;;;;;;;;;;;;;8;0;0;;0;0;();();(-2000.0, -2000.0);
12:03:09:537;12:03:09:516;1448277549.2;(0, 0);0;0;;;;;;;;;;;;;;8;0;0;;0;0;();();(-2000.0, -2000.0);
12:03:09:554;12:03:09:516;1448277549.2;(0, 0);0;0;;;;;;;;;;;;;;8;0;0;;0;0;();();(-2000.0, -2000.0);
12:03:09:570;12:03:09:516;1448277549.2;(0, 0);0;0;;;;;;;;;;;;;;8;0;0;;0;0;();();(-2000.0, -2000.0);
12:03:09:587;12:03:09:580;1448277549.27;(0, 0);0;0;;;;;;;;;;;;;;8;0;0;;0;0;();();(-2000.0, -2000.0);
12:03:09:620;12:03:09:580;1448277549.27;(0, 0);0;0;;;;;;;;;;;;;;8;0;0;;0;0;();();(-2000.0, -2000.0);
12:03:09:637;12:03:09:580;1448277549.27;(0, 0);0;0;;;;;;;;;;;;;;8;0;0;;0;0;();();(-2000.0, -2000.0);
12:03:09:654;12:03:09:580;1448277549.27;(0, 0);0;0;;;;;;;;;;;;;;8;0;0;;0;0;();();(-2000.0, -2000.0);
12:03:09:671;12:03:09:654;1448277549.34;(0, 0);0;0;;;;;;;;;;;;;;8;0;0;;0;0;();();(-2000.0, -2000.0);
12:03:09:687;12:03:09:654;1448277549.34;(0, 0);0;0;;;;;;;;;;;;;;8;0;0;;0;0;();();(-2000.0, -2000.0);
12:03:09:720;12:03:09:715;1448277549.4;(0, 0);0;0;;;;;;;;;;;;;;8;0;0;;0;0;();();(-2000.0, -2000.0);
12:03:09:737;12:03:09:715;1448277549.4;(0, 0);0;0;;;;;;;;;;;;;;8;0;0;;0;0;();();(-2000.0, -2000.0);
12:03:09:753;12:03:09:715;1448277549.4;(0, 0);0;0;;;;;;;;;;;;;;8;0;0;;0;0;();();(-2000.0, -2000.0);
12:03:09:771;12:03:09:715;1448277549.4;(0, 0);0;0;;;;;;;;;;;;;;8;0;0;;0;0;();();(-2000.0, -2000.0);
12:03:09:788;12:03:09:780;1448277549.47;(0, 0);0;0;;;;;;;;;;;;;;8;0;0;;0;0;();();(-2000.0, -2000.0);
12:03:09:821;12:03:09:780;1448277549.47;(0, 0);0;0;;;;;;;;;;;;;;8;0;0;;0;0;();();(-2000.0, -2000.0);
12:03:09:837;12:03:09:780;1448277549.47;(0, 0);0;0;;;;;;;;;;;;;;8;0;0;;0;0;();();(-2000.0, -2000.0);
12:03:09:853;12:03:09:847;1448277549.54;(0, 0);0;0;;;;;;;;;;;;;;8;0;0;;0;0;();();(-2000.0, -2000.0);
12:03:09:871;12:03:09:847;1448277549.54;(0, 0);0;0;;;;;;;;;;;;;;8;0;0;;0;0;();();(-2000.0, -2000.0);
12:03:09:888;12:03:09:847;1448277549.54;(0, 0);0;0;;;;;;;;;;;;;;8;0;0;;0;0;();();(-2000.0, -2000.0);
12:03:09:921;12:03:09:912;1448277549.6;(0, 0);0;0;;;;;;;;;;;;;;8;0;0;;0;0;();();(-2000.0, -2000.0);
12:03:09:937;12:03:09:912;1448277549.6;(0, 0);0;0;;;;;;;;;;;;;;8;0;0;;0;0;();();(-2000.0, -2000.0);
12:03:09:955;12:03:09:912;1448277549.6;(0, 0);0;0;;;;;;;;;;;;;;8;0;0;;0;0;();();(-2000.0, -2000.0);
12:03:09:971;12:03:09:912;1448277549.6;(0, 0);0;0;;;;;;;;;;;;;;8;0;0;;0;0;();();(-2000.0, -2000.0);
12:03:09:988;12:03:09:979;1448277549.67;(0.6902003765106202, 0.17488225301106775);18.0989189148;0.683845236852;;;;;;;;;;;;;;8;0;0;;0;0;();();(-2000.0, -2000.0);
12:03:10:021;12:03:09:979;1448277549.67;(0.6902003765106202, 0.17488225301106775);18.0989189148;0.683845236852;;;;;;;;;;;;;;8;0;0;;0;0;();();(-2000.0, -2000.0);
12:03:10:037;12:03:09:979;1448277549.67;(0.6902003765106202, 0.17488225301106775);18.0989189148;0.683845236852;;;;;;;;;;;;;;8;0;0;;0;0;();();(-2000.0, -2000.0);
12:03:10:054;12:03:10:048;1448277549.74;(0, 0);0;0;;;;;;;;;;;;;;8;0;0;;0;0;();();(-2000.0, -2000.0);
12:03:10:071;12:03:10:048;1448277549.74;(0, 0);0;0;;;;;;;;;;;;;;8;0;0;;0;0;();();(-2000.0, -2000.0);
12:03:10:088;12:03:10:048;1448277549.74;(0, 0);0;0;;;;;;;;;;;;;;8;0;0;;0;0;();();(-2000.0, -2000.0);
12:03:10:105;12:03:10:048;1448277549.74;(0, 0);0;0;;;;;;;;;;;;;;8;0;0;;0;0;();();(-2000.0, -2000.0);
12:03:10:138;12:03:10:114;1448277549.8;(0, 0);0;0;;;;;;;;;;;;;;8;0;0;;0;0;();();(-2000.0, -2000.0);
12:03:10:154;12:03:10:114;1448277549.8;(0, 0);0;0;;;;;;;;;;;;;;8;0;0;;0;0;();();(-2000.0, -2000.0);
12:03:10:171;12:03:10:114;1448277549.8;(0, 0);0;0;;;;;;;;;;;;;;8;0;0;;0;0;();();(-2000.0, -2000.0);
12:03:10:187;12:03:10:180;1448277549.87;(0.31984148025512693, 0.2018892076280382);18.4512329102;0.618020927656;;;;;;;;;;;;;;8;0;0;;0;0;();();(-2000.0, -2000.0);
12:03:10:221;12:03:10:180;1448277549.87;(0.31984148025512693, 0.2018892076280382);18.4512329102;0.618020927656;;;;;;;;;;;;;;8;0;0;;0;0;();();(-2000.0, -2000.0);
12:03:10:238;12:03:10:180;1448277549.87;(0.31984148025512693, 0.2018892076280382);18.4512329102;0.618020927656;;;;;;;;;;;;;;8;0;0;;0;0;();();(-2000.0, -2000.0);
12:03:10:255;12:03:10:244;1448277549.94;(0, 0);0;0;;;;;;;;;;;;;;8;0;0;;0;0;();();(-2000.0, -2000.0);
12:03:10:271;12:03:10:244;1448277549.94;(0, 0);0;0;;;;;;;;;;;;;;8;0;0;;0;0;();();(-2000.0, -2000.0);
12:03:10:288;12:03:10:244;1448277549.94;(0, 0);0;0;;;;;;;;;;;;;;8;0;0;;0;0;();();(-2000.0, -2000.0);
12:03:10:321;12:03:10:311;1448277550.0;(0, 0);0;0;;;;;;;;;;;;;;8;0;0;;0;0;();();(-2000.0, -2000.0);
12:03:10:338;12:03:10:311;1448277550.0;(0, 0);0;0;;;;;;;;;;;;;;8;0;0;;0;0;();();(-2000.0, -2000.0);
12:03:10:355;12:03:10:311;1448277550.0;(0, 0);0;0;;;;;;;;;;;;;;8;0;0;;0;0;();();(-2000.0, -2000.0);
12:03:10:371;12:03:10:311;1448277550.0;(0, 0);0;0;;;;;;;;;;;;;;8;0;0;;0;0;();();(-2000.0, -2000.0);
12:03:10:389;12:03:10:380;1448277550.07;(0, 0);0;0;;;;;;;;;;;;;;8;0;0;;0;0;();();(-2000.0, -2000.0);
12:03:10:421;12:03:10:380;1448277550.07;(0, 0);0;0;;;;;;;;;;;;;;8;0;0;;0;0;();();(-2000.0, -2000.0);
12:03:10:437;12:03:10:380;1448277550.07;(0, 0);0;0;;;;;;;;;;;;;;8;0;0;;0;0;();();(-2000.0, -2000.0);
12:03:10:454;12:03:10:443;1448277550.14;(0, 0);0;0;;;;;;;;;;;;;;8;0;0;;0;0;();();(-2000.0, -2000.0);
12:03:10:472;12:03:10:443;1448277550.14;(0, 0);0;0;;;;;;;;;;;;;;8;0;0;;0;0;();();(-2000.0, -2000.0);
12:03:10:488;12:03:10:443;1448277550.14;(0, 0);0;0;;;;;;;;;;;;;;8;0;0;;0;0;();();(-2000.0, -2000.0);
12:03:10:521;12:03:10:511;1448277550.2;(0, 0);0;0;;;;;;;;;;;;;;8;0;0;;0;0;();();(-2000.0, -2000.0);
12:03:10:538;12:03:10:511;1448277550.2;(0, 0);0;0;;;;;;;;;;;;;;8;0;0;;0;0;();();(-2000.0, -2000.0);
12:03:10:554;12:03:10:511;1448277550.2;(0, 0);0;0;;;;;;;;;;;;;;8;0;0;;0;0;();();(-2000.0, -2000.0);
12:03:10:571;12:03:10:511;1448277550.2;(0, 0);0;0;;;;;;;;;;;;;;8;0;0;;0;0;();();(-2000.0, -2000.0);
12:03:10:588;12:03:10:577;1448277550.27;(0, 0);0;0;;;;;;;;;;;;;;8;0;0;;0;0;();();(-2000.0, -2000.0);
12:03:10:621;12:03:10:577;1448277550.27;(0, 0);0;0;;;;;;;;;;;;;;8;0;0;;0;0;();();(-2000.0, -2000.0);
12:03:10:638;12:03:10:577;1448277550.27;(0, 0);0;0;;;;;;;;;;;;;;8;0;0;;0;0;();();(-2000.0, -2000.0);
12:03:10:656;12:03:10:644;1448277550.34;(0.31975090503692627, 0.20156767103407114);20.2539196014;0.637353432952;;;;;;;;;;;;;;8;0;0;;0;0;();();(-2000.0, -2000.0);
12:03:10:671;12:03:10:644;1448277550.34;(0.31975090503692627, 0.20156767103407114);20.2539196014;0.637353432952;;;;;;;;;;;;;;8;0;0;;0;0;();();(-2000.0, -2000.0);
12:03:10:688;12:03:10:644;1448277550.34;(0.31975090503692627, 0.20156767103407114);20.2539196014;0.637353432952;;;;;;;;;;;;;;8;0;0;;0;0;();();(-2000.0, -2000.0);
12:03:10:721;12:03:10:711;1448277550.4;(0, 0);0;0;;;;;;;;;;;;;;8;0;0;;0;0;();();(-2000.0, -2000.0);
12:03:10:738;12:03:10:711;1448277550.4;(0, 0);0;0;;;;;;;;;;;;;;8;0;0;;0;0;();();(-2000.0, -2000.0);
12:03:10:754;12:03:10:711;1448277550.4;(0, 0);0;0;;;;;;;;;;;;;;8;0;0;;0;0;();();(-2000.0, -2000.0);
12:03:10:771;12:03:10:711;1448277550.4;(0, 0);0;0;;;;;;;;;;;;;;8;0;0;;0;0;();();(-2000.0, -2000.0);
12:03:10:788;12:03:10:776;1448277550.47;(0, 0);0;0;;;;;;;;;;;;;;8;0;0;;0;0;();();(-2000.0, -2000.0);
12:03:10:822;12:03:10:776;1448277550.47;(0, 0);0;0;;;;;;;;;;;;;;8;0;0;;0;0;();();(-2000.0, -2000.0);
12:03:10:838;12:03:10:776;1448277550.47;(0, 0);0;0;;;;;;;;;;;;;;8;0;0;;0;0;();();(-2000.0, -2000.0);
12:03:10:854;12:03:10:844;1448277550.54;(0, 0);0;0;;;;;;;;;;;;;;8;0;0;;0;0;();();(-2000.0, -2000.0);
12:03:10:871;12:03:10:844;1448277550.54;(0, 0);0;0;;;;;;;;;;;;;;8;0;0;;0;0;();();(-2000.0, -2000.0);
12:03:10:888;12:03:10:844;1448277550.54;(0, 0);0;0;;;;;;;;;;;;;;8;0;0;;0;0;();();(-2000.0, -2000.0);
12:03:10:922;12:03:10:909;1448277550.6;(0, 0);0;0;;;;;;;;;;;;;;8;0;0;;0;0;();();(-2000.0, -2000.0);
12:03:10:938;12:03:10:909;1448277550.6;(0, 0);0;0;;;;;;;;;;;;;;8;0;0;;0;0;();();(-2000.0, -2000.0);
12:03:10:955;12:03:10:909;1448277550.6;(0, 0);0;0;;;;;;;;;;;;;;8;0;0;;0;0;();();(-2000.0, -2000.0);
12:03:10:972;12:03:10:909;1448277550.6;(0, 0);0;0;;;;;;;;;;;;;;8;0;0;;0;0;();();(-2000.0, -2000.0);
12:03:10:988;12:03:10:976;1448277550.67;(0, 0);0;0;;;;;;;;;;;;;;8;0;0;;0;0;();();(-2000.0, -2000.0);
12:03:11:022;12:03:10:976;1448277550.67;(0, 0);0;0;;;;;;;;;;;;;;8;0;0;;0;0;();();(-2000.0, -2000.0);
12:03:11:038;12:03:10:976;1448277550.67;(0, 0);0;0;;;;;;;;;;;;;;8;0;0;;0;0;();();(-2000.0, -2000.0);
12:03:11:055;12:03:11:044;1448277550.74;(0, 0);0;0;;;;;;;;;;;;;;8;0;0;;0;0;();();(-2000.0, -2000.0);
12:03:11:072;12:03:11:044;1448277550.74;(0, 0);0;0;;;;;;;;;;;;;;8;0;0;;0;0;();();(-2000.0, -2000.0);
12:03:11:088;12:03:11:044;1448277550.74;(0, 0);0;0;;;;;;;;;;;;;;8;0;0;;0;0;();();(-2000.0, -2000.0);
12:03:11:122;12:03:11:110;1448277550.8;(0, 0);0;0;;;;;;;;;;;;;;8;0;0;;0;0;();();(-2000.0, -2000.0);
12:03:11:139;12:03:11:110;1448277550.8;(0, 0);0;0;;;;;;;;;;;;;;8;0;0;;0;0;();();(-2000.0, -2000.0);
12:03:11:156;12:03:11:110;1448277550.8;(0, 0);0;0;;;;;;;;;;;;;;8;0;0;;0;0;();();(-2000.0, -2000.0);
12:03:11:172;12:03:11:110;1448277550.8;(0, 0);0;0;;;;;;;;;;;;;;8;0;0;;0;0;();();(-2000.0, -2000.0);
12:03:11:189;12:03:11:177;1448277550.87;(0, 0);0;0;;;;;;;;;;;;;;8;0;0;;0;0;();();(-2000.0, -2000.0);
12:03:11:221;12:03:11:177;1448277550.87;(0, 0);0;0;;;;;;;;;;;;;;8;0;0;;0;0;();();(-2000.0, -2000.0);
12:03:11:239;12:03:11:177;1448277550.87;(0, 0);0;0;;;;;;;;;;;;;;8;0;0;;0;0;();();(-2000.0, -2000.0);
12:03:11:255;12:03:11:248;1448277550.94;(0, 0);0;0;;;;;;;;;;;;;;8;0;0;;0;0;();();(-2000.0, -2000.0);
12:03:11:271;12:03:11:248;1448277550.94;(0, 0);0;0;;;;;;;;;;;;;;8;0;0;;0;2;(55,31);((-16.7, -15.0, -1.0),(-16.7, -15.0, -1.0));(-12.3, -16.0);
12:03:11:288;12:03:11:248;1448277550.94;(0, 0);0;0;;;;;;;;;;;;;;8;0;0;;0;2;();();(-2000.0, -2000.0);
12:03:11:306;12:03:11:248;1448277550.94;(0, 0);0;0;;;;;;;;;;;;;;8;0;0;;0;2;();();(-2000.0, -2000.0);
12:03:11:342;12:03:11:309;1448277551.0;(0, 0);0;0;;;;;;;;;;;;;;8;0;0;;0;2;();();(-2000.0, -2000.0);
12:03:11:374;12:03:11:372;1448277551.07;(0, 0);0;0;;;;;;;;;;;;;;8;0;0;;0;2;();();(-2000.0, -2000.0);
12:03:11:375;12:03:11:372;1448277551.07;(0, 0);0;0;;;;;;;;;;;;;;8;0;0;;0;2;();();(-2000.0, -2000.0);
12:03:11:405;12:03:11:372;1448277551.07;(0, 0);0;0;;;;;;;;;;;;;;8;0;0;;0;2;();();(-2000.0, -2000.0);
12:03:11:422;12:03:11:372;1448277551.07;(0, 0);0;0;;;;;;;;;;;;;;8;0;0;;0;2;();();(-2000.0, -2000.0);
12:03:11:439;12:03:11:372;1448277551.07;(0, 0);0;0;;;;;;;;;;;;;;8;0;0;;0;2;();();(-2000.0, -2000.0);
12:03:11:463;12:03:11:440;1448277551.14;(0, 0);0;0;;;;;;;;;;;;;;8;0;0;;0;2;();();(-2000.0, -2000.0);
12:03:11:472;12:03:11:440;1448277551.14;(0, 0);0;0;;;;;;;;;;;;;;8;0;0;;0;2;();();(-2000.0, -2000.0);
12:03:11:489;12:03:11:440;1448277551.14;(0, 0);0;0;;;;;;;;;;;;;;8;0;0;;0;2;();();(-2000.0, -2000.0);
12:03:11:507;12:03:11:440;1448277551.14;(0, 0);0;0;;;;;;;;;;;;;;8;0;0;;0;2;();();(-2000.0, -2000.0);
12:03:11:540;12:03:11:508;1448277551.2;(0, 0);0;0;;;;;;;;;;;;;;8;0;0;;0;2;();();(-2000.0, -2000.0);
12:03:11:557;12:03:11:508;1448277551.2;(0, 0);0;0;;;;;;;;;;;;;;8;0;0;;0;2;();();(-2000.0, -2000.0);
12:03:11:573;12:03:11:572;1448277551.27;(0.6129950046539306, 0.2229132758246528);22.7982769012;0.610103001856;;;;;;;;;;;;;;8;0;0;;0;2;();();(-2000.0, -2000.0);
12:03:11:590;12:03:11:572;1448277551.27;(0.6129950046539306, 0.2229132758246528);22.7982769012;0.610103001856;;;;;;;;;;;;;;8;0;0;;0;2;();();(-2000.0, -2000.0);
12:03:11:607;12:03:11:572;1448277551.27;(0.6129950046539306, 0.2229132758246528);22.7982769012;0.610103001856;;;;;;;;;;;;;;8;0;0;;0;2;();();(-2000.0, -2000.0);
12:03:11:639;12:03:11:639;1448277551.34;(0, 0);0;0;;;;;;;;;;;;;;8;0;0;;0;2;();();(-2000.0, -2000.0);
12:03:11:657;12:03:11:639;1448277551.34;(0, 0);0;0;;;;;;;;;;;;;;8;0;0;;0;2;();();(-2000.0, -2000.0);
12:03:11:673;12:03:11:639;1448277551.34;(0, 0);0;0;;;;;;;;;;;;;;8;0;0;;0;2;();();(-2000.0, -2000.0);
12:03:11:690;12:03:11:639;1448277551.34;(0, 0);0;0;;;;;;;;;;;;;;8;0;0;;0;2;();();(-2000.0, -2000.0);
12:03:11:707;12:03:11:703;1448277551.4;(0, 0);0;0;;;;;;;;;;;;;;8;0;0;;0;2;();();(-2000.0, -2000.0);
12:03:11:728;12:03:11:703;1448277551.4;(0, 0);0;0;;;;;;;;;;;;;;8;0;0;;0;2;();();(-2000.0, -2000.0);
12:03:11:756;12:03:11:703;1448277551.4;(0, 0);0;0;;;;;;;;;;;;;;8;0;0;;0;2;();();(-2000.0, -2000.0);
12:03:11:772;12:03:11:771;1448277551.47;(0.32477340698242185, 0.20188819037543404);25.4601325989;0.605937095782;;;;;;;;;;;;;;8;0;0;;0;2;();();(-2000.0, -2000.0);
12:03:11:789;12:03:11:771;1448277551.47;(0.32477340698242185, 0.20188819037543404);25.4601325989;0.605937095782;;;;;;;;;;;;;;8;0;0;;0;2;();();(-2000.0, -2000.0);
12:03:11:808;12:03:11:771;1448277551.47;(0.32477340698242185, 0.20188819037543404);25.4601325989;0.605937095782;;;;;;;;;;;;;;8;0;0;;0;2;();();(-2000.0, -2000.0);
12:03:11:838;12:03:11:771;1448277551.47;(0.32477340698242185, 0.20188819037543404);25.4601325989;0.605937095782;;;;;;;;;;;;;;8;0;0;;0;2;();();(-2000.0, -2000.0);
12:03:11:856;12:03:11:840;1448277551.54;(0.6207589149475098, 0.1952380710177951);27.2673835754;0.656877952298;;;;;;;;;;;;;;8;0;0;;0;2;();();(-2000.0, -2000.0);
12:03:11:872;12:03:11:840;1448277551.54;(0.6207589149475098, 0.1952380710177951);27.2673835754;0.656877952298;;;;;;;;;;;;;;8;0;0;;0;2;();();(-2000.0, -2000.0);
12:03:11:889;12:03:11:840;1448277551.54;(0.6207589149475098, 0.1952380710177951);27.2673835754;0.656877952298;;;;;;;;;;;;;;8;0;0;;0;2;();();(-2000.0, -2000.0);
12:03:11:906;12:03:11:904;1448277551.6;(0.32303285598754883, 0.20726394653320312);22.7648124695;0.660424782252;;;;;;;;;;;;;;8;0;0;;0;2;();();(-2000.0, -2000.0);
12:03:11:939;12:03:11:904;1448277551.6;(0.32303285598754883, 0.20726394653320312);22.7648124695;0.660424782252;;;;;;;;;;;;;;8;0;0;;0;2;();();(-2000.0, -2000.0);
12:03:11:956;12:03:11:904;1448277551.6;(0.32303285598754883, 0.20726394653320312);22.7648124695;0.660424782252;;;;;;;;;;;;;;6;0;0;;0;2;();();(-2000.0, -2000.0);
12:03:11:972;12:03:11:904;1448277551.6;(0.32303285598754883, 0.20726394653320312);22.7648124695;0.660424782252;;;;;;;;;;;;;;6;0;0;;0;2;();();(-2000.0, -2000.0);
12:03:11:989;12:03:11:973;1448277551.67;(0, 0);0;0;;;;;;;;;;;;;;6;0;0;;0;2;();();(-2000.0, -2000.0);
12:03:12:006;12:03:11:973;1448277551.67;(0, 0);0;0;;;;;;;;;;;;;;6;0;0;;0;2;();();(-2000.0, -2000.0);
12:03:12:039;12:03:12:036;1448277551.74;(0, 0);0;0;;;;;;;;;;;;;;6;0;0;;0;2;();();(-2000.0, -2000.0);
12:03:12:056;12:03:12:036;1448277551.74;(0, 0);0;0;;;;;;;;;;;;;;6;0;0;;0;2;();();(-2000.0, -2000.0);
12:03:12:072;12:03:12:036;1448277551.74;(0, 0);0;0;;;;;;;;;;;;;;6;0;0;;0;2;();();(-2000.0, -2000.0);
12:03:12:089;12:03:12:036;1448277551.74;(0, 0);0;0;;;;;;;;;;;;;;6;0;0;;0;2;();();(-2000.0, -2000.0);
12:03:12:122;12:03:12:103;1448277551.8;(0, 0);0;0;;;;;;;;;;;;;;6;0;0;;0;2;();();(-2000.0, -2000.0);
12:03:12:139;12:03:12:103;1448277551.8;(0, 0);0;0;;;;;;;;;;;;;;6;0;0;;0;2;();();(-2000.0, -2000.0);
12:03:12:156;12:03:12:103;1448277551.8;(0, 0);0;0;;;;;;;;;;;;;;6;0;0;;0;2;();();(-2000.0, -2000.0);
12:03:12:172;12:03:12:103;1448277551.8;(0, 0);0;0;;;;;;;;;;;;;;6;0;0;;0;2;();();(-2000.0, -2000.0);
12:03:12:189;12:03:12:176;1448277551.87;(0, 0);0;0;;;;;;;;;;;;;;6;0;0;;0;2;();();(-2000.0, -2000.0);
12:03:12:206;12:03:12:176;1448277551.87;(0, 0);0;0;;;;;;;;;;;;;;6;0;0;;0;2;();();(-2000.0, -2000.0);
12:03:12:239;12:03:12:236;1448277551.94;(0.6178165912628174, 0.19962031046549478);27.0863838196;0.744870513516;;;;;;;;;;;;;;6;0;0;;0;2;();();(-2000.0, -2000.0);
12:03:12:256;12:03:12:236;1448277551.94;(0.6178165912628174, 0.19962031046549478);27.0863838196;0.744870513516;;;;;;;;;;;;;;6;0;0;;0;2;();();(-2000.0, -2000.0);
12:03:12:272;12:03:12:236;1448277551.94;(0.6178165912628174, 0.19962031046549478);27.0863838196;0.744870513516;;;;;;;;;;;;;;6;0;0;;0;2;();();(-2000.0, -2000.0);
12:03:12:290;12:03:12:236;1448277551.94;(0.6178165912628174, 0.19962031046549478);27.0863838196;0.744870513516;;;;;;;;;;;;;;6;0;0;;0;2;();();(-2000.0, -2000.0);
12:03:12:306;12:03:12:304;1448277552.0;(0, 0);0;0;;;;;;;;;;;;;;6;0;0;;0;2;();();(-2000.0, -2000.0);
12:03:12:340;12:03:12:304;1448277552.0;(0, 0);0;0;;;;;;;;;;;;;;6;0;0;;0;2;();();(-2000.0, -2000.0);
12:03:12:356;12:03:12:304;1448277552.0;(0, 0);0;0;;;;;;;;;;;;;;6;0;0;;0;2;();();(-2000.0, -2000.0);
12:03:12:373;12:03:12:368;1448277552.07;(0, 0);0;0;;;;;;;;;;;;;;6;0;0;;0;2;();();(-2000.0, -2000.0);
12:03:12:389;12:03:12:368;1448277552.07;(0, 0);0;0;;;;;;;;;;;;;;6;0;0;;0;2;();();(-2000.0, -2000.0);
12:03:12:406;12:03:12:368;1448277552.07;(0, 0);0;0;;;;;;;;;;;;;;6;0;0;;0;2;();();(-2000.0, -2000.0);
12:03:12:439;12:03:12:436;1448277552.14;(0, 0);0;0;;;;;;;;;;;;;;6;0;0;;0;2;();();(-2000.0, -2000.0);
12:03:12:455;12:03:12:436;1448277552.14;(0, 0);0;0;;;;;;;;;;;;;;6;0;0;;0;2;();();(-2000.0, -2000.0);
12:03:12:472;12:03:12:436;1448277552.14;(0, 0);0;0;;;;;;;;;;;;;;6;0;0;;0;2;();();(-2000.0, -2000.0);
12:03:12:490;12:03:12:436;1448277552.14;(0, 0);0;0;;;;;;;;;;;;;;6;0;0;;0;2;();();(-2000.0, -2000.0);
12:03:12:507;12:03:12:504;1448277552.2;(0, 0);0;0;;;;;;;;;;;;;;6;0;0;;0;2;();();(-2000.0, -2000.0);
12:03:12:540;12:03:12:504;1448277552.2;(0, 0);0;0;;;;;;;;;;;;;;6;0;0;;0;2;();();(-2000.0, -2000.0);
12:03:12:556;12:03:12:504;1448277552.2;(0, 0);0;0;;;;;;;;;;;;;;6;0;0;;0;2;();();(-2000.0, -2000.0);
12:03:12:573;12:03:12:568;1448277552.27;(0, 0);0;0;;;;;;;;;;;;;;6;0;0;;0;2;();();(-2000.0, -2000.0);
12:03:12:590;12:03:12:568;1448277552.27;(0, 0);0;0;;;;;;;;;;;;;;6;0;0;;0;2;();();(-2000.0, -2000.0);
12:03:12:606;12:03:12:568;1448277552.27;(0, 0);0;0;;;;;;;;;;;;;;6;0;0;;0;2;();();(-2000.0, -2000.0);
12:03:12:640;12:03:12:636;1448277552.34;(0, 0);0;0;;;;;;;;;;;;;;6;0;0;;0;2;();();(-2000.0, -2000.0);
12:03:12:656;12:03:12:636;1448277552.34;(0, 0);0;0;;;;;;;;;;;;;;6;0;0;;0;2;();();(-2000.0, -2000.0);
12:03:12:673;12:03:12:636;1448277552.34;(0, 0);0;0;;;;;;;;;;;;;;6;0;0;;0;2;();();(-2000.0, -2000.0);
12:03:12:689;12:03:12:636;1448277552.34;(0, 0);0;0;;;;;;;;;;;;;;6;0;0;;0;2;();();(-2000.0, -2000.0);
12:03:12:706;12:03:12:636;1448277552.34;(0, 0);0;0;;;;;;;;;;;;;;6;0;0;;0;2;();();(-2000.0, -2000.0);
12:03:12:740;12:03:12:636;1448277552.34;(0, 0);0;0;;;;;;;;;;;;;;6;0;0;;0;2;();();(-2000.0, -2000.0);
12:03:12:756;12:03:12:636;1448277552.34;(0, 0);0;0;;;;;;;;;;;;;;6;0;0;;0;2;();();(-2000.0, -2000.0);
12:03:12:772;12:03:12:768;1448277552.47;(0, 0);0;0;;;;;;;;;;;;;;6;0;0;;0;2;();();(-2000.0, -2000.0);
12:03:12:789;12:03:12:768;1448277552.47;(0, 0);0;0;;;;;;;;;;;;;;6;0;0;;0;2;();();(-2000.0, -2000.0);
12:03:12:806;12:03:12:768;1448277552.47;(0, 0);0;0;;;;;;;;;;;;;;6;0;0;;0;2;();();(-2000.0, -2000.0);
12:03:12:840;12:03:12:836;1448277552.54;(0, 0);0;0;;;;;;;;;;;;;;6;0;0;;0;2;();();(-2000.0, -2000.0);
12:03:12:857;12:03:12:836;1448277552.54;(0, 0);0;0;;;;;;;;;;;;;;6;0;0;;0;2;();();(-2000.0, -2000.0);
12:03:12:874;12:03:12:836;1448277552.54;(0, 0);0;0;;;;;;;;;;;;;;6;0;0;;0;2;();();(-2000.0, -2000.0);
12:03:12:889;12:03:12:836;1448277552.54;(0, 0);0;0;;;;;;;;;;;;;;6;0;0;;0;2;();();(-2000.0, -2000.0);
12:03:12:906;12:03:12:899;1448277552.6;(0, 0);0;0;;;;;;;;;;;;;;6;0;0;;0;2;();();(-2000.0, -2000.0);
12:03:12:940;12:03:12:899;1448277552.6;(0, 0);0;0;;;;;;;;;;;;;;6;0;0;;0;2;();();(-2000.0, -2000.0);
12:03:12:956;12:03:12:899;1448277552.6;(0, 0);0;0;;;;;;;;;;;;;;6;0;0;;0;4;(27,45);((-23.3, 0.0, -1.0),(-23.3, 0.0, -1.0));(-0.8, -3.1);
12:03:12:974;12:03:12:968;1448277552.67;(0, 0);0;0;;;;;;;;;;;;;;6;0;0;;0;4;();();(-2000.0, -2000.0);
12:03:12:990;12:03:12:968;1448277552.67;(0, 0);0;0;;;;;;;;;;;;;;6;0;0;;0;4;();();(-2000.0, -2000.0);
12:03:13:006;12:03:12:968;1448277552.67;(0, 0);0;0;;;;;;;;;;;;;;6;0;0;;0;4;();();(-2000.0, -2000.0);
12:03:13:041;12:03:13:031;1448277552.74;(0, 0);0;0;;;;;;;;;;;;;;6;0;0;;0;4;();();(-2000.0, -2000.0);
12:03:13:056;12:03:13:031;1448277552.74;(0, 0);0;0;;;;;;;;;;;;;;6;0;0;;0;4;();();(-2000.0, -2000.0);
12:03:13:073;12:03:13:031;1448277552.74;(0, 0);0;0;;;;;;;;;;;;;;6;0;0;;0;4;();();(-2000.0, -2000.0);
12:03:13:090;12:03:13:031;1448277552.74;(0, 0);0;0;;;;;;;;;;;;;;6;0;0;;0;4;();();(-2000.0, -2000.0);
12:03:13:106;12:03:13:104;1448277552.8;(0, 0);0;0;;;;;;;;;;;;;;6;0;0;;0;4;();();(-2000.0, -2000.0);
12:03:13:140;12:03:13:104;1448277552.8;(0, 0);0;0;;;;;;;;;;;;;;6;0;0;;0;4;();();(-2000.0, -2000.0);
12:03:13:157;12:03:13:104;1448277552.8;(0, 0);0;0;;;;;;;;;;;;;;6;0;0;;0;4;();();(-2000.0, -2000.0);
12:03:13:173;12:03:13:168;1448277552.87;(0.3190739154815674, 0.20238333808051212);19.5599079132;0.638471625988;;;;;;;;;;;;;;6;0;0;;0;4;();();(-2000.0, -2000.0);
12:03:13:190;12:03:13:168;1448277552.87;(0.3190739154815674, 0.20238333808051212);19.5599079132;0.638471625988;;;;;;;;;;;;;;6;0;0;;0;4;();();(-2000.0, -2000.0);
12:03:13:205;12:03:13:168;1448277552.87;(0.3190739154815674, 0.20238333808051212);19.5599079132;0.638471625988;;;;;;;;;;;;;;6;0;0;;0;4;();();(-2000.0, -2000.0);
12:03:13:239;12:03:13:231;1448277552.94;(0, 0);0;0;;;;;;;;;;;;;;6;0;0;;0;4;();();(-2000.0, -2000.0);
12:03:13:256;12:03:13:231;1448277552.94;(0, 0);0;0;;;;;;;;;;;;;;6;0;0;;0;4;();();(-2000.0, -2000.0);
12:03:13:273;12:03:13:231;1448277552.94;(0, 0);0;0;;;;;;;;;;;;;;6;0;0;;0;4;();();(-2000.0, -2000.0);
12:03:13:290;12:03:13:231;1448277552.94;(0, 0);0;0;;;;;;;;;;;;;;6;0;0;;0;4;();();(-2000.0, -2000.0);
12:03:13:307;12:03:13:301;1448277553.0;(0.321262526512146, 0.19868070814344618);24.0962123871;0.673140625995;;;;;;;;;;;;;;6;0;0;;0;4;();();(-2000.0, -2000.0);
12:03:13:340;12:03:13:301;1448277553.0;(0.321262526512146, 0.19868070814344618);24.0962123871;0.673140625995;;;;;;;;;;;;;;6;0;0;;0;4;();();(-2000.0, -2000.0);
12:03:13:356;12:03:13:301;1448277553.0;(0.321262526512146, 0.19868070814344618);24.0962123871;0.673140625995;;;;;;;;;;;;;;6;0;0;;0;4;();();(-2000.0, -2000.0);
12:03:13:373;12:03:13:365;1448277553.07;(0, 0);0;0;;;;;;;;;;;;;;6;0;0;;0;4;();();(-2000.0, -2000.0);
12:03:13:389;12:03:13:365;1448277553.07;(0, 0);0;0;;;;;;;;;;;;;;6;0;0;;0;4;();();(-2000.0, -2000.0);
12:03:13:407;12:03:13:365;1448277553.07;(0, 0);0;0;;;;;;;;;;;;;;6;0;0;;0;4;();();(-2000.0, -2000.0);
12:03:13:440;12:03:13:365;1448277553.07;(0, 0);0;0;;;;;;;;;;;;;;6;0;0;;0;4;();();(-2000.0, -2000.0);
12:03:13:456;12:03:13:365;1448277553.07;(0, 0);0;0;;;;;;;;;;;;;;6;0;0;;0;4;();();(-2000.0, -2000.0);
12:03:13:473;12:03:13:365;1448277553.07;(0, 0);0;0;;;;;;;;;;;;;;6;0;0;;0;4;();();(-2000.0, -2000.0);
12:03:13:491;12:03:13:365;1448277553.07;(0, 0);0;0;;;;;;;;;;;;;;6;0;0;;0;4;();();(-2000.0, -2000.0);
12:03:13:507;12:03:13:500;1448277553.2;(0, 0);0;0;;;;;;;;;;;;;;6;0;0;;0;4;();();(-2000.0, -2000.0);
12:03:13:540;12:03:13:500;1448277553.2;(0, 0);0;0;;;;;;;;;;;;;;6;0;0;;0;4;();();(-2000.0, -2000.0);
12:03:13:557;12:03:13:500;1448277553.2;(0, 0);0;0;;;;;;;;;;;;;;6;0;0;;0;4;();();(-2000.0, -2000.0);
12:03:13:574;12:03:13:500;1448277553.2;(0, 0);0;0;;;;;;;;;;;;;;6;0;0;;0;4;();();(-2000.0, -2000.0);
12:03:13:591;12:03:13:500;1448277553.2;(0, 0);0;0;;;;;;;;;;;;;;6;0;0;;0;4;();();(-2000.0, -2000.0);
12:03:13:607;12:03:13:500;1448277553.2;(0, 0);0;0;;;;;;;;;;;;;;6;0;0;;0;4;();();(-2000.0, -2000.0);
12:03:13:640;12:03:13:632;1448277553.34;(0.3254318475723267, 0.2002037896050347);23.5090427399;0.619834320667;;;;;;;;;;;;;;4;0;0;;0;4;();();(-2000.0, -2000.0);
12:03:13:657;12:03:13:632;1448277553.34;(0.3254318475723267, 0.2002037896050347);23.5090427399;0.619834320667;;;;;;;;;;;;;;4;0;0;;0;4;();();(-2000.0, -2000.0);
12:03:13:673;12:03:13:632;1448277553.34;(0.3254318475723267, 0.2002037896050347);23.5090427399;0.619834320667;;;;;;;;;;;;;;4;0;0;;0;4;();();(-2000.0, -2000.0);
12:03:13:691;12:03:13:632;1448277553.34;(0.3254318475723267, 0.2002037896050347);23.5090427399;0.619834320667;;;;;;;;;;;;;;4;0;0;;0;4;();();(-2000.0, -2000.0);
12:03:13:707;12:03:13:632;1448277553.34;(0.3254318475723267, 0.2002037896050347);23.5090427399;0.619834320667;;;;;;;;;;;;;;4;0;0;;0;4;();();(-2000.0, -2000.0);
12:03:13:740;12:03:13:632;1448277553.34;(0.3254318475723267, 0.2002037896050347);23.5090427399;0.619834320667;;;;;;;;;;;;;;4;0;0;;0;4;();();(-2000.0, -2000.0);
12:03:13:757;12:03:13:632;1448277553.34;(0.3254318475723267, 0.2002037896050347);23.5090427399;0.619834320667;;;;;;;;;;;;;;4;0;0;;0;4;();();(-2000.0, -2000.0);
12:03:13:773;12:03:13:764;1448277553.47;(0, 0);0;0;;;;;;;;;;;;;;4;0;0;;0;4;();();(-2000.0, -2000.0);
12:03:13:789;12:03:13:764;1448277553.47;(0, 0);0;0;;;;;;;;;;;;;;4;0;0;;0;4;();();(-2000.0, -2000.0);
12:03:13:807;12:03:13:764;1448277553.47;(0, 0);0;0;;;;;;;;;;;;;;4;0;0;;0;4;();();(-2000.0, -2000.0);
12:03:13:840;12:03:13:832;1448277553.54;(0, 0);0;0;;;;;;;;;;;;;;4;0;0;;0;4;();();(-2000.0, -2000.0);
12:03:13:857;12:03:13:832;1448277553.54;(0, 0);0;0;;;;;;;;;;;;;;4;0;0;;0;4;();();(-2000.0, -2000.0);
12:03:13:873;12:03:13:832;1448277553.54;(0, 0);0;0;;;;;;;;;;;;;;4;0;0;;0;4;();();(-2000.0, -2000.0);
12:03:13:890;12:03:13:832;1448277553.54;(0, 0);0;0;;;;;;;;;;;;;;4;0;0;;0;4;();();(-2000.0, -2000.0);
12:03:13:907;12:03:13:897;1448277553.6;(0.33198084831237795, 0.19829491509331598);37.0078659058;0.662705887844;;;;;;;;;;;;;;4;0;0;;0;4;();();(-2000.0, -2000.0);
12:03:13:940;12:03:13:897;1448277553.6;(0.33198084831237795, 0.19829491509331598);37.0078659058;0.662705887844;;;;;;;;;;;;;;4;0;0;;0;4;();();(-2000.0, -2000.0);
12:03:13:957;12:03:13:897;1448277553.6;(0.33198084831237795, 0.19829491509331598);37.0078659058;0.662705887844;;;;;;;;;;;;;;4;0;0;;0;4;();();(-2000.0, -2000.0);
12:03:13:974;12:03:13:964;1448277553.67;(0, 0);0;0;;;;;;;;;;;;;;4;0;0;;0;4;();();(-2000.0, -2000.0);
12:03:13:990;12:03:13:964;1448277553.67;(0, 0);0;0;;;;;;;;;;;;;;4;0;0;;0;4;();();(-2000.0, -2000.0);
12:03:14:008;12:03:13:964;1448277553.67;(0, 0);0;0;;;;;;;;;;;;;;4;0;0;;0;4;();();(-2000.0, -2000.0);
12:03:14:041;12:03:13:964;1448277553.67;(0, 0);0;0;;;;;;;;;;;;;;4;0;0;;0;4;();();(-2000.0, -2000.0);
12:03:14:058;12:03:13:964;1448277553.67;(0, 0);0;0;;;;;;;;;;;;;;4;0;0;;0;4;();();(-2000.0, -2000.0);
12:03:14:074;12:03:13:964;1448277553.67;(0, 0);0;0;;;;;;;;;;;;;;4;0;0;;0;4;();();(-2000.0, -2000.0);
12:03:14:091;12:03:13:964;1448277553.67;(0, 0);0;0;;;;;;;;;;;;;;4;0;0;;0;4;();();(-2000.0, -2000.0);
12:03:14:107;12:03:14:097;1448277553.8;(0, 0);0;0;;;;;;;;;;;;;;4;0;0;;0;4;();();(-2000.0, -2000.0);
12:03:14:141;12:03:14:097;1448277553.8;(0, 0);0;0;;;;;;;;;;;;;;4;0;0;;0;4;();();(-2000.0, -2000.0);
12:03:14:159;12:03:14:097;1448277553.8;(0, 0);0;0;;;;;;;;;;;;;;4;0;0;;0;4;();();(-2000.0, -2000.0);
12:03:14:174;12:03:14:097;1448277553.8;(0, 0);0;0;;;;;;;;;;;;;;4;0;0;;0;4;();();(-2000.0, -2000.0);
12:03:14:191;12:03:14:097;1448277553.8;(0, 0);0;0;;;;;;;;;;;;;;4;0;0;;0;4;();();(-2000.0, -2000.0);
12:03:14:207;12:03:14:097;1448277553.8;(0, 0);0;0;;;;;;;;;;;;;;4;0;0;;0;4;();();(-2000.0, -2000.0);
12:03:14:240;12:03:14:228;1448277553.94;(0, 0);0;0;;;;;;;;;;;;;;4;0;0;;0;4;();();(-2000.0, -2000.0);
12:03:14:257;12:03:14:228;1448277553.94;(0, 0);0;0;;;;;;;;;;;;;;4;0;0;;0;4;();();(-2000.0, -2000.0);
12:03:14:275;12:03:14:228;1448277553.94;(0, 0);0;0;;;;;;;;;;;;;;4;0;0;;0;4;();();(-2000.0, -2000.0);
12:03:14:291;12:03:14:228;1448277553.94;(0, 0);0;0;;;;;;;;;;;;;;4;0;0;;0;4;();();(-2000.0, -2000.0);
12:03:14:307;12:03:14:228;1448277553.94;(0, 0);0;0;;;;;;;;;;;;;;4;0;0;;0;4;();();(-2000.0, -2000.0);
12:03:14:341;12:03:14:228;1448277553.94;(0, 0);0;0;;;;;;;;;;;;;;4;0;0;;0;4;();();(-2000.0, -2000.0);
12:03:14:358;12:03:14:228;1448277553.94;(0, 0);0;0;;;;;;;;;;;;;;4;0;0;;0;4;();();(-2000.0, -2000.0);
12:03:14:375;12:03:14:360;1448277554.07;(0, 0);0;0;;;;;;;;;;;;;;4;0;0;;0;4;();();(-2000.0, -2000.0);
12:03:14:391;12:03:14:360;1448277554.07;(0, 0);0;0;;;;;;;;;;;;;;4;0;0;;0;4;();();(-2000.0, -2000.0);
12:03:14:407;12:03:14:360;1448277554.07;(0, 0);0;0;;;;;;;;;;;;;;4;0;0;;0;4;();();(-2000.0, -2000.0);
12:03:14:440;12:03:14:360;1448277554.07;(0, 0);0;0;;;;;;;;;;;;;;4;0;0;;0;4;();();(-2000.0, -2000.0);
12:03:14:459;12:03:14:360;1448277554.07;(0, 0);0;0;;;;;;;;;;;;;;6;0;0;;0;4;();();(-2000.0, -2000.0);
12:03:14:474;12:03:14:360;1448277554.07;(0, 0);0;0;;;;;;;;;;;;;;6;0;0;;0;4;();();(-2000.0, -2000.0);
12:03:14:491;12:03:14:360;1448277554.07;(0, 0);0;0;;;;;;;;;;;;;;6;0;0;;0;4;();();(-2000.0, -2000.0);
12:03:14:508;12:03:14:493;1448277554.14;(0, 0);0;0;;;;;;;;;;;;;;6;0;0;;0;4;();();(-2000.0, -2000.0);
12:03:14:541;12:03:14:493;1448277554.14;(0, 0);0;0;;;;;;;;;;;;;;6;0;0;;0;4;();();(-2000.0, -2000.0);
12:03:14:559;12:03:14:493;1448277554.14;(0, 0);0;0;;;;;;;;;;;;;;6;0;0;;0;4;();();(-2000.0, -2000.0);
12:03:14:574;12:03:14:560;1448277554.27;(0, 0);0;0;;;;;;;;;;;;;;6;0;0;;0;4;();();(-2000.0, -2000.0);
12:03:14:591;12:03:14:560;1448277554.27;(0, 0);0;0;;;;;;;;;;;;;;6;0;0;;0;4;();();(-2000.0, -2000.0);
12:03:14:608;12:03:14:560;1448277554.27;(0, 0);0;0;;;;;;;;;;;;;;6;0;0;;0;4;();();(-2000.0, -2000.0);
12:03:14:641;12:03:14:560;1448277554.27;(0, 0);0;0;;;;;;;;;;;;;;6;0;0;;0;4;();();(-2000.0, -2000.0);
12:03:14:658;12:03:14:560;1448277554.27;(0, 0);0;0;;;;;;;;;;;;;;6;0;0;;0;4;();();(-2000.0, -2000.0);
12:03:14:675;12:03:14:560;1448277554.27;(0, 0);0;0;;;;;;;;;;;;;;6;0;0;;0;4;();();(-2000.0, -2000.0);
12:03:14:691;12:03:14:560;1448277554.27;(0, 0);0;0;;;;;;;;;;;;;;6;0;0;;0;4;();();(-2000.0, -2000.0);
12:03:14:708;12:03:14:695;1448277554.4;(0, 0);0;0;;;;;;;;;;;;;;6;0;0;;0;4;();();(-2000.0, -2000.0);
12:03:14:741;12:03:14:695;1448277554.4;(0, 0);0;0;;;;;;;;;;;;;;6;0;0;;0;4;();();(-2000.0, -2000.0);
12:03:14:758;12:03:14:695;1448277554.4;(0, 0);0;0;;;;;;;;;;;;;;6;0;0;;0;4;();();(-2000.0, -2000.0);
12:03:14:775;12:03:14:695;1448277554.4;(0, 0);0;0;;;;;;;;;;;;;;6;0;0;;0;4;();();(-2000.0, -2000.0);
12:03:14:791;12:03:14:695;1448277554.4;(0, 0);0;0;;;;;;;;;;;;;;6;0;0;;0;4;();();(-2000.0, -2000.0);
12:03:14:808;12:03:14:695;1448277554.4;(0, 0);0;0;;;;;;;;;;;;;;6;0;0;;0;4;();();(-2000.0, -2000.0);
12:03:14:841;12:03:14:824;1448277554.47;(0.3207708835601807, 0.20265604654947922);19.3723087311;0.840252048007;;;;;;;;;;;;;;6;0;0;;0;4;();();(-2000.0, -2000.0);
12:03:14:858;12:03:14:824;1448277554.47;(0.3207708835601807, 0.20265604654947922);19.3723087311;0.840252048007;;;;;;;;;;;;;;6;0;0;;0;4;();();(-2000.0, -2000.0);
12:03:14:875;12:03:14:824;1448277554.47;(0.3207708835601807, 0.20265604654947922);19.3723087311;0.840252048007;;;;;;;;;;;;;;6;0;0;;0;4;();();(-2000.0, -2000.0);
12:03:14:891;12:03:14:824;1448277554.47;(0.3207708835601807, 0.20265604654947922);19.3723087311;0.840252048007;;;;;;;;;;;;;;6;0;0;;0;4;();();(-2000.0, -2000.0);
12:03:14:908;12:03:14:893;1448277554.6;(0, 0);0;0;;;;;;;;;;;;;;6;0;0;;0;4;();();(-2000.0, -2000.0);
12:03:14:941;12:03:14:893;1448277554.6;(0, 0);0;0;;;;;;;;;;;;;;6;0;0;;0;4;();();(-2000.0, -2000.0);
12:03:14:958;12:03:14:893;1448277554.6;(0, 0);0;0;;;;;;;;;;;;;;6;0;0;;0;4;();();(-2000.0, -2000.0);
12:03:14:975;12:03:14:961;1448277554.67;(0, 0);0;0;;;;;;;;;;;;;;6;0;0;;0;4;();();(-2000.0, -2000.0);
12:03:14:991;12:03:14:961;1448277554.67;(0, 0);0;0;;;;;;;;;;;;;;6;0;0;;0;4;();();(-2000.0, -2000.0);
12:03:15:008;12:03:14:961;1448277554.67;(0, 0);0;0;;;;;;;;;;;;;;6;0;0;;0;4;();();(-2000.0, -2000.0);
12:03:15:041;12:03:15:024;1448277554.74;(0, 0);0;0;;;;;;;;;;;;;;6;0;0;;0;4;();();(-2000.0, -2000.0);
12:03:15:059;12:03:15:024;1448277554.74;(0, 0);0;0;;;;;;;;;;;;;;6;0;0;;0;4;();();(-2000.0, -2000.0);
12:03:15:075;12:03:15:024;1448277554.74;(0, 0);0;0;;;;;;;;;;;;;;6;0;0;;0;4;();();(-2000.0, -2000.0);
12:03:15:091;12:03:15:024;1448277554.74;(0, 0);0;0;;;;;;;;;;;;;;6;0;0;;0;4;();();(-2000.0, -2000.0);
12:03:15:108;12:03:15:024;1448277554.74;(0, 0);0;0;;;;;;;;;;;;;;6;0;0;;0;4;();();(-2000.0, -2000.0);
12:03:15:142;12:03:15:024;1448277554.74;(0, 0);0;0;;;;;;;;;;;;;;6;0;0;;0;4;();();(-2000.0, -2000.0);
12:03:15:159;12:03:15:155;1448277554.8;(0, 0);0;0;;;;;;;;;;;;;;6;0;0;;0;4;();();(-2000.0, -2000.0);
12:03:15:176;12:03:15:155;1448277554.8;(0, 0);0;0;;;;;;;;;;;;;;6;0;0;;0;4;();();(-2000.0, -2000.0);
12:03:15:192;12:03:15:155;1448277554.8;(0, 0);0;0;;;;;;;;;;;;;;6;0;0;;0;4;();();(-2000.0, -2000.0);
12:03:15:209;12:03:15:155;1448277554.8;(0, 0);0;0;;;;;;;;;;;;;;6;0;0;;0;4;();();(-2000.0, -2000.0);
12:03:15:226;12:03:15:224;1448277554.87;(0, 0);0;0;;;;;;;;;;;;;;6;0;0;;0;4;();();(-2000.0, -2000.0);
12:03:15:259;12:03:15:224;1448277554.87;(0, 0);0;0;;;;;;;;;;;;;;6;0;0;;0;4;();();(-2000.0, -2000.0);
12:03:15:276;12:03:15:224;1448277554.87;(0, 0);0;0;;;;;;;;;;;;;;6;0;0;;0;4;();();(-2000.0, -2000.0);
12:03:15:292;12:03:15:292;1448277554.94;(0, 0);0;0;;;;;;;;;;;;;;6;0;0;;0;4;();();(-2000.0, -2000.0);
12:03:15:308;12:03:15:292;1448277554.94;(0, 0);0;0;;;;;;;;;;;;;;6;0;0;;0;4;();();(-2000.0, -2000.0);
12:03:15:342;12:03:15:292;1448277554.94;(0, 0);0;0;;;;;;;;;;;;;;6;0;0;;0;4;();();(-2000.0, -2000.0);
12:03:15:358;12:03:15:356;1448277555.0;(0, 0);0;0;;;;;;;;;;;;;;6;0;0;;0;4;();();(-2000.0, -2000.0);
12:03:15:374;12:03:15:356;1448277555.0;(0, 0);0;0;;;;;;;;;;;;;;6;0;0;;0;4;();();(-2000.0, -2000.0);
12:03:15:392;12:03:15:356;1448277555.0;(0, 0);0;0;;;;;;;;;;;;;;6;0;0;;0;4;();();(-2000.0, -2000.0);
12:03:15:409;12:03:15:356;1448277555.0;(0, 0);0;0;;;;;;;;;;;;;;6;0;0;;0;4;();();(-2000.0, -2000.0);
12:03:15:441;12:03:15:424;1448277555.07;(0.3354707002639771, 0.20508134629991315);33.9656562805;0.758002681727;;;;;;;;;;;;;;6;0;0;;0;4;();();(-2000.0, -2000.0);
12:03:15:457;12:03:15:424;1448277555.07;(0.3354707002639771, 0.20508134629991315);33.9656562805;0.758002681727;;;;;;;;;;;;;;6;0;0;;0;4;();();(-2000.0, -2000.0);
12:03:15:475;12:03:15:424;1448277555.07;(0.3354707002639771, 0.20508134629991315);33.9656562805;0.758002681727;;;;;;;;;;;;;;6;0;0;;0;4;();();(-2000.0, -2000.0);
12:03:15:493;12:03:15:488;1448277555.14;(0, 0);0;0;;;;;;;;;;;;;;6;0;0;;0;4;();();(-2000.0, -2000.0);
12:03:15:509;12:03:15:488;1448277555.14;(0, 0);0;0;;;;;;;;;;;;;;6;0;0;;0;4;();();(-2000.0, -2000.0);
12:03:15:525;12:03:15:488;1448277555.14;(0, 0);0;0;;;;;;;;;;;;;;6;0;0;;0;4;();();(-2000.0, -2000.0);
12:03:15:559;12:03:15:556;1448277555.27;(0, 0);0;0;;;;;;;;;;;;;;6;0;0;;0;4;();();(-2000.0, -2000.0);
12:03:15:576;12:03:15:556;1448277555.27;(0, 0);0;0;;;;;;;;;;;;;;6;0;0;;0;4;();();(-2000.0, -2000.0);
12:03:15:592;12:03:15:556;1448277555.27;(0, 0);0;0;;;;;;;;;;;;;;6;0;0;;0;4;();();(-2000.0, -2000.0);
12:03:15:609;12:03:15:556;1448277555.27;(0, 0);0;0;;;;;;;;;;;;;;6;0;0;;0;4;();();(-2000.0, -2000.0);
12:03:15:626;12:03:15:556;1448277555.27;(0, 0);0;0;;;;;;;;;;;;;;6;0;0;;0;4;();();(-2000.0, -2000.0);
12:03:15:659;12:03:15:556;1448277555.27;(0, 0);0;0;;;;;;;;;;;;;;6;0;0;;0;4;();();(-2000.0, -2000.0);
12:03:15:676;12:03:15:556;1448277555.27;(0, 0);0;0;;;;;;;;;;;;;;6;0;0;;0;4;();();(-2000.0, -2000.0);
12:03:15:692;12:03:15:689;1448277555.34;(0.6153292179107666, 0.2196741739908854);29.3644752502;0.604610474066;;;;;;;;;;;;;;6;0;0;;0;4;();();(-2000.0, -2000.0);
12:03:15:709;12:03:15:689;1448277555.34;(0.6153292179107666, 0.2196741739908854);29.3644752502;0.604610474066;;;;;;;;;;;;;;6;0;0;;0;4;();();(-2000.0, -2000.0);
12:03:15:726;12:03:15:689;1448277555.34;(0.6153292179107666, 0.2196741739908854);29.3644752502;0.604610474066;;;;;;;;;;;;;;6;0;0;;0;4;();();(-2000.0, -2000.0);
12:03:15:759;12:03:15:756;1448277555.4;(0, 0);0;0;;;;;;;;;;;;;;6;0;0;;0;4;();();(-2000.0, -2000.0);
12:03:15:776;12:03:15:756;1448277555.4;(0, 0);0;0;;;;;;;;;;;;;;6;0;0;;0;4;();();(-2000.0, -2000.0);
12:03:15:791;12:03:15:756;1448277555.4;(0, 0);0;0;;;;;;;;;;;;;;6;0;0;;0;4;();();(-2000.0, -2000.0);
12:03:15:809;12:03:15:756;1448277555.4;(0, 0);0;0;;;;;;;;;;;;;;6;0;0;;0;4;();();(-2000.0, -2000.0);
12:03:15:826;12:03:15:824;1448277555.47;(0.33583641052246094, 0.19644198947482638);38.8628768921;0.678911622658;;;;;;;;;;;;;;6;0;0;;0;4;();();(-2000.0, -2000.0);
12:03:15:859;12:03:15:824;1448277555.47;(0.33583641052246094, 0.19644198947482638);38.8628768921;0.678911622658;;;;;;;;;;;;;;6;0;0;;0;4;();();(-2000.0, -2000.0);
12:03:15:874;12:03:15:824;1448277555.47;(0.33583641052246094, 0.19644198947482638);38.8628768921;0.678911622658;;;;;;;;;;;;;;6;0;0;;0;4;();();(-2000.0, -2000.0);
12:03:15:892;12:03:15:888;1448277555.54;(0, 0);0;0;;;;;;;;;;;;;;6;0;0;;0;4;();();(-2000.0, -2000.0);
12:03:15:910;12:03:15:888;1448277555.54;(0, 0);0;0;;;;;;;;;;;;;;6;0;0;;0;4;();();(-2000.0, -2000.0);
12:03:15:926;12:03:15:888;1448277555.54;(0, 0);0;0;;;;;;;;;;;;;;6;0;0;;0;4;();();(-2000.0, -2000.0);
12:03:15:959;12:03:15:888;1448277555.54;(0, 0);0;0;;;;;;;;;;;;;;6;0;0;;0;4;();();(-2000.0, -2000.0);
12:03:15:976;12:03:15:961;1448277555.6;(0, 0);0;0;;;;;;;;;;;;;;6;0;0;;0;4;();();(-2000.0, -2000.0);
12:03:15:992;12:03:15:961;1448277555.6;(0, 0);0;0;;;;;;;;;;;;;;6;0;0;;0;4;();();(-2000.0, -2000.0);
12:03:16:009;12:03:15:961;1448277555.6;(0, 0);0;0;;;;;;;;;;;;;;6;0;0;;0;4;();();(-2000.0, -2000.0);
12:03:16:026;12:03:16:020;1448277555.67;(0, 0);0;0;;;;;;;;;;;;;;6;0;0;;0;4;();();(-2000.0, -2000.0);
12:03:16:059;12:03:16:020;1448277555.67;(0, 0);0;0;;;;;;;;;;;;;;6;0;0;;0;4;();();(-2000.0, -2000.0);
12:03:16:076;12:03:16:020;1448277555.67;(0, 0);0;0;;;;;;;;;;;;;;6;0;0;;0;4;();();(-2000.0, -2000.0);
12:03:16:092;12:03:16:088;1448277555.74;(0, 0);0;0;;;;;;;;;;;;;;6;0;0;;0;4;();();(-2000.0, -2000.0);
12:03:16:109;12:03:16:088;1448277555.74;(0, 0);0;0;;;;;;;;;;;;;;6;0;0;;0;4;();();(-2000.0, -2000.0);
12:03:16:143;12:03:16:088;1448277555.74;(0, 0);0;0;;;;;;;;;;;;;;6;0;0;;0;4;();();(-2000.0, -2000.0);
12:03:16:160;12:03:16:088;1448277555.74;(0, 0);0;0;;;;;;;;;;;;;;6;0;0;;0;4;();();(-2000.0, -2000.0);
12:03:16:176;12:03:16:172;1448277555.8;(0, 0);0;0;;;;;;;;;;;;;;6;0;0;;0;4;();();(-2000.0, -2000.0);
12:03:16:192;12:03:16:172;1448277555.8;(0, 0);0;0;;;;;;;;;;;;;;6;0;0;;0;4;();();(-2000.0, -2000.0);
12:03:16:209;12:03:16:172;1448277555.8;(0, 0);0;0;;;;;;;;;;;;;;6;0;0;;0;4;();();(-2000.0, -2000.0);
12:03:16:226;12:03:16:220;1448277555.87;(0, 0);0;0;;;;;;;;;;;;;;6;0;0;;0;4;();();(-2000.0, -2000.0);
12:03:16:259;12:03:16:220;1448277555.87;(0, 0);0;0;;;;;;;;;;;;;;6;0;0;;0;4;();();(-2000.0, -2000.0);
12:03:16:276;12:03:16:220;1448277555.87;(0, 0);0;0;;;;;;;;;;;;;;6;0;0;;0;4;();();(-2000.0, -2000.0);
12:03:16:293;12:03:16:288;1448277555.94;(0, 0);0;0;;;;;;;;;;;;;;6;0;0;;0;4;();();(-2000.0, -2000.0);
12:03:16:309;12:03:16:288;1448277555.94;(0, 0);0;0;;;;;;;;;;;;;;6;0;0;;0;4;();();(-2000.0, -2000.0);
12:03:16:326;12:03:16:288;1448277555.94;(0, 0);0;0;;;;;;;;;;;;;;6;0;0;;0;4;();();(-2000.0, -2000.0);
12:03:16:359;12:03:16:352;1448277556.0;(0.6155084133148193, 0.2215468512641059);37.3468589783;0.617237953439;;;;;;;;;;;;;;6;0;0;;0;4;();();(-2000.0, -2000.0);
12:03:16:377;12:03:16:352;1448277556.0;(0.6155084133148193, 0.2215468512641059);37.3468589783;0.617237953439;;;;;;;;;;;;;;6;0;0;;0;4;();();(-2000.0, -2000.0);
12:03:16:392;12:03:16:352;1448277556.0;(0.6155084133148193, 0.2215468512641059);37.3468589783;0.617237953439;;;;;;;;;;;;;;6;0;0;;0;4;();();(-2000.0, -2000.0);
12:03:16:410;12:03:16:352;1448277556.0;(0.6155084133148193, 0.2215468512641059);37.3468589783;0.617237953439;;;;;;;;;;;;;;6;0;0;;0;4;();();(-2000.0, -2000.0);
12:03:16:426;12:03:16:419;1448277556.07;(0, 0);0;0;;;;;;;;;;;;;;6;0;0;;0;4;();();(-2000.0, -2000.0);
12:03:16:458;12:03:16:419;1448277556.07;(0, 0);0;0;;;;;;;;;;;;;;6;0;0;;0;4;();();(-2000.0, -2000.0);
12:03:16:476;12:03:16:419;1448277556.07;(0, 0);0;0;;;;;;;;;;;;;;6;0;0;;0;4;();();(-2000.0, -2000.0);
12:03:16:493;12:03:16:485;1448277556.14;(0, 0);0;0;;;;;;;;;;;;;;6;0;0;;0;4;();();(-2000.0, -2000.0);
12:03:16:510;12:03:16:485;1448277556.14;(0, 0);0;0;;;;;;;;;;;;;;6;0;0;;0;4;();();(-2000.0, -2000.0);
12:03:16:543;12:03:16:485;1448277556.14;(0, 0);0;0;;;;;;;;;;;;;;6;0;0;;0;4;();();(-2000.0, -2000.0);
12:03:16:559;12:03:16:552;1448277556.2;(0.5824778079986572, 0.21981641981336808);19.8952121735;0.890623724932;;;;;;;;;;;;;;6;0;0;;0;4;();();(-2000.0, -2000.0);
12:03:16:576;12:03:16:552;1448277556.2;(0.5824778079986572, 0.21981641981336808);19.8952121735;0.890623724932;;;;;;;;;;;;;;6;0;0;;0;4;();();(-2000.0, -2000.0);
12:03:16:593;12:03:16:552;1448277556.2;(0.5824778079986572, 0.21981641981336808);19.8952121735;0.890623724932;;;;;;;;;;;;;;6;0;0;;0;4;();();(-2000.0, -2000.0);
12:03:16:609;12:03:16:552;1448277556.2;(0.5824778079986572, 0.21981641981336808);19.8952121735;0.890623724932;;;;;;;;;;;;;;6;0;0;;0;4;();();(-2000.0, -2000.0);
12:03:16:626;12:03:16:620;1448277556.27;(0, 0);0;0;;;;;;;;;;;;;;6;0;0;;0;4;();();(-2000.0, -2000.0);
12:03:16:659;12:03:16:620;1448277556.27;(0, 0);0;0;;;;;;;;;;;;;;6;0;0;;0;4;();();(-2000.0, -2000.0);
12:03:16:676;12:03:16:620;1448277556.27;(0, 0);0;0;;;;;;;;;;;;;;6;0;0;;0;4;();();(-2000.0, -2000.0);
12:03:16:694;12:03:16:683;1448277556.34;(0, 0);0;0;;;;;;;;;;;;;;6;0;0;;0;4;();();(-2000.0, -2000.0);
12:03:16:710;12:03:16:683;1448277556.34;(0, 0);0;0;;;;;;;;;;;;;;6;0;0;;0;4;();();(-2000.0, -2000.0);
12:03:16:726;12:03:16:683;1448277556.34;(0, 0);0;0;;;;;;;;;;;;;;6;0;0;;0;4;();();(-2000.0, -2000.0);
12:03:16:759;12:03:16:753;1448277556.4;(0, 0);0;0;;;;;;;;;;;;;;6;0;0;;0;4;();();(-2000.0, -2000.0);
12:03:16:776;12:03:16:753;1448277556.4;(0, 0);0;0;;;;;;;;;;;;;;6;0;0;;0;4;();();(-2000.0, -2000.0);
12:03:16:791;12:03:16:753;1448277556.4;(0, 0);0;0;;;;;;;;;;;;;;6;0;0;;0;4;();();(-2000.0, -2000.0);
12:03:16:810;12:03:16:753;1448277556.4;(0, 0);0;0;;;;;;;;;;;;;;6;0;0;;0;4;();();(-2000.0, -2000.0);
12:03:16:826;12:03:16:816;1448277556.47;(0, 0);0;0;;;;;;;;;;;;;;6;0;0;;0;4;();();(-2000.0, -2000.0);
12:03:16:860;12:03:16:816;1448277556.47;(0, 0);0;0;;;;;;;;;;;;;;6;0;0;;0;4;();();(-2000.0, -2000.0);
12:03:16:877;12:03:16:816;1448277556.47;(0, 0);0;0;;;;;;;;;;;;;;6;0;0;;0;4;();();(-2000.0, -2000.0);
12:03:16:893;12:03:16:885;1448277556.54;(0.3222975492477417, 0.20115695529513888);23.4432449341;0.645450492399;;;;;;;;;;;;;;6;0;0;;0;4;();();(-2000.0, -2000.0);
12:03:16:910;12:03:16:885;1448277556.54;(0.3222975492477417, 0.20115695529513888);23.4432449341;0.645450492399;;;;;;;;;;;;;;6;0;0;;0;4;();();(-2000.0, -2000.0);
12:03:16:927;12:03:16:885;1448277556.54;(0.3222975492477417, 0.20115695529513888);23.4432449341;0.645450492399;;;;;;;;;;;;;;6;0;0;;0;4;();();(-2000.0, -2000.0);
12:03:16:960;12:03:16:948;1448277556.6;(0.320379900932312, 0.20150400797526047);18.351524353;0.74659160863;;;;;;;;;;;;;;6;0;0;;0;4;();();(-2000.0, -2000.0);
12:03:16:977;12:03:16:948;1448277556.6;(0.320379900932312, 0.20150400797526047);18.351524353;0.74659160863;;;;;;;;;;;;;;6;0;0;;0;4;();();(-2000.0, -2000.0);
12:03:16:993;12:03:16:948;1448277556.6;(0.320379900932312, 0.20150400797526047);18.351524353;0.74659160863;;;;;;;;;;;;;;6;0;0;;0;4;();();(-2000.0, -2000.0);
12:03:17:010;12:03:16:948;1448277556.6;(0.320379900932312, 0.20150400797526047);18.351524353;0.74659160863;;;;;;;;;;;;;;6;0;0;;0;4;();();(-2000.0, -2000.0);
12:03:17:027;12:03:17:017;1448277556.67;(0, 0);0;0;;;;;;;;;;;;;;6;0;0;;0;4;();();(-2000.0, -2000.0);
12:03:17:060;12:03:17:017;1448277556.67;(0, 0);0;0;;;;;;;;;;;;;;6;0;0;;0;4;();();(-2000.0, -2000.0);
12:03:17:077;12:03:17:017;1448277556.67;(0, 0);0;0;;;;;;;;;;;;;;6;0;0;;0;4;();();(-2000.0, -2000.0);
12:03:17:093;12:03:17:090;1448277556.74;(0.3247844934463501, 0.1988984849717882);25.2143268585;0.640642850753;;;;;;;;;;;;;;6;0;0;;0;4;();();(-2000.0, -2000.0);
12:03:17:110;12:03:17:090;1448277556.74;(0.3247844934463501, 0.1988984849717882);25.2143268585;0.640642850753;;;;;;;;;;;;;;6;0;0;;0;4;();();(-2000.0, -2000.0);
12:03:17:126;12:03:17:090;1448277556.74;(0.3247844934463501, 0.1988984849717882);25.2143268585;0.640642850753;;;;;;;;;;;;;;6;0;0;;0;4;();();(-2000.0, -2000.0);
12:03:17:161;12:03:17:147;1448277556.8;(0, 0);0;0;;;;;;;;;;;;;;6;0;0;;0;4;();();(-2000.0, -2000.0);
12:03:17:176;12:03:17:147;1448277556.8;(0, 0);0;0;;;;;;;;;;;;;;6;0;0;;0;4;();();(-2000.0, -2000.0);
12:03:17:194;12:03:17:147;1448277556.8;(0, 0);0;0;;;;;;;;;;;;;;6;0;0;;0;4;();();(-2000.0, -2000.0);
12:03:17:211;12:03:17:147;1448277556.8;(0, 0);0;0;;;;;;;;;;;;;;6;0;0;;0;4;();();(-2000.0, -2000.0);
12:03:17:227;12:03:17:216;1448277556.87;(0, 0);0;0;;;;;;;;;;;;;;6;0;0;;0;4;();();(-2000.0, -2000.0);
12:03:17:261;12:03:17:216;1448277556.87;(0, 0);0;0;;;;;;;;;;;;;;6;0;0;;0;4;();();(-2000.0, -2000.0);
12:03:17:277;12:03:17:216;1448277556.87;(0, 0);0;0;;;;;;;;;;;;;;6;0;0;;0;4;();();(-2000.0, -2000.0);
12:03:17:294;12:03:17:279;1448277556.94;(0, 0);0;0;;;;;;;;;;;;;;6;0;0;;0;4;();();(-2000.0, -2000.0);
12:03:17:310;12:03:17:279;1448277556.94;(0, 0);0;0;;;;;;;;;;;;;;6;0;0;;0;4;();();(-2000.0, -2000.0);
12:03:17:327;12:03:17:279;1448277556.94;(0, 0);0;0;;;;;;;;;;;;;;6;0;0;;0;4;();();(-2000.0, -2000.0);
12:03:17:361;12:03:17:349;1448277557.0;(0.890725040435791, 0.2743154737684462);21.0298461914;0.827139903882;;;;;;;;;;;;;;6;0;0;;0;4;();();(-2000.0, -2000.0);
12:03:17:377;12:03:17:349;1448277557.0;(0.890725040435791, 0.2743154737684462);21.0298461914;0.827139903882;;;;;;;;;;;;;;6;0;0;;0;4;();();(-2000.0, -2000.0);
12:03:17:394;12:03:17:349;1448277557.0;(0.890725040435791, 0.2743154737684462);21.0298461914;0.827139903882;;;;;;;;;;;;;;6;0;0;;0;4;();();(-2000.0, -2000.0);
12:03:17:410;12:03:17:349;1448277557.0;(0.890725040435791, 0.2743154737684462);21.0298461914;0.827139903882;;;;;;;;;;;;;;6;0;0;;0;4;();();(-2000.0, -2000.0);
12:03:17:428;12:03:17:418;1448277557.07;(0, 0);0;0;;;;;;;;;;;;;;6;0;0;;0;4;();();(-2000.0, -2000.0);
12:03:17:461;12:03:17:418;1448277557.07;(0, 0);0;0;;;;;;;;;;;;;;6;0;0;;0;4;();();(-2000.0, -2000.0);
12:03:17:477;12:03:17:418;1448277557.07;(0, 0);0;0;;;;;;;;;;;;;;6;0;0;;0;4;();();(-2000.0, -2000.0);
12:03:17:494;12:03:17:480;1448277557.14;(0, 0);0;0;;;;;;;;;;;;;;6;0;0;;0;4;();();(-2000.0, -2000.0);
12:03:17:510;12:03:17:480;1448277557.14;(0, 0);0;0;;;;;;;;;;;;;;6;0;0;;0;4;();();(-2000.0, -2000.0);
12:03:17:527;12:03:17:480;1448277557.14;(0, 0);0;0;;;;;;;;;;;;;;6;0;0;;0;4;();();(-2000.0, -2000.0);
