%Timestamp,timestamp_write;timestamp_gotpupil;eyeTrackerTime;normPos;diameter;confidence;nplanes;listofAirplanesonScreen;lastAction;lastActionDetails;lastActionAirplaneNumber;calculatedScore;positiveScore;negativeScore;collidedAirplaneNumbers;targetPositions;collisionPoint
03:29:39:689;1448289939.27;(0.6276228904724122, 0.7199573092990451);31.3837547302;0.770216213474;0;0;0;0;0;0;0;0;0;();(-2000.0, -2000.0);
03:29:39:702;03:29:39:686;1448289939.31;(0.5578978061676025, 0.78146849738227);21.5373210907;0.80663862223;0;0;0;0;0;0;0;0;0;();(-2000.0, -2000.0);
03:29:39:707;03:29:39:686;1448289939.31;(0.5578978061676025, 0.78146849738227);21.5373210907;0.80663862223;0;0;0;0;0;0;0;0;0;();(-2000.0, -2000.0);
03:29:39:711;03:29:39:686;1448289939.31;(0.5578978061676025, 0.78146849738227);21.5373210907;0.80663862223;0;0;0;0;0;0;0;0;0;();(-2000.0, -2000.0);
03:29:39:715;03:29:39:686;1448289939.31;(0.5578978061676025, 0.78146849738227);21.5373210907;0.80663862223;0;0;0;0;0;0;0;0;0;();(-2000.0, -2000.0);
03:29:39:719;03:29:39:686;1448289939.31;(0.5578978061676025, 0.78146849738227);21.5373210907;0.80663862223;0;0;0;0;0;0;0;0;0;();(-2000.0, -2000.0);
03:29:39:723;03:29:39:686;1448289939.31;(0.5578978061676025, 0.78146849738227);21.5373210907;0.80663862223;0;0;0;0;0;0;0;0;0;();(-2000.0, -2000.0);
03:29:39:727;03:29:39:686;1448289939.31;(0.5578978061676025, 0.78146849738227);21.5373210907;0.80663862223;0;0;0;0;0;0;0;0;0;();(-2000.0, -2000.0);
03:29:39:730;03:29:39:686;1448289939.31;(0.5578978061676025, 0.78146849738227);21.5373210907;0.80663862223;0;0;0;0;0;0;0;0;0;();(-2000.0, -2000.0);
03:29:39:734;03:29:39:686;1448289939.31;(0.5578978061676025, 0.78146849738227);21.5373210907;0.80663862223;0;0;0;0;0;0;0;0;0;();(-2000.0, -2000.0);
03:29:39:738;03:29:39:686;1448289939.31;(0.5578978061676025, 0.78146849738227);21.5373210907;0.80663862223;0;0;0;0;0;0;0;0;0;();(-2000.0, -2000.0);
03:29:39:742;03:29:39:686;1448289939.31;(0.5578978061676025, 0.78146849738227);21.5373210907;0.80663862223;0;0;0;0;0;0;0;0;0;();(-2000.0, -2000.0);
03:29:39:746;03:29:39:686;1448289939.31;(0.5578978061676025, 0.78146849738227);21.5373210907;0.80663862223;0;0;0;0;0;0;0;0;0;();(-2000.0, -2000.0);
03:29:39:751;03:29:39:745;1448289939.34;(0.9116284370422363, 0.6556529151068793);18.6170768738;0.803179059892;0;0;0;0;0;0;0;0;0;();(-2000.0, -2000.0);
03:29:39:756;03:29:39:749;1448289939.38;(0.6518417358398437, 0.7640412860446506);75.2320327759;0.835292463305;0;0;0;0;0;0;0;0;0;();(-2000.0, -2000.0);
03:29:39:760;03:29:39:749;1448289939.38;(0.6518417358398437, 0.7640412860446506);75.2320327759;0.835292463305;0;0;0;0;0;0;0;0;0;();(-2000.0, -2000.0);
03:29:39:764;03:29:39:749;1448289939.38;(0.6518417358398437, 0.7640412860446506);75.2320327759;0.835292463305;0;0;0;0;0;0;0;0;0;();(-2000.0, -2000.0);
03:29:39:768;03:29:39:749;1448289939.38;(0.6518417358398437, 0.7640412860446506);75.2320327759;0.835292463305;0;0;0;0;0;0;0;0;0;();(-2000.0, -2000.0);
03:29:39:772;03:29:39:749;1448289939.38;(0.6518417358398437, 0.7640412860446506);75.2320327759;0.835292463305;0;0;0;0;0;0;0;0;0;();(-2000.0, -2000.0);
03:29:39:775;03:29:39:749;1448289939.38;(0.6518417358398437, 0.7640412860446506);75.2320327759;0.835292463305;0;0;0;0;0;0;0;0;0;();(-2000.0, -2000.0);
03:29:39:779;03:29:39:749;1448289939.38;(0.6518417358398437, 0.7640412860446506);75.2320327759;0.835292463305;0;0;0;0;0;0;0;0;0;();(-2000.0, -2000.0);
03:29:39:786;03:29:39:749;1448289939.38;(0.6518417358398437, 0.7640412860446506);75.2320327759;0.835292463305;0;0;0;0;0;0;0;0;0;();(-2000.0, -2000.0);
03:29:39:810;03:29:39:807;1448289939.47;(0.6500732421875, 0.767800776163737);76.5436706543;1.0;0;0;0;0;0;0;0;0;0;();(-2000.0, -2000.0);
03:29:39:828;03:29:39:807;1448289939.47;(0.6500732421875, 0.767800776163737);76.5436706543;1.0;0;0;0;0;0;0;0;0;0;();(-2000.0, -2000.0);
03:29:39:845;03:29:39:807;1448289939.47;(0.6500732421875, 0.767800776163737);76.5436706543;1.0;0;0;0;0;0;0;0;0;0;();(-2000.0, -2000.0);
03:29:39:877;03:29:39:873;1448289939.51;(0.6426515579223633, 0.7588532129923502);78.6134262085;0.894981594143;0;0;0;0;0;0;0;0;0;();(-2000.0, -2000.0);
03:29:39:894;03:29:39:879;1448289939.54;(0, 0);0;0;0;0;0;0;0;0;0;0;0;();(-2000.0, -2000.0);
03:29:39:912;03:29:39:879;1448289939.54;(0, 0);0;0;0;0;0;0;0;0;0;0;0;();(-2000.0, -2000.0);
03:29:39:927;03:29:39:879;1448289939.54;(0, 0);0;0;0;0;0;0;0;0;0;0;0;();(-2000.0, -2000.0);
03:29:39:960;03:29:39:953;1448289939.57;(0.6426017761230469, 0.7708439297146268);78.9376068115;0.739586254194;0;0;0;0;0;0;0;0;0;();(-2000.0, -2000.0);
03:29:39:977;03:29:39:953;1448289939.57;(0.6426017761230469, 0.7708439297146268);78.9376068115;0.739586254194;0;0;0;0;0;0;0;0;0;();(-2000.0, -2000.0);
03:29:39:993;03:29:39:953;1448289939.57;(0.6426017761230469, 0.7708439297146268);78.9376068115;0.739586254194;0;0;0;0;0;0;0;0;0;();(-2000.0, -2000.0);
03:29:40:010;03:29:40:006;1448289939.64;(0.640392255783081, 0.7687383863661024);80.9220962524;0.852277587218;0;0;0;0;0;0;0;0;0;();(-2000.0, -2000.0);
03:29:40:026;03:29:40:006;1448289939.64;(0.640392255783081, 0.7687383863661024);80.9220962524;0.852277587218;0;0;0;0;0;0;0;0;0;();(-2000.0, -2000.0);
03:29:40:060;03:29:40:006;1448289939.64;(0.640392255783081, 0.7687383863661024);80.9220962524;0.852277587218;0;0;0;0;0;0;0;0;0;();(-2000.0, -2000.0);
03:29:40:077;03:29:40:070;1448289939.71;(0, 0);0;0;0;0;0;0;0;0;0;0;0;();(-2000.0, -2000.0);
03:29:40:094;03:29:40:070;1448289939.71;(0, 0);0;0;0;0;0;0;0;0;0;0;0;();(-2000.0, -2000.0);
03:29:40:110;03:29:40:070;1448289939.71;(0, 0);0;0;0;0;0;0;0;0;0;0;0;();(-2000.0, -2000.0);
03:29:40:126;03:29:40:070;1448289939.71;(0, 0);0;0;0;0;0;0;0;0;0;0;0;();(-2000.0, -2000.0);
03:29:40:161;03:29:40:138;1448289939.77;(0.6625448226928711, 0.7744135326809354);82.599029541;0.768621296414;0;0;0;0;0;0;0;0;0;();(-2000.0, -2000.0);
03:29:40:177;03:29:40:138;1448289939.77;(0.6625448226928711, 0.7744135326809354);82.599029541;0.768621296414;0;0;0;0;0;0;0;0;0;();(-2000.0, -2000.0);
03:29:40:194;03:29:40:138;1448289939.77;(0.6625448226928711, 0.7744135326809354);82.599029541;0.768621296414;0;0;0;0;0;0;0;0;0;();(-2000.0, -2000.0);
03:29:40:210;03:29:40:206;1448289939.84;(0.6776381969451905, 0.783864148457845);81.0367126465;0.923222937613;0;0;0;0;0;0;0;0;0;();(-2000.0, -2000.0);
03:29:40:227;03:29:40:206;1448289939.84;(0.6776381969451905, 0.783864148457845);81.0367126465;0.923222937613;0;0;0;0;0;0;0;0;0;();(-2000.0, -2000.0);
03:29:40:260;03:29:40:206;1448289939.84;(0.6776381969451905, 0.783864148457845);81.0367126465;0.923222937613;0;0;0;0;0;0;0;0;0;();(-2000.0, -2000.0);
03:29:40:277;03:29:40:271;1448289939.91;(0.6534452438354492, 0.7790499369303385);81.6172790527;0.856922696489;0;0;0;0;0;0;0;0;0;();(-2000.0, -2000.0);
03:29:40:293;03:29:40:271;1448289939.91;(0.6534452438354492, 0.7790499369303385);81.6172790527;0.856922696489;0;0;0;0;0;0;0;0;0;();(-2000.0, -2000.0);
03:29:40:310;03:29:40:271;1448289939.91;(0.6534452438354492, 0.7790499369303385);81.6172790527;0.856922696489;0;0;0;0;0;0;0;0;0;();(-2000.0, -2000.0);
03:29:40:327;03:29:40:271;1448289939.91;(0.6534452438354492, 0.7790499369303385);81.6172790527;0.856922696489;0;0;0;0;0;0;0;0;0;();(-2000.0, -2000.0);
03:29:40:360;03:29:40:342;1448289940.01;(0.6453202724456787, 0.7740296469794379);83.2962265015;1.0;0;0;0;0;0;0;0;0;0;();(-2000.0, -2000.0);
03:29:40:377;03:29:40:342;1448289940.01;(0.6453202724456787, 0.7740296469794379);83.2962265015;1.0;0;0;0;0;0;0;0;0;0;();(-2000.0, -2000.0);
03:29:40:394;03:29:40:342;1448289940.01;(0.6453202724456787, 0.7740296469794379);83.2962265015;1.0;0;0;0;0;0;0;0;0;0;();(-2000.0, -2000.0);
03:29:40:411;03:29:40:401;1448289940.04;(0.648538064956665, 0.7698971430460612);82.6560974121;0.613065953808;0;0;0;0;0;0;0;0;0;();(-2000.0, -2000.0);
03:29:40:427;03:29:40:401;1448289940.04;(0.648538064956665, 0.7698971430460612);82.6560974121;0.613065953808;0;0;0;0;0;0;0;0;0;();(-2000.0, -2000.0);
03:29:40:461;03:29:40:401;1448289940.04;(0.648538064956665, 0.7698971430460612);82.6560974121;0.613065953808;0;0;0;0;0;0;0;0;0;();(-2000.0, -2000.0);
03:29:40:477;03:29:40:471;1448289940.11;(0.6482720851898194, 0.7784808688693576);81.9918899536;0.915409470343;0;0;0;0;0;0;0;0;0;();(-2000.0, -2000.0);
03:29:40:494;03:29:40:471;1448289940.11;(0.6482720851898194, 0.7784808688693576);81.9918899536;0.915409470343;0;0;0;0;0;0;0;0;0;();(-2000.0, -2000.0);
03:29:40:511;03:29:40:471;1448289940.11;(0.6482720851898194, 0.7784808688693576);81.9918899536;0.915409470343;0;0;0;0;0;0;0;0;0;();(-2000.0, -2000.0);
03:29:40:527;03:29:40:471;1448289940.11;(0.6482720851898194, 0.7784808688693576);81.9918899536;0.915409470343;0;0;0;0;0;0;0;0;0;();(-2000.0, -2000.0);
03:29:40:563;03:29:40:540;1448289940.21;(0.6800718784332276, 0.7956443892584907);81.6027450562;0.950220231065;0;0;0;0;0;0;0;0;0;();(-2000.0, -2000.0);
03:29:40:579;03:29:40:540;1448289940.21;(0.6800718784332276, 0.7956443892584907);81.6027450562;0.950220231065;0;0;0;0;0;0;0;0;0;();(-2000.0, -2000.0);
03:29:40:596;03:29:40:540;1448289940.21;(0.6800718784332276, 0.7956443892584907);81.6027450562;0.950220231065;0;0;0;0;0;0;0;0;0;();(-2000.0, -2000.0);
03:29:40:610;03:29:40:600;1448289940.24;(0, 0);0;0;0;0;0;0;0;0;0;0;0;();(-2000.0, -2000.0);
03:29:40:627;03:29:40:600;1448289940.24;(0, 0);0;0;0;0;0;0;0;0;0;0;0;();(-2000.0, -2000.0);
03:29:40:644;03:29:40:600;1448289940.24;(0, 0);0;0;0;0;0;0;0;0;0;0;0;();(-2000.0, -2000.0);
03:29:40:681;03:29:40:674;1448289940.27;(0.6765525341033936, 0.7830386055840386);82.80418396;0.90483236999;0;0;0;0;0;0;0;0;0;();(-2000.0, -2000.0);
03:29:40:696;03:29:40:683;1448289940.31;(0.6799118995666504, 0.7941877577039931);80.7858276367;0.855110803665;0;0;0;0;0;0;0;0;0;();(-2000.0, -2000.0);
03:29:40:713;03:29:40:683;1448289940.31;(0.6799118995666504, 0.7941877577039931);80.7858276367;0.855110803665;0;0;0;0;0;0;0;0;0;();(-2000.0, -2000.0);
03:29:40:726;03:29:40:683;1448289940.31;(0.6799118995666504, 0.7941877577039931);80.7858276367;0.855110803665;0;0;0;0;0;0;0;0;0;();(-2000.0, -2000.0);
03:29:40:744;03:29:40:734;1448289940.37;(0.6810672283172607, 0.791957770453559);80.7922286987;0.889644706095;0;0;0;0;0;0;0;0;0;();(-2000.0, -2000.0);
03:29:40:776;03:29:40:734;1448289940.37;(0.6810672283172607, 0.791957770453559);80.7922286987;0.889644706095;0;0;0;0;0;0;0;0;0;();(-2000.0, -2000.0);
03:29:40:794;03:29:40:734;1448289940.37;(0.6810672283172607, 0.791957770453559);80.7922286987;0.889644706095;0;0;0;0;0;0;0;0;0;();(-2000.0, -2000.0);
03:29:40:810;03:29:40:802;1448289940.44;(0.6862931728363038, 0.7867112901475695);78.9866409302;0.909987667519;0;0;0;0;0;0;0;0;0;();(-2000.0, -2000.0);
03:29:40:828;03:29:40:802;1448289940.44;(0.6862931728363038, 0.7867112901475695);78.9866409302;0.909987667519;0;0;0;0;0;0;0;0;0;();(-2000.0, -2000.0);
03:29:40:844;03:29:40:802;1448289940.44;(0.6862931728363038, 0.7867112901475695);78.9866409302;0.909987667519;0;0;0;0;0;0;0;0;0;();(-2000.0, -2000.0);
03:29:40:876;03:29:40:872;1448289940.51;(0.8230338573455811, 0.34593302408854165);21.472284317;0.908171783015;0;0;0;0;0;0;0;0;0;();(-2000.0, -2000.0);
03:29:40:894;03:29:40:872;1448289940.51;(0.8230338573455811, 0.34593302408854165);21.472284317;0.908171783015;0;0;0;0;0;0;0;0;0;();(-2000.0, -2000.0);
03:29:40:910;03:29:40:872;1448289940.51;(0.8230338573455811, 0.34593302408854165);21.472284317;0.908171783015;0;0;0;0;0;0;0;0;0;();(-2000.0, -2000.0);
03:29:40:926;03:29:40:872;1448289940.51;(0.8230338573455811, 0.34593302408854165);21.472284317;0.908171783015;0;0;0;0;0;0;0;0;0;();(-2000.0, -2000.0);
03:29:40:944;03:29:40:935;1448289940.57;(0.5471215724945069, 0.7612483554416233);35.8485069275;0.616017102649;0;0;0;0;0;0;0;0;0;();(-2000.0, -2000.0);
03:29:40:977;03:29:40:935;1448289940.57;(0.5471215724945069, 0.7612483554416233);35.8485069275;0.616017102649;0;0;0;0;0;0;0;0;0;();(-2000.0, -2000.0);
03:29:40:995;03:29:40:935;1448289940.57;(0.5471215724945069, 0.7612483554416233);35.8485069275;0.616017102649;0;0;0;0;0;0;0;0;0;();(-2000.0, -2000.0);
03:29:41:010;03:29:41:001;1448289940.61;(0.5338492393493652, 0.7913935979207357);26.2718467712;0.648757882652;0;0;0;0;0;0;0;0;0;();(-2000.0, -2000.0);
03:29:41:026;03:29:41:001;1448289940.61;(0.5338492393493652, 0.7913935979207357);26.2718467712;0.648757882652;0;0;0;0;0;0;0;0;0;();(-2000.0, -2000.0);
03:29:41:043;03:29:41:001;1448289940.61;(0.5338492393493652, 0.7913935979207357);26.2718467712;0.648757882652;0;0;0;0;0;0;0;0;0;();(-2000.0, -2000.0);
03:29:41:077;03:29:41:065;1448289940.66;(0.532648229598999, 0.8046226819356282);30.6724338531;0.683590826571;0;0;0;0;0;0;0;0;0;();(-2000.0, -2000.0);
03:29:41:095;03:29:41:065;1448289940.66;(0.532648229598999, 0.8046226819356282);30.6724338531;0.683590826571;0;0;0;0;0;0;0;0;0;();(-2000.0, -2000.0);
03:29:41:110;03:29:41:065;1448289940.66;(0.532648229598999, 0.8046226819356282);30.6724338531;0.683590826571;0;0;0;0;0;0;0;0;0;();(-2000.0, -2000.0);
03:29:41:127;03:29:41:065;1448289940.66;(0.532648229598999, 0.8046226819356282);30.6724338531;0.683590826571;0;0;0;0;0;0;0;0;0;();(-2000.0, -2000.0);
03:29:41:144;03:29:41:136;1448289940.75;(0.5987046241760254, 0.6127987755669488);77.0571365356;0.74397169225;0;0;0;0;0;0;0;0;0;();(-2000.0, -2000.0);
03:29:41:178;03:29:41:136;1448289940.75;(0.5987046241760254, 0.6127987755669488);77.0571365356;0.74397169225;0;0;0;0;0;0;0;0;0;();(-2000.0, -2000.0);
03:29:41:195;03:29:41:136;1448289940.75;(0.5987046241760254, 0.6127987755669488);77.0571365356;0.74397169225;0;0;0;0;0;0;0;0;0;();(-2000.0, -2000.0);
03:29:41:210;03:29:41:201;1448289940.8;(0.613770580291748, 0.6170908610026042);76.9821243286;0.749234936723;0;0;0;0;0;0;0;0;0;();(-2000.0, -2000.0);
03:29:41:228;03:29:41:201;1448289940.8;(0.613770580291748, 0.6170908610026042);76.9821243286;0.749234936723;0;0;0;0;0;0;0;0;0;();(-2000.0, -2000.0);
03:29:41:245;03:29:41:201;1448289940.8;(0.613770580291748, 0.6170908610026042);76.9821243286;0.749234936723;0;0;0;0;0;0;0;0;0;();(-2000.0, -2000.0);
03:29:41:278;03:29:41:269;1448289940.86;(0.6361069202423095, 0.620635265774197);76.4163513184;0.809879008048;0;0;0;0;0;0;0;0;0;();(-2000.0, -2000.0);
03:29:41:295;03:29:41:269;1448289940.86;(0.6361069202423095, 0.620635265774197);76.4163513184;0.809879008048;0;0;0;0;0;0;0;0;0;();(-2000.0, -2000.0);
03:29:41:310;03:29:41:269;1448289940.86;(0.6361069202423095, 0.620635265774197);76.4163513184;0.809879008048;0;0;0;0;0;0;0;0;0;();(-2000.0, -2000.0);
03:29:41:327;03:29:41:269;1448289940.86;(0.6361069202423095, 0.620635265774197);76.4163513184;0.809879008048;0;0;0;0;0;0;0;0;0;();(-2000.0, -2000.0);
03:29:41:344;03:29:41:334;1448289940.94;(0.650006914138794, 0.6298894458346896);76.7328872681;0.889511240354;0;0;0;0;0;0;0;0;0;();(-2000.0, -2000.0);
03:29:41:378;03:29:41:334;1448289940.94;(0.650006914138794, 0.6298894458346896);76.7328872681;0.889511240354;0;0;0;0;0;0;0;0;0;();(-2000.0, -2000.0);
03:29:41:394;03:29:41:334;1448289940.94;(0.650006914138794, 0.6298894458346896);76.7328872681;0.889511240354;0;0;0;0;0;0;0;0;0;();(-2000.0, -2000.0);
03:29:41:412;03:29:41:334;1448289940.94;(0.650006914138794, 0.6298894458346896);76.7328872681;0.889511240354;0;0;0;0;0;0;0;0;0;();(-2000.0, -2000.0);
03:29:41:427;03:29:41:334;1448289940.94;(0.650006914138794, 0.6298894458346896);76.7328872681;0.889511240354;0;0;0;0;0;0;0;0;0;();(-2000.0, -2000.0);
03:29:41:445;03:29:41:334;1448289940.94;(0.650006914138794, 0.6298894458346896);76.7328872681;0.889511240354;0;0;0;0;0;0;0;0;0;();(-2000.0, -2000.0);
03:29:41:478;03:29:41:471;1448289941.09;(0, 0);0;0;0;0;0;0;0;0;0;0;0;();(-2000.0, -2000.0);
03:29:41:495;03:29:41:471;1448289941.09;(0, 0);0;0;0;0;0;0;0;0;0;0;0;();(-2000.0, -2000.0);
03:29:41:513;03:29:41:471;1448289941.09;(0, 0);0;0;0;0;0;0;0;0;0;0;0;();(-2000.0, -2000.0);
03:29:41:530;03:29:41:471;1448289941.09;(0, 0);0;0;0;0;0;0;0;0;0;0;0;();(-2000.0, -2000.0);
03:29:41:544;03:29:41:533;1448289941.11;(0.6669682025909424, 0.6285358428955078);76.3664855957;0.75546498106;0;0;0;0;0;0;0;0;0;();(-2000.0, -2000.0);
03:29:41:578;03:29:41:533;1448289941.11;(0.6669682025909424, 0.6285358428955078);76.3664855957;0.75546498106;0;0;0;0;0;0;0;0;0;();(-2000.0, -2000.0);
03:29:41:595;03:29:41:533;1448289941.11;(0.6669682025909424, 0.6285358428955078);76.3664855957;0.75546498106;0;0;0;0;0;0;0;0;0;();(-2000.0, -2000.0);
03:29:41:612;03:29:41:597;1448289941.19;(0.6583904266357422, 0.6206591924031575);75.2889099121;0.838032662219;0;0;0;0;0;0;0;0;0;();(-2000.0, -2000.0);
03:29:41:628;03:29:41:597;1448289941.19;(0.6583904266357422, 0.6206591924031575);75.2889099121;0.838032662219;0;0;0;0;0;0;0;0;0;();(-2000.0, -2000.0);
03:29:41:644;03:29:41:597;1448289941.19;(0.6583904266357422, 0.6206591924031575);75.2889099121;0.838032662219;0;0;0;0;0;0;0;0;0;();(-2000.0, -2000.0);
03:29:41:679;03:29:41:664;1448289941.25;(0.6568081855773926, 0.6212849511040581);74.411605835;0.802385744162;0;0;0;0;0;0;0;0;0;();(-2000.0, -2000.0);
03:29:41:695;03:29:41:664;1448289941.25;(0.6568081855773926, 0.6212849511040581);74.411605835;0.802385744162;0;0;0;0;0;0;0;0;0;();(-2000.0, -2000.0);
03:29:41:712;03:29:41:664;1448289941.25;(0.6568081855773926, 0.6212849511040581);74.411605835;0.802385744162;0;0;0;0;0;0;0;0;0;();(-2000.0, -2000.0);
03:29:41:728;03:29:41:664;1448289941.25;(0.6568081855773926, 0.6212849511040581);74.411605835;0.802385744162;0;0;0;0;0;0;0;0;0;();(-2000.0, -2000.0);
03:29:41:745;03:29:41:728;1448289941.29;(0.8254138946533203, 0.7958365228441027);30.6677322388;0.737972736051;0;0;0;0;0;0;0;0;0;();(-2000.0, -2000.0);
03:29:41:778;03:29:41:728;1448289941.29;(0.8254138946533203, 0.7958365228441027);30.6677322388;0.737972736051;0;0;0;0;0;0;0;0;0;();(-2000.0, -2000.0);
03:29:41:794;03:29:41:728;1448289941.29;(0.8254138946533203, 0.7958365228441027);30.6677322388;0.737972736051;0;0;0;0;0;0;0;0;0;();(-2000.0, -2000.0);
03:29:41:811;03:29:41:728;1448289941.29;(0.8254138946533203, 0.7958365228441027);30.6677322388;0.737972736051;0;0;0;0;0;0;0;0;0;();(-2000.0, -2000.0);
03:29:41:829;03:29:41:728;1448289941.29;(0.8254138946533203, 0.7958365228441027);30.6677322388;0.737972736051;0;0;0;0;0;0;0;0;0;();(-2000.0, -2000.0);
03:29:41:845;03:29:41:728;1448289941.29;(0.8254138946533203, 0.7958365228441027);30.6677322388;0.737972736051;0;0;0;0;0;0;0;0;0;();(-2000.0, -2000.0);
03:29:41:878;03:29:41:865;1448289941.39;(0.6387332439422607, 0.6217672136094835);73.4848403931;0.945308210649;0;0;0;0;0;0;0;0;0;();(-2000.0, -2000.0);
03:29:41:895;03:29:41:865;1448289941.39;(0.6387332439422607, 0.6217672136094835);73.4848403931;0.945308210649;0;0;0;0;0;0;0;0;0;();(-2000.0, -2000.0);
03:29:41:912;03:29:41:865;1448289941.39;(0.6387332439422607, 0.6217672136094835);73.4848403931;0.945308210649;0;0;0;0;0;0;0;0;0;();(-2000.0, -2000.0);
03:29:41:928;03:29:41:865;1448289941.39;(0.6387332439422607, 0.6217672136094835);73.4848403931;0.945308210649;0;0;0;0;0;0;0;0;0;();(-2000.0, -2000.0);
03:29:41:945;03:29:41:932;1448289941.51;(0.6153836250305176, 0.6094715118408203);72.149230957;0.859519002131;0;0;0;0;0;0;0;0;0;();(-2000.0, -2000.0);
03:29:41:979;03:29:41:932;1448289941.51;(0.6153836250305176, 0.6094715118408203);72.149230957;0.859519002131;0;0;0;0;0;0;0;0;0;();(-2000.0, -2000.0);
03:29:41:995;03:29:41:932;1448289941.51;(0.6153836250305176, 0.6094715118408203);72.149230957;0.859519002131;0;0;0;0;0;0;0;0;0;();(-2000.0, -2000.0);
03:29:42:012;03:29:42:003;1448289941.65;(0, 0);0;0;0;0;0;0;0;0;0;0;0;();(-2000.0, -2000.0);
03:29:42:029;03:29:42:003;1448289941.65;(0, 0);0;0;0;0;0;0;0;0;0;0;0;();(-2000.0, -2000.0);
03:29:42:045;03:29:42:003;1448289941.65;(0, 0);0;0;0;0;0;0;0;0;0;0;0;();(-2000.0, -2000.0);
03:29:42:079;03:29:42:062;1448289941.71;(0.5961390018463135, 0.6057659149169922);32.1804389954;0.635283336469;0;0;0;0;0;0;0;0;0;();(-2000.0, -2000.0);
03:29:42:095;03:29:42:062;1448289941.71;(0.5961390018463135, 0.6057659149169922);32.1804389954;0.635283336469;0;0;0;0;0;0;0;0;0;();(-2000.0, -2000.0);
03:29:42:112;03:29:42:062;1448289941.71;(0.5961390018463135, 0.6057659149169922);32.1804389954;0.635283336469;0;0;0;0;0;0;0;0;0;();(-2000.0, -2000.0);
03:29:42:128;03:29:42:062;1448289941.71;(0.5961390018463135, 0.6057659149169922);32.1804389954;0.635283336469;0;0;0;0;0;0;0;0;0;();(-2000.0, -2000.0);
03:29:42:145;03:29:42:131;1448289941.77;(0, 0);0;0;0;0;0;0;0;0;0;0;0;();(-2000.0, -2000.0);
03:29:42:181;03:29:42:131;1448289941.77;(0, 0);0;0;0;0;0;0;0;0;0;0;0;();(-2000.0, -2000.0);
03:29:42:198;03:29:42:131;1448289941.77;(0, 0);0;0;0;0;0;0;0;0;0;0;0;();(-2000.0, -2000.0);
03:29:42:214;03:29:42:207;1448289941.84;(0.47881736755371096, 0.8416081852383084);63.6752204895;0.702770537727;0;0;0;0;0;0;0;0;0;();(-2000.0, -2000.0);
03:29:42:229;03:29:42:207;1448289941.84;(0.47881736755371096, 0.8416081852383084);63.6752204895;0.702770537727;0;0;0;0;0;0;0;0;0;();(-2000.0, -2000.0);
03:29:42:245;03:29:42:207;1448289941.84;(0.47881736755371096, 0.8416081852383084);63.6752204895;0.702770537727;0;0;0;0;0;0;0;0;0;();(-2000.0, -2000.0);
03:29:42:279;03:29:42:264;1448289941.91;(0.7432408332824707, 0.723131963941786);71.4473724365;0.935665612472;0;0;0;0;0;0;0;0;0;();(-2000.0, -2000.0);
03:29:42:298;03:29:42:264;1448289941.91;(0.7432408332824707, 0.723131963941786);71.4473724365;0.935665612472;0;0;0;0;0;0;0;0;0;();(-2000.0, -2000.0);
03:29:42:313;03:29:42:264;1448289941.91;(0.7432408332824707, 0.723131963941786);71.4473724365;0.935665612472;0;0;0;0;0;0;0;0;0;();(-2000.0, -2000.0);
03:29:42:328;03:29:42:264;1448289941.91;(0.7432408332824707, 0.723131963941786);71.4473724365;0.935665612472;0;0;0;0;0;0;0;0;0;();(-2000.0, -2000.0);
03:29:42:346;03:29:42:332;1448289941.97;(0.7305209159851074, 0.7308213975694444);70.2713699341;0.980208260945;0;0;0;0;0;0;0;0;0;();(-2000.0, -2000.0);
03:29:42:379;03:29:42:332;1448289941.97;(0.7305209159851074, 0.7308213975694444);70.2713699341;0.980208260945;0;0;0;0;0;0;0;0;0;();(-2000.0, -2000.0);
03:29:42:396;03:29:42:392;1448289942.01;(0.7260041236877441, 0.7379256778293186);71.0635681152;0.900390754843;0;0;0;0;0;0;0;0;0;();(-2000.0, -2000.0);
03:29:42:411;03:29:42:392;1448289942.01;(0.7260041236877441, 0.7379256778293186);71.0635681152;0.900390754843;0;0;0;0;0;0;0;0;0;();(-2000.0, -2000.0);
03:29:42:428;03:29:42:392;1448289942.01;(0.7260041236877441, 0.7379256778293186);71.0635681152;0.900390754843;0;0;0;0;0;0;0;0;0;();(-2000.0, -2000.0);
03:29:42:445;03:29:42:392;1448289942.01;(0.7260041236877441, 0.7379256778293186);71.0635681152;0.900390754843;0;0;0;0;0;0;0;0;0;();(-2000.0, -2000.0);
03:29:42:478;03:29:42:463;1448289942.11;(0.7189416885375977, 0.7421865675184462);75.7206802368;0.691052191422;0;0;0;0;0;0;0;0;0;();(-2000.0, -2000.0);
03:29:42:495;03:29:42:463;1448289942.11;(0.7189416885375977, 0.7421865675184462);75.7206802368;0.691052191422;0;0;0;0;0;0;0;0;0;();(-2000.0, -2000.0);
03:29:42:513;03:29:42:463;1448289942.11;(0.7189416885375977, 0.7421865675184462);75.7206802368;0.691052191422;0;0;0;0;0;0;0;0;0;();(-2000.0, -2000.0);
03:29:42:533;03:29:42:527;1448289942.17;(0, 0);0;0;0;0;0;0;0;0;0;0;0;();(-2000.0, -2000.0);
03:29:42:547;03:29:42:527;1448289942.17;(0, 0);0;0;0;0;0;0;0;0;0;0;0;();(-2000.0, -2000.0);
03:29:42:579;03:29:42:527;1448289942.17;(0, 0);0;0;0;0;0;0;0;0;0;0;0;();(-2000.0, -2000.0);
03:29:42:598;03:29:42:527;1448289942.17;(0, 0);0;0;0;0;0;0;0;0;0;0;0;();(-2000.0, -2000.0);
03:29:42:614;03:29:42:605;1448289942.24;(0.7206645965576172, 0.7597973293728298);85.6543807983;0.77548441944;0;0;0;0;0;0;0;0;0;();(-2000.0, -2000.0);
03:29:42:631;03:29:42:605;1448289942.24;(0.7206645965576172, 0.7597973293728298);85.6543807983;0.77548441944;0;0;0;0;0;0;0;0;0;();(-2000.0, -2000.0);
03:29:42:648;03:29:42:605;1448289942.24;(0.7206645965576172, 0.7597973293728298);85.6543807983;0.77548441944;0;0;0;0;0;0;0;0;0;();(-2000.0, -2000.0);
03:29:42:679;03:29:42:665;1448289942.31;(0, 0);0;0;0;0;0;0;0;0;0;0;0;();(-2000.0, -2000.0);
03:29:42:696;03:29:42:665;1448289942.31;(0, 0);0;0;0;0;0;0;0;0;0;0;0;();(-2000.0, -2000.0);
03:29:42:712;03:29:42:665;1448289942.31;(0, 0);0;0;0;0;0;0;0;0;0;0;0;();(-2000.0, -2000.0);
03:29:42:729;03:29:42:665;1448289942.31;(0, 0);0;0;0;0;0;0;0;0;0;0;0;();(-2000.0, -2000.0);
03:29:42:746;03:29:42:732;1448289942.37;(0.6629787445068359, 0.7506536271837023);76.3893585205;0.875870639456;0;0;0;0;0;0;0;0;0;();(-2000.0, -2000.0);
03:29:42:779;03:29:42:732;1448289942.37;(0.6629787445068359, 0.7506536271837023);76.3893585205;0.875870639456;0;0;0;0;0;0;0;0;0;();(-2000.0, -2000.0);
03:29:42:796;03:29:42:793;1448289942.41;(0.6627839088439942, 0.7474241468641494);80.2506103516;0.630191884987;0;0;0;0;0;0;0;0;0;();(-2000.0, -2000.0);
03:29:42:813;03:29:42:794;1448289942.44;(0.6643046379089356, 0.7443854649861654);77.8760681152;0.922916715072;0;0;0;0;0;0;0;0;0;();(-2000.0, -2000.0);
03:29:42:829;03:29:42:794;1448289942.44;(0.6643046379089356, 0.7443854649861654);77.8760681152;0.922916715072;0;0;0;0;0;0;0;0;0;();(-2000.0, -2000.0);
03:29:42:845;03:29:42:794;1448289942.44;(0.6643046379089356, 0.7443854649861654);77.8760681152;0.922916715072;0;0;0;0;0;0;0;0;0;();(-2000.0, -2000.0);
03:29:42:879;03:29:42:858;1448289942.51;(0.6594848155975341, 0.7434314939710829);77.6874389648;0.892518931637;0;0;0;0;0;0;0;0;0;();(-2000.0, -2000.0);
03:29:42:896;03:29:42:858;1448289942.51;(0.6594848155975341, 0.7434314939710829);77.6874389648;0.892518931637;0;0;0;0;0;0;0;0;0;();(-2000.0, -2000.0);
03:29:42:912;03:29:42:858;1448289942.51;(0.6594848155975341, 0.7434314939710829);77.6874389648;0.892518931637;0;0;0;0;0;0;0;0;0;();(-2000.0, -2000.0);
03:29:42:929;03:29:42:926;1448289942.57;(0.38987371921539304, 0.704017957051595);33.0801849365;0.727917255409;0;0;0;0;0;0;0;0;0;();(-2000.0, -2000.0);
03:29:42:946;03:29:42:926;1448289942.57;(0.38987371921539304, 0.704017957051595);33.0801849365;0.727917255409;0;0;0;0;0;0;0;0;0;();(-2000.0, -2000.0);
03:29:42:979;03:29:42:926;1448289942.57;(0.38987371921539304, 0.704017957051595);33.0801849365;0.727917255409;0;0;0;0;0;0;0;0;0;();(-2000.0, -2000.0);
03:29:42:996;03:29:42:926;1448289942.57;(0.38987371921539304, 0.704017957051595);33.0801849365;0.727917255409;0;0;0;0;0;0;0;0;0;();(-2000.0, -2000.0);
03:29:43:013;03:29:42:999;1448289942.64;(0.9492433547973633, 0.7141829384697809);26.7843875885;0.850744539514;0;0;0;0;0;0;0;0;0;();(-2000.0, -2000.0);
03:29:43:030;03:29:42:999;1448289942.64;(0.9492433547973633, 0.7141829384697809);26.7843875885;0.850744539514;0;0;0;0;0;0;0;0;0;();(-2000.0, -2000.0);
03:29:43:046;03:29:42:999;1448289942.64;(0.9492433547973633, 0.7141829384697809);26.7843875885;0.850744539514;0;0;0;0;0;0;0;0;0;();(-2000.0, -2000.0);
03:29:43:080;03:29:43:057;1448289942.67;(0.7700455188751221, 0.7055209477742512);74.7218704224;0.81325746309;0;0;0;0;0;0;0;0;0;();(-2000.0, -2000.0);
03:29:43:096;03:29:43:057;1448289942.67;(0.7700455188751221, 0.7055209477742512);74.7218704224;0.81325746309;0;0;0;0;0;0;0;0;0;();(-2000.0, -2000.0);
03:29:43:113;03:29:43:057;1448289942.67;(0.7700455188751221, 0.7055209477742512);74.7218704224;0.81325746309;0;0;0;0;0;0;0;0;0;();(-2000.0, -2000.0);
03:29:43:129;03:29:43:126;1448289942.75;(0.7600379943847656, 0.7124291525946723);75.5135803223;0.887160767047;0;0;0;0;0;0;0;0;0;();(-2000.0, -2000.0);
03:29:43:146;03:29:43:131;1448289942.78;(0.7554547786712646, 0.716473642985026);75.5717163086;0.919336177679;0;0;0;0;0;0;0;0;0;();(-2000.0, -2000.0);
03:29:43:179;03:29:43:131;1448289942.78;(0.7554547786712646, 0.716473642985026);75.5717163086;0.919336177679;0;0;0;0;0;0;0;0;0;();(-2000.0, -2000.0);
03:29:43:196;03:29:43:190;1448289942.84;(0, 0);0;0;0;0;0;0;0;0;0;0;0;();(-2000.0, -2000.0);
03:29:43:212;03:29:43:190;1448289942.84;(0, 0);0;0;0;0;0;0;0;0;0;0;0;();(-2000.0, -2000.0);
03:29:43:230;03:29:43:190;1448289942.84;(0, 0);0;0;0;0;0;0;0;0;0;0;0;();(-2000.0, -2000.0);
03:29:43:246;03:29:43:190;1448289942.84;(0, 0);0;0;0;0;0;0;0;0;0;0;0;();(-2000.0, -2000.0);
03:29:43:279;03:29:43:259;1448289942.91;(0.7447067260742187, 0.7305082321166992);74.5649795532;0.882434053091;0;0;0;0;0;0;0;0;0;();(-2000.0, -2000.0);
03:29:43:297;03:29:43:259;1448289942.91;(0.7447067260742187, 0.7305082321166992);74.5649795532;0.882434053091;0;0;0;0;0;0;0;0;0;();(-2000.0, -2000.0);
03:29:43:313;03:29:43:259;1448289942.91;(0.7447067260742187, 0.7305082321166992);74.5649795532;0.882434053091;0;0;0;0;0;0;0;0;0;();(-2000.0, -2000.0);
03:29:43:330;03:29:43:326;1448289942.97;(0.7429790019989013, 0.7366921530829535);73.8526229858;0.864571308666;0;0;0;0;0;0;0;0;0;();(-2000.0, -2000.0);
03:29:43:346;03:29:43:326;1448289942.97;(0.7429790019989013, 0.7366921530829535);73.8526229858;0.864571308666;0;0;0;0;0;0;0;0;0;();(-2000.0, -2000.0);
03:29:43:379;03:29:43:326;1448289942.97;(0.7429790019989013, 0.7366921530829535);73.8526229858;0.864571308666;0;0;0;0;0;0;0;0;0;();(-2000.0, -2000.0);
03:29:43:397;03:29:43:394;1448289943.04;(0.7415325164794921, 0.7303261650933159);68.9208908081;0.64442170923;0;0;0;0;0;0;0;0;0;();(-2000.0, -2000.0);
03:29:43:413;03:29:43:394;1448289943.04;(0.7415325164794921, 0.7303261650933159);68.9208908081;0.64442170923;0;0;0;0;0;0;0;0;0;();(-2000.0, -2000.0);
03:29:43:430;03:29:43:394;1448289943.04;(0.7415325164794921, 0.7303261650933159);68.9208908081;0.64442170923;0;0;0;0;0;0;0;0;0;();(-2000.0, -2000.0);
03:29:43:446;03:29:43:394;1448289943.04;(0.7415325164794921, 0.7303261650933159);68.9208908081;0.64442170923;0;0;0;0;0;0;0;0;0;();(-2000.0, -2000.0);
03:29:43:480;03:29:43:459;1448289943.11;(0.740960693359375, 0.7443463431464301);75.6413192749;0.839002368647;0;0;0;0;0;0;0;0;0;();(-2000.0, -2000.0);
03:29:43:496;03:29:43:459;1448289943.11;(0.740960693359375, 0.7443463431464301);75.6413192749;0.839002368647;0;0;0;0;0;0;0;0;0;();(-2000.0, -2000.0);
03:29:43:513;03:29:43:459;1448289943.11;(0.740960693359375, 0.7443463431464301);75.6413192749;0.839002368647;0;0;0;0;0;0;0;0;0;();(-2000.0, -2000.0);
03:29:43:529;03:29:43:522;1448289943.17;(0.7555323123931885, 0.721856583489312);77.2761001587;0.813619201935;0;0;0;0;0;0;0;0;0;();(-2000.0, -2000.0);
03:29:43:545;03:29:43:522;1448289943.17;(0.7555323123931885, 0.721856583489312);77.2761001587;0.813619201935;0;0;0;0;0;0;0;0;0;();(-2000.0, -2000.0);
03:29:43:580;03:29:43:522;1448289943.17;(0.7555323123931885, 0.721856583489312);77.2761001587;0.813619201935;0;0;0;0;0;0;0;0;0;();(-2000.0, -2000.0);
03:29:43:597;03:29:43:590;1448289943.24;(0.7535871982574462, 0.7196527057223849);77.4159088135;0.978740923944;0;0;0;0;0;0;0;0;0;();(-2000.0, -2000.0);
03:29:43:613;03:29:43:590;1448289943.24;(0.7535871982574462, 0.7196527057223849);77.4159088135;0.978740923944;0;0;0;0;0;0;0;0;0;();(-2000.0, -2000.0);
03:29:43:629;03:29:43:590;1448289943.24;(0.7535871982574462, 0.7196527057223849);77.4159088135;0.978740923944;0;0;0;0;0;0;0;0;0;();(-2000.0, -2000.0);
03:29:43:646;03:29:43:590;1448289943.24;(0.7535871982574462, 0.7196527057223849);77.4159088135;0.978740923944;0;0;0;0;0;0;0;0;0;();(-2000.0, -2000.0);
03:29:43:682;03:29:43:658;1448289943.31;(0.7545421600341797, 0.7196012285020617);77.4249725342;0.823163044869;0;0;0;0;0;0;0;0;0;();(-2000.0, -2000.0);
03:29:43:699;03:29:43:658;1448289943.31;(0.7545421600341797, 0.7196012285020617);77.4249725342;0.823163044869;0;0;0;0;0;0;0;0;0;();(-2000.0, -2000.0);
03:29:43:715;03:29:43:658;1448289943.31;(0.7545421600341797, 0.7196012285020617);77.4249725342;0.823163044869;0;0;0;0;0;0;0;0;0;();(-2000.0, -2000.0);
03:29:43:730;03:29:43:724;1448289943.37;(0.7572047710418701, 0.7189707226223416);79.6482162476;0.879795100741;0;0;0;0;0;0;0;0;0;();(-2000.0, -2000.0);
03:29:43:746;03:29:43:724;1448289943.37;(0.7572047710418701, 0.7189707226223416);79.6482162476;0.879795100741;0;0;0;0;0;0;0;0;0;();(-2000.0, -2000.0);
03:29:43:780;03:29:43:724;1448289943.37;(0.7572047710418701, 0.7189707226223416);79.6482162476;0.879795100741;0;0;0;0;0;0;0;0;0;();(-2000.0, -2000.0);
03:29:43:797;03:29:43:791;1448289943.44;(0, 0);0;0;0;0;0;0;0;0;0;0;0;();(-2000.0, -2000.0);
03:29:43:814;03:29:43:791;1448289943.44;(0, 0);0;0;0;0;0;0;0;0;0;0;0;();(-2000.0, -2000.0);
03:29:43:830;03:29:43:791;1448289943.44;(0, 0);0;0;0;0;0;0;0;0;0;0;0;();(-2000.0, -2000.0);
03:29:43:846;03:29:43:791;1448289943.44;(0, 0);0;0;0;0;0;0;0;0;0;0;0;();(-2000.0, -2000.0);
03:29:43:879;03:29:43:854;1448289943.51;(0.7615625858306885, 0.7134275436401367);81.5147171021;0.815432641592;0;0;0;0;0;0;0;0;0;();(-2000.0, -2000.0);
03:29:43:896;03:29:43:854;1448289943.51;(0.7615625858306885, 0.7134275436401367);81.5147171021;0.815432641592;0;0;0;0;0;0;0;0;0;();(-2000.0, -2000.0);
03:29:43:913;03:29:43:854;1448289943.51;(0.7615625858306885, 0.7134275436401367);81.5147171021;0.815432641592;0;0;0;0;0;0;0;0;0;();(-2000.0, -2000.0);
03:29:43:930;03:29:43:924;1448289943.57;(0.7654484272003174, 0.7219236585828993);79.1407699585;0.769514502321;0;0;0;0;0;0;0;0;0;();(-2000.0, -2000.0);
03:29:43:947;03:29:43:924;1448289943.57;(0.7654484272003174, 0.7219236585828993);79.1407699585;0.769514502321;0;0;0;0;0;0;0;0;0;();(-2000.0, -2000.0);
03:29:43:980;03:29:43:924;1448289943.57;(0.7654484272003174, 0.7219236585828993);79.1407699585;0.769514502321;0;0;0;0;0;0;0;0;0;();(-2000.0, -2000.0);
03:29:43:998;03:29:43:995;1448289943.64;(0.7659591197967529, 0.718731943766276);79.0334701538;0.843067944743;0;0;0;0;0;0;0;0;0;();(-2000.0, -2000.0);
03:29:44:013;03:29:43:995;1448289943.64;(0.7659591197967529, 0.718731943766276);79.0334701538;0.843067944743;0;0;0;0;0;0;0;0;0;();(-2000.0, -2000.0);
03:29:44:030;03:29:43:995;1448289943.64;(0.7659591197967529, 0.718731943766276);79.0334701538;0.843067944743;0;0;0;0;0;0;0;0;0;();(-2000.0, -2000.0);
03:29:44:046;03:29:43:995;1448289943.64;(0.7659591197967529, 0.718731943766276);79.0334701538;0.843067944743;0;0;0;0;0;0;0;0;0;();(-2000.0, -2000.0);
03:29:44:080;03:29:44:055;1448289943.71;(0.7642658233642579, 0.7291075812445746);82.2445602417;0.7653068103;0;0;0;0;0;0;0;0;0;();(-2000.0, -2000.0);
03:29:44:097;03:29:44:055;1448289943.71;(0.7642658233642579, 0.7291075812445746);82.2445602417;0.7653068103;0;0;0;0;0;0;0;0;0;();(-2000.0, -2000.0);
03:29:44:113;03:29:44:055;1448289943.71;(0.7642658233642579, 0.7291075812445746);82.2445602417;0.7653068103;0;0;0;0;0;0;0;0;0;();(-2000.0, -2000.0);
03:29:44:131;03:29:44:123;1448289943.77;(0.7677510738372803, 0.7336609310574002);81.5469741821;1.0;0;0;0;0;0;0;0;0;0;();(-2000.0, -2000.0);
03:29:44:147;03:29:44:123;1448289943.77;(0.7677510738372803, 0.7336609310574002);81.5469741821;1.0;0;0;0;0;0;0;0;0;0;();(-2000.0, -2000.0);
03:29:44:164;03:29:44:123;1448289943.77;(0.7677510738372803, 0.7336609310574002);81.5469741821;1.0;0;0;0;0;0;0;0;0;0;();(-2000.0, -2000.0);
03:29:44:197;03:29:44:191;1448289943.84;(0.7685331344604492, 0.7337318420410156);80.6355133057;0.956336005959;0;0;0;0;0;0;0;0;0;();(-2000.0, -2000.0);
03:29:44:214;03:29:44:191;1448289943.84;(0.7685331344604492, 0.7337318420410156);80.6355133057;0.956336005959;0;0;0;0;0;0;0;0;0;();(-2000.0, -2000.0);
03:29:44:230;03:29:44:191;1448289943.84;(0.7685331344604492, 0.7337318420410156);80.6355133057;0.956336005959;0;0;0;0;0;0;0;0;0;();(-2000.0, -2000.0);
03:29:44:247;03:29:44:191;1448289943.84;(0.7685331344604492, 0.7337318420410156);80.6355133057;0.956336005959;0;0;0;0;0;0;0;0;0;();(-2000.0, -2000.0);
03:29:44:264;03:29:44:257;1448289943.91;(0.7674142360687256, 0.7349907557169597);78.8442382812;0.938146598746;0;0;0;0;0;0;0;0;0;();(-2000.0, -2000.0);
03:29:44:297;03:29:44:257;1448289943.91;(0.7674142360687256, 0.7349907557169597);78.8442382812;0.938146598746;0;0;0;0;0;0;0;0;0;();(-2000.0, -2000.0);
03:29:44:313;03:29:44:257;1448289943.91;(0.7674142360687256, 0.7349907557169597);78.8442382812;0.938146598746;0;0;0;0;0;0;0;0;0;();(-2000.0, -2000.0);
03:29:44:330;03:29:44:322;1448289943.97;(0.767410135269165, 0.7347787645128039);77.5244216919;1.0;0;0;0;0;0;0;0;0;0;();(-2000.0, -2000.0);
03:29:44:347;03:29:44:322;1448289943.97;(0.767410135269165, 0.7347787645128039);77.5244216919;1.0;0;0;0;0;0;0;0;0;0;();(-2000.0, -2000.0);
03:29:44:364;03:29:44:322;1448289943.97;(0.767410135269165, 0.7347787645128039);77.5244216919;1.0;0;0;0;0;0;0;0;0;0;();(-2000.0, -2000.0);
03:29:44:397;03:29:44:387;1448289944.04;(0.766652774810791, 0.7350195354885525);77.0141677856;0.940426008031;0;0;0;0;0;0;0;0;0;();(-2000.0, -2000.0);
03:29:44:414;03:29:44:387;1448289944.04;(0.766652774810791, 0.7350195354885525);77.0141677856;0.940426008031;0;0;0;0;0;0;0;0;0;();(-2000.0, -2000.0);
03:29:44:430;03:29:44:387;1448289944.04;(0.766652774810791, 0.7350195354885525);77.0141677856;0.940426008031;0;0;0;0;0;0;0;0;0;();(-2000.0, -2000.0);
03:29:44:447;03:29:44:387;1448289944.04;(0.766652774810791, 0.7350195354885525);77.0141677856;0.940426008031;0;0;0;0;0;0;0;0;0;();(-2000.0, -2000.0);
03:29:44:481;03:29:44:454;1448289944.11;(0, 0);0;0;0;0;0;0;0;0;0;0;0;();(-2000.0, -2000.0);
03:29:44:497;03:29:44:454;1448289944.11;(0, 0);0;0;0;0;0;0;0;0;0;0;0;();(-2000.0, -2000.0);
03:29:44:514;03:29:44:454;1448289944.11;(0, 0);0;0;0;0;0;0;0;0;0;0;0;();(-2000.0, -2000.0);
03:29:44:530;03:29:44:518;1448289944.17;(0.43893280029296877, 0.5688349829779731);30.5965843201;0.678066601053;0;0;0;0;0;0;0;0;0;();(-2000.0, -2000.0);
03:29:44:546;03:29:44:518;1448289944.17;(0.43893280029296877, 0.5688349829779731);30.5965843201;0.678066601053;0;0;0;0;0;0;0;0;0;();(-2000.0, -2000.0);
03:29:44:564;03:29:44:518;1448289944.17;(0.43893280029296877, 0.5688349829779731);30.5965843201;0.678066601053;0;0;0;0;0;0;0;0;0;();(-2000.0, -2000.0);
03:29:44:598;03:29:44:586;1448289944.24;(0.4504229545593262, 0.7575441360473633);30.9525737762;0.610912215128;0;0;0;0;0;0;0;0;0;();(-2000.0, -2000.0);
03:29:44:614;03:29:44:586;1448289944.24;(0.4504229545593262, 0.7575441360473633);30.9525737762;0.610912215128;0;0;0;0;0;0;0;0;0;();(-2000.0, -2000.0);
03:29:44:631;03:29:44:586;1448289944.24;(0.4504229545593262, 0.7575441360473633);30.9525737762;0.610912215128;0;0;0;0;0;0;0;0;0;();(-2000.0, -2000.0);
03:29:44:647;03:29:44:586;1448289944.24;(0.4504229545593262, 0.7575441360473633);30.9525737762;0.610912215128;0;0;0;0;0;0;0;0;0;();(-2000.0, -2000.0);
03:29:44:664;03:29:44:653;1448289944.27;(0.6926239490509033, 0.7541047202216254);79.5374603271;0.699428240934;0;0;0;0;0;0;0;0;0;();(-2000.0, -2000.0);
03:29:44:697;03:29:44:653;1448289944.27;(0.6926239490509033, 0.7541047202216254);79.5374603271;0.699428240934;0;0;0;0;0;0;0;0;0;();(-2000.0, -2000.0);
03:29:44:714;03:29:44:653;1448289944.27;(0.6926239490509033, 0.7541047202216254);79.5374603271;0.699428240934;0;0;0;0;0;0;0;0;0;();(-2000.0, -2000.0);
03:29:44:731;03:29:44:720;1448289944.37;(0.7009581089019775, 0.7500299665662977);78.2705612183;0.645165342195;0;0;0;0;0;0;0;0;0;();(-2000.0, -2000.0);
03:29:44:747;03:29:44:720;1448289944.37;(0.7009581089019775, 0.7500299665662977);78.2705612183;0.645165342195;0;0;0;0;0;0;0;0;0;();(-2000.0, -2000.0);
03:29:44:764;03:29:44:720;1448289944.37;(0.7009581089019775, 0.7500299665662977);78.2705612183;0.645165342195;0;0;0;0;0;0;0;0;0;();(-2000.0, -2000.0);
03:29:44:797;03:29:44:786;1448289944.44;(0.9411812782287597, 0.37279548645019533);18.6713829041;0.821890356915;0;0;0;0;0;0;0;0;0;();(-2000.0, -2000.0);
03:29:44:814;03:29:44:786;1448289944.44;(0.9411812782287597, 0.37279548645019533);18.6713829041;0.821890356915;0;0;0;0;0;0;0;0;0;();(-2000.0, -2000.0);
03:29:44:831;03:29:44:786;1448289944.44;(0.9411812782287597, 0.37279548645019533);18.6713829041;0.821890356915;0;0;0;0;0;0;0;0;0;();(-2000.0, -2000.0);
03:29:44:847;03:29:44:786;1448289944.44;(0.9411812782287597, 0.37279548645019533);18.6713829041;0.821890356915;0;0;0;0;0;0;0;0;0;();(-2000.0, -2000.0);
03:29:44:865;03:29:44:861;1448289944.51;(0.7084431171417236, 0.7473525789048936);76.901763916;0.742921682593;0;0;0;0;0;0;0;0;0;();(-2000.0, -2000.0);
03:29:44:900;03:29:44:861;1448289944.51;(0.7084431171417236, 0.7473525789048936);76.901763916;0.742921682593;0;0;0;0;0;0;0;0;0;();(-2000.0, -2000.0);
03:29:44:917;03:29:44:861;1448289944.51;(0.7084431171417236, 0.7473525789048936);76.901763916;0.742921682593;0;0;0;0;0;0;0;0;0;();(-2000.0, -2000.0);
03:29:44:931;03:29:44:861;1448289944.51;(0.7084431171417236, 0.7473525789048936);76.901763916;0.742921682593;0;0;0;0;0;0;0;0;0;();(-2000.0, -2000.0);
03:29:44:947;03:29:44:934;1448289944.57;(0, 0);0;0;0;0;0;0;0;0;0;0;0;();(-2000.0, -2000.0);
03:29:44:968;03:29:44:934;1448289944.57;(0, 0);0;0;0;0;0;0;0;0;0;0;0;();(-2000.0, -2000.0);
03:29:44:998;03:29:44:992;1448289944.64;(0.7209774017333984, 0.7425957149929471);77.0160140991;0.831228415885;0;0;0;0;0;0;0;0;0;();(-2000.0, -2000.0);
03:29:45:015;03:29:44:992;1448289944.64;(0.7209774017333984, 0.7425957149929471);77.0160140991;0.831228415885;0;0;0;0;0;0;0;0;0;();(-2000.0, -2000.0);
03:29:45:033;03:29:44:992;1448289944.64;(0.7209774017333984, 0.7425957149929471);77.0160140991;0.831228415885;0;0;0;0;0;0;0;0;0;();(-2000.0, -2000.0);
03:29:45:050;03:29:44:992;1448289944.64;(0.7209774017333984, 0.7425957149929471);77.0160140991;0.831228415885;0;0;0;0;0;0;0;0;0;();(-2000.0, -2000.0);
03:29:45:066;03:29:45:055;1448289944.67;(0.7225637912750245, 0.7402238633897569);78.185760498;0.685678179974;0;0;0;0;0;0;0;0;0;();(-2000.0, -2000.0);
03:29:45:100;03:29:45:055;1448289944.67;(0.7225637912750245, 0.7402238633897569);78.185760498;0.685678179974;0;0;0;0;0;0;0;0;0;();(-2000.0, -2000.0);
03:29:45:114;03:29:45:055;1448289944.67;(0.7225637912750245, 0.7402238633897569);78.185760498;0.685678179974;0;0;0;0;0;0;0;0;0;();(-2000.0, -2000.0);
03:29:45:131;03:29:45:120;1448289944.77;(0.7238216876983643, 0.7395331700642904);77.7083206177;0.821663282788;0;0;0;0;0;0;0;0;0;();(-2000.0, -2000.0);
03:29:45:147;03:29:45:120;1448289944.77;(0.7238216876983643, 0.7395331700642904);77.7083206177;0.821663282788;0;0;0;0;0;0;0;0;0;();(-2000.0, -2000.0);
03:29:45:164;03:29:45:120;1448289944.77;(0.7238216876983643, 0.7395331700642904);77.7083206177;0.821663282788;0;0;0;0;0;0;0;0;0;();(-2000.0, -2000.0);
03:29:45:197;03:29:45:186;1448289944.84;(0.7664349555969239, 0.7077726576063368);75.3952102661;0.834427713358;0;0;0;0;0;0;0;0;0;();(-2000.0, -2000.0);
03:29:45:214;03:29:45:186;1448289944.84;(0.7664349555969239, 0.7077726576063368);75.3952102661;0.834427713358;0;0;0;0;0;0;0;0;0;();(-2000.0, -2000.0);
03:29:45:231;03:29:45:186;1448289944.84;(0.7664349555969239, 0.7077726576063368);75.3952102661;0.834427713358;0;0;0;0;0;0;0;0;0;();(-2000.0, -2000.0);
03:29:45:247;03:29:45:186;1448289944.84;(0.7664349555969239, 0.7077726576063368);75.3952102661;0.834427713358;0;0;0;0;0;0;0;0;0;();(-2000.0, -2000.0);
03:29:45:264;03:29:45:251;1448289944.91;(0.7662599086761475, 0.7080541822645399);75.8873062134;0.86687597774;0;0;0;0;0;0;0;0;0;();(-2000.0, -2000.0);
03:29:45:300;03:29:45:251;1448289944.91;(0.7662599086761475, 0.7080541822645399);75.8873062134;0.86687597774;0;0;0;0;0;0;0;0;0;();(-2000.0, -2000.0);
03:29:45:317;03:29:45:251;1448289944.91;(0.7662599086761475, 0.7080541822645399);75.8873062134;0.86687597774;0;0;0;0;0;0;0;0;0;();(-2000.0, -2000.0);
03:29:45:334;03:29:45:320;1448289944.97;(0.77023286819458, 0.7129023234049479);74.858001709;0.748822071387;0;0;0;0;0;0;0;0;0;();(-2000.0, -2000.0);
03:29:45:348;03:29:45:320;1448289944.97;(0.77023286819458, 0.7129023234049479);74.858001709;0.748822071387;0;0;0;0;0;0;0;0;0;();(-2000.0, -2000.0);
03:29:45:365;03:29:45:320;1448289944.97;(0.77023286819458, 0.7129023234049479);74.858001709;0.748822071387;0;0;0;0;0;0;0;0;0;();(-2000.0, -2000.0);
03:29:45:398;03:29:45:383;1448289945.01;(0.7673348903656005, 0.7118333604600695);75.9360046387;0.991167718708;0;0;0;0;0;0;0;0;0;();(-2000.0, -2000.0);
03:29:45:414;03:29:45:383;1448289945.01;(0.7673348903656005, 0.7118333604600695);75.9360046387;0.991167718708;0;0;0;0;0;0;0;0;0;();(-2000.0, -2000.0);
03:29:45:431;03:29:45:383;1448289945.01;(0.7673348903656005, 0.7118333604600695);75.9360046387;0.991167718708;0;0;0;0;0;0;0;0;0;();(-2000.0, -2000.0);
03:29:45:448;03:29:45:383;1448289945.01;(0.7673348903656005, 0.7118333604600695);75.9360046387;0.991167718708;0;0;0;0;0;0;0;0;0;();(-2000.0, -2000.0);
03:29:45:464;03:29:45:454;1448289945.11;(0.7676419258117676, 0.7123708089192708);76.2614440918;1.0;0;0;0;0;0;0;0;0;0;();(-2000.0, -2000.0);
03:29:45:498;03:29:45:454;1448289945.11;(0.7676419258117676, 0.7123708089192708);76.2614440918;1.0;0;0;0;0;0;0;0;0;0;();(-2000.0, -2000.0);
03:29:45:515;03:29:45:454;1448289945.11;(0.7676419258117676, 0.7123708089192708);76.2614440918;1.0;0;0;0;0;0;0;0;0;0;();(-2000.0, -2000.0);
03:29:45:530;03:29:45:518;1448289945.17;(0, 0);0;0;0;0;0;0;0;0;0;0;0;();(-2000.0, -2000.0);
03:29:45:548;03:29:45:518;1448289945.17;(0, 0);0;0;0;0;0;0;0;0;0;0;0;();(-2000.0, -2000.0);
03:29:45:565;03:29:45:518;1448289945.17;(0, 0);0;0;0;0;0;0;0;0;0;0;0;();(-2000.0, -2000.0);
03:29:45:598;03:29:45:583;1448289945.24;(0.7078498363494873, 0.754993036058214);75.8194732666;0.699890924851;0;0;0;0;0;0;0;0;0;();(-2000.0, -2000.0);
03:29:45:614;03:29:45:583;1448289945.24;(0.7078498363494873, 0.754993036058214);75.8194732666;0.699890924851;0;0;0;0;0;0;0;0;0;();(-2000.0, -2000.0);
03:29:45:631;03:29:45:583;1448289945.24;(0.7078498363494873, 0.754993036058214);75.8194732666;0.699890924851;0;0;0;0;0;0;0;0;0;();(-2000.0, -2000.0);
03:29:45:649;03:29:45:645;1448289945.27;(0.6615711212158203, 0.7673143598768446);75.5254821777;0.704534464615;0;0;0;0;0;0;0;0;0;();(-2000.0, -2000.0);
03:29:45:665;03:29:45:645;1448289945.27;(0.6615711212158203, 0.7673143598768446);75.5254821777;0.704534464615;0;0;0;0;0;0;0;0;0;();(-2000.0, -2000.0);
03:29:45:698;03:29:45:645;1448289945.27;(0.6615711212158203, 0.7673143598768446);75.5254821777;0.704534464615;0;0;0;0;0;0;0;0;0;();(-2000.0, -2000.0);
03:29:45:716;03:29:45:712;1448289945.31;(0.6547229766845704, 0.7741028891669379);78.8314666748;0.825252001827;0;0;0;0;0;0;0;0;0;();(-2000.0, -2000.0);
03:29:45:732;03:29:45:720;1448289945.37;(0.661293888092041, 0.7746376461452908);78.0480117798;0.905377706716;0;0;0;0;0;0;0;0;0;();(-2000.0, -2000.0);
03:29:45:751;03:29:45:720;1448289945.37;(0.661293888092041, 0.7746376461452908);78.0480117798;0.905377706716;0;0;0;0;0;0;0;0;0;();(-2000.0, -2000.0);
03:29:45:767;03:29:45:720;1448289945.37;(0.661293888092041, 0.7746376461452908);78.0480117798;0.905377706716;0;0;0;0;0;0;0;0;0;();(-2000.0, -2000.0);
03:29:45:798;03:29:45:789;1448289945.44;(0, 0);0;0;0;0;0;0;0;0;0;0;0;();(-2000.0, -2000.0);
03:29:45:815;03:29:45:789;1448289945.44;(0, 0);0;0;0;0;0;0;0;0;0;0;0;();(-2000.0, -2000.0);
03:29:45:831;03:29:45:789;1448289945.44;(0, 0);0;0;0;0;0;0;0;0;0;0;0;();(-2000.0, -2000.0);
03:29:45:849;03:29:45:846;1448289945.51;(0.6683165550231933, 0.777282820807563);79.4190826416;0.722995933112;0;0;0;0;0;0;0;0;0;();(-2000.0, -2000.0);
03:29:45:865;03:29:45:846;1448289945.51;(0.6683165550231933, 0.777282820807563);79.4190826416;0.722995933112;0;0;0;0;0;0;0;0;0;();(-2000.0, -2000.0);
03:29:45:898;03:29:45:846;1448289945.51;(0.6683165550231933, 0.777282820807563);79.4190826416;0.722995933112;0;0;0;0;0;0;0;0;0;();(-2000.0, -2000.0);
03:29:45:915;03:29:45:846;1448289945.51;(0.6683165550231933, 0.777282820807563);79.4190826416;0.722995933112;0;0;0;0;0;0;0;0;0;();(-2000.0, -2000.0);
03:29:45:932;03:29:45:918;1448289945.57;(0.6717788696289062, 0.7787087122599283);81.8298950195;0.875050291497;0;0;0;0;0;0;0;0;0;();(-2000.0, -2000.0);
03:29:45:949;03:29:45:918;1448289945.57;(0.6717788696289062, 0.7787087122599283);81.8298950195;0.875050291497;0;0;0;0;0;0;0;0;0;();(-2000.0, -2000.0);
03:29:45:965;03:29:45:918;1448289945.57;(0.6717788696289062, 0.7787087122599283);81.8298950195;0.875050291497;0;0;0;0;0;0;0;0;0;();(-2000.0, -2000.0);
03:29:45:999;03:29:45:983;1448289945.64;(0.3663668632507324, 0.8998039033677843);19.4845657349;0.656599441335;0;0;0;0;0;0;0;0;0;();(-2000.0, -2000.0);
03:29:46:015;03:29:45:983;1448289945.64;(0.3663668632507324, 0.8998039033677843);19.4845657349;0.656599441335;0;0;0;0;0;0;0;0;0;();(-2000.0, -2000.0);
03:29:46:032;03:29:45:983;1448289945.64;(0.3663668632507324, 0.8998039033677843);19.4845657349;0.656599441335;0;0;0;0;0;0;0;0;0;();(-2000.0, -2000.0);
03:29:46:050;03:29:46:047;1448289945.71;(0, 0);0;0;0;0;0;0;0;0;0;0;0;();(-2000.0, -2000.0);
03:29:46:065;03:29:46:047;1448289945.71;(0, 0);0;0;0;0;0;0;0;0;0;0;0;();(-2000.0, -2000.0);
03:29:46:098;03:29:46:047;1448289945.71;(0, 0);0;0;0;0;0;0;0;0;0;0;0;();(-2000.0, -2000.0);
03:29:46:116;03:29:46:047;1448289945.71;(0, 0);0;0;0;0;0;0;0;0;0;0;0;();(-2000.0, -2000.0);
03:29:46:132;03:29:46:119;1448289945.77;(0.6410580635070801, 0.8011757956610785);78.499710083;0.669868341066;0;0;0;0;0;0;0;0;0;();(-2000.0, -2000.0);
03:29:46:148;03:29:46:119;1448289945.77;(0.6410580635070801, 0.8011757956610785);78.499710083;0.669868341066;0;0;0;0;0;0;0;0;0;();(-2000.0, -2000.0);
03:29:46:166;03:29:46:119;1448289945.77;(0.6410580635070801, 0.8011757956610785);78.499710083;0.669868341066;0;0;0;0;0;0;0;0;0;();(-2000.0, -2000.0);
03:29:46:198;03:29:46:188;1448289945.84;(0.645663833618164, 0.7989424493577746);77.9242324829;0.719870807969;0;0;0;0;0;0;0;0;0;();(-2000.0, -2000.0);
03:29:46:215;03:29:46:188;1448289945.84;(0.645663833618164, 0.7989424493577746);77.9242324829;0.719870807969;0;0;0;0;0;0;0;0;0;();(-2000.0, -2000.0);
03:29:46:232;03:29:46:188;1448289945.84;(0.645663833618164, 0.7989424493577746);77.9242324829;0.719870807969;0;0;0;0;0;0;0;0;0;();(-2000.0, -2000.0);
03:29:46:249;03:29:46:246;1448289945.91;(0.6500728607177735, 0.797356637318929);78.9029769897;0.788405526948;0;0;0;0;0;0;0;0;0;();(-2000.0, -2000.0);
03:29:46:266;03:29:46:246;1448289945.91;(0.6500728607177735, 0.797356637318929);78.9029769897;0.788405526948;0;0;0;0;0;0;0;0;0;();(-2000.0, -2000.0);
03:29:46:301;03:29:46:246;1448289945.91;(0.6500728607177735, 0.797356637318929);78.9029769897;0.788405526948;0;0;0;0;0;0;0;0;0;();(-2000.0, -2000.0);
03:29:46:319;03:29:46:312;1448289945.97;(0.5618290424346923, 0.8145898924933539);28.6551456451;0.641305782217;0;0;0;0;0;0;0;0;0;();(-2000.0, -2000.0);
03:29:46:335;03:29:46:312;1448289945.97;(0.5618290424346923, 0.8145898924933539);28.6551456451;0.641305782217;0;0;0;0;0;0;0;0;0;();(-2000.0, -2000.0);
03:29:46:351;03:29:46:312;1448289945.97;(0.5618290424346923, 0.8145898924933539);28.6551456451;0.641305782217;0;0;0;0;0;0;0;0;0;();(-2000.0, -2000.0);
03:29:46:366;03:29:46:312;1448289945.97;(0.5618290424346923, 0.8145898924933539);28.6551456451;0.641305782217;0;0;0;0;0;0;0;0;0;();(-2000.0, -2000.0);
03:29:46:399;03:29:46:378;1448289946.01;(0.5909501075744629, 0.8315030733744303);79.4038314819;0.88705729617;0;0;0;0;0;0;0;0;0;();(-2000.0, -2000.0);
03:29:46:415;03:29:46:378;1448289946.01;(0.5909501075744629, 0.8315030733744303);79.4038314819;0.88705729617;0;0;0;0;0;0;0;0;0;();(-2000.0, -2000.0);
03:29:46:433;03:29:46:378;1448289946.01;(0.5909501075744629, 0.8315030733744303);79.4038314819;0.88705729617;0;0;0;0;0;0;0;0;0;();(-2000.0, -2000.0);
03:29:46:450;03:29:46:446;1448289946.07;(0.6116703033447266, 0.8257834010654026);80.5792312622;0.954462134033;0;0;0;0;0;0;0;0;0;();(-2000.0, -2000.0);
03:29:46:466;03:29:46:448;1448289946.11;(0.6155611515045166, 0.8232636981540256);79.744392395;0.761153809648;0;0;0;0;0;0;0;0;0;();(-2000.0, -2000.0);
03:29:46:499;03:29:46:448;1448289946.11;(0.6155611515045166, 0.8232636981540256);79.744392395;0.761153809648;0;0;0;0;0;0;0;0;0;();(-2000.0, -2000.0);
03:29:46:516;03:29:46:512;1448289946.17;(0.6235945701599122, 0.8189602004157173);79.8826293945;0.64587214257;0;0;0;0;0;0;0;0;0;();(-2000.0, -2000.0);
03:29:46:532;03:29:46:512;1448289946.17;(0.6235945701599122, 0.8189602004157173);79.8826293945;0.64587214257;0;0;0;0;0;0;0;0;0;();(-2000.0, -2000.0);
03:29:46:549;03:29:46:512;1448289946.17;(0.6235945701599122, 0.8189602004157173);79.8826293945;0.64587214257;0;0;0;0;0;0;0;0;0;();(-2000.0, -2000.0);
03:29:46:566;03:29:46:512;1448289946.17;(0.6235945701599122, 0.8189602004157173);79.8826293945;0.64587214257;0;0;0;0;0;0;0;0;0;();(-2000.0, -2000.0);
03:29:46:599;03:29:46:581;1448289946.24;(0.6323092460632325, 0.8187560399373373);79.5245132446;0.839746972513;0;0;0;0;0;0;0;0;0;();(-2000.0, -2000.0);
03:29:46:616;03:29:46:581;1448289946.24;(0.6323092460632325, 0.8187560399373373);79.5245132446;0.839746972513;0;0;0;0;0;0;0;0;0;();(-2000.0, -2000.0);
03:29:46:633;03:29:46:581;1448289946.24;(0.6323092460632325, 0.8187560399373373);79.5245132446;0.839746972513;0;0;0;0;0;0;0;0;0;();(-2000.0, -2000.0);
03:29:46:649;03:29:46:643;1448289946.31;(0.6385313987731933, 0.8188528696695964);79.7705230713;0.859937123663;0;0;0;0;0;0;0;0;0;();(-2000.0, -2000.0);
03:29:46:666;03:29:46:643;1448289946.31;(0.6385313987731933, 0.8188528696695964);79.7705230713;0.859937123663;0;0;0;0;0;0;0;0;0;();(-2000.0, -2000.0);
03:29:46:702;03:29:46:643;1448289946.31;(0.6385313987731933, 0.8188528696695964);79.7705230713;0.859937123663;0;0;0;0;0;0;0;0;0;();(-2000.0, -2000.0);
03:29:46:718;03:29:46:711;1448289946.34;(0.6391834259033203, 0.8184424718221028);80.352142334;0.86857970782;0;0;0;0;0;0;0;0;0;();(-2000.0, -2000.0);
03:29:46:735;03:29:46:716;1448289946.37;(0.6407092094421387, 0.8117110888163248);80.7027359009;0.607481162364;0;0;0;0;0;0;0;0;0;();(-2000.0, -2000.0);
03:29:46:752;03:29:46:716;1448289946.37;(0.6407092094421387, 0.8117110888163248);80.7027359009;0.607481162364;0;0;0;0;0;0;0;0;0;();(-2000.0, -2000.0);
03:29:46:766;03:29:46:716;1448289946.37;(0.6407092094421387, 0.8117110888163248);80.7027359009;0.607481162364;0;0;0;0;0;0;0;0;0;();(-2000.0, -2000.0);
03:29:46:799;03:29:46:778;1448289946.44;(0, 0);0;0;0;0;0;0;0;0;0;0;0;();(-2000.0, -2000.0);
03:29:46:816;03:29:46:778;1448289946.44;(0, 0);0;0;0;0;0;0;0;0;0;0;0;();(-2000.0, -2000.0);
03:29:46:832;03:29:46:778;1448289946.44;(0, 0);0;0;0;0;0;0;0;0;0;0;0;();(-2000.0, -2000.0);
03:29:46:849;03:29:46:840;1448289946.47;(0.6209817886352539, 0.8107491387261285);82.3975448608;0.734914498464;0;0;0;0;0;0;0;0;0;();(-2000.0, -2000.0);
03:29:46:866;03:29:46:840;1448289946.47;(0.6209817886352539, 0.8107491387261285);82.3975448608;0.734914498464;0;0;0;0;0;0;0;0;0;();(-2000.0, -2000.0);
03:29:46:898;03:29:46:840;1448289946.47;(0.6209817886352539, 0.8107491387261285);82.3975448608;0.734914498464;0;0;0;0;0;0;0;0;0;();(-2000.0, -2000.0);
03:29:46:916;03:29:46:913;1448289946.57;(0.6197150230407715, 0.8092892752753363);81.4223098755;0.831935892799;0;0;0;0;0;0;0;0;0;();(-2000.0, -2000.0);
03:29:46:932;03:29:46:913;1448289946.57;(0.6197150230407715, 0.8092892752753363);81.4223098755;0.831935892799;0;0;0;0;0;0;0;0;0;();(-2000.0, -2000.0);
03:29:46:949;03:29:46:913;1448289946.57;(0.6197150230407715, 0.8092892752753363);81.4223098755;0.831935892799;0;0;0;0;0;0;0;0;0;();(-2000.0, -2000.0);
03:29:46:966;03:29:46:913;1448289946.57;(0.6197150230407715, 0.8092892752753363);81.4223098755;0.831935892799;0;0;0;0;0;0;0;0;0;();(-2000.0, -2000.0);
03:29:46:998;03:29:46:973;1448289946.64;(0, 0);0;0;0;0;0;0;0;0;0;0;0;();(-2000.0, -2000.0);
03:29:47:016;03:29:46:973;1448289946.64;(0, 0);0;0;0;0;0;0;0;0;0;0;0;();(-2000.0, -2000.0);
03:29:47:032;03:29:46:973;1448289946.64;(0, 0);0;0;0;0;0;0;0;0;0;0;0;();(-2000.0, -2000.0);
03:29:47:049;03:29:47:043;1448289946.71;(0.6252947807312011, 0.8015620125664605);82.8728713989;0.692685215933;0;0;0;0;0;0;0;0;0;();(-2000.0, -2000.0);
03:29:47:066;03:29:47:043;1448289946.71;(0.6252947807312011, 0.8015620125664605);82.8728713989;0.692685215933;0;0;0;0;0;0;0;0;0;();(-2000.0, -2000.0);
03:29:47:099;03:29:47:043;1448289946.71;(0.6252947807312011, 0.8015620125664605);82.8728713989;0.692685215933;0;0;0;0;0;0;0;0;0;();(-2000.0, -2000.0);
03:29:47:118;03:29:47:110;1448289946.77;(0, 0);0;0;0;0;0;0;0;0;0;0;0;();(-2000.0, -2000.0);
03:29:47:135;03:29:47:110;1448289946.77;(0, 0);0;0;0;0;0;0;0;0;0;0;0;();(-2000.0, -2000.0);
03:29:47:149;03:29:47:110;1448289946.77;(0, 0);0;0;0;0;0;0;0;0;0;0;0;();(-2000.0, -2000.0);
03:29:47:166;03:29:47:110;1448289946.77;(0, 0);0;0;0;0;0;0;0;0;0;0;0;();(-2000.0, -2000.0);
03:29:47:200;03:29:47:174;1448289946.84;(0, 0);0;0;0;0;0;0;0;0;0;0;0;();(-2000.0, -2000.0);
03:29:47:216;03:29:47:174;1448289946.84;(0, 0);0;0;0;0;0;0;0;0;0;0;0;();(-2000.0, -2000.0);
03:29:47:233;03:29:47:174;1448289946.84;(0, 0);0;0;0;0;0;0;0;0;0;0;0;();(-2000.0, -2000.0);
03:29:47:249;03:29:47:242;1448289946.91;(0, 0);0;0;0;0;0;0;0;0;0;0;0;();(-2000.0, -2000.0);
03:29:47:266;03:29:47:242;1448289946.91;(0, 0);0;0;0;0;0;0;0;0;0;0;0;();(-2000.0, -2000.0);
03:29:47:300;03:29:47:242;1448289946.91;(0, 0);0;0;0;0;0;0;0;0;0;0;0;();(-2000.0, -2000.0);
03:29:47:316;03:29:47:306;1448289946.94;(0.5871968269348145, 0.7923707962036133);82.5451889038;0.887489273765;0;0;0;0;0;0;0;0;0;();(-2000.0, -2000.0);
03:29:47:333;03:29:47:306;1448289946.94;(0.5871968269348145, 0.7923707962036133);82.5451889038;0.887489273765;0;0;0;0;0;0;0;0;0;();(-2000.0, -2000.0);
03:29:47:350;03:29:47:306;1448289946.94;(0.5871968269348145, 0.7923707962036133);82.5451889038;0.887489273765;0;0;0;0;0;0;0;0;0;();(-2000.0, -2000.0);
03:29:47:366;03:29:47:306;1448289946.94;(0.5871968269348145, 0.7923707962036133);82.5451889038;0.887489273765;0;0;0;0;0;0;0;0;0;();(-2000.0, -2000.0);
03:29:47:399;03:29:47:375;1448289947.04;(0.5911741733551026, 0.7894809510972765);83.5605773926;0.865238507556;0;0;0;0;0;0;0;0;0;();(-2000.0, -2000.0);
03:29:47:416;03:29:47:375;1448289947.04;(0.5911741733551026, 0.7894809510972765);83.5605773926;0.865238507556;0;0;0;0;0;0;0;0;0;();(-2000.0, -2000.0);
03:29:47:434;03:29:47:375;1448289947.04;(0.5911741733551026, 0.7894809510972765);83.5605773926;0.865238507556;0;0;0;0;0;0;0;0;0;();(-2000.0, -2000.0);
03:29:47:450;03:29:47:443;1448289947.11;(0.5916260719299317, 0.7881269243028428);82.9321289062;0.991484387995;0;0;0;0;0;0;0;0;0;();(-2000.0, -2000.0);
03:29:47:466;03:29:47:443;1448289947.11;(0.5916260719299317, 0.7881269243028428);82.9321289062;0.991484387995;0;0;0;0;0;0;0;0;0;();(-2000.0, -2000.0);
03:29:47:500;03:29:47:443;1448289947.11;(0.5916260719299317, 0.7881269243028428);82.9321289062;0.991484387995;0;0;0;0;0;0;0;0;0;();(-2000.0, -2000.0);
03:29:47:516;03:29:47:507;1448289947.17;(0, 0);0;0;0;0;0;0;0;0;0;0;0;();(-2000.0, -2000.0);
03:29:47:533;03:29:47:507;1448289947.17;(0, 0);0;0;0;0;0;0;0;0;0;0;0;();(-2000.0, -2000.0);
03:29:47:550;03:29:47:507;1448289947.17;(0, 0);0;0;0;0;0;0;0;0;0;0;0;();(-2000.0, -2000.0);
03:29:47:567;03:29:47:507;1448289947.17;(0, 0);0;0;0;0;0;0;0;0;0;0;0;();(-2000.0, -2000.0);
03:29:47:602;03:29:47:576;1448289947.21;(0, 0);0;0;0;0;0;0;0;0;0;0;0;();(-2000.0, -2000.0);
03:29:47:619;03:29:47:576;1448289947.21;(0, 0);0;0;0;0;0;0;0;0;0;0;0;();(-2000.0, -2000.0);
03:29:47:635;03:29:47:576;1448289947.21;(0, 0);0;0;0;0;0;0;0;0;0;0;0;();(-2000.0, -2000.0);
03:29:47:654;03:29:47:647;1448289947.27;(0, 0);0;0;0;0;0;0;0;0;0;0;0;();(-2000.0, -2000.0);
03:29:47:669;03:29:47:647;1448289947.27;(0, 0);0;0;0;0;0;0;0;0;0;0;0;();(-2000.0, -2000.0);
03:29:47:702;03:29:47:647;1448289947.27;(0, 0);0;0;0;0;0;0;0;0;0;0;0;();(-2000.0, -2000.0);
03:29:47:717;03:29:47:708;1448289947.34;(0.6600415229797363, 0.7516931957668729);79.7938766479;1.0;0;0;0;0;0;0;0;0;0;();(-2000.0, -2000.0);
03:29:47:733;03:29:47:708;1448289947.34;(0.6600415229797363, 0.7516931957668729);79.7938766479;1.0;0;0;0;0;0;0;0;0;0;();(-2000.0, -2000.0);
03:29:47:750;03:29:47:708;1448289947.34;(0.6600415229797363, 0.7516931957668729);79.7938766479;1.0;0;0;0;0;0;0;0;0;0;();(-2000.0, -2000.0);
03:29:47:766;03:29:47:708;1448289947.34;(0.6600415229797363, 0.7516931957668729);79.7938766479;1.0;0;0;0;0;0;0;0;0;0;();(-2000.0, -2000.0);
03:29:47:800;03:29:47:774;1448289947.41;(0.6627557277679443, 0.7546664979722765);79.0779266357;0.828062599757;0;0;0;0;0;0;0;0;0;();(-2000.0, -2000.0);
03:29:47:817;03:29:47:774;1448289947.41;(0.6627557277679443, 0.7546664979722765);79.0779266357;0.828062599757;0;0;0;0;0;0;0;0;0;();(-2000.0, -2000.0);
03:29:47:834;03:29:47:774;1448289947.41;(0.6627557277679443, 0.7546664979722765);79.0779266357;0.828062599757;0;0;0;0;0;0;0;0;0;();(-2000.0, -2000.0);
03:29:47:850;03:29:47:844;1448289947.51;(0.37376492023468016, 0.8475263595581055);25.4321937561;0.745412197599;0;0;0;0;0;0;0;0;0;();(-2000.0, -2000.0);
03:29:47:866;03:29:47:844;1448289947.51;(0.37376492023468016, 0.8475263595581055);25.4321937561;0.745412197599;0;0;0;0;0;0;0;0;0;();(-2000.0, -2000.0);
03:29:47:901;03:29:47:844;1448289947.51;(0.37376492023468016, 0.8475263595581055);25.4321937561;0.745412197599;0;0;0;0;0;0;0;0;0;();(-2000.0, -2000.0);
03:29:47:916;03:29:47:905;1448289947.54;(0.6842517375946044, 0.7203865898980035);76.8723220825;0.63194562244;0;0;0;0;0;0;0;0;0;();(-2000.0, -2000.0);
03:29:47:935;03:29:47:905;1448289947.54;(0.6842517375946044, 0.7203865898980035);76.8723220825;0.63194562244;0;0;0;0;0;0;0;0;0;();(-2000.0, -2000.0);
03:29:47:953;03:29:47:905;1448289947.54;(0.6842517375946044, 0.7203865898980035);76.8723220825;0.63194562244;0;0;0;0;0;0;0;0;0;();(-2000.0, -2000.0);
03:29:47:967;03:29:47:905;1448289947.54;(0.6842517375946044, 0.7203865898980035);76.8723220825;0.63194562244;0;0;0;0;0;0;0;0;0;();(-2000.0, -2000.0);
03:29:48:000;03:29:47:971;1448289947.61;(0, 0);0;0;0;0;0;0;0;0;0;0;0;();(-2000.0, -2000.0);
03:29:48:016;03:29:47:971;1448289947.61;(0, 0);0;0;0;0;0;0;0;0;0;0;0;();(-2000.0, -2000.0);
03:29:48:034;03:29:47:971;1448289947.61;(0, 0);0;0;0;0;0;0;0;0;0;0;0;();(-2000.0, -2000.0);
03:29:48:050;03:29:48:042;1448289947.67;(0, 0);0;0;0;0;0;0;0;0;0;0;0;();(-2000.0, -2000.0);
03:29:48:067;03:29:48:042;1448289947.67;(0, 0);0;0;0;0;0;0;0;0;0;0;0;();(-2000.0, -2000.0);
03:29:48:101;03:29:48:042;1448289947.67;(0, 0);0;0;0;0;0;0;0;0;0;0;0;();(-2000.0, -2000.0);
03:29:48:117;03:29:48:106;1448289947.74;(0.686890983581543, 0.7329049640231662);75.8560409546;0.937106479189;0;0;0;0;0;0;0;0;0;();(-2000.0, -2000.0);
03:29:48:134;03:29:48:106;1448289947.74;(0.686890983581543, 0.7329049640231662);75.8560409546;0.937106479189;0;0;0;0;0;0;0;0;0;();(-2000.0, -2000.0);
03:29:48:151;03:29:48:106;1448289947.74;(0.686890983581543, 0.7329049640231662);75.8560409546;0.937106479189;0;0;0;0;0;0;0;0;0;();(-2000.0, -2000.0);
03:29:48:167;03:29:48:106;1448289947.74;(0.686890983581543, 0.7329049640231662);75.8560409546;0.937106479189;0;0;0;0;0;0;0;0;0;();(-2000.0, -2000.0);
03:29:48:184;03:29:48:172;1448289947.84;(0.6868306636810303, 0.7368015077379015);75.7464447021;0.942151945722;0;0;0;0;0;0;0;0;0;();(-2000.0, -2000.0);
03:29:48:217;03:29:48:172;1448289947.84;(0.6868306636810303, 0.7368015077379015);75.7464447021;0.942151945722;0;0;0;0;0;0;0;0;0;();(-2000.0, -2000.0);
03:29:48:234;03:29:48:172;1448289947.84;(0.6868306636810303, 0.7368015077379015);75.7464447021;0.942151945722;0;0;0;0;0;0;0;0;0;();(-2000.0, -2000.0);
03:29:48:250;03:29:48:238;1448289947.91;(0.7399394035339355, 0.7203648673163521);72.3630218506;0.732675453728;0;0;0;0;0;0;0;0;0;();(-2000.0, -2000.0);
03:29:48:267;03:29:48:238;1448289947.91;(0.7399394035339355, 0.7203648673163521);72.3630218506;0.732675453728;0;0;0;0;0;0;0;0;0;();(-2000.0, -2000.0);
03:29:48:300;03:29:48:238;1448289947.91;(0.7399394035339355, 0.7203648673163521);72.3630218506;0.732675453728;0;0;0;0;0;0;0;0;0;();(-2000.0, -2000.0);
03:29:48:317;03:29:48:300;1448289947.94;(0.7398443222045898, 0.7258099873860677);72.9303512573;0.863184171693;0;0;0;0;0;0;0;0;0;();(-2000.0, -2000.0);
03:29:48:333;03:29:48:300;1448289947.94;(0.7398443222045898, 0.7258099873860677);72.9303512573;0.863184171693;0;0;0;0;0;0;0;0;0;();(-2000.0, -2000.0);
03:29:48:350;03:29:48:300;1448289947.94;(0.7398443222045898, 0.7258099873860677);72.9303512573;0.863184171693;0;0;0;0;0;0;0;0;0;();(-2000.0, -2000.0);
03:29:48:367;03:29:48:300;1448289947.94;(0.7398443222045898, 0.7258099873860677);72.9303512573;0.863184171693;0;0;0;0;0;0;0;0;0;();(-2000.0, -2000.0);
03:29:48:384;03:29:48:372;1448289948.04;(0, 0);0;0;0;0;0;0;0;0;0;0;0;();(-2000.0, -2000.0);
03:29:48:420;03:29:48:372;1448289948.04;(0, 0);0;0;0;0;0;0;0;0;0;0;0;();(-2000.0, -2000.0);
03:29:48:436;03:29:48:372;1448289948.04;(0, 0);0;0;0;0;0;0;0;0;0;0;0;();(-2000.0, -2000.0);
03:29:48:453;03:29:48:440;1448289948.11;(0.7330515861511231, 0.7343079460991753);76.2441253662;0.826714973047;0;0;0;0;0;0;0;0;0;();(-2000.0, -2000.0);
03:29:48:467;03:29:48:440;1448289948.11;(0.7330515861511231, 0.7343079460991753);76.2441253662;0.826714973047;0;0;0;0;0;0;0;0;0;();(-2000.0, -2000.0);
03:29:48:484;03:29:48:440;1448289948.11;(0.7330515861511231, 0.7343079460991753);76.2441253662;0.826714973047;0;0;0;0;0;0;0;0;0;();(-2000.0, -2000.0);
03:29:48:517;03:29:48:501;1448289948.14;(0.7468175888061523, 0.726437250773112);78.4731750488;0.796139234658;0;0;0;0;0;0;0;0;0;();(-2000.0, -2000.0);
03:29:48:534;03:29:48:501;1448289948.14;(0.7468175888061523, 0.726437250773112);78.4731750488;0.796139234658;0;0;0;0;0;0;0;0;0;();(-2000.0, -2000.0);
03:29:48:551;03:29:48:501;1448289948.14;(0.7468175888061523, 0.726437250773112);78.4731750488;0.796139234658;0;0;0;0;0;0;0;0;0;();(-2000.0, -2000.0);
03:29:48:567;03:29:48:501;1448289948.14;(0.7468175888061523, 0.726437250773112);78.4731750488;0.796139234658;0;0;0;0;0;0;0;0;0;();(-2000.0, -2000.0);
03:29:48:584;03:29:48:570;1448289948.21;(0.7504075050354004, 0.722967063056098);73.9904556274;0.904391064768;0;0;0;0;0;0;0;0;0;();(-2000.0, -2000.0);
03:29:48:617;03:29:48:570;1448289948.21;(0.7504075050354004, 0.722967063056098);73.9904556274;0.904391064768;0;0;0;0;0;0;0;0;0;();(-2000.0, -2000.0);
03:29:48:634;03:29:48:570;1448289948.21;(0.7504075050354004, 0.722967063056098);73.9904556274;0.904391064768;0;0;0;0;0;0;0;0;0;();(-2000.0, -2000.0);
03:29:48:651;03:29:48:638;1448289948.27;(0.7456231594085694, 0.7298558129204644);76.7371063232;0.895459529653;0;0;0;0;0;0;0;0;0;();(-2000.0, -2000.0);
03:29:48:667;03:29:48:638;1448289948.27;(0.7456231594085694, 0.7298558129204644);76.7371063232;0.895459529653;0;0;0;0;0;0;0;0;0;();(-2000.0, -2000.0);
03:29:48:684;03:29:48:638;1448289948.27;(0.7456231594085694, 0.7298558129204644);76.7371063232;0.895459529653;0;0;0;0;0;0;0;0;0;();(-2000.0, -2000.0);
03:29:48:720;03:29:48:703;1448289948.34;(0.7419830799102783, 0.7300409528944227);77.2345504761;0.805132635479;0;0;0;0;0;0;0;0;0;();(-2000.0, -2000.0);
03:29:48:734;03:29:48:703;1448289948.34;(0.7419830799102783, 0.7300409528944227);77.2345504761;0.805132635479;0;0;0;0;0;0;0;0;0;();(-2000.0, -2000.0);
03:29:48:750;03:29:48:703;1448289948.34;(0.7419830799102783, 0.7300409528944227);77.2345504761;0.805132635479;0;0;0;0;0;0;0;0;0;();(-2000.0, -2000.0);
03:29:48:767;03:29:48:703;1448289948.34;(0.7419830799102783, 0.7300409528944227);77.2345504761;0.805132635479;0;0;0;0;0;0;0;0;0;();(-2000.0, -2000.0);
03:29:48:784;03:29:48:774;1448289948.44;(0.737968635559082, 0.7348428302341037);78.843460083;0.920537307609;0;0;0;0;0;0;0;0;0;();(-2000.0, -2000.0);
03:29:48:816;03:29:48:774;1448289948.44;(0.737968635559082, 0.7348428302341037);78.843460083;0.920537307609;0;0;0;0;0;0;0;0;0;();(-2000.0, -2000.0);
03:29:48:834;03:29:48:774;1448289948.44;(0.737968635559082, 0.7348428302341037);78.843460083;0.920537307609;0;0;0;0;0;0;0;0;0;();(-2000.0, -2000.0);
03:29:48:851;03:29:48:832;1448289948.47;(0.7375268459320068, 0.7356618457370334);78.3109283447;0.957417476734;0;0;0;0;0;0;0;0;0;();(-2000.0, -2000.0);
03:29:48:868;03:29:48:832;1448289948.47;(0.7375268459320068, 0.7356618457370334);78.3109283447;0.957417476734;0;0;0;0;0;0;0;0;0;();(-2000.0, -2000.0);
03:29:48:884;03:29:48:832;1448289948.47;(0.7375268459320068, 0.7356618457370334);78.3109283447;0.957417476734;0;0;0;0;0;0;0;0;0;();(-2000.0, -2000.0);
03:29:48:917;03:29:48:902;1448289948.54;(0.7376823902130127, 0.7356118308173285);78.365447998;0.847691734073;0;0;0;0;0;0;0;0;0;();(-2000.0, -2000.0);
03:29:48:934;03:29:48:902;1448289948.54;(0.7376823902130127, 0.7356118308173285);78.365447998;0.847691734073;0;0;0;0;0;0;0;0;0;();(-2000.0, -2000.0);
03:29:48:951;03:29:48:902;1448289948.54;(0.7376823902130127, 0.7356118308173285);78.365447998;0.847691734073;0;0;0;0;0;0;0;0;0;();(-2000.0, -2000.0);
03:29:48:970;03:29:48:966;1448289948.57;(0.7373122215270996, 0.7354646682739258);78.4482040405;0.905569875214;0;0;0;0;0;0;0;0;0;();(-2000.0, -2000.0);
03:29:48:983;03:29:48:967;1448289948.61;(0.7248691082000732, 0.7407001283433703);78.5081176758;0.906931312643;0;0;0;0;0;0;0;0;0;();(-2000.0, -2000.0);
03:29:49:017;03:29:48:967;1448289948.61;(0.7248691082000732, 0.7407001283433703);78.5081176758;0.906931312643;0;0;0;0;0;0;0;0;0;();(-2000.0, -2000.0);
03:29:49:035;03:29:48:967;1448289948.61;(0.7248691082000732, 0.7407001283433703);78.5081176758;0.906931312643;0;0;0;0;0;0;0;0;0;();(-2000.0, -2000.0);
03:29:49:050;03:29:49:040;1448289948.71;(0.7198596477508545, 0.7425767474704319);79.9637756348;0.863013378729;0;0;0;0;0;0;0;0;0;();(-2000.0, -2000.0);
03:29:49:067;03:29:49:040;1448289948.71;(0.7198596477508545, 0.7425767474704319);79.9637756348;0.863013378729;0;0;0;0;0;0;0;0;0;();(-2000.0, -2000.0);
03:29:49:084;03:29:49:040;1448289948.71;(0.7198596477508545, 0.7425767474704319);79.9637756348;0.863013378729;0;0;0;0;0;0;0;0;0;();(-2000.0, -2000.0);
03:29:49:117;03:29:49:097;1448289948.74;(0, 0);0;0;0;0;0;0;0;0;0;0;0;();(-2000.0, -2000.0);
03:29:49:135;03:29:49:097;1448289948.74;(0, 0);0;0;0;0;0;0;0;0;0;0;0;();(-2000.0, -2000.0);
03:29:49:151;03:29:49:097;1448289948.74;(0, 0);0;0;0;0;0;0;0;0;0;0;0;();(-2000.0, -2000.0);
03:29:49:167;03:29:49:097;1448289948.74;(0, 0);0;0;0;0;0;0;0;0;0;0;0;();(-2000.0, -2000.0);
03:29:49:184;03:29:49:169;1448289948.81;(0.7123569488525391, 0.7491010242038303);84.9773025513;0.777827046621;0;0;0;0;0;0;0;0;0;();(-2000.0, -2000.0);
03:29:49:218;03:29:49:169;1448289948.81;(0.7123569488525391, 0.7491010242038303);84.9773025513;0.777827046621;0;0;0;0;0;0;0;0;0;();(-2000.0, -2000.0);
03:29:49:235;03:29:49:169;1448289948.81;(0.7123569488525391, 0.7491010242038303);84.9773025513;0.777827046621;0;0;0;0;0;0;0;0;0;();(-2000.0, -2000.0);
03:29:49:252;03:29:49:237;1448289948.87;(0, 0);0;0;0;0;0;0;0;0;0;0;0;();(-2000.0, -2000.0);
03:29:49:268;03:29:49:237;1448289948.87;(0, 0);0;0;0;0;0;0;0;0;0;0;0;();(-2000.0, -2000.0);
03:29:49:284;03:29:49:237;1448289948.87;(0, 0);0;0;0;0;0;0;0;0;0;0;0;();(-2000.0, -2000.0);
03:29:49:321;03:29:49:297;1448289948.94;(0.9367870330810547, 0.3802795834011502);19.7199649811;0.612111490004;0;0;0;0;0;0;0;0;0;();(-2000.0, -2000.0);
03:29:49:337;03:29:49:297;1448289948.94;(0.9367870330810547, 0.3802795834011502);19.7199649811;0.612111490004;0;0;0;0;0;0;0;0;0;();(-2000.0, -2000.0);
03:29:49:353;03:29:49:297;1448289948.94;(0.9367870330810547, 0.3802795834011502);19.7199649811;0.612111490004;0;0;0;0;0;0;0;0;0;();(-2000.0, -2000.0);
03:29:49:368;03:29:49:297;1448289948.94;(0.9367870330810547, 0.3802795834011502);19.7199649811;0.612111490004;0;0;0;0;0;0;0;0;0;();(-2000.0, -2000.0);
03:29:49:384;03:29:49:371;1448289949.01;(0, 0);0;0;0;0;0;0;0;0;0;0;0;();(-2000.0, -2000.0);
03:29:49:421;03:29:49:371;1448289949.01;(0, 0);0;0;0;0;0;0;0;0;0;0;0;();(-2000.0, -2000.0);
03:29:49:438;03:29:49:431;1448289949.07;(0, 0);0;0;0;0;0;0;0;0;0;0;0;();(-2000.0, -2000.0);
03:29:49:454;03:29:49:431;1448289949.07;(0, 0);0;0;0;0;0;0;0;0;0;0;0;();(-2000.0, -2000.0);
03:29:49:470;03:29:49:431;1448289949.07;(0, 0);0;0;0;0;0;0;0;0;0;0;0;();(-2000.0, -2000.0);
03:29:49:487;03:29:49:431;1448289949.07;(0, 0);0;0;0;0;0;0;0;0;0;0;0;();(-2000.0, -2000.0);
03:29:49:518;03:29:49:501;1448289949.14;(0.732329273223877, 0.7562773386637369);80.2455215454;0.951739748426;0;0;0;0;0;0;0;0;0;();(-2000.0, -2000.0);
03:29:49:534;03:29:49:501;1448289949.14;(0.732329273223877, 0.7562773386637369);80.2455215454;0.951739748426;0;0;0;0;0;0;0;0;0;();(-2000.0, -2000.0);
03:29:49:554;03:29:49:501;1448289949.14;(0.732329273223877, 0.7562773386637369);80.2455215454;0.951739748426;0;0;0;0;0;0;0;0;0;();(-2000.0, -2000.0);
03:29:49:571;03:29:49:565;1448289949.17;(0.731430196762085, 0.758040894402398);83.3826751709;0.662047781984;0;0;0;0;0;0;0;0;0;();(-2000.0, -2000.0);
03:29:49:587;03:29:49:576;1448289949.21;(0.7304625988006592, 0.758278677198622);83.9850463867;0.729794497534;0;0;0;0;0;0;0;0;0;();(-2000.0, -2000.0);
03:29:49:620;03:29:49:576;1448289949.21;(0.7304625988006592, 0.758278677198622);83.9850463867;0.729794497534;0;0;0;0;0;0;0;0;0;();(-2000.0, -2000.0);
03:29:49:637;03:29:49:631;1448289949.27;(0, 0);0;0;0;0;0;0;0;0;0;0;0;();(-2000.0, -2000.0);
03:29:49:654;03:29:49:631;1448289949.27;(0, 0);0;0;0;0;0;0;0;0;0;0;0;();(-2000.0, -2000.0);
03:29:49:669;03:29:49:631;1448289949.27;(0, 0);0;0;0;0;0;0;0;0;0;0;0;();(-2000.0, -2000.0);
03:29:49:685;03:29:49:631;1448289949.27;(0, 0);0;0;0;0;0;0;0;0;0;0;0;();(-2000.0, -2000.0);
03:29:49:717;03:29:49:698;1448289949.34;(0.7305049896240234, 0.7587822172376845);84.4839553833;0.882714946144;0;0;0;0;0;0;0;0;0;();(-2000.0, -2000.0);
03:29:49:735;03:29:49:698;1448289949.34;(0.7305049896240234, 0.7587822172376845);84.4839553833;0.882714946144;0;0;0;0;0;0;0;0;0;();(-2000.0, -2000.0);
03:29:49:752;03:29:49:698;1448289949.34;(0.7305049896240234, 0.7587822172376845);84.4839553833;0.882714946144;0;0;0;0;0;0;0;0;0;();(-2000.0, -2000.0);
03:29:49:768;03:29:49:765;1448289949.41;(0.6897979259490967, 0.7592784881591796);81.5189590454;0.757986909215;0;0;0;0;0;0;0;0;0;();(-2000.0, -2000.0);
03:29:49:785;03:29:49:765;1448289949.41;(0.6897979259490967, 0.7592784881591796);81.5189590454;0.757986909215;0;0;0;0;0;0;0;0;0;();(-2000.0, -2000.0);
03:29:49:817;03:29:49:765;1448289949.41;(0.6897979259490967, 0.7592784881591796);81.5189590454;0.757986909215;0;0;0;0;0;0;0;0;0;();(-2000.0, -2000.0);
03:29:49:835;03:29:49:832;1448289949.44;(0.6849309921264648, 0.7640975104437934);82.9961013794;0.851471639153;0;0;0;0;0;0;0;0;0;();(-2000.0, -2000.0);
03:29:49:851;03:29:49:833;1448289949.47;(0, 0);0;0;0;0;0;0;0;0;0;0;0;();(-2000.0, -2000.0);
03:29:49:868;03:29:49:833;1448289949.47;(0, 0);0;0;0;0;0;0;0;0;0;0;0;();(-2000.0, -2000.0);
03:29:49:884;03:29:49:833;1448289949.47;(0, 0);0;0;0;0;0;0;0;0;0;0;0;();(-2000.0, -2000.0);
03:29:49:918;03:29:49:899;1448289949.54;(0, 0);0;0;0;0;0;0;0;0;0;0;0;();(-2000.0, -2000.0);
03:29:49:936;03:29:49:899;1448289949.54;(0, 0);0;0;0;0;0;0;0;0;0;0;0;();(-2000.0, -2000.0);
03:29:49:952;03:29:49:899;1448289949.54;(0, 0);0;0;0;0;0;0;0;0;0;0;0;();(-2000.0, -2000.0);
03:29:49:971;03:29:49:961;1448289949.57;(0.9348850250244141, 0.39016596476236975);20.1657352448;0.677231598355;0;0;0;0;0;0;0;0;0;();(-2000.0, -2000.0);
03:29:49:987;03:29:49:961;1448289949.57;(0.9348850250244141, 0.39016596476236975);20.1657352448;0.677231598355;0;0;0;0;0;0;0;0;0;();(-2000.0, -2000.0);
03:29:50:021;03:29:49:961;1448289949.57;(0.9348850250244141, 0.39016596476236975);20.1657352448;0.677231598355;0;0;0;0;0;0;0;0;0;();(-2000.0, -2000.0);
03:29:50:040;03:29:50:033;1448289949.69;(0.6841299057006835, 0.77145873175727);87.9793395996;0.616740695291;0;0;0;0;0;0;0;0;0;();(-2000.0, -2000.0);
03:29:50:055;03:29:50:033;1448289949.69;(0.6841299057006835, 0.77145873175727);87.9793395996;0.616740695291;0;0;0;0;0;0;0;0;0;();(-2000.0, -2000.0);
03:29:50:071;03:29:50:033;1448289949.69;(0.6841299057006835, 0.77145873175727);87.9793395996;0.616740695291;0;0;0;0;0;0;0;0;0;();(-2000.0, -2000.0);
03:29:50:088;03:29:50:033;1448289949.69;(0.6841299057006835, 0.77145873175727);87.9793395996;0.616740695291;0;0;0;0;0;0;0;0;0;();(-2000.0, -2000.0);
03:29:50:121;03:29:50:096;1448289949.74;(0, 0);0;0;0;0;0;0;0;0;0;0;0;();(-2000.0, -2000.0);
03:29:50:137;03:29:50:096;1448289949.74;(0, 0);0;0;0;0;0;0;0;0;0;0;0;();(-2000.0, -2000.0);
03:29:50:152;03:29:50:096;1448289949.74;(0, 0);0;0;0;0;0;0;0;0;0;0;0;();(-2000.0, -2000.0);
03:29:50:168;03:29:50:165;1448289949.81;(0.6902401924133301, 0.7652123981051975);83.9281311035;0.883032977788;0;0;0;0;0;0;0;0;0;();(-2000.0, -2000.0);
03:29:50:186;03:29:50:165;1448289949.81;(0.6902401924133301, 0.7652123981051975);83.9281311035;0.883032977788;0;0;0;0;0;0;0;0;0;();(-2000.0, -2000.0);
03:29:50:219;03:29:50:165;1448289949.81;(0.6902401924133301, 0.7652123981051975);83.9281311035;0.883032977788;0;0;0;0;0;0;0;0;0;();(-2000.0, -2000.0);
03:29:50:236;03:29:50:230;1448289949.87;(0, 0);0;0;0;0;0;0;0;0;0;0;0;();(-2000.0, -2000.0);
03:29:50:252;03:29:50:230;1448289949.87;(0, 0);0;0;0;0;0;0;0;0;0;0;0;();(-2000.0, -2000.0);
03:29:50:269;03:29:50:230;1448289949.87;(0, 0);0;0;0;0;0;0;0;0;0;0;0;();(-2000.0, -2000.0);
03:29:50:286;03:29:50:230;1448289949.87;(0, 0);0;0;0;0;0;0;0;0;0;0;0;();(-2000.0, -2000.0);
03:29:50:319;03:29:50:297;1448289949.94;(0.6874828338623047, 0.7661129845513238);89.6923828125;0.712578268472;0;0;0;0;0;0;0;0;0;();(-2000.0, -2000.0);
03:29:50:335;03:29:50:297;1448289949.94;(0.6874828338623047, 0.7661129845513238);89.6923828125;0.712578268472;0;0;0;0;0;0;0;0;0;();(-2000.0, -2000.0);
03:29:50:353;03:29:50:297;1448289949.94;(0.6874828338623047, 0.7661129845513238);89.6923828125;0.712578268472;0;0;0;0;0;0;0;0;0;();(-2000.0, -2000.0);
03:29:50:369;03:29:50:364;1448289950.01;(0.6920753002166748, 0.7625411775377062);84.9842987061;0.960381001994;0;0;0;0;0;0;0;0;0;();(-2000.0, -2000.0);
03:29:50:386;03:29:50:364;1448289950.01;(0.6920753002166748, 0.7625411775377062);84.9842987061;0.960381001994;0;0;0;0;0;0;0;0;0;();(-2000.0, -2000.0);
03:29:50:419;03:29:50:364;1448289950.01;(0.6920753002166748, 0.7625411775377062);84.9842987061;0.960381001994;0;0;0;0;0;0;0;0;0;();(-2000.0, -2000.0);
03:29:50:436;03:29:50:428;1448289950.07;(0.6916579246520996, 0.7626712163289389);84.3398742676;0.871250916295;0;0;0;0;0;0;0;0;0;();(-2000.0, -2000.0);
03:29:50:452;03:29:50:428;1448289950.07;(0.6916579246520996, 0.7626712163289389);84.3398742676;0.871250916295;0;0;0;0;0;0;0;0;0;();(-2000.0, -2000.0);
03:29:50:469;03:29:50:428;1448289950.07;(0.6916579246520996, 0.7626712163289389);84.3398742676;0.871250916295;0;0;0;0;0;0;0;0;0;();(-2000.0, -2000.0);
03:29:50:486;03:29:50:428;1448289950.07;(0.6916579246520996, 0.7626712163289389);84.3398742676;0.871250916295;0;0;0;0;0;0;0;0;0;();(-2000.0, -2000.0);
03:29:50:519;03:29:50:510;1448289950.14;(0.7050849437713623, 0.7607111189100477);87.0129928589;0.813869198924;0;0;0;0;0;0;0;0;0;();(-2000.0, -2000.0);
03:29:50:536;03:29:50:510;1448289950.14;(0.7050849437713623, 0.7607111189100477);87.0129928589;0.813869198924;0;0;0;0;0;0;0;0;0;();(-2000.0, -2000.0);
03:29:50:552;03:29:50:510;1448289950.14;(0.7050849437713623, 0.7607111189100477);87.0129928589;0.813869198924;0;0;0;0;0;0;0;0;0;();(-2000.0, -2000.0);
03:29:50:569;03:29:50:563;1448289950.21;(0.7118160724639893, 0.7600357479519314);85.1141815186;0.979479192765;0;0;0;0;0;0;0;0;0;();(-2000.0, -2000.0);
03:29:50:586;03:29:50:563;1448289950.21;(0.7118160724639893, 0.7600357479519314);85.1141815186;0.979479192765;0;0;0;0;0;0;0;0;0;();(-2000.0, -2000.0);
03:29:50:619;03:29:50:563;1448289950.21;(0.7118160724639893, 0.7600357479519314);85.1141815186;0.979479192765;0;0;0;0;0;0;0;0;0;();(-2000.0, -2000.0);
03:29:50:636;03:29:50:626;1448289950.27;(0.7120782852172851, 0.7607338163587782);84.5642929077;1.0;0;0;0;0;0;0;0;0;0;();(-2000.0, -2000.0);
03:29:50:652;03:29:50:626;1448289950.27;(0.7120782852172851, 0.7607338163587782);84.5642929077;1.0;0;0;0;0;0;0;0;0;0;();(-2000.0, -2000.0);
03:29:50:670;03:29:50:626;1448289950.27;(0.7120782852172851, 0.7607338163587782);84.5642929077;1.0;0;0;0;0;0;0;0;0;0;();(-2000.0, -2000.0);
03:29:50:686;03:29:50:626;1448289950.27;(0.7120782852172851, 0.7607338163587782);84.5642929077;1.0;0;0;0;0;0;0;0;0;0;();(-2000.0, -2000.0);
03:29:50:719;03:29:50:696;1448289950.34;(0, 0);0;0;0;0;0;0;0;0;0;0;0;();(-2000.0, -2000.0);
03:29:50:736;03:29:50:696;1448289950.34;(0, 0);0;0;0;0;0;0;0;0;0;0;0;();(-2000.0, -2000.0);
03:29:50:752;03:29:50:696;1448289950.34;(0, 0);0;0;0;0;0;0;0;0;0;0;0;();(-2000.0, -2000.0);
03:29:50:769;03:29:50:758;1448289950.41;(0.6852376937866211, 0.7420399136013455);18.2233085632;0.621566432893;0;0;0;0;0;0;0;0;0;();(-2000.0, -2000.0);
03:29:50:786;03:29:50:758;1448289950.41;(0.6852376937866211, 0.7420399136013455);18.2233085632;0.621566432893;0;0;0;0;0;0;0;0;0;();(-2000.0, -2000.0);
03:29:50:819;03:29:50:758;1448289950.41;(0.6852376937866211, 0.7420399136013455);18.2233085632;0.621566432893;0;0;0;0;0;0;0;0;0;();(-2000.0, -2000.0);
03:29:50:837;03:29:50:826;1448289950.47;(0, 0);0;0;0;0;0;0;0;0;0;0;0;();(-2000.0, -2000.0);
03:29:50:855;03:29:50:826;1448289950.47;(0, 0);0;0;0;0;0;0;0;0;0;0;0;();(-2000.0, -2000.0);
03:29:50:869;03:29:50:826;1448289950.47;(0, 0);0;0;0;0;0;0;0;0;0;0;0;();(-2000.0, -2000.0);
03:29:50:886;03:29:50:826;1448289950.47;(0, 0);0;0;0;0;0;0;0;0;0;0;0;();(-2000.0, -2000.0);
03:29:50:918;03:29:50:897;1448289950.57;(0.7377573013305664, 0.7700037002563477);85.2963409424;0.983424342317;0;0;0;0;0;0;0;0;0;();(-2000.0, -2000.0);
03:29:50:938;03:29:50:897;1448289950.57;(0.7377573013305664, 0.7700037002563477);85.2963409424;0.983424342317;0;0;0;0;0;0;0;0;0;();(-2000.0, -2000.0);
03:29:50:955;03:29:50:897;1448289950.57;(0.7377573013305664, 0.7700037002563477);85.2963409424;0.983424342317;0;0;0;0;0;0;0;0;0;();(-2000.0, -2000.0);
03:29:50:971;03:29:50:956;1448289950.61;(0.738203763961792, 0.7697217729356554);85.0455322266;1.0;0;0;0;0;0;0;0;0;0;();(-2000.0, -2000.0);
03:29:50:988;03:29:50:956;1448289950.61;(0.738203763961792, 0.7697217729356554);85.0455322266;1.0;0;0;0;0;0;0;0;0;0;();(-2000.0, -2000.0);
03:29:51:022;03:29:50:956;1448289950.61;(0.738203763961792, 0.7697217729356554);85.0455322266;1.0;0;0;0;0;0;0;0;0;0;();(-2000.0, -2000.0);
03:29:51:038;03:29:51:028;1448289950.67;(0.7384353160858155, 0.768979114956326);84.9592590332;1.0;0;0;0;0;0;0;0;0;0;();(-2000.0, -2000.0);
03:29:51:055;03:29:51:028;1448289950.67;(0.7384353160858155, 0.768979114956326);84.9592590332;1.0;0;0;0;0;0;0;0;0;0;();(-2000.0, -2000.0);
03:29:51:072;03:29:51:028;1448289950.67;(0.7384353160858155, 0.768979114956326);84.9592590332;1.0;0;0;0;0;0;0;0;0;0;();(-2000.0, -2000.0);
03:29:51:086;03:29:51:028;1448289950.67;(0.7384353160858155, 0.768979114956326);84.9592590332;1.0;0;0;0;0;0;0;0;0;0;();(-2000.0, -2000.0);
03:29:51:119;03:29:51:096;1448289950.74;(0.7383675098419189, 0.7689751519097222);84.7362060547;0.982725278704;0;0;0;0;0;0;0;0;0;();(-2000.0, -2000.0);
03:29:51:136;03:29:51:096;1448289950.74;(0.7383675098419189, 0.7689751519097222);84.7362060547;0.982725278704;0;0;0;0;0;0;0;0;0;();(-2000.0, -2000.0);
03:29:51:152;03:29:51:096;1448289950.74;(0.7383675098419189, 0.7689751519097222);84.7362060547;0.982725278704;0;0;0;0;0;0;0;0;0;();(-2000.0, -2000.0);
03:29:51:170;03:29:51:158;1448289950.81;(0.738128662109375, 0.7683941735161676);85.0193328857;1.0;0;0;0;0;0;0;0;0;0;();(-2000.0, -2000.0);
03:29:51:187;03:29:51:158;1448289950.81;(0.738128662109375, 0.7683941735161676);85.0193328857;1.0;0;0;0;0;0;0;0;0;0;();(-2000.0, -2000.0);
03:29:51:219;03:29:51:158;1448289950.81;(0.738128662109375, 0.7683941735161676);85.0193328857;1.0;0;0;0;0;0;0;0;0;0;();(-2000.0, -2000.0);
03:29:51:236;03:29:51:223;1448289950.87;(0.7194267272949219, 0.7688187069363064);84.8507461548;0.787711286879;0;0;0;0;0;0;0;0;0;();(-2000.0, -2000.0);
03:29:51:253;03:29:51:223;1448289950.87;(0.7194267272949219, 0.7688187069363064);84.8507461548;0.787711286879;0;0;0;0;0;0;0;0;0;();(-2000.0, -2000.0);
03:29:51:270;03:29:51:223;1448289950.87;(0.7194267272949219, 0.7688187069363064);84.8507461548;0.787711286879;0;0;0;0;0;0;0;0;0;();(-2000.0, -2000.0);
03:29:51:286;03:29:51:223;1448289950.87;(0.7194267272949219, 0.7688187069363064);84.8507461548;0.787711286879;0;0;0;0;0;0;0;0;0;();(-2000.0, -2000.0);
03:29:51:322;03:29:51:290;1448289950.94;(0.6945109844207764, 0.762395773993598);85.7757720947;0.857453068397;0;0;0;0;0;0;0;0;0;();(-2000.0, -2000.0);
03:29:51:338;03:29:51:290;1448289950.94;(0.6945109844207764, 0.762395773993598);85.7757720947;0.857453068397;0;0;0;0;0;0;0;0;0;();(-2000.0, -2000.0);
03:29:51:353;03:29:51:290;1448289950.94;(0.6945109844207764, 0.762395773993598);85.7757720947;0.857453068397;0;0;0;0;0;0;0;0;0;();(-2000.0, -2000.0);
03:29:51:370;03:29:51:358;1448289951.01;(0.6949234962463379, 0.7634870953030056);85.1003265381;0.838081216026;0;0;0;0;0;0;0;0;0;();(-2000.0, -2000.0);
03:29:51:386;03:29:51:358;1448289951.01;(0.6949234962463379, 0.7634870953030056);85.1003265381;0.838081216026;0;0;0;0;0;0;0;0;0;();(-2000.0, -2000.0);
03:29:51:419;03:29:51:358;1448289951.01;(0.6949234962463379, 0.7634870953030056);85.1003265381;0.838081216026;0;0;0;0;0;0;0;0;0;();(-2000.0, -2000.0);
03:29:51:439;03:29:51:426;1448289951.07;(0.6947825908660888, 0.7639308929443359);85.3079299927;0.972373817275;0;0;0;0;0;0;0;0;0;();(-2000.0, -2000.0);
03:29:51:455;03:29:51:426;1448289951.07;(0.6947825908660888, 0.7639308929443359);85.3079299927;0.972373817275;0;0;0;0;0;0;0;0;0;();(-2000.0, -2000.0);
03:29:51:470;03:29:51:426;1448289951.07;(0.6947825908660888, 0.7639308929443359);85.3079299927;0.972373817275;0;0;0;0;0;0;0;0;0;();(-2000.0, -2000.0);
03:29:51:486;03:29:51:426;1448289951.07;(0.6947825908660888, 0.7639308929443359);85.3079299927;0.972373817275;0;0;0;0;0;0;0;0;0;();(-2000.0, -2000.0);
03:29:51:520;03:29:51:490;1448289951.14;(0.6948543071746827, 0.7641329023573133);86.1266708374;0.801455605233;0;0;0;0;0;0;0;0;0;();(-2000.0, -2000.0);
03:29:51:536;03:29:51:490;1448289951.14;(0.6948543071746827, 0.7641329023573133);86.1266708374;0.801455605233;0;0;0;0;0;0;0;0;0;();(-2000.0, -2000.0);
03:29:51:554;03:29:51:490;1448289951.14;(0.6948543071746827, 0.7641329023573133);86.1266708374;0.801455605233;0;0;0;0;0;0;0;0;0;();(-2000.0, -2000.0);
03:29:51:570;03:29:51:556;1448289951.21;(0.6947936534881591, 0.764508056640625);85.8531112671;0.932537810819;0;0;0;0;0;0;0;0;0;();(-2000.0, -2000.0);
03:29:51:586;03:29:51:556;1448289951.21;(0.6947936534881591, 0.764508056640625);85.8531112671;0.932537810819;0;0;0;0;0;0;0;0;0;();(-2000.0, -2000.0);
03:29:51:619;03:29:51:556;1448289951.21;(0.6947936534881591, 0.764508056640625);85.8531112671;0.932537810819;0;0;0;0;0;0;0;0;0;();(-2000.0, -2000.0);
03:29:51:636;03:29:51:623;1448289951.27;(0.6944326400756836, 0.7650950537787543);85.5437088013;1.0;0;0;0;0;0;0;0;0;0;();(-2000.0, -2000.0);
03:29:51:652;03:29:51:623;1448289951.27;(0.6944326400756836, 0.7650950537787543);85.5437088013;1.0;0;0;0;0;0;0;0;0;0;();(-2000.0, -2000.0);
03:29:51:670;03:29:51:623;1448289951.27;(0.6944326400756836, 0.7650950537787543);85.5437088013;1.0;0;0;0;0;0;0;0;0;0;();(-2000.0, -2000.0);
03:29:51:687;03:29:51:623;1448289951.27;(0.6944326400756836, 0.7650950537787543);85.5437088013;1.0;0;0;0;0;0;0;0;0;0;();(-2000.0, -2000.0);
03:29:51:719;03:29:51:690;1448289951.34;(0.6945834636688233, 0.7644594192504883);85.7318954468;0.934140048504;0;0;0;0;0;0;0;0;0;();(-2000.0, -2000.0);
03:29:51:736;03:29:51:690;1448289951.34;(0.6945834636688233, 0.7644594192504883);85.7318954468;0.934140048504;0;0;0;0;0;0;0;0;0;();(-2000.0, -2000.0);
03:29:51:753;03:29:51:690;1448289951.34;(0.6945834636688233, 0.7644594192504883);85.7318954468;0.934140048504;0;0;0;0;0;0;0;0;0;();(-2000.0, -2000.0);
03:29:51:769;03:29:51:756;1448289951.41;(0.6946589469909668, 0.7646054797702365);86.1041946411;0.873557852255;0;0;0;0;0;0;0;0;0;();(-2000.0, -2000.0);
03:29:51:786;03:29:51:756;1448289951.41;(0.6946589469909668, 0.7646054797702365);86.1041946411;0.873557852255;0;0;0;0;0;0;0;0;0;();(-2000.0, -2000.0);
03:29:51:804;03:29:51:756;1448289951.41;(0.6946589469909668, 0.7646054797702365);86.1041946411;0.873557852255;0;0;0;0;0;0;0;0;0;();(-2000.0, -2000.0);
03:29:51:839;03:29:51:823;1448289951.47;(0, 0);0;0;0;0;0;0;0;0;0;0;0;();(-2000.0, -2000.0);
03:29:51:856;03:29:51:823;1448289951.47;(0, 0);0;0;0;0;0;0;0;0;0;0;0;();(-2000.0, -2000.0);
03:29:51:873;03:29:51:823;1448289951.47;(0, 0);0;0;0;0;0;0;0;0;0;0;0;();(-2000.0, -2000.0);
03:29:51:889;03:29:51:823;1448289951.47;(0, 0);0;0;0;0;0;0;0;0;0;0;0;();(-2000.0, -2000.0);
03:29:51:920;03:29:51:887;1448289951.54;(0.6900434494018555, 0.781861220465766);86.3268356323;0.822373854474;0;0;0;0;0;0;0;0;0;();(-2000.0, -2000.0);
03:29:51:936;03:29:51:887;1448289951.54;(0.6900434494018555, 0.781861220465766);86.3268356323;0.822373854474;0;0;0;0;0;0;0;0;0;();(-2000.0, -2000.0);
03:29:51:954;03:29:51:887;1448289951.54;(0.6900434494018555, 0.781861220465766);86.3268356323;0.822373854474;0;0;0;0;0;0;0;0;0;();(-2000.0, -2000.0);
03:29:51:970;03:29:51:957;1448289951.61;(0.6900101661682129, 0.7818746354844834);85.0521469116;0.950834716043;0;0;0;0;0;0;0;0;0;();(-2000.0, -2000.0);
03:29:51:987;03:29:51:957;1448289951.61;(0.6900101661682129, 0.7818746354844834);85.0521469116;0.950834716043;0;0;0;0;0;0;0;0;0;();(-2000.0, -2000.0);
03:29:52:073;03:29:52:023;1448289951.64;(0.689825439453125, 0.7813368055555556);84.8428192139;0.998830010703;0;0;0;0;0;0;0;0;0;();(-2000.0, -2000.0);
03:29:52:083;03:29:52:069;1448289951.67;(0, 0);0;0;0;0;0;0;0;0;0;0;0;();(-2000.0, -2000.0);
03:29:52:093;03:29:52:084;1448289951.71;(0.6837746620178222, 0.8146431605021158);84.6908874512;0.695661381723;0;0;0;0;0;0;0;0;0;();(-2000.0, -2000.0);
03:29:52:099;03:29:52:084;1448289951.71;(0.6837746620178222, 0.8146431605021158);84.6908874512;0.695661381723;0;0;0;0;0;0;0;0;0;();(-2000.0, -2000.0);
03:29:52:106;03:29:52:096;1448289951.74;(0.6830344200134277, 0.8161510891384549);85.8793792725;0.795282919456;0;0;0;0;0;0;0;0;0;();(-2000.0, -2000.0);
03:29:52:110;03:29:52:096;1448289951.74;(0.6830344200134277, 0.8161510891384549);85.8793792725;0.795282919456;0;0;0;0;0;0;0;0;0;();(-2000.0, -2000.0);
03:29:52:137;03:29:52:096;1448289951.74;(0.6830344200134277, 0.8161510891384549);85.8793792725;0.795282919456;0;0;0;0;0;0;0;0;0;();(-2000.0, -2000.0);
03:29:52:153;03:29:52:096;1448289951.74;(0.6830344200134277, 0.8161510891384549);85.8793792725;0.795282919456;0;0;0;0;0;0;0;0;0;();(-2000.0, -2000.0);
03:29:52:171;03:29:52:156;1448289951.81;(0, 0);0;0;0;0;0;0;0;0;0;0;0;();(-2000.0, -2000.0);
03:29:52:187;03:29:52:156;1448289951.81;(0, 0);0;0;0;0;0;0;0;0;0;0;0;();(-2000.0, -2000.0);
03:29:52:204;03:29:52:156;1448289951.81;(0, 0);0;0;0;0;0;0;0;0;0;0;0;();(-2000.0, -2000.0);
03:29:52:237;03:29:52:221;1448289951.87;(0.683202600479126, 0.8150040096706814);83.9876861572;0.713992229436;0;0;0;0;0;0;0;0;0;();(-2000.0, -2000.0);
03:29:52:254;03:29:52:221;1448289951.87;(0.683202600479126, 0.8150040096706814);83.9876861572;0.713992229436;0;0;0;0;0;0;0;0;0;();(-2000.0, -2000.0);
03:29:52:270;03:29:52:221;1448289951.87;(0.683202600479126, 0.8150040096706814);83.9876861572;0.713992229436;0;0;0;0;0;0;0;0;0;();(-2000.0, -2000.0);
03:29:52:287;03:29:52:221;1448289951.87;(0.683202600479126, 0.8150040096706814);83.9876861572;0.713992229436;0;0;0;0;0;0;0;0;0;();(-2000.0, -2000.0);
03:29:52:305;03:29:52:290;1448289951.94;(0.6738322734832763, 0.8285025384691027);85.4321594238;0.841455708259;0;0;0;0;0;0;0;0;0;();(-2000.0, -2000.0);
03:29:52:339;03:29:52:290;1448289951.94;(0.6738322734832763, 0.8285025384691027);85.4321594238;0.841455708259;0;0;0;0;0;0;0;0;0;();(-2000.0, -2000.0);
03:29:52:359;03:29:52:354;1448289951.97;(0, 0);0;0;0;0;0;0;0;0;0;0;0;();(-2000.0, -2000.0);
03:29:52:371;03:29:52:356;1448289952.01;(0, 0);0;0;0;0;0;0;0;0;0;0;0;();(-2000.0, -2000.0);
03:29:52:387;03:29:52:356;1448289952.01;(0, 0);0;0;0;0;0;0;0;0;0;0;0;();(-2000.0, -2000.0);
03:29:52:405;03:29:52:356;1448289952.01;(0, 0);0;0;0;0;0;0;0;0;0;0;0;();(-2000.0, -2000.0);
03:29:52:437;03:29:52:419;1448289952.07;(0, 0);0;0;0;0;0;0;0;0;0;0;0;();(-2000.0, -2000.0);
03:29:52:454;03:29:52:419;1448289952.07;(0, 0);0;0;0;0;0;0;0;0;0;0;0;();(-2000.0, -2000.0);
03:29:52:470;03:29:52:419;1448289952.07;(0, 0);0;0;0;0;0;0;0;0;0;0;0;();(-2000.0, -2000.0);
03:29:52:488;03:29:52:484;1448289952.11;(0, 0);0;0;0;0;0;0;0;0;0;0;0;();(-2000.0, -2000.0);
03:29:52:504;03:29:52:486;1448289952.14;(0, 0);0;0;0;0;0;0;0;0;0;0;0;();(-2000.0, -2000.0);
03:29:52:537;03:29:52:486;1448289952.14;(0, 0);0;0;0;0;0;0;0;0;0;0;0;();(-2000.0, -2000.0);
03:29:52:554;03:29:52:486;1448289952.14;(0, 0);0;0;0;0;0;0;0;0;0;0;0;();(-2000.0, -2000.0);
03:29:52:570;03:29:52:556;1448289952.21;(0, 0);0;0;0;0;0;0;0;0;0;0;0;();(-2000.0, -2000.0);
03:29:52:588;03:29:52:556;1448289952.21;(0, 0);0;0;0;0;0;0;0;0;0;0;0;();(-2000.0, -2000.0);
03:29:52:605;03:29:52:556;1448289952.21;(0, 0);0;0;0;0;0;0;0;0;0;0;0;();(-2000.0, -2000.0);
03:29:52:640;03:29:52:619;1448289952.27;(0.6001149654388428, 0.8199170536465115);84.7281112671;0.844520427687;0;0;0;0;0;0;0;0;0;();(-2000.0, -2000.0);
03:29:52:656;03:29:52:619;1448289952.27;(0.6001149654388428, 0.8199170536465115);84.7281112671;0.844520427687;0;0;0;0;0;0;0;0;0;();(-2000.0, -2000.0);
03:29:52:671;03:29:52:619;1448289952.27;(0.6001149654388428, 0.8199170536465115);84.7281112671;0.844520427687;0;0;0;0;0;0;0;0;0;();(-2000.0, -2000.0);
03:29:52:688;03:29:52:684;1448289952.31;(0, 0);0;0;0;0;0;0;0;0;0;0;0;();(-2000.0, -2000.0);
03:29:52:704;03:29:52:686;1448289952.34;(0.6012994289398194, 0.8254627333747016);84.2433929443;0.655266758417;0;0;0;0;0;0;0;0;0;();(-2000.0, -2000.0);
03:29:52:737;03:29:52:686;1448289952.34;(0.6012994289398194, 0.8254627333747016);84.2433929443;0.655266758417;0;0;0;0;0;0;0;0;0;();(-2000.0, -2000.0);
03:29:52:754;03:29:52:686;1448289952.34;(0.6012994289398194, 0.8254627333747016);84.2433929443;0.655266758417;0;0;0;0;0;0;0;0;0;();(-2000.0, -2000.0);
03:29:52:771;03:29:52:757;1448289952.41;(0, 0);0;0;0;0;0;0;0;0;0;0;0;();(-2000.0, -2000.0);
03:29:52:787;03:29:52:757;1448289952.41;(0, 0);0;0;0;0;0;0;0;0;0;0;0;();(-2000.0, -2000.0);
03:29:52:804;03:29:52:757;1448289952.41;(0, 0);0;0;0;0;0;0;0;0;0;0;0;();(-2000.0, -2000.0);
03:29:52:837;03:29:52:818;1448289952.47;(0, 0);0;0;0;0;0;0;0;0;0;0;0;();(-2000.0, -2000.0);
03:29:52:855;03:29:52:818;1448289952.47;(0, 0);0;0;0;0;0;0;0;0;0;0;0;();(-2000.0, -2000.0);
03:29:52:871;03:29:52:818;1448289952.47;(0, 0);0;0;0;0;0;0;0;0;0;0;0;();(-2000.0, -2000.0);
03:29:52:888;03:29:52:882;1448289952.54;(0.6027340888977051, 0.8195056703355577);82.8849563599;0.670063222046;0;0;0;0;0;0;0;0;0;();(-2000.0, -2000.0);
03:29:52:904;03:29:52:882;1448289952.54;(0.6027340888977051, 0.8195056703355577);82.8849563599;0.670063222046;0;0;0;0;0;0;0;0;0;();(-2000.0, -2000.0);
03:29:52:938;03:29:52:882;1448289952.54;(0.6027340888977051, 0.8195056703355577);82.8849563599;0.670063222046;0;0;0;0;0;0;0;0;0;();(-2000.0, -2000.0);
03:29:52:955;03:29:52:951;1448289952.61;(0, 0);0;0;0;0;0;0;0;0;0;0;0;();(-2000.0, -2000.0);
03:29:52:971;03:29:52:951;1448289952.61;(0, 0);0;0;0;0;0;0;0;0;0;0;0;();(-2000.0, -2000.0);
03:29:52:988;03:29:52:951;1448289952.61;(0, 0);0;0;0;0;0;0;0;0;0;0;0;();(-2000.0, -2000.0);
03:29:53:004;03:29:52:951;1448289952.61;(0, 0);0;0;0;0;0;0;0;0;0;0;0;();(-2000.0, -2000.0);
03:29:53:038;03:29:53:018;1448289952.67;(0.7038426399230957, 0.7479770448472765);81.5626831055;0.805019250584;0;0;0;0;0;0;0;0;0;();(-2000.0, -2000.0);
03:29:53:054;03:29:53:018;1448289952.67;(0.7038426399230957, 0.7479770448472765);81.5626831055;0.805019250584;0;0;0;0;0;0;0;0;0;();(-2000.0, -2000.0);
03:29:53:072;03:29:53:018;1448289952.67;(0.7038426399230957, 0.7479770448472765);81.5626831055;0.805019250584;0;0;0;0;0;0;0;0;0;();(-2000.0, -2000.0);
03:29:53:088;03:29:53:083;1448289952.74;(0.7044565677642822, 0.7552033106486002);82.1624908447;0.789764234078;0;0;0;0;0;0;0;0;0;();(-2000.0, -2000.0);
03:29:53:105;03:29:53:083;1448289952.74;(0.7044565677642822, 0.7552033106486002);82.1624908447;0.789764234078;0;0;0;0;0;0;0;0;0;();(-2000.0, -2000.0);
03:29:53:138;03:29:53:083;1448289952.74;(0.7044565677642822, 0.7552033106486002);82.1624908447;0.789764234078;0;0;0;0;0;0;0;0;0;();(-2000.0, -2000.0);
03:29:53:154;03:29:53:148;1448289952.77;(0, 0);0;0;0;0;0;0;0;0;0;0;0;();(-2000.0, -2000.0);
03:29:53:171;03:29:53:148;1448289952.77;(0, 0);0;0;0;0;0;0;0;0;0;0;0;();(-2000.0, -2000.0);
03:29:53:188;03:29:53:148;1448289952.77;(0, 0);0;0;0;0;0;0;0;0;0;0;0;();(-2000.0, -2000.0);
03:29:53:204;03:29:53:148;1448289952.77;(0, 0);0;0;0;0;0;0;0;0;0;0;0;();(-2000.0, -2000.0);
03:29:53:238;03:29:53:216;1448289952.87;(0.7025045394897461, 0.7524340311686197);81.2595672607;0.853902031504;0;0;0;0;0;0;0;0;0;();(-2000.0, -2000.0);
03:29:53:255;03:29:53:216;1448289952.87;(0.7025045394897461, 0.7524340311686197);81.2595672607;0.853902031504;0;0;0;0;0;0;0;0;0;();(-2000.0, -2000.0);
03:29:53:272;03:29:53:216;1448289952.87;(0.7025045394897461, 0.7524340311686197);81.2595672607;0.853902031504;0;0;0;0;0;0;0;0;0;();(-2000.0, -2000.0);
03:29:53:288;03:29:53:283;1448289952.94;(0.6951295852661132, 0.7405229568481445);77.641960144;0.7112436158;0;0;0;0;0;0;0;0;0;();(-2000.0, -2000.0);
03:29:53:305;03:29:53:283;1448289952.94;(0.6951295852661132, 0.7405229568481445);77.641960144;0.7112436158;0;0;0;0;0;0;0;0;0;();(-2000.0, -2000.0);
03:29:53:338;03:29:53:283;1448289952.94;(0.6951295852661132, 0.7405229568481445);77.641960144;0.7112436158;0;0;0;0;0;0;0;0;0;();(-2000.0, -2000.0);
03:29:53:355;03:29:53:350;1448289953.01;(0, 0);0;0;0;0;0;0;0;0;0;0;0;();(-2000.0, -2000.0);
03:29:53:371;03:29:53:350;1448289953.01;(0, 0);0;0;0;0;0;0;0;0;0;0;0;();(-2000.0, -2000.0);
03:29:53:388;03:29:53:350;1448289953.01;(0, 0);0;0;0;0;0;0;0;0;0;0;0;();(-2000.0, -2000.0);
03:29:53:405;03:29:53:350;1448289953.01;(0, 0);0;0;0;0;0;0;0;0;0;0;0;();(-2000.0, -2000.0);
03:29:53:438;03:29:53:413;1448289953.04;(0.9222251892089843, 0.3375478956434462);18.1140632629;0.859228457808;0;0;0;0;0;0;0;0;0;();(-2000.0, -2000.0);
03:29:53:457;03:29:53:413;1448289953.04;(0.9222251892089843, 0.3375478956434462);18.1140632629;0.859228457808;0;0;0;0;0;0;0;0;0;();(-2000.0, -2000.0);
03:29:53:474;03:29:53:413;1448289953.04;(0.9222251892089843, 0.3375478956434462);18.1140632629;0.859228457808;0;0;0;0;0;0;0;0;0;();(-2000.0, -2000.0);
03:29:53:491;03:29:53:484;1448289953.12;(0.7002254486083984, 0.7621529049343533);79.6773757935;0.945978931795;0;0;0;0;0;0;0;0;0;();(-2000.0, -2000.0);
03:29:53:507;03:29:53:484;1448289953.12;(0.7002254486083984, 0.7621529049343533);79.6773757935;0.945978931795;0;0;0;0;0;0;0;0;0;();(-2000.0, -2000.0);
03:29:53:541;03:29:53:484;1448289953.12;(0.7002254486083984, 0.7621529049343533);79.6773757935;0.945978931795;0;0;0;0;0;0;0;0;0;();(-2000.0, -2000.0);
03:29:53:558;03:29:53:551;1448289953.21;(0.7014284610748291, 0.7601039462619358);80.3163299561;1.0;0;0;0;0;0;0;0;0;0;();(-2000.0, -2000.0);
03:29:53:572;03:29:53:551;1448289953.21;(0.7014284610748291, 0.7601039462619358);80.3163299561;1.0;0;0;0;0;0;0;0;0;0;();(-2000.0, -2000.0);
03:29:53:588;03:29:53:551;1448289953.21;(0.7014284610748291, 0.7601039462619358);80.3163299561;1.0;0;0;0;0;0;0;0;0;0;();(-2000.0, -2000.0);
03:29:53:605;03:29:53:551;1448289953.21;(0.7014284610748291, 0.7601039462619358);80.3163299561;1.0;0;0;0;0;0;0;0;0;0;();(-2000.0, -2000.0);
03:29:53:638;03:29:53:614;1448289953.27;(0.701918363571167, 0.7591145621405707);81.0409469604;1.0;0;0;0;0;0;0;0;0;0;();(-2000.0, -2000.0);
03:29:53:656;03:29:53:614;1448289953.27;(0.701918363571167, 0.7591145621405707);81.0409469604;1.0;0;0;0;0;0;0;0;0;0;();(-2000.0, -2000.0);
03:29:53:672;03:29:53:614;1448289953.27;(0.701918363571167, 0.7591145621405707);81.0409469604;1.0;0;0;0;0;0;0;0;0;0;();(-2000.0, -2000.0);
03:29:53:691;03:29:53:684;1448289953.31;(0.7018750667572021, 0.7589278962877062);81.2060623169;0.994616943094;0;0;0;0;0;0;0;0;0;();(-2000.0, -2000.0);
03:29:53:708;03:29:53:687;1448289953.34;(0.7015709400177002, 0.7590591854519314);81.8221511841;0.865781574236;0;0;0;0;0;0;0;0;0;();(-2000.0, -2000.0);
03:29:53:740;03:29:53:687;1448289953.34;(0.7015709400177002, 0.7590591854519314);81.8221511841;0.865781574236;0;0;0;0;0;0;0;0;0;();(-2000.0, -2000.0);
03:29:53:759;03:29:53:752;1448289953.41;(0.7011311054229736, 0.757996220058865);81.9468994141;0.878940043362;0;0;0;0;0;0;0;0;0;();(-2000.0, -2000.0);
03:29:53:774;03:29:53:752;1448289953.41;(0.7011311054229736, 0.757996220058865);81.9468994141;0.878940043362;0;0;0;0;0;0;0;0;0;();(-2000.0, -2000.0);
03:29:53:791;03:29:53:752;1448289953.41;(0.7011311054229736, 0.757996220058865);81.9468994141;0.878940043362;0;0;0;0;0;0;0;0;0;();(-2000.0, -2000.0);
03:29:53:805;03:29:53:752;1448289953.41;(0.7011311054229736, 0.757996220058865);81.9468994141;0.878940043362;0;0;0;0;0;0;0;0;0;();(-2000.0, -2000.0);
03:29:53:838;03:29:53:820;1448289953.47;(0.36633050441741943, 0.8749066352844238);18.8709468842;0.760118322407;0;0;0;0;0;0;0;0;0;();(-2000.0, -2000.0);
03:29:53:856;03:29:53:820;1448289953.47;(0.36633050441741943, 0.8749066352844238);18.8709468842;0.760118322407;0;0;0;0;0;0;0;0;0;();(-2000.0, -2000.0);
03:29:53:871;03:29:53:820;1448289953.47;(0.36633050441741943, 0.8749066352844238);18.8709468842;0.760118322407;0;0;0;0;0;0;0;0;0;();(-2000.0, -2000.0);
03:29:53:889;03:29:53:879;1448289953.54;(0.6973225593566894, 0.7559394836425781);83.6463623047;0.807954171148;0;0;0;0;0;0;0;0;0;();(-2000.0, -2000.0);
03:29:53:907;03:29:53:879;1448289953.54;(0.6973225593566894, 0.7559394836425781);83.6463623047;0.807954171148;0;0;0;0;0;0;0;0;0;();(-2000.0, -2000.0);
03:29:53:939;03:29:53:879;1448289953.54;(0.6973225593566894, 0.7559394836425781);83.6463623047;0.807954171148;0;0;0;0;0;0;0;0;0;();(-2000.0, -2000.0);
03:29:53:955;03:29:53:948;1448289953.61;(0.6966928005218506, 0.7568942599826389);83.9948348999;0.851101576374;0;0;0;0;0;0;0;0;0;();(-2000.0, -2000.0);
03:29:53:972;03:29:53:948;1448289953.61;(0.6966928005218506, 0.7568942599826389);83.9948348999;0.851101576374;0;0;0;0;0;0;0;0;0;();(-2000.0, -2000.0);
03:29:53:989;03:29:53:948;1448289953.61;(0.6966928005218506, 0.7568942599826389);83.9948348999;0.851101576374;0;0;0;0;0;0;0;0;0;();(-2000.0, -2000.0);
03:29:54:005;03:29:53:948;1448289953.61;(0.6966928005218506, 0.7568942599826389);83.9948348999;0.851101576374;0;0;0;0;0;0;0;0;0;();(-2000.0, -2000.0);
03:29:54:038;03:29:54:019;1448289953.67;(0.6970296382904053, 0.7572961807250976);84.1126251221;0.899345756208;0;0;0;0;0;0;0;0;0;();(-2000.0, -2000.0);
03:29:54:056;03:29:54:019;1448289953.67;(0.6970296382904053, 0.7572961807250976);84.1126251221;0.899345756208;0;0;0;0;0;0;0;0;0;();(-2000.0, -2000.0);
03:29:54:073;03:29:54:019;1448289953.67;(0.6970296382904053, 0.7572961807250976);84.1126251221;0.899345756208;0;0;0;0;0;0;0;0;0;();(-2000.0, -2000.0);
03:29:54:089;03:29:54:019;1448289953.67;(0.6970296382904053, 0.7572961807250976);84.1126251221;0.899345756208;0;0;0;0;0;0;0;0;0;();(-2000.0, -2000.0);
03:29:54:105;03:29:54:101;1448289953.71;(0.6970115184783936, 0.7575377146402995);84.5290603638;0.946391301452;0;0;0;0;0;0;0;0;0;();(-2000.0, -2000.0);
03:29:54:139;03:29:54:103;1448289953.74;(0.9399365425109864, 0.3799414316813151);18.3639183044;0.672810652453;0;0;0;0;0;0;0;0;0;();(-2000.0, -2000.0);
03:29:54:155;03:29:54:146;1448289953.77;(0.6819688320159912, 0.7664217207166883);85.9141311646;0.923341678818;0;0;0;0;0;0;0;0;0;();(-2000.0, -2000.0);
03:29:54:173;03:29:54:146;1448289953.77;(0.6819688320159912, 0.7664217207166883);85.9141311646;0.923341678818;0;0;0;0;0;0;0;0;0;();(-2000.0, -2000.0);
03:29:54:189;03:29:54:146;1448289953.77;(0.6819688320159912, 0.7664217207166883);85.9141311646;0.923341678818;0;0;0;0;0;0;0;0;0;();(-2000.0, -2000.0);
03:29:54:205;03:29:54:146;1448289953.77;(0.6819688320159912, 0.7664217207166883);85.9141311646;0.923341678818;0;0;0;0;0;0;0;0;0;();(-2000.0, -2000.0);
03:29:54:239;03:29:54:212;1448289953.87;(0.682131576538086, 0.7664868672688803);86.430847168;0.884466062289;0;0;0;0;0;0;0;0;0;();(-2000.0, -2000.0);
03:29:54:256;03:29:54:212;1448289953.87;(0.682131576538086, 0.7664868672688803);86.430847168;0.884466062289;0;0;0;0;0;0;0;0;0;();(-2000.0, -2000.0);
03:29:54:272;03:29:54:212;1448289953.87;(0.682131576538086, 0.7664868672688803);86.430847168;0.884466062289;0;0;0;0;0;0;0;0;0;();(-2000.0, -2000.0);
03:29:54:289;03:29:54:279;1448289953.94;(0.6820901870727539, 0.7652708265516492);86.0167312622;1.0;0;0;0;0;0;0;0;0;0;();(-2000.0, -2000.0);
03:29:54:305;03:29:54:279;1448289953.94;(0.6820901870727539, 0.7652708265516492);86.0167312622;1.0;0;0;0;0;0;0;0;0;0;();(-2000.0, -2000.0);
03:29:54:341;03:29:54:279;1448289953.94;(0.6820901870727539, 0.7652708265516492);86.0167312622;1.0;0;0;0;0;0;0;0;0;0;();(-2000.0, -2000.0);
03:29:54:358;03:29:54:344;1448289954.01;(0.6819953918457031, 0.7652895821465386);85.54246521;0.985380881411;0;0;0;0;0;0;0;0;0;();(-2000.0, -2000.0);
03:29:54:374;03:29:54:344;1448289954.01;(0.6819953918457031, 0.7652895821465386);85.54246521;0.985380881411;0;0;0;0;0;0;0;0;0;();(-2000.0, -2000.0);
03:29:54:391;03:29:54:344;1448289954.01;(0.6819953918457031, 0.7652895821465386);85.54246521;0.985380881411;0;0;0;0;0;0;0;0;0;();(-2000.0, -2000.0);
03:29:54:406;03:29:54:344;1448289954.01;(0.6819953918457031, 0.7652895821465386);85.54246521;0.985380881411;0;0;0;0;0;0;0;0;0;();(-2000.0, -2000.0);
03:29:54:441;03:29:54:410;1448289954.07;(0.6775553226470947, 0.7644451353285048);84.8817749023;0.813147739999;0;0;0;0;0;0;0;0;0;();(-2000.0, -2000.0);
03:29:54:459;03:29:54:410;1448289954.07;(0.6775553226470947, 0.7644451353285048);84.8817749023;0.813147739999;0;0;0;0;0;0;0;0;0;();(-2000.0, -2000.0);
03:29:54:472;03:29:54:410;1448289954.07;(0.6775553226470947, 0.7644451353285048);84.8817749023;0.813147739999;0;0;0;0;0;0;0;0;0;();(-2000.0, -2000.0);
03:29:54:489;03:29:54:478;1448289954.11;(0.6772174835205078, 0.7591188854641384);83.3706817627;0.646137110923;0;0;0;0;0;0;0;0;0;();(-2000.0, -2000.0);
03:29:54:505;03:29:54:478;1448289954.11;(0.6772174835205078, 0.7591188854641384);83.3706817627;0.646137110923;0;0;0;0;0;0;0;0;0;();(-2000.0, -2000.0);
03:29:54:538;03:29:54:478;1448289954.11;(0.6772174835205078, 0.7591188854641384);83.3706817627;0.646137110923;0;0;0;0;0;0;0;0;0;();(-2000.0, -2000.0);
03:29:54:558;03:29:54:543;1448289954.21;(0, 0);0;0;0;0;0;0;0;0;0;0;0;();(-2000.0, -2000.0);
03:29:54:575;03:29:54:543;1448289954.21;(0, 0);0;0;0;0;0;0;0;0;0;0;0;();(-2000.0, -2000.0);
03:29:54:589;03:29:54:543;1448289954.21;(0, 0);0;0;0;0;0;0;0;0;0;0;0;();(-2000.0, -2000.0);
03:29:54:606;03:29:54:543;1448289954.21;(0, 0);0;0;0;0;0;0;0;0;0;0;0;();(-2000.0, -2000.0);
03:29:54:639;03:29:54:613;1448289954.27;(0.7026657104492188, 0.7584665722317165);88.3299102783;0.626657716455;0;0;0;0;0;0;0;0;0;();(-2000.0, -2000.0);
03:29:54:656;03:29:54:613;1448289954.27;(0.7026657104492188, 0.7584665722317165);88.3299102783;0.626657716455;0;0;0;0;0;0;0;0;0;();(-2000.0, -2000.0);
03:29:54:673;03:29:54:613;1448289954.27;(0.7026657104492188, 0.7584665722317165);88.3299102783;0.626657716455;0;0;0;0;0;0;0;0;0;();(-2000.0, -2000.0);
03:29:54:690;03:29:54:680;1448289954.34;(0.7539307117462158, 0.7320849736531576);85.4861679077;0.983973047781;0;0;0;0;0;0;0;0;0;();(-2000.0, -2000.0);
03:29:54:706;03:29:54:680;1448289954.34;(0.7539307117462158, 0.7320849736531576);85.4861679077;0.983973047781;0;0;0;0;0;0;0;0;0;();(-2000.0, -2000.0);
03:29:54:739;03:29:54:680;1448289954.34;(0.7539307117462158, 0.7320849736531576);85.4861679077;0.983973047781;0;0;0;0;0;0;0;0;0;();(-2000.0, -2000.0);
03:29:54:756;03:29:54:746;1448289954.41;(0.7530386447906494, 0.734391106499566);85.5046234131;0.810804994565;0;0;0;0;0;0;0;0;0;();(-2000.0, -2000.0);
03:29:54:773;03:29:54:746;1448289954.41;(0.7530386447906494, 0.734391106499566);85.5046234131;0.810804994565;0;0;0;0;0;0;0;0;0;();(-2000.0, -2000.0);
03:29:54:789;03:29:54:746;1448289954.41;(0.7530386447906494, 0.734391106499566);85.5046234131;0.810804994565;0;0;0;0;0;0;0;0;0;();(-2000.0, -2000.0);
03:29:54:806;03:29:54:746;1448289954.41;(0.7530386447906494, 0.734391106499566);85.5046234131;0.810804994565;0;0;0;0;0;0;0;0;0;();(-2000.0, -2000.0);
03:29:54:839;03:29:54:810;1448289954.47;(0.7480653285980224, 0.739160876803928);86.3872909546;0.869609657165;0;0;0;0;0;0;0;0;0;();(-2000.0, -2000.0);
03:29:54:856;03:29:54:810;1448289954.47;(0.7480653285980224, 0.739160876803928);86.3872909546;0.869609657165;0;0;0;0;0;0;0;0;0;();(-2000.0, -2000.0);
03:29:54:872;03:29:54:810;1448289954.47;(0.7480653285980224, 0.739160876803928);86.3872909546;0.869609657165;0;0;0;0;0;0;0;0;0;();(-2000.0, -2000.0);
03:29:54:890;03:29:54:872;1448289954.51;(0.7638803958892822, 0.728002209133572);85.65650177;0.861598938977;0;0;0;0;0;0;0;0;0;();(-2000.0, -2000.0);
03:29:54:906;03:29:54:872;1448289954.51;(0.7638803958892822, 0.728002209133572);85.65650177;0.861598938977;0;0;0;0;0;0;0;0;0;();(-2000.0, -2000.0);
03:29:54:941;03:29:54:872;1448289954.51;(0.7638803958892822, 0.728002209133572);85.65650177;0.861598938977;0;0;0;0;0;0;0;0;0;();(-2000.0, -2000.0);
03:29:54:959;03:29:54:952;1448289954.61;(0.7760189533233642, 0.7218758053249783);83.4148712158;0.963409080344;0;0;0;0;0;0;0;0;0;();(-2000.0, -2000.0);
03:29:54:976;03:29:54:952;1448289954.61;(0.7760189533233642, 0.7218758053249783);83.4148712158;0.963409080344;0;0;0;0;0;0;0;0;0;();(-2000.0, -2000.0);
03:29:54:992;03:29:54:952;1448289954.61;(0.7760189533233642, 0.7218758053249783);83.4148712158;0.963409080344;0;0;0;0;0;0;0;0;0;();(-2000.0, -2000.0);
03:29:55:008;03:29:54:952;1448289954.61;(0.7760189533233642, 0.7218758053249783);83.4148712158;0.963409080344;0;0;0;0;0;0;0;0;0;();(-2000.0, -2000.0);
03:29:55:042;03:29:55:015;1448289954.67;(0.7738046646118164, 0.7257115681966146);80.9962692261;0.840299612791;0;0;0;0;0;0;0;0;0;();(-2000.0, -2000.0);
03:29:55:058;03:29:55:015;1448289954.67;(0.7738046646118164, 0.7257115681966146);80.9962692261;0.840299612791;0;0;0;0;0;0;0;0;0;();(-2000.0, -2000.0);
03:29:55:073;03:29:55:015;1448289954.67;(0.7738046646118164, 0.7257115681966146);80.9962692261;0.840299612791;0;0;0;0;0;0;0;0;0;();(-2000.0, -2000.0);
03:29:55:089;03:29:55:077;1448289954.74;(0, 0);0;0;0;0;0;0;0;0;0;0;0;();(-2000.0, -2000.0);
03:29:55:107;03:29:55:077;1448289954.74;(0, 0);0;0;0;0;0;0;0;0;0;0;0;();(-2000.0, -2000.0);
03:29:55:140;03:29:55:077;1448289954.74;(0, 0);0;0;0;0;0;0;0;0;0;0;0;();(-2000.0, -2000.0);
03:29:55:156;03:29:55:140;1448289954.77;(0.7710388660430908, 0.7306971232096354);79.7997817993;0.807923002039;0;0;0;0;0;0;0;0;0;();(-2000.0, -2000.0);
03:29:55:173;03:29:55:140;1448289954.77;(0.7710388660430908, 0.7306971232096354);79.7997817993;0.807923002039;0;0;0;0;0;0;0;0;0;();(-2000.0, -2000.0);
03:29:55:192;03:29:55:140;1448289954.77;(0.7710388660430908, 0.7306971232096354);79.7997817993;0.807923002039;0;0;0;0;0;0;0;0;0;();(-2000.0, -2000.0);
03:29:55:208;03:29:55:140;1448289954.77;(0.7710388660430908, 0.7306971232096354);79.7997817993;0.807923002039;0;0;0;0;0;0;0;0;0;();(-2000.0, -2000.0);
03:29:55:242;03:29:55:211;1448289954.84;(0.7690285682678223, 0.7335888968573676);79.4120559692;0.726469010666;0;0;0;0;0;0;0;0;0;();(-2000.0, -2000.0);
03:29:55:258;03:29:55:211;1448289954.84;(0.7690285682678223, 0.7335888968573676);79.4120559692;0.726469010666;0;0;0;0;0;0;0;0;0;();(-2000.0, -2000.0);
03:29:55:277;03:29:55:211;1448289954.84;(0.7690285682678223, 0.7335888968573676);79.4120559692;0.726469010666;0;0;0;0;0;0;0;0;0;();(-2000.0, -2000.0);
03:29:55:292;03:29:55:276;1448289954.91;(0.7641473770141601, 0.7362872865464952);78.5498199463;0.6784101436;0;0;0;0;0;0;0;0;0;();(-2000.0, -2000.0);
03:29:55:309;03:29:55:276;1448289954.91;(0.7641473770141601, 0.7362872865464952);78.5498199463;0.6784101436;0;0;0;0;0;0;0;0;0;();(-2000.0, -2000.0);
03:29:55:340;03:29:55:337;1448289954.94;(0.7612907409667968, 0.7364935768975152);78.7920532227;0.886044077623;0;0;0;0;0;0;0;0;0;();(-2000.0, -2000.0);
03:29:55:357;03:29:55:338;1448289954.97;(0.7603050231933594, 0.7405252880520291);79.9725189209;0.648177255553;0;0;0;0;0;0;0;0;0;();(-2000.0, -2000.0);
03:29:55:373;03:29:55:338;1448289954.97;(0.7603050231933594, 0.7405252880520291);79.9725189209;0.648177255553;0;0;0;0;0;0;0;0;0;();(-2000.0, -2000.0);
03:29:55:390;03:29:55:338;1448289954.97;(0.7603050231933594, 0.7405252880520291);79.9725189209;0.648177255553;0;0;0;0;0;0;0;0;0;();(-2000.0, -2000.0);
03:29:55:407;03:29:55:338;1448289954.97;(0.7603050231933594, 0.7405252880520291);79.9725189209;0.648177255553;0;0;0;0;0;0;0;0;0;();(-2000.0, -2000.0);
03:29:55:440;03:29:55:417;1448289955.07;(0.7555582046508789, 0.7463662041558159);79.5088729858;0.846518410736;0;0;0;0;0;0;0;0;0;();(-2000.0, -2000.0);
03:29:55:457;03:29:55:417;1448289955.07;(0.7555582046508789, 0.7463662041558159);79.5088729858;0.846518410736;0;0;0;0;0;0;0;0;0;();(-2000.0, -2000.0);
03:29:55:473;03:29:55:417;1448289955.07;(0.7555582046508789, 0.7463662041558159);79.5088729858;0.846518410736;0;0;0;0;0;0;0;0;0;();(-2000.0, -2000.0);
03:29:55:490;03:29:55:472;1448289955.11;(0, 0);0;0;0;0;0;0;0;0;0;0;0;();(-2000.0, -2000.0);
03:29:55:507;03:29:55:472;1448289955.11;(0, 0);0;0;0;0;0;0;0;0;0;0;0;();(-2000.0, -2000.0);
03:29:55:541;03:29:55:537;1448289955.14;(0.7744541645050049, 0.7191216150919597);81.2625732422;0.895154061289;0;0;0;0;0;0;0;0;0;();(-2000.0, -2000.0);
03:29:55:556;03:29:55:538;1448289955.17;(0.7742632865905762, 0.7195393456353081);81.5174102783;0.881382460346;0;0;0;0;0;0;0;0;0;();(-2000.0, -2000.0);
03:29:55:573;03:29:55:538;1448289955.17;(0.7742632865905762, 0.7195393456353081);81.5174102783;0.881382460346;0;0;0;0;0;0;0;0;0;();(-2000.0, -2000.0);
03:29:55:590;03:29:55:538;1448289955.17;(0.7742632865905762, 0.7195393456353081);81.5174102783;0.881382460346;0;0;0;0;0;0;0;0;0;();(-2000.0, -2000.0);
03:29:55:607;03:29:55:538;1448289955.17;(0.7742632865905762, 0.7195393456353081);81.5174102783;0.881382460346;0;0;0;0;0;0;0;0;0;();(-2000.0, -2000.0);
03:29:55:640;03:29:55:612;1448289955.27;(0.7696947574615478, 0.724198701646593);81.1108169556;0.925064196612;0;0;0;0;0;0;0;0;0;();(-2000.0, -2000.0);
03:29:55:657;03:29:55:612;1448289955.27;(0.7696947574615478, 0.724198701646593);81.1108169556;0.925064196612;0;0;0;0;0;0;0;0;0;();(-2000.0, -2000.0);
03:29:55:673;03:29:55:669;1448289955.31;(0.7585966110229492, 0.7198100831773546);80.9465103149;1.0;0;0;0;0;0;0;0;0;0;();(-2000.0, -2000.0);
03:29:55:690;03:29:55:669;1448289955.31;(0.7585966110229492, 0.7198100831773546);80.9465103149;1.0;0;0;0;0;0;0;0;0;0;();(-2000.0, -2000.0);
03:29:55:707;03:29:55:669;1448289955.31;(0.7585966110229492, 0.7198100831773546);80.9465103149;1.0;0;0;0;0;0;0;0;0;0;();(-2000.0, -2000.0);
03:29:55:739;03:29:55:669;1448289955.31;(0.7585966110229492, 0.7198100831773546);80.9465103149;1.0;0;0;0;0;0;0;0;0;0;();(-2000.0, -2000.0);
03:29:55:759;03:29:55:742;1448289955.37;(0.39389069080352784, 0.6054241604275173);21.8606948853;0.640240057097;0;0;0;0;0;0;0;0;0;();(-2000.0, -2000.0);
03:29:55:776;03:29:55:742;1448289955.37;(0.39389069080352784, 0.6054241604275173);21.8606948853;0.640240057097;0;0;0;0;0;0;0;0;0;();(-2000.0, -2000.0);
03:29:55:793;03:29:55:742;1448289955.37;(0.39389069080352784, 0.6054241604275173);21.8606948853;0.640240057097;0;0;0;0;0;0;0;0;0;();(-2000.0, -2000.0);
03:29:55:811;03:29:55:804;1448289955.41;(0.3513007402420044, 0.6622148513793945);26.9259243011;0.66252949163;0;0;0;0;0;0;0;0;0;();(-2000.0, -2000.0);
03:29:55:840;03:29:55:807;1448289955.44;(0.7671682357788085, 0.7264840020073784);79.4506607056;0.664671297893;0;0;0;0;0;0;0;0;0;();(-2000.0, -2000.0);
03:29:55:857;03:29:55:807;1448289955.44;(0.7671682357788085, 0.7264840020073784);79.4506607056;0.664671297893;0;0;0;0;0;0;0;0;0;();(-2000.0, -2000.0);
03:29:55:874;03:29:55:807;1448289955.44;(0.7671682357788085, 0.7264840020073784);79.4506607056;0.664671297893;0;0;0;0;0;0;0;0;0;();(-2000.0, -2000.0);
03:29:55:889;03:29:55:878;1448289955.47;(0.7662165641784668, 0.7284755494859483);82.4727783203;0.864055572936;0;0;0;0;0;0;0;0;0;();(-2000.0, -2000.0);
03:29:55:907;03:29:55:878;1448289955.47;(0.7662165641784668, 0.7284755494859483);82.4727783203;0.864055572936;0;0;0;0;0;0;0;0;0;();(-2000.0, -2000.0);
03:29:55:939;03:29:55:936;1448289955.55;(0.7641628742218017, 0.7349406984117296);84.4239501953;0.883825077352;0;0;0;0;0;0;0;0;0;();(-2000.0, -2000.0);
03:29:55:956;03:29:55:941;1448289955.57;(0.7628904819488526, 0.7345680024888781);84.5064163208;0.857957026307;0;0;0;0;0;0;0;0;0;();(-2000.0, -2000.0);
03:29:55:973;03:29:55:941;1448289955.57;(0.7628904819488526, 0.7345680024888781);84.5064163208;0.857957026307;0;0;0;0;0;0;0;0;0;();(-2000.0, -2000.0);
03:29:55:990;03:29:55:941;1448289955.57;(0.7628904819488526, 0.7345680024888781);84.5064163208;0.857957026307;0;0;0;0;0;0;0;0;0;();(-2000.0, -2000.0);
03:29:56:007;03:29:56:003;1448289955.67;(0.7562100410461425, 0.7371379216512044);83.9563980103;0.733974869782;0;0;0;0;0;0;0;0;0;();(-2000.0, -2000.0);
03:29:56:024;03:29:56:003;1448289955.67;(0.7562100410461425, 0.7371379216512044);83.9563980103;0.733974869782;0;0;0;0;0;0;0;0;0;();(-2000.0, -2000.0);
03:29:56:060;03:29:56:003;1448289955.67;(0.7562100410461425, 0.7371379216512044);83.9563980103;0.733974869782;0;0;0;0;0;0;0;0;0;();(-2000.0, -2000.0);
03:29:56:078;03:29:56:071;1448289955.74;(0.7570807456970214, 0.73705079820421);85.7602615356;0.8425510641;0;0;0;0;0;0;0;0;0;();(-2000.0, -2000.0);
03:29:56:093;03:29:56:071;1448289955.74;(0.7570807456970214, 0.73705079820421);85.7602615356;0.8425510641;0;0;0;0;0;0;0;0;0;();(-2000.0, -2000.0);
03:29:56:109;03:29:56:071;1448289955.74;(0.7570807456970214, 0.73705079820421);85.7602615356;0.8425510641;0;0;0;0;0;0;0;0;0;();(-2000.0, -2000.0);
03:29:56:127;03:29:56:071;1448289955.74;(0.7570807456970214, 0.73705079820421);85.7602615356;0.8425510641;0;0;0;0;0;0;0;0;0;();(-2000.0, -2000.0);
03:29:56:159;03:29:56:141;1448289955.81;(0.757128381729126, 0.7370360268486871);85.0740737915;0.996960712701;0;0;0;0;0;0;0;0;0;();(-2000.0, -2000.0);
03:29:56:174;03:29:56:141;1448289955.81;(0.757128381729126, 0.7370360268486871);85.0740737915;0.996960712701;0;0;0;0;0;0;0;0;0;();(-2000.0, -2000.0);
03:29:56:191;03:29:56:141;1448289955.81;(0.757128381729126, 0.7370360268486871);85.0740737915;0.996960712701;0;0;0;0;0;0;0;0;0;();(-2000.0, -2000.0);
03:29:56:207;03:29:56:202;1448289955.87;(0.7560429096221923, 0.7366043726603191);84.5727767944;0.80702898486;0;0;0;0;0;0;0;0;0;();(-2000.0, -2000.0);
03:29:56:224;03:29:56:202;1448289955.87;(0.7560429096221923, 0.7366043726603191);84.5727767944;0.80702898486;0;0;0;0;0;0;0;0;0;();(-2000.0, -2000.0);
03:29:56:257;03:29:56:202;1448289955.87;(0.7560429096221923, 0.7366043726603191);84.5727767944;0.80702898486;0;0;0;0;0;0;0;0;0;();(-2000.0, -2000.0);
03:29:56:274;03:29:56:270;1448289955.91;(0.755543565750122, 0.7368739869859484);84.3864593506;0.863078455562;0;0;0;0;0;0;0;0;0;();(-2000.0, -2000.0);
03:29:56:291;03:29:56:270;1448289955.91;(0.755543565750122, 0.7368739869859484);84.3864593506;0.863078455562;0;0;0;0;0;0;0;0;0;();(-2000.0, -2000.0);
03:29:56:308;03:29:56:270;1448289955.91;(0.755543565750122, 0.7368739869859484);84.3864593506;0.863078455562;0;0;0;0;0;0;0;0;0;();(-2000.0, -2000.0);
03:29:56:324;03:29:56:270;1448289955.91;(0.755543565750122, 0.7368739869859484);84.3864593506;0.863078455562;0;0;0;0;0;0;0;0;0;();(-2000.0, -2000.0);
03:29:56:357;03:29:56:336;1448289955.97;(0.7544589042663574, 0.7377266565958659);85.7599639893;0.9617554489;0;0;0;0;0;0;0;0;0;();(-2000.0, -2000.0);
03:29:56:374;03:29:56:336;1448289955.97;(0.7544589042663574, 0.7377266565958659);85.7599639893;0.9617554489;0;0;0;0;0;0;0;0;0;();(-2000.0, -2000.0);
03:29:56:391;03:29:56:336;1448289955.97;(0.7544589042663574, 0.7377266565958659);85.7599639893;0.9617554489;0;0;0;0;0;0;0;0;0;();(-2000.0, -2000.0);
03:29:56:408;03:29:56:405;1448289956.07;(0.7546213626861572, 0.7196360905965169);85.9467391968;0.801760531423;0;0;0;0;0;0;0;0;0;();(-2000.0, -2000.0);
03:29:56:440;03:29:56:405;1448289956.07;(0.7546213626861572, 0.7196360905965169);85.9467391968;0.801760531423;0;0;0;0;0;0;0;0;0;();(-2000.0, -2000.0);
03:29:56:458;03:29:56:405;1448289956.07;(0.7546213626861572, 0.7196360905965169);85.9467391968;0.801760531423;0;0;0;0;0;0;0;0;0;();(-2000.0, -2000.0);
03:29:56:474;03:29:56:469;1448289956.11;(0, 0);0;0;0;0;0;0;0;0;0;0;0;();(-2000.0, -2000.0);
03:29:56:490;03:29:56:469;1448289956.11;(0, 0);0;0;0;0;0;0;0;0;0;0;0;();(-2000.0, -2000.0);
03:29:56:507;03:29:56:469;1448289956.11;(0, 0);0;0;0;0;0;0;0;0;0;0;0;();(-2000.0, -2000.0);
03:29:56:524;03:29:56:469;1448289956.11;(0, 0);0;0;0;0;0;0;0;0;0;0;0;();(-2000.0, -2000.0);
03:29:56:557;03:29:56:540;1448289956.17;(0.7569143772125244, 0.7227065404256185);87.2564926147;0.973115166717;0;0;0;0;0;0;0;0;0;();(-2000.0, -2000.0);
03:29:56:575;03:29:56:540;1448289956.17;(0.7569143772125244, 0.7227065404256185);87.2564926147;0.973115166717;0;0;0;0;0;0;0;0;0;();(-2000.0, -2000.0);
03:29:56:591;03:29:56:540;1448289956.17;(0.7569143772125244, 0.7227065404256185);87.2564926147;0.973115166717;0;0;0;0;0;0;0;0;0;();(-2000.0, -2000.0);
03:29:56:608;03:29:56:603;1448289956.27;(0.7574449062347413, 0.7208429336547851);86.2676315308;0.94204475555;0;0;0;0;0;0;0;0;0;();(-2000.0, -2000.0);
03:29:56:624;03:29:56:603;1448289956.27;(0.7574449062347413, 0.7208429336547851);86.2676315308;0.94204475555;0;0;0;0;0;0;0;0;0;();(-2000.0, -2000.0);
03:29:56:657;03:29:56:603;1448289956.27;(0.7574449062347413, 0.7208429336547851);86.2676315308;0.94204475555;0;0;0;0;0;0;0;0;0;();(-2000.0, -2000.0);
03:29:56:674;03:29:56:665;1448289956.31;(0.7578061103820801, 0.7199641545613606);85.8875961304;0.98439043906;0;0;0;0;0;0;0;0;0;();(-2000.0, -2000.0);
03:29:56:690;03:29:56:665;1448289956.31;(0.7578061103820801, 0.7199641545613606);85.8875961304;0.98439043906;0;0;0;0;0;0;0;0;0;();(-2000.0, -2000.0);
