%Timestamp,timestamp_write;timestamp_gotpupil;eyeTrackerTime;normPos;diameter;confidence;nplanes;listofAirplanesonScreen;lastAction;lastActionDetails;lastActionAirplaneNumber;calculatedScore;positiveScore;negativeScore;collidedAirplaneNumbers;targetPositions;collisionPoint
03:27:12:189;03:27:12:146;1448289791.79;(0.7573623657226562, 0.5947793324788411);73.017539978;1.0;0;0;0;0;0;0;0;0;0;();(-2000.0, -2000.0);
03:27:12:199;03:27:12:185;1448289791.81;(0.7553763389587402, 0.5911875830756294);71.4675827026;0.968243122218;0;0;0;0;0;0;0;0;0;();(-2000.0, -2000.0);
03:27:12:206;03:27:12:185;1448289791.81;(0.7553763389587402, 0.5911875830756294);71.4675827026;0.968243122218;0;0;0;0;0;0;0;0;0;();(-2000.0, -2000.0);
03:27:12:213;03:27:12:185;1448289791.81;(0.7553763389587402, 0.5911875830756294);71.4675827026;0.968243122218;0;0;0;0;0;0;0;0;0;();(-2000.0, -2000.0);
03:27:12:220;03:27:12:185;1448289791.81;(0.7553763389587402, 0.5911875830756294);71.4675827026;0.968243122218;0;0;0;0;0;0;0;0;0;();(-2000.0, -2000.0);
03:27:12:227;03:27:12:185;1448289791.81;(0.7553763389587402, 0.5911875830756294);71.4675827026;0.968243122218;0;0;0;0;0;0;0;0;0;();(-2000.0, -2000.0);
03:27:12:234;03:27:12:185;1448289791.81;(0.7553763389587402, 0.5911875830756294);71.4675827026;0.968243122218;0;0;0;0;0;0;0;0;0;();(-2000.0, -2000.0);
03:27:12:242;03:27:12:185;1448289791.81;(0.7553763389587402, 0.5911875830756294);71.4675827026;0.968243122218;0;0;0;0;0;0;0;0;0;();(-2000.0, -2000.0);
03:27:12:249;03:27:12:185;1448289791.81;(0.7553763389587402, 0.5911875830756294);71.4675827026;0.968243122218;0;0;0;0;0;0;0;0;0;();(-2000.0, -2000.0);
03:27:12:256;03:27:12:185;1448289791.81;(0.7553763389587402, 0.5911875830756294);71.4675827026;0.968243122218;0;0;0;0;0;0;0;0;0;();(-2000.0, -2000.0);
03:27:12:263;03:27:12:185;1448289791.81;(0.7553763389587402, 0.5911875830756294);71.4675827026;0.968243122218;0;0;0;0;0;0;0;0;0;();(-2000.0, -2000.0);
03:27:12:270;03:27:12:185;1448289791.81;(0.7553763389587402, 0.5911875830756294);71.4675827026;0.968243122218;0;0;0;0;0;0;0;0;0;();(-2000.0, -2000.0);
03:27:12:277;03:27:12:185;1448289791.81;(0.7553763389587402, 0.5911875830756294);71.4675827026;0.968243122218;0;0;0;0;0;0;0;0;0;();(-2000.0, -2000.0);
03:27:12:285;03:27:12:277;1448289791.84;(0.7526464939117432, 0.5945395151774089);70.929977417;0.942918561528;0;0;0;0;0;0;0;0;0;();(-2000.0, -2000.0);
03:27:12:292;03:27:12:277;1448289791.84;(0.7526464939117432, 0.5945395151774089);70.929977417;0.942918561528;0;0;0;0;0;0;0;0;0;();(-2000.0, -2000.0);
03:27:12:299;03:27:12:277;1448289791.84;(0.7526464939117432, 0.5945395151774089);70.929977417;0.942918561528;0;0;0;0;0;0;0;0;0;();(-2000.0, -2000.0);
03:27:12:320;03:27:12:277;1448289791.84;(0.7526464939117432, 0.5945395151774089);70.929977417;0.942918561528;0;0;0;0;0;0;0;0;0;();(-2000.0, -2000.0);
03:27:12:328;03:27:12:277;1448289791.84;(0.7526464939117432, 0.5945395151774089);70.929977417;0.942918561528;0;0;0;0;0;0;0;0;0;();(-2000.0, -2000.0);
03:27:12:335;03:27:12:277;1448289791.84;(0.7526464939117432, 0.5945395151774089);70.929977417;0.942918561528;0;0;0;0;0;0;0;0;0;();(-2000.0, -2000.0);
03:27:12:342;03:27:12:277;1448289791.84;(0.7526464939117432, 0.5945395151774089);70.929977417;0.942918561528;0;0;0;0;0;0;0;0;0;();(-2000.0, -2000.0);
03:27:12:349;03:27:12:277;1448289791.84;(0.7526464939117432, 0.5945395151774089);70.929977417;0.942918561528;0;0;0;0;0;0;0;0;0;();(-2000.0, -2000.0);
03:27:12:357;03:27:12:348;1448289791.92;(0.7458841323852539, 0.6024824778238933);70.3912353516;1.0;0;0;0;0;0;0;0;0;0;();(-2000.0, -2000.0);
03:27:12:364;03:27:12:348;1448289791.92;(0.7458841323852539, 0.6024824778238933);70.3912353516;1.0;0;0;0;0;0;0;0;0;0;();(-2000.0, -2000.0);
03:27:12:373;03:27:12:348;1448289791.92;(0.7458841323852539, 0.6024824778238933);70.3912353516;1.0;0;0;0;0;0;0;0;0;0;();(-2000.0, -2000.0);
03:27:12:380;03:27:12:348;1448289791.92;(0.7458841323852539, 0.6024824778238933);70.3912353516;1.0;0;0;0;0;0;0;0;0;0;();(-2000.0, -2000.0);
03:27:12:387;03:27:12:348;1448289791.92;(0.7458841323852539, 0.6024824778238933);70.3912353516;1.0;0;0;0;0;0;0;0;0;0;();(-2000.0, -2000.0);
03:27:12:403;03:27:12:396;1448289792.06;(0.7380996704101562, 0.6152616288926867);70.6557617188;0.803580301995;0;0;0;0;0;0;0;0;0;();(-2000.0, -2000.0);
03:27:12:419;03:27:12:396;1448289792.06;(0.7380996704101562, 0.6152616288926867);70.6557617188;0.803580301995;0;0;0;0;0;0;0;0;0;();(-2000.0, -2000.0);
03:27:12:437;03:27:12:433;1448289792.08;(0.7363283634185791, 0.6181400510999892);69.795135498;0.926587276265;0;0;0;0;0;0;0;0;0;();(-2000.0, -2000.0);
03:27:12:469;03:27:12:434;1448289792.11;(0.735577917098999, 0.6201474083794487);70.6865692139;0.956638755495;0;0;0;0;0;0;0;0;0;();(-2000.0, -2000.0);
03:27:12:485;03:27:12:474;1448289792.14;(0.7349358558654785, 0.621228535970052);70.474609375;1.0;0;0;0;0;0;0;0;0;0;();(-2000.0, -2000.0);
03:27:12:503;03:27:12:474;1448289792.14;(0.7349358558654785, 0.621228535970052);70.474609375;1.0;0;0;0;0;0;0;0;0;0;();(-2000.0, -2000.0);
03:27:12:518;03:27:12:474;1448289792.14;(0.7349358558654785, 0.621228535970052);70.474609375;1.0;0;0;0;0;0;0;0;0;0;();(-2000.0, -2000.0);
03:27:12:536;03:27:12:526;1448289792.18;(0.7340900897979736, 0.6222457038031683);70.1177597046;0.944671991401;0;0;0;0;0;0;0;0;0;();(-2000.0, -2000.0);
03:27:12:569;03:27:12:557;1448289792.21;(0.7334366798400879, 0.622876951429579);70.5513534546;1.0;0;0;0;0;0;0;0;0;0;();(-2000.0, -2000.0);
03:27:12:585;03:27:12:557;1448289792.21;(0.7334366798400879, 0.622876951429579);70.5513534546;1.0;0;0;0;0;0;0;0;0;0;();(-2000.0, -2000.0);
03:27:12:601;03:27:12:557;1448289792.21;(0.7334366798400879, 0.622876951429579);70.5513534546;1.0;0;0;0;0;0;0;0;0;0;();(-2000.0, -2000.0);
03:27:12:618;03:27:12:603;1448289792.24;(0.733107328414917, 0.6237270567152235);70.1420593262;1.0;0;0;0;0;0;0;0;0;0;();(-2000.0, -2000.0);
03:27:12:634;03:27:12:603;1448289792.24;(0.733107328414917, 0.6237270567152235);70.1420593262;1.0;0;0;0;0;0;0;0;0;0;();(-2000.0, -2000.0);
03:27:12:668;03:27:12:658;1448289792.28;(0.7257184505462646, 0.6311314053005642);66.8247299194;0.812541540016;0;0;0;0;0;0;0;0;0;();(-2000.0, -2000.0);
03:27:12:686;03:27:12:681;1448289792.31;(0.2920412540435791, 0.8036883036295572);47.932308197;0.813524693255;0;0;0;0;0;0;0;0;0;();(-2000.0, -2000.0);
03:27:12:701;03:27:12:682;1448289792.34;(0, 0);0;0;0;0;0;0;0;0;0;0;0;();(-2000.0, -2000.0);
03:27:12:718;03:27:12:682;1448289792.34;(0, 0);0;0;0;0;0;0;0;0;0;0;0;();(-2000.0, -2000.0);
03:27:12:734;03:27:12:682;1448289792.34;(0, 0);0;0;0;0;0;0;0;0;0;0;0;();(-2000.0, -2000.0);
03:27:12:768;03:27:12:758;1448289792.38;(0.5795258998870849, 0.7349296781751844);73.8250656128;0.880096419589;0;0;0;0;0;0;0;0;0;();(-2000.0, -2000.0);
03:27:12:784;03:27:12:766;1448289792.41;(0, 0);0;0;0;0;0;0;0;0;0;0;0;();(-2000.0, -2000.0);
03:27:12:801;03:27:12:766;1448289792.41;(0, 0);0;0;0;0;0;0;0;0;0;0;0;();(-2000.0, -2000.0);
03:27:12:817;03:27:12:806;1448289792.44;(0.589922285079956, 0.7307225121392145);72.2155303955;0.849700857151;0;0;0;0;0;0;0;0;0;();(-2000.0, -2000.0);
03:27:12:834;03:27:12:806;1448289792.44;(0.589922285079956, 0.7307225121392145);72.2155303955;0.849700857151;0;0;0;0;0;0;0;0;0;();(-2000.0, -2000.0);
03:27:12:867;03:27:12:848;1448289792.48;(0.5946252822875977, 0.7264449225531684);73.0503692627;0.827064199793;0;0;0;0;0;0;0;0;0;();(-2000.0, -2000.0);
03:27:12:883;03:27:12:848;1448289792.48;(0.5946252822875977, 0.7264449225531684);73.0503692627;0.827064199793;0;0;0;0;0;0;0;0;0;();(-2000.0, -2000.0);
03:27:12:900;03:27:12:890;1448289792.51;(0.5990120887756347, 0.7265554851955838);72.9132080078;0.904722559586;0;0;0;0;0;0;0;0;0;();(-2000.0, -2000.0);
03:27:12:917;03:27:12:890;1448289792.51;(0.5990120887756347, 0.7265554851955838);72.9132080078;0.904722559586;0;0;0;0;0;0;0;0;0;();(-2000.0, -2000.0);
03:27:12:934;03:27:12:890;1448289792.51;(0.5990120887756347, 0.7265554851955838);72.9132080078;0.904722559586;0;0;0;0;0;0;0;0;0;();(-2000.0, -2000.0);
03:27:12:966;03:27:12:934;1448289792.58;(0.606478500366211, 0.7212795681423612);74.3411865234;0.627815443799;0;0;0;0;0;0;0;0;0;();(-2000.0, -2000.0);
03:27:12:983;03:27:12:972;1448289792.61;(0.6094254493713379, 0.723136223687066);73.3208770752;0.910963027931;0;0;0;0;0;0;0;0;0;();(-2000.0, -2000.0);
03:27:13:000;03:27:12:972;1448289792.61;(0.6094254493713379, 0.723136223687066);73.3208770752;0.910963027931;0;0;0;0;0;0;0;0;0;();(-2000.0, -2000.0);
03:27:13:022;03:27:12:972;1448289792.61;(0.6094254493713379, 0.723136223687066);73.3208770752;0.910963027931;0;0;0;0;0;0;0;0;0;();(-2000.0, -2000.0);
03:27:13:049;03:27:13:015;1448289792.68;(0.6153645038604736, 0.7199572881062826);72.1371459961;0.616949345964;0;0;0;0;0;0;0;0;0;();(-2000.0, -2000.0);
03:27:13:065;03:27:13:057;1448289792.71;(0.6170438289642334, 0.7236049016316732);73.2346191406;0.773907391137;0;0;0;0;0;0;0;0;0;();(-2000.0, -2000.0);
03:27:13:081;03:27:13:057;1448289792.71;(0.6170438289642334, 0.7236049016316732);73.2346191406;0.773907391137;0;0;0;0;0;0;0;0;0;();(-2000.0, -2000.0);
03:27:13:099;03:27:13:057;1448289792.71;(0.6170438289642334, 0.7236049016316732);73.2346191406;0.773907391137;0;0;0;0;0;0;0;0;0;();(-2000.0, -2000.0);
03:27:13:116;03:27:13:100;1448289792.74;(0.6195429801940918, 0.7191491656833224);73.2798461914;0.745422693207;0;0;0;0;0;0;0;0;0;();(-2000.0, -2000.0);
03:27:13:149;03:27:13:137;1448289792.78;(0.6122136592864991, 0.7258231692843967);67.9107055664;0.853371435357;0;0;0;0;0;0;0;0;0;();(-2000.0, -2000.0);
03:27:13:165;03:27:13:137;1448289792.78;(0.6122136592864991, 0.7258231692843967);67.9107055664;0.853371435357;0;0;0;0;0;0;0;0;0;();(-2000.0, -2000.0);
03:27:13:183;03:27:13:137;1448289792.78;(0.6122136592864991, 0.7258231692843967);67.9107055664;0.853371435357;0;0;0;0;0;0;0;0;0;();(-2000.0, -2000.0);
03:27:13:199;03:27:13:182;1448289792.84;(0.5836299419403076, 0.72525880601671);73.1366882324;0.764082528058;0;0;0;0;0;0;0;0;0;();(-2000.0, -2000.0);
03:27:13:215;03:27:13:182;1448289792.84;(0.5836299419403076, 0.72525880601671);73.1366882324;0.764082528058;0;0;0;0;0;0;0;0;0;();(-2000.0, -2000.0);
03:27:13:248;03:27:13:226;1448289792.88;(0.5862788677215576, 0.7245779249403212);73.415145874;0.867198034062;0;0;0;0;0;0;0;0;0;();(-2000.0, -2000.0);
03:27:13:264;03:27:13:226;1448289792.88;(0.5862788677215576, 0.7245779249403212);73.415145874;0.867198034062;0;0;0;0;0;0;0;0;0;();(-2000.0, -2000.0);
03:27:13:281;03:27:13:261;1448289792.91;(0.5892631053924561, 0.7274643368191189);73.4468917847;0.889354074696;0;0;0;0;0;0;0;0;0;();(-2000.0, -2000.0);
03:27:13:297;03:27:13:261;1448289792.91;(0.5892631053924561, 0.7274643368191189);73.4468917847;0.889354074696;0;0;0;0;0;0;0;0;0;();(-2000.0, -2000.0);
03:27:13:313;03:27:13:261;1448289792.91;(0.5892631053924561, 0.7274643368191189);73.4468917847;0.889354074696;0;0;0;0;0;0;0;0;0;();(-2000.0, -2000.0);
03:27:13:348;03:27:13:313;1448289792.94;(0.5921353816986084, 0.7284858491685655);73.1959075928;0.855697141887;0;0;0;0;0;0;0;0;0;();(-2000.0, -2000.0);
03:27:13:363;03:27:13:345;1448289792.98;(0.595035457611084, 0.727116330464681);74.1364059448;0.879632583934;0;0;0;0;0;0;0;0;0;();(-2000.0, -2000.0);
03:27:13:380;03:27:13:345;1448289792.98;(0.595035457611084, 0.727116330464681);74.1364059448;0.879632583934;0;0;0;0;0;0;0;0;0;();(-2000.0, -2000.0);
03:27:13:397;03:27:13:390;1448289793.04;(0, 0);0;0;0;0;0;0;0;0;0;0;0;();(-2000.0, -2000.0);
03:27:13:413;03:27:13:390;1448289793.04;(0, 0);0;0;0;0;0;0;0;0;0;0;0;();(-2000.0, -2000.0);
03:27:13:446;03:27:13:428;1448289793.08;(0.6014973163604737, 0.7287328932020399);75.7173461914;0.903446430577;0;0;0;0;0;0;0;0;0;();(-2000.0, -2000.0);
03:27:13:463;03:27:13:428;1448289793.08;(0.6014973163604737, 0.7287328932020399);75.7173461914;0.903446430577;0;0;0;0;0;0;0;0;0;();(-2000.0, -2000.0);
03:27:13:480;03:27:13:468;1448289793.11;(0.6047083854675293, 0.7236694759792752);72.6548233032;0.820019911992;0;0;0;0;0;0;0;0;0;();(-2000.0, -2000.0);
03:27:13:496;03:27:13:468;1448289793.11;(0.6047083854675293, 0.7236694759792752);72.6548233032;0.820019911992;0;0;0;0;0;0;0;0;0;();(-2000.0, -2000.0);
03:27:13:513;03:27:13:468;1448289793.11;(0.6047083854675293, 0.7236694759792752);72.6548233032;0.820019911992;0;0;0;0;0;0;0;0;0;();(-2000.0, -2000.0);
03:27:13:546;03:27:13:519;1448289793.18;(0.6068952083587646, 0.7272543377346463);74.3689727783;0.691265378329;0;0;0;0;0;0;0;0;0;();(-2000.0, -2000.0);
03:27:13:562;03:27:13:552;1448289793.21;(0.6132656574249268, 0.7447103076510959);73.8059005737;0.729549668993;0;0;0;0;0;0;0;0;0;();(-2000.0, -2000.0);
03:27:13:579;03:27:13:552;1448289793.21;(0.6132656574249268, 0.7447103076510959);73.8059005737;0.729549668993;0;0;0;0;0;0;0;0;0;();(-2000.0, -2000.0);
03:27:13:596;03:27:13:592;1448289793.24;(0.6143572807312012, 0.7484285354614257);73.249168396;0.93021962884;0;0;0;0;0;0;0;0;0;();(-2000.0, -2000.0);
03:27:13:629;03:27:13:592;1448289793.24;(0.6143572807312012, 0.7484285354614257);73.249168396;0.93021962884;0;0;0;0;0;0;0;0;0;();(-2000.0, -2000.0);
03:27:13:645;03:27:13:639;1448289793.31;(0.37241206169128416, 0.8882584359910753);46.9793243408;0.689608788466;0;0;0;0;0;0;0;0;0;();(-2000.0, -2000.0);
03:27:13:662;03:27:13:639;1448289793.31;(0.37241206169128416, 0.8882584359910753);46.9793243408;0.689608788466;0;0;0;0;0;0;0;0;0;();(-2000.0, -2000.0);
03:27:13:679;03:27:13:639;1448289793.31;(0.37241206169128416, 0.8882584359910753);46.9793243408;0.689608788466;0;0;0;0;0;0;0;0;0;();(-2000.0, -2000.0);
03:27:13:695;03:27:13:639;1448289793.31;(0.37241206169128416, 0.8882584359910753);46.9793243408;0.689608788466;0;0;0;0;0;0;0;0;0;();(-2000.0, -2000.0);
03:27:13:728;03:27:13:724;1448289793.34;(0.6187156200408935, 0.7510498470730251);72.5256729126;0.943829587974;0;0;0;0;0;0;0;0;0;();(-2000.0, -2000.0);
03:27:13:745;03:27:13:724;1448289793.34;(0.6187156200408935, 0.7510498470730251);72.5256729126;0.943829587974;0;0;0;0;0;0;0;0;0;();(-2000.0, -2000.0);
03:27:13:763;03:27:13:751;1448289793.38;(0.6202978610992431, 0.7472663455539279);71.3930664062;0.898913481353;0;0;0;0;0;0;0;0;0;();(-2000.0, -2000.0);
03:27:13:778;03:27:13:761;1448289793.41;(0.6214436531066895, 0.7512516233656141);72.9237213135;0.881182875836;0;0;0;0;0;0;0;0;0;();(-2000.0, -2000.0);
03:27:13:794;03:27:13:761;1448289793.41;(0.6214436531066895, 0.7512516233656141);72.9237213135;0.881182875836;0;0;0;0;0;0;0;0;0;();(-2000.0, -2000.0);
03:27:13:827;03:27:13:801;1448289793.44;(0.6204231739044189, 0.7506403605143229);71.6669082642;0.720086552579;0;0;0;0;0;0;0;0;0;();(-2000.0, -2000.0);
03:27:13:844;03:27:13:801;1448289793.44;(0.6204231739044189, 0.7506403605143229);71.6669082642;0.720086552579;0;0;0;0;0;0;0;0;0;();(-2000.0, -2000.0);
03:27:13:861;03:27:13:845;1448289793.48;(0, 0);0;0;0;0;0;0;0;0;0;0;0;();(-2000.0, -2000.0);
03:27:13:877;03:27:13:845;1448289793.48;(0, 0);0;0;0;0;0;0;0;0;0;0;0;();(-2000.0, -2000.0);
03:27:13:894;03:27:13:885;1448289793.54;(0, 0);0;0;0;0;0;0;0;0;0;0;0;();(-2000.0, -2000.0);
03:27:13:928;03:27:13:885;1448289793.54;(0, 0);0;0;0;0;0;0;0;0;0;0;0;();(-2000.0, -2000.0);
03:27:13:943;03:27:13:926;1448289793.58;(0.2921343564987183, 0.6338157653808594);22.6432380676;0.959911438922;0;0;0;0;0;0;0;0;0;();(-2000.0, -2000.0);
03:27:13:960;03:27:13:926;1448289793.58;(0.2921343564987183, 0.6338157653808594);22.6432380676;0.959911438922;0;0;0;0;0;0;0;0;0;();(-2000.0, -2000.0);
03:27:13:977;03:27:13:968;1448289793.61;(0.6222277641296386, 0.7465758005777995);66.8424072266;0.864540882004;0;0;0;0;0;0;0;0;0;();(-2000.0, -2000.0);
03:27:13:993;03:27:13:968;1448289793.61;(0.6222277641296386, 0.7465758005777995);66.8424072266;0.864540882004;0;0;0;0;0;0;0;0;0;();(-2000.0, -2000.0);
03:27:14:026;03:27:14:013;1448289793.64;(0, 0);0;0;0;0;0;0;0;0;0;0;0;();(-2000.0, -2000.0);
03:27:14:043;03:27:14:013;1448289793.64;(0, 0);0;0;0;0;0;0;0;0;0;0;0;();(-2000.0, -2000.0);
03:27:14:060;03:27:14:050;1448289793.71;(0.3408695936203003, 0.8643151389227973);53.1040458679;0.62728390007;0;0;0;0;0;0;0;0;0;();(-2000.0, -2000.0);
03:27:14:076;03:27:14:050;1448289793.71;(0.3408695936203003, 0.8643151389227973);53.1040458679;0.62728390007;0;0;0;0;0;0;0;0;0;();(-2000.0, -2000.0);
03:27:14:109;03:27:14:092;1448289793.74;(0.6260085105895996, 0.7403642442491319);68.5358963013;0.930404459557;0;0;0;0;0;0;0;0;0;();(-2000.0, -2000.0);
03:27:14:126;03:27:14:092;1448289793.74;(0.6260085105895996, 0.7403642442491319);68.5358963013;0.930404459557;0;0;0;0;0;0;0;0;0;();(-2000.0, -2000.0);
03:27:14:142;03:27:14:138;1448289793.81;(0.6264405250549316, 0.7402151319715712);68.6689682007;1.0;0;0;0;0;0;0;0;0;0;();(-2000.0, -2000.0);
03:27:14:158;03:27:14:138;1448289793.81;(0.6264405250549316, 0.7402151319715712);68.6689682007;1.0;0;0;0;0;0;0;0;0;0;();(-2000.0, -2000.0);
03:27:14:176;03:27:14:138;1448289793.81;(0.6264405250549316, 0.7402151319715712);68.6689682007;1.0;0;0;0;0;0;0;0;0;0;();(-2000.0, -2000.0);
03:27:14:208;03:27:14:178;1448289793.84;(0.6267748355865479, 0.7393257564968533);69.0935287476;0.867936824772;0;0;0;0;0;0;0;0;0;();(-2000.0, -2000.0);
03:27:14:225;03:27:14:217;1448289793.88;(0.6270182609558106, 0.7382852130466038);69.6412582397;0.907276155846;0;0;0;0;0;0;0;0;0;();(-2000.0, -2000.0);
03:27:14:241;03:27:14:217;1448289793.88;(0.6270182609558106, 0.7382852130466038);69.6412582397;0.907276155846;0;0;0;0;0;0;0;0;0;();(-2000.0, -2000.0);
03:27:14:259;03:27:14:217;1448289793.88;(0.6270182609558106, 0.7382852130466038);69.6412582397;0.907276155846;0;0;0;0;0;0;0;0;0;();(-2000.0, -2000.0);
03:27:14:274;03:27:14:257;1448289793.91;(0.6319262504577636, 0.7770768059624567);69.4321899414;0.720111826729;0;0;0;0;0;0;0;0;0;();(-2000.0, -2000.0);
03:27:14:307;03:27:14:301;1448289793.98;(0.6440939903259277, 0.7896305508083767);70.3643493652;0.95996021727;0;0;0;0;0;0;0;0;0;();(-2000.0, -2000.0);
03:27:14:325;03:27:14:301;1448289793.98;(0.6440939903259277, 0.7896305508083767);70.3643493652;0.95996021727;0;0;0;0;0;0;0;0;0;();(-2000.0, -2000.0);
03:27:14:341;03:27:14:301;1448289793.98;(0.6440939903259277, 0.7896305508083767);70.3643493652;0.95996021727;0;0;0;0;0;0;0;0;0;();(-2000.0, -2000.0);
03:27:14:357;03:27:14:341;1448289794.01;(0.6446315765380859, 0.7886515511406793);71.2677001953;0.814308216802;0;0;0;0;0;0;0;0;0;();(-2000.0, -2000.0);
03:27:14:374;03:27:14:341;1448289794.01;(0.6446315765380859, 0.7886515511406793);71.2677001953;0.814308216802;0;0;0;0;0;0;0;0;0;();(-2000.0, -2000.0);
03:27:14:407;03:27:14:341;1448289794.01;(0.6446315765380859, 0.7886515511406793);71.2677001953;0.814308216802;0;0;0;0;0;0;0;0;0;();(-2000.0, -2000.0);
03:27:14:424;03:27:14:341;1448289794.01;(0.6446315765380859, 0.7886515511406793);71.2677001953;0.814308216802;0;0;0;0;0;0;0;0;0;();(-2000.0, -2000.0);
03:27:14:440;03:27:14:429;1448289794.08;(0, 0);0;0;0;0;0;0;0;0;0;0;0;();(-2000.0, -2000.0);
03:27:14:457;03:27:14:429;1448289794.08;(0, 0);0;0;0;0;0;0;0;0;0;0;0;();(-2000.0, -2000.0);
03:27:14:473;03:27:14:464;1448289794.11;(0.6493302345275879, 0.7772974438137479);72.6944351196;0.88122553048;0;0;0;0;0;0;0;0;0;();(-2000.0, -2000.0);
03:27:14:507;03:27:14:464;1448289794.11;(0.6493302345275879, 0.7772974438137479);72.6944351196;0.88122553048;0;0;0;0;0;0;0;0;0;();(-2000.0, -2000.0);
03:27:14:523;03:27:14:506;1448289794.14;(0.6182588577270508, 0.7903275595770942);78.7954483032;0.726142139607;0;0;0;0;0;0;0;0;0;();(-2000.0, -2000.0);
03:27:14:540;03:27:14:506;1448289794.14;(0.6182588577270508, 0.7903275595770942);78.7954483032;0.726142139607;0;0;0;0;0;0;0;0;0;();(-2000.0, -2000.0);
03:27:14:556;03:27:14:549;1448289794.21;(0.5960513591766358, 0.7954970253838434);71.1193389893;0.861602924217;0;0;0;0;0;0;0;0;0;();(-2000.0, -2000.0);
03:27:14:573;03:27:14:549;1448289794.21;(0.5960513591766358, 0.7954970253838434);71.1193389893;0.861602924217;0;0;0;0;0;0;0;0;0;();(-2000.0, -2000.0);
03:27:14:606;03:27:14:549;1448289794.21;(0.5960513591766358, 0.7954970253838434);71.1193389893;0.861602924217;0;0;0;0;0;0;0;0;0;();(-2000.0, -2000.0);
03:27:14:622;03:27:14:549;1448289794.21;(0.5960513591766358, 0.7954970253838434);71.1193389893;0.861602924217;0;0;0;0;0;0;0;0;0;();(-2000.0, -2000.0);
03:27:14:639;03:27:14:634;1448289794.31;(0.3417405366897583, 0.8607663154602051);21.8643779755;0.606562238593;0;0;0;0;0;0;0;0;0;();(-2000.0, -2000.0);
03:27:14:656;03:27:14:634;1448289794.31;(0.3417405366897583, 0.8607663154602051);21.8643779755;0.606562238593;0;0;0;0;0;0;0;0;0;();(-2000.0, -2000.0);
03:27:14:689;03:27:14:634;1448289794.31;(0.3417405366897583, 0.8607663154602051);21.8643779755;0.606562238593;0;0;0;0;0;0;0;0;0;();(-2000.0, -2000.0);
03:27:14:705;03:27:14:634;1448289794.31;(0.3417405366897583, 0.8607663154602051);21.8643779755;0.606562238593;0;0;0;0;0;0;0;0;0;();(-2000.0, -2000.0);
03:27:14:722;03:27:14:714;1448289794.38;(0.6055554389953614, 0.7859594345092773);68.9401092529;1.0;0;0;0;0;0;0;0;0;0;();(-2000.0, -2000.0);
03:27:14:739;03:27:14:714;1448289794.38;(0.6055554389953614, 0.7859594345092773);68.9401092529;1.0;0;0;0;0;0;0;0;0;0;();(-2000.0, -2000.0);
03:27:14:755;03:27:14:714;1448289794.38;(0.6055554389953614, 0.7859594345092773);68.9401092529;1.0;0;0;0;0;0;0;0;0;0;();(-2000.0, -2000.0);
03:27:14:788;03:27:14:758;1448289794.41;(0.605726671218872, 0.7857179005940755);69.4080505371;0.987133772376;0;0;0;0;0;0;0;0;0;();(-2000.0, -2000.0);
03:27:14:804;03:27:14:797;1448289794.44;(0.6061923027038574, 0.7847848256429036);69.7708053589;0.845220603088;0;0;0;0;0;0;0;0;0;();(-2000.0, -2000.0);
03:27:14:821;03:27:14:797;1448289794.44;(0.6061923027038574, 0.7847848256429036);69.7708053589;0.845220603088;0;0;0;0;0;0;0;0;0;();(-2000.0, -2000.0);
03:27:14:839;03:27:14:797;1448289794.44;(0.6061923027038574, 0.7847848256429036);69.7708053589;0.845220603088;0;0;0;0;0;0;0;0;0;();(-2000.0, -2000.0);
03:27:14:854;03:27:14:837;1448289794.48;(0, 0);0;0;0;0;0;0;0;0;0;0;0;();(-2000.0, -2000.0);
03:27:14:888;03:27:14:882;1448289794.54;(0, 0);0;0;0;0;0;0;0;0;0;0;0;();(-2000.0, -2000.0);
03:27:14:904;03:27:14:882;1448289794.54;(0, 0);0;0;0;0;0;0;0;0;0;0;0;();(-2000.0, -2000.0);
03:27:14:921;03:27:14:882;1448289794.54;(0, 0);0;0;0;0;0;0;0;0;0;0;0;();(-2000.0, -2000.0);
03:27:14:938;03:27:14:921;1448289794.58;(0.6103386402130127, 0.7791698667738173);72.3086013794;0.969506002534;0;0;0;0;0;0;0;0;0;();(-2000.0, -2000.0);
03:27:14:954;03:27:14:921;1448289794.58;(0.6103386402130127, 0.7791698667738173);72.3086013794;0.969506002534;0;0;0;0;0;0;0;0;0;();(-2000.0, -2000.0);
03:27:14:987;03:27:14:966;1448289794.61;(0.6107138633728028, 0.7788865195380317);73.4492874146;0.800686549356;0;0;0;0;0;0;0;0;0;();(-2000.0, -2000.0);
03:27:15:003;03:27:14:966;1448289794.61;(0.6107138633728028, 0.7788865195380317);73.4492874146;0.800686549356;0;0;0;0;0;0;0;0;0;();(-2000.0, -2000.0);
03:27:15:021;03:27:15:008;1448289794.68;(0.6109581470489502, 0.7784120559692382);73.7392044067;1.0;0;0;0;0;0;0;0;0;0;();(-2000.0, -2000.0);
03:27:15:037;03:27:15:008;1448289794.68;(0.6109581470489502, 0.7784120559692382);73.7392044067;1.0;0;0;0;0;0;0;0;0;0;();(-2000.0, -2000.0);
03:27:15:053;03:27:15:044;1448289794.71;(0.610926628112793, 0.7781238343980577);73.819694519;1.0;0;0;0;0;0;0;0;0;0;();(-2000.0, -2000.0);
03:27:15:087;03:27:15:044;1448289794.71;(0.610926628112793, 0.7781238343980577);73.819694519;1.0;0;0;0;0;0;0;0;0;0;();(-2000.0, -2000.0);
03:27:15:104;03:27:15:089;1448289794.74;(0.6099759578704834, 0.777635023328993);73.6516265869;0.887413131836;0;0;0;0;0;0;0;0;0;();(-2000.0, -2000.0);
03:27:15:119;03:27:15:089;1448289794.74;(0.6099759578704834, 0.777635023328993);73.6516265869;0.887413131836;0;0;0;0;0;0;0;0;0;();(-2000.0, -2000.0);
03:27:15:136;03:27:15:128;1448289794.78;(0.6151732921600341, 0.7725592931111653);75.1349258423;0.896028964354;0;0;0;0;0;0;0;0;0;();(-2000.0, -2000.0);
03:27:15:170;03:27:15:128;1448289794.78;(0.6151732921600341, 0.7725592931111653);75.1349258423;0.896028964354;0;0;0;0;0;0;0;0;0;();(-2000.0, -2000.0);
03:27:15:185;03:27:15:168;1448289794.81;(0.9011095046997071, 0.5775291442871093);21.9191398621;0.742068015357;0;0;0;0;0;0;0;0;0;();(-2000.0, -2000.0);
03:27:15:202;03:27:15:168;1448289794.81;(0.9011095046997071, 0.5775291442871093);21.9191398621;0.742068015357;0;0;0;0;0;0;0;0;0;();(-2000.0, -2000.0);
03:27:15:219;03:27:15:213;1448289794.88;(0, 0);0;0;0;0;0;0;0;0;0;0;0;();(-2000.0, -2000.0);
03:27:15:235;03:27:15:213;1448289794.88;(0, 0);0;0;0;0;0;0;0;0;0;0;0;();(-2000.0, -2000.0);
03:27:15:268;03:27:15:213;1448289794.88;(0, 0);0;0;0;0;0;0;0;0;0;0;0;();(-2000.0, -2000.0);
03:27:15:285;03:27:15:213;1448289794.88;(0, 0);0;0;0;0;0;0;0;0;0;0;0;();(-2000.0, -2000.0);
03:27:15:301;03:27:15:296;1448289794.91;(0.5481115818023682, 0.8208118438720703);22.1942806244;0.932541613701;0;0;0;0;0;0;0;0;0;();(-2000.0, -2000.0);
03:27:15:318;03:27:15:296;1448289794.91;(0.5481115818023682, 0.8208118438720703);22.1942806244;0.932541613701;0;0;0;0;0;0;0;0;0;();(-2000.0, -2000.0);
03:27:15:335;03:27:15:296;1448289794.91;(0.5481115818023682, 0.8208118438720703);22.1942806244;0.932541613701;0;0;0;0;0;0;0;0;0;();(-2000.0, -2000.0);
03:27:15:368;03:27:15:338;1448289794.95;(0.8572014808654785, 0.7917726092868381);24.3731746674;0.696832182987;0;0;0;0;0;0;0;0;0;();(-2000.0, -2000.0);
03:27:15:384;03:27:15:376;1448289795.01;(0.6518397331237793, 0.6885436375935872);77.1268157959;0.837429682624;0;0;0;0;0;0;0;0;0;();(-2000.0, -2000.0);
03:27:15:401;03:27:15:376;1448289795.01;(0.6518397331237793, 0.6885436375935872);77.1268157959;0.837429682624;0;0;0;0;0;0;0;0;0;();(-2000.0, -2000.0);
03:27:15:417;03:27:15:376;1448289795.01;(0.6518397331237793, 0.6885436375935872);77.1268157959;0.837429682624;0;0;0;0;0;0;0;0;0;();(-2000.0, -2000.0);
03:27:15:434;03:27:15:423;1448289795.08;(0.6525247097015381, 0.6886547088623047);77.2690353394;0.914356149619;0;0;0;0;0;0;0;0;0;();(-2000.0, -2000.0);
03:27:15:467;03:27:15:460;1448289795.11;(0.6532582759857177, 0.6889027913411458);77.5552139282;0.93944770647;0;0;0;0;0;0;0;0;0;();(-2000.0, -2000.0);
03:27:15:484;03:27:15:460;1448289795.11;(0.6532582759857177, 0.6889027913411458);77.5552139282;0.93944770647;0;0;0;0;0;0;0;0;0;();(-2000.0, -2000.0);
03:27:15:501;03:27:15:460;1448289795.11;(0.6532582759857177, 0.6889027913411458);77.5552139282;0.93944770647;0;0;0;0;0;0;0;0;0;();(-2000.0, -2000.0);
03:27:15:517;03:27:15:501;1448289795.14;(0.6550072193145752, 0.6894412570529513);77.2211380005;0.764708423924;0;0;0;0;0;0;0;0;0;();(-2000.0, -2000.0);
03:27:15:534;03:27:15:501;1448289795.14;(0.6550072193145752, 0.6894412570529513);77.2211380005;0.764708423924;0;0;0;0;0;0;0;0;0;();(-2000.0, -2000.0);
03:27:15:567;03:27:15:544;1448289795.18;(0, 0);0;0;0;0;0;0;0;0;0;0;0;();(-2000.0, -2000.0);
03:27:15:583;03:27:15:544;1448289795.18;(0, 0);0;0;0;0;0;0;0;0;0;0;0;();(-2000.0, -2000.0);
03:27:15:600;03:27:15:544;1448289795.18;(0, 0);0;0;0;0;0;0;0;0;0;0;0;();(-2000.0, -2000.0);
03:27:15:616;03:27:15:544;1448289795.18;(0, 0);0;0;0;0;0;0;0;0;0;0;0;();(-2000.0, -2000.0);
03:27:15:633;03:27:15:625;1448289795.22;(0.6552404403686524, 0.6948522143893772);80.6784362793;0.854146605666;0;0;0;0;0;0;0;0;0;();(-2000.0, -2000.0);
03:27:15:666;03:27:15:625;1448289795.22;(0.6552404403686524, 0.6948522143893772);80.6784362793;0.854146605666;0;0;0;0;0;0;0;0;0;();(-2000.0, -2000.0);
03:27:15:683;03:27:15:625;1448289795.22;(0.6552404403686524, 0.6948522143893772);80.6784362793;0.854146605666;0;0;0;0;0;0;0;0;0;();(-2000.0, -2000.0);
03:27:15:699;03:27:15:625;1448289795.22;(0.6552404403686524, 0.6948522143893772);80.6784362793;0.854146605666;0;0;0;0;0;0;0;0;0;();(-2000.0, -2000.0);
03:27:15:716;03:27:15:709;1448289795.36;(0.6562880992889404, 0.699164538913303);74.790512085;0.962469172837;0;0;0;0;0;0;0;0;0;();(-2000.0, -2000.0);
03:27:15:749;03:27:15:709;1448289795.36;(0.6562880992889404, 0.699164538913303);74.790512085;0.962469172837;0;0;0;0;0;0;0;0;0;();(-2000.0, -2000.0);
03:27:15:766;03:27:15:709;1448289795.36;(0.6562880992889404, 0.699164538913303);74.790512085;0.962469172837;0;0;0;0;0;0;0;0;0;();(-2000.0, -2000.0);
03:27:15:782;03:27:15:774;1448289795.39;(0.6555099010467529, 0.6999511506822373);74.6994552612;0.863523743854;0;0;0;0;0;0;0;0;0;();(-2000.0, -2000.0);
03:27:15:798;03:27:15:793;1448289795.41;(0.6530064582824707, 0.7005994160970053);71.8061447144;0.656984834401;0;0;0;0;0;0;0;0;0;();(-2000.0, -2000.0);
03:27:15:815;03:27:15:793;1448289795.41;(0.6530064582824707, 0.7005994160970053);71.8061447144;0.656984834401;0;0;0;0;0;0;0;0;0;();(-2000.0, -2000.0);
03:27:15:848;03:27:15:835;1448289795.51;(0.6406355381011963, 0.7155259026421441);73.114616394;0.854744285674;0;0;0;0;0;0;0;0;0;();(-2000.0, -2000.0);
03:27:15:865;03:27:15:835;1448289795.51;(0.6406355381011963, 0.7155259026421441);73.114616394;0.854744285674;0;0;0;0;0;0;0;0;0;();(-2000.0, -2000.0);
03:27:15:881;03:27:15:835;1448289795.51;(0.6406355381011963, 0.7155259026421441);73.114616394;0.854744285674;0;0;0;0;0;0;0;0;0;();(-2000.0, -2000.0);
03:27:15:898;03:27:15:882;1448289795.54;(0.6409151554107666, 0.7154020733303494);72.1550064087;0.865392137239;0;0;0;0;0;0;0;0;0;();(-2000.0, -2000.0);
03:27:15:914;03:27:15:882;1448289795.54;(0.6409151554107666, 0.7154020733303494);72.1550064087;0.865392137239;0;0;0;0;0;0;0;0;0;();(-2000.0, -2000.0);
03:27:15:947;03:27:15:918;1448289795.58;(0.641032600402832, 0.7161036173502604);71.602645874;0.840344072602;0;0;0;0;0;0;0;0;0;();(-2000.0, -2000.0);
03:27:15:964;03:27:15:956;1448289795.61;(0.6409988880157471, 0.7161254247029623);70.7734298706;0.818612897111;0;0;0;0;0;0;0;0;0;();(-2000.0, -2000.0);
03:27:15:981;03:27:15:956;1448289795.61;(0.6409988880157471, 0.7161254247029623);70.7734298706;0.818612897111;0;0;0;0;0;0;0;0;0;();(-2000.0, -2000.0);
03:27:15:997;03:27:15:956;1448289795.61;(0.6409988880157471, 0.7161254247029623);70.7734298706;0.818612897111;0;0;0;0;0;0;0;0;0;();(-2000.0, -2000.0);
03:27:16:014;03:27:16:000;1448289795.64;(0.6411959648132324, 0.7167145623101128);69.8049850464;0.831593400538;0;0;0;0;0;0;0;0;0;();(-2000.0, -2000.0);
03:27:16:047;03:27:16:040;1448289795.68;(0.6419354438781738, 0.716191906399197);67.9651260376;1.0;0;0;0;0;0;0;0;0;0;();(-2000.0, -2000.0);
03:27:16:063;03:27:16:040;1448289795.68;(0.6419354438781738, 0.716191906399197);67.9651260376;1.0;0;0;0;0;0;0;0;0;0;();(-2000.0, -2000.0);
03:27:16:080;03:27:16:040;1448289795.68;(0.6419354438781738, 0.716191906399197);67.9651260376;1.0;0;0;0;0;0;0;0;0;0;();(-2000.0, -2000.0);
03:27:16:097;03:27:16:087;1448289795.74;(0.6437221050262452, 0.7208674536810982);66.9225311279;0.799793495288;0;0;0;0;0;0;0;0;0;();(-2000.0, -2000.0);
03:27:16:114;03:27:16:087;1448289795.74;(0.6437221050262452, 0.7208674536810982);66.9225311279;0.799793495288;0;0;0;0;0;0;0;0;0;();(-2000.0, -2000.0);
03:27:16:146;03:27:16:087;1448289795.74;(0.6437221050262452, 0.7208674536810982);66.9225311279;0.799793495288;0;0;0;0;0;0;0;0;0;();(-2000.0, -2000.0);
03:27:16:163;03:27:16:087;1448289795.74;(0.6437221050262452, 0.7208674536810982);66.9225311279;0.799793495288;0;0;0;0;0;0;0;0;0;();(-2000.0, -2000.0);
03:27:16:179;03:27:16:167;1448289795.81;(0.6438600540161132, 0.7190668318006728);65.9497451782;0.722603206284;0;0;0;0;0;0;0;0;0;();(-2000.0, -2000.0);
03:27:16:196;03:27:16:167;1448289795.81;(0.6438600540161132, 0.7190668318006728);65.9497451782;0.722603206284;0;0;0;0;0;0;0;0;0;();(-2000.0, -2000.0);
03:27:16:213;03:27:16:208;1448289795.84;(0.6442196846008301, 0.7213596343994141);64.8718109131;0.858919264136;0;0;0;0;0;0;0;0;0;();(-2000.0, -2000.0);
03:27:16:246;03:27:16:208;1448289795.84;(0.6442196846008301, 0.7213596343994141);64.8718109131;0.858919264136;0;0;0;0;0;0;0;0;0;();(-2000.0, -2000.0);
03:27:16:262;03:27:16:249;1448289795.88;(0.643804407119751, 0.7221237394544813);65.4323501587;0.877848470548;0;0;0;0;0;0;0;0;0;();(-2000.0, -2000.0);
03:27:16:279;03:27:16:249;1448289795.88;(0.643804407119751, 0.7221237394544813);65.4323501587;0.877848470548;0;0;0;0;0;0;0;0;0;();(-2000.0, -2000.0);
03:27:16:295;03:27:16:289;1448289795.94;(0, 0);0;0;0;0;0;0;0;0;0;0;0;();(-2000.0, -2000.0);
03:27:16:328;03:27:16:289;1448289795.94;(0, 0);0;0;0;0;0;0;0;0;0;0;0;();(-2000.0, -2000.0);
03:27:16:345;03:27:16:332;1448289795.98;(0.657779598236084, 0.7340472963121203);74.3428726196;0.666519062115;0;0;0;0;0;0;0;0;0;();(-2000.0, -2000.0);
03:27:16:361;03:27:16:332;1448289795.98;(0.657779598236084, 0.7340472963121203);74.3428726196;0.666519062115;0;0;0;0;0;0;0;0;0;();(-2000.0, -2000.0);
03:27:16:378;03:27:16:374;1448289796.02;(0.6624879360198974, 0.7203746795654297);62.6479454041;0.953035861003;0;0;0;0;0;0;0;0;0;();(-2000.0, -2000.0);
03:27:16:395;03:27:16:374;1448289796.02;(0.6624879360198974, 0.7203746795654297);62.6479454041;0.953035861003;0;0;0;0;0;0;0;0;0;();(-2000.0, -2000.0);
03:27:16:429;03:27:16:416;1448289796.08;(0.6623727321624756, 0.7222322463989258);63.1718254089;0.951827338347;0;0;0;0;0;0;0;0;0;();(-2000.0, -2000.0);
03:27:16:445;03:27:16:416;1448289796.08;(0.6623727321624756, 0.7222322463989258);63.1718254089;0.951827338347;0;0;0;0;0;0;0;0;0;();(-2000.0, -2000.0);
03:27:16:462;03:27:16:457;1448289796.11;(0.6624015808105469, 0.7222276263766818);63.1018562317;1.0;0;0;0;0;0;0;0;0;0;();(-2000.0, -2000.0);
03:27:16:478;03:27:16:457;1448289796.11;(0.6624015808105469, 0.7222276263766818);63.1018562317;1.0;0;0;0;0;0;0;0;0;0;();(-2000.0, -2000.0);
03:27:16:494;03:27:16:457;1448289796.11;(0.6624015808105469, 0.7222276263766818);63.1018562317;1.0;0;0;0;0;0;0;0;0;0;();(-2000.0, -2000.0);
03:27:16:528;03:27:16:497;1448289796.14;(0.6620895862579346, 0.7230951944986979);63.3739738464;1.0;0;0;0;0;0;0;0;0;0;();(-2000.0, -2000.0);
03:27:16:546;03:27:16:541;1448289796.18;(0.6620850086212158, 0.7237048467000325);63.4976501465;0.980375400259;0;0;0;0;0;0;0;0;0;();(-2000.0, -2000.0);
03:27:16:561;03:27:16:542;1448289796.21;(0.6612004280090332, 0.7250776290893555);64.123298645;0.845362347474;0;0;0;0;0;0;0;0;0;();(-2000.0, -2000.0);
03:27:16:577;03:27:16:542;1448289796.21;(0.6612004280090332, 0.7250776290893555);64.123298645;0.845362347474;0;0;0;0;0;0;0;0;0;();(-2000.0, -2000.0);
03:27:16:594;03:27:16:542;1448289796.21;(0.6612004280090332, 0.7250776290893555);64.123298645;0.845362347474;0;0;0;0;0;0;0;0;0;();(-2000.0, -2000.0);
03:27:16:627;03:27:16:604;1448289796.24;(0.6603225231170654, 0.725514539082845);63.6848526001;0.812243701551;0;0;0;0;0;0;0;0;0;();(-2000.0, -2000.0);
03:27:16:644;03:27:16:604;1448289796.24;(0.6603225231170654, 0.725514539082845);63.6848526001;0.812243701551;0;0;0;0;0;0;0;0;0;();(-2000.0, -2000.0);
03:27:16:660;03:27:16:604;1448289796.24;(0.6603225231170654, 0.725514539082845);63.6848526001;0.812243701551;0;0;0;0;0;0;0;0;0;();(-2000.0, -2000.0);
03:27:16:676;03:27:16:666;1448289796.31;(0.708745813369751, 0.6979397455851237);62.4583282471;0.758765058306;0;0;0;0;0;0;0;0;0;();(-2000.0, -2000.0);
03:27:16:693;03:27:16:666;1448289796.31;(0.708745813369751, 0.6979397455851237);62.4583282471;0.758765058306;0;0;0;0;0;0;0;0;0;();(-2000.0, -2000.0);
03:27:16:726;03:27:16:666;1448289796.31;(0.708745813369751, 0.6979397455851237);62.4583282471;0.758765058306;0;0;0;0;0;0;0;0;0;();(-2000.0, -2000.0);
03:27:16:743;03:27:16:666;1448289796.31;(0.708745813369751, 0.6979397455851237);62.4583282471;0.758765058306;0;0;0;0;0;0;0;0;0;();(-2000.0, -2000.0);
03:27:16:759;03:27:16:747;1448289796.4;(0.705860948562622, 0.7018923865424262);63.7668190002;0.734761938827;0;0;0;0;0;0;0;0;0;();(-2000.0, -2000.0);
03:27:16:776;03:27:16:747;1448289796.4;(0.705860948562622, 0.7018923865424262);63.7668190002;0.734761938827;0;0;0;0;0;0;0;0;0;();(-2000.0, -2000.0);
03:27:16:810;03:27:16:792;1448289796.45;(0.6979738712310791, 0.7087165832519531);64.2917251587;0.855955248093;0;0;0;0;0;0;0;0;0;();(-2000.0, -2000.0);
03:27:16:826;03:27:16:792;1448289796.45;(0.6979738712310791, 0.7087165832519531);64.2917251587;0.855955248093;0;0;0;0;0;0;0;0;0;();(-2000.0, -2000.0);
03:27:16:842;03:27:16:829;1448289796.48;(0.6940951824188233, 0.7106524997287327);66.0149078369;0.896621885917;0;0;0;0;0;0;0;0;0;();(-2000.0, -2000.0);
03:27:16:859;03:27:16:829;1448289796.48;(0.6940951824188233, 0.7106524997287327);66.0149078369;0.896621885917;0;0;0;0;0;0;0;0;0;();(-2000.0, -2000.0);
03:27:16:876;03:27:16:829;1448289796.48;(0.6940951824188233, 0.7106524997287327);66.0149078369;0.896621885917;0;0;0;0;0;0;0;0;0;();(-2000.0, -2000.0);
03:27:16:908;03:27:16:878;1448289796.51;(0.6893949031829834, 0.7124094857109917);66.2696151733;1.0;0;0;0;0;0;0;0;0;0;();(-2000.0, -2000.0);
03:27:16:925;03:27:16:914;1448289796.58;(0.6844839572906494, 0.7185621897379557);67.5219650269;0.906412673845;0;0;0;0;0;0;0;0;0;();(-2000.0, -2000.0);
03:27:16:942;03:27:16:914;1448289796.58;(0.6844839572906494, 0.7185621897379557);67.5219650269;0.906412673845;0;0;0;0;0;0;0;0;0;();(-2000.0, -2000.0);
03:27:16:958;03:27:16:952;1448289796.61;(0.6813764572143555, 0.7209480285644532);69.7597045898;0.876145072015;0;0;0;0;0;0;0;0;0;();(-2000.0, -2000.0);
03:27:16:975;03:27:16:952;1448289796.61;(0.6813764572143555, 0.7209480285644532);69.7597045898;0.876145072015;0;0;0;0;0;0;0;0;0;();(-2000.0, -2000.0);
03:27:17:008;03:27:16:999;1448289796.64;(0.6799959659576416, 0.7182443618774415);68.5193634033;0.941569704256;0;0;0;0;0;0;0;0;0;();(-2000.0, -2000.0);
03:27:17:025;03:27:16:999;1448289796.64;(0.6799959659576416, 0.7182443618774415);68.5193634033;0.941569704256;0;0;0;0;0;0;0;0;0;();(-2000.0, -2000.0);
03:27:17:041;03:27:17:036;1448289796.68;(0.6802712917327881, 0.719839604695638);68.9616546631;0.958091372648;0;0;0;0;0;0;0;0;0;();(-2000.0, -2000.0);
03:27:17:058;03:27:17:036;1448289796.68;(0.6802712917327881, 0.719839604695638);68.9616546631;0.958091372648;0;0;0;0;0;0;0;0;0;();(-2000.0, -2000.0);
03:27:17:075;03:27:17:036;1448289796.68;(0.6802712917327881, 0.719839604695638);68.9616546631;0.958091372648;0;0;0;0;0;0;0;0;0;();(-2000.0, -2000.0);
03:27:17:108;03:27:17:078;1448289796.71;(0.6755524158477784, 0.7251462936401367);64.7804946899;0.754707852803;0;0;0;0;0;0;0;0;0;();(-2000.0, -2000.0);
03:27:17:125;03:27:17:120;1448289796.74;(0, 0);0;0;0;0;0;0;0;0;0;0;0;();(-2000.0, -2000.0);
03:27:17:141;03:27:17:122;1448289796.78;(0.6224884986877441, 0.7971256573994955);68.4078063965;0.923771481257;0;0;0;0;0;0;0;0;0;();(-2000.0, -2000.0);
03:27:17:157;03:27:17:122;1448289796.78;(0.6224884986877441, 0.7971256573994955);68.4078063965;0.923771481257;0;0;0;0;0;0;0;0;0;();(-2000.0, -2000.0);
03:27:17:174;03:27:17:169;1448289796.81;(0.6214758872985839, 0.7967551125420465);69.7102584839;1.0;0;0;0;0;0;0;0;0;0;();(-2000.0, -2000.0);
03:27:17:208;03:27:17:169;1448289796.81;(0.6214758872985839, 0.7967551125420465);69.7102584839;1.0;0;0;0;0;0;0;0;0;0;();(-2000.0, -2000.0);
03:27:17:225;03:27:17:169;1448289796.81;(0.6214758872985839, 0.7967551125420465);69.7102584839;1.0;0;0;0;0;0;0;0;0;0;();(-2000.0, -2000.0);
03:27:17:240;03:27:17:223;1448289796.88;(0.620074462890625, 0.7941048092312283);69.4589767456;0.686320366576;0;0;0;0;0;0;0;0;0;();(-2000.0, -2000.0);
03:27:17:256;03:27:17:223;1448289796.88;(0.620074462890625, 0.7941048092312283);69.4589767456;0.686320366576;0;0;0;0;0;0;0;0;0;();(-2000.0, -2000.0);
03:27:17:273;03:27:17:268;1448289796.91;(0, 0);0;0;0;0;0;0;0;0;0;0;0;();(-2000.0, -2000.0);
03:27:17:306;03:27:17:268;1448289796.91;(0, 0);0;0;0;0;0;0;0;0;0;0;0;();(-2000.0, -2000.0);
03:27:17:323;03:27:17:268;1448289796.91;(0, 0);0;0;0;0;0;0;0;0;0;0;0;();(-2000.0, -2000.0);
03:27:17:340;03:27:17:324;1448289796.98;(0, 0);0;0;0;0;0;0;0;0;0;0;0;();(-2000.0, -2000.0);
03:27:17:356;03:27:17:324;1448289796.98;(0, 0);0;0;0;0;0;0;0;0;0;0;0;();(-2000.0, -2000.0);
03:27:17:389;03:27:17:368;1448289797.01;(0.6175695896148682, 0.7957500351799859);73.284576416;0.84258651003;0;0;0;0;0;0;0;0;0;();(-2000.0, -2000.0);
03:27:17:406;03:27:17:368;1448289797.01;(0.6175695896148682, 0.7957500351799859);73.284576416;0.84258651003;0;0;0;0;0;0;0;0;0;();(-2000.0, -2000.0);
03:27:17:422;03:27:17:368;1448289797.01;(0.6175695896148682, 0.7957500351799859);73.284576416;0.84258651003;0;0;0;0;0;0;0;0;0;();(-2000.0, -2000.0);
03:27:17:439;03:27:17:426;1448289797.08;(0.6189831256866455, 0.7957455423143175);72.621635437;0.853398590631;0;0;0;0;0;0;0;0;0;();(-2000.0, -2000.0);
03:27:17:455;03:27:17:426;1448289797.08;(0.6189831256866455, 0.7957455423143175);72.621635437;0.853398590631;0;0;0;0;0;0;0;0;0;();(-2000.0, -2000.0);
03:27:17:489;03:27:17:469;1448289797.14;(0.6179076671600342, 0.7945456504821777);72.4385375977;0.897426856016;0;0;0;0;0;0;0;0;0;();(-2000.0, -2000.0);
03:27:17:505;03:27:17:469;1448289797.14;(0.6179076671600342, 0.7945456504821777);72.4385375977;0.897426856016;0;0;0;0;0;0;0;0;0;();(-2000.0, -2000.0);
03:27:17:522;03:27:17:469;1448289797.14;(0.6179076671600342, 0.7945456504821777);72.4385375977;0.897426856016;0;0;0;0;0;0;0;0;0;();(-2000.0, -2000.0);
03:27:17:539;03:27:17:527;1448289797.18;(0, 0);0;0;0;0;0;0;0;0;0;0;0;();(-2000.0, -2000.0);
03:27:17:555;03:27:17:527;1448289797.18;(0, 0);0;0;0;0;0;0;0;0;0;0;0;();(-2000.0, -2000.0);
03:27:17:588;03:27:17:569;1448289797.21;(0, 0);0;0;0;0;0;0;0;0;0;0;0;();(-2000.0, -2000.0);
03:27:17:604;03:27:17:569;1448289797.21;(0, 0);0;0;0;0;0;0;0;0;0;0;0;();(-2000.0, -2000.0);
03:27:17:621;03:27:17:569;1448289797.21;(0, 0);0;0;0;0;0;0;0;0;0;0;0;();(-2000.0, -2000.0);
03:27:17:637;03:27:17:627;1448289797.28;(0.596938943862915, 0.781961547003852);73.8031463623;1.0;0;0;0;0;0;0;0;0;0;();(-2000.0, -2000.0);
03:27:17:654;03:27:17:627;1448289797.28;(0.596938943862915, 0.781961547003852);73.8031463623;1.0;0;0;0;0;0;0;0;0;0;();(-2000.0, -2000.0);
03:27:17:687;03:27:17:668;1448289797.31;(0.6743378162384033, 0.7246534983317057);27.7577323914;0.60689190082;0;0;0;0;0;0;0;0;0;();(-2000.0, -2000.0);
03:27:17:704;03:27:17:668;1448289797.31;(0.6743378162384033, 0.7246534983317057);27.7577323914;0.60689190082;0;0;0;0;0;0;0;0;0;();(-2000.0, -2000.0);
03:27:17:721;03:27:17:716;1448289797.34;(0, 0);0;0;0;0;0;0;0;0;0;0;0;();(-2000.0, -2000.0);
03:27:17:737;03:27:17:717;1448289797.38;(0.6255041599273682, 0.7531511730617947);44.0501327515;0.645173553885;0;0;0;0;0;0;0;0;0;();(-2000.0, -2000.0);
03:27:17:753;03:27:17:717;1448289797.38;(0.6255041599273682, 0.7531511730617947);44.0501327515;0.645173553885;0;0;0;0;0;0;0;0;0;();(-2000.0, -2000.0);
03:27:17:787;03:27:17:769;1448289797.41;(0.6145772457122802, 0.796014838748508);74.5866241455;0.836808623505;0;0;0;0;0;0;0;0;0;();(-2000.0, -2000.0);
03:27:17:804;03:27:17:769;1448289797.41;(0.6145772457122802, 0.796014838748508);74.5866241455;0.836808623505;0;0;0;0;0;0;0;0;0;();(-2000.0, -2000.0);
03:27:17:826;03:27:17:769;1448289797.41;(0.6145772457122802, 0.796014838748508);74.5866241455;0.836808623505;0;0;0;0;0;0;0;0;0;();(-2000.0, -2000.0);
03:27:17:837;03:27:17:818;1448289797.44;(0.6289141178131104, 0.7889375686645508);67.341255188;0.601240541262;0;0;0;0;0;0;0;0;0;();(-2000.0, -2000.0);
03:27:17:853;03:27:17:818;1448289797.44;(0.6289141178131104, 0.7889375686645508);67.341255188;0.601240541262;0;0;0;0;0;0;0;0;0;();(-2000.0, -2000.0);
03:27:17:886;03:27:17:865;1448289797.51;(0.6312406063079834, 0.8000561184353299);75.4358673096;0.78523509402;0;0;0;0;0;0;0;0;0;();(-2000.0, -2000.0);
03:27:17:903;03:27:17:865;1448289797.51;(0.6312406063079834, 0.8000561184353299);75.4358673096;0.78523509402;0;0;0;0;0;0;0;0;0;();(-2000.0, -2000.0);
03:27:17:920;03:27:17:865;1448289797.51;(0.6312406063079834, 0.8000561184353299);75.4358673096;0.78523509402;0;0;0;0;0;0;0;0;0;();(-2000.0, -2000.0);
03:27:17:936;03:27:17:923;1448289797.58;(0.6369550228118896, 0.7947471088833279);75.3772964478;0.795289603982;0;0;0;0;0;0;0;0;0;();(-2000.0, -2000.0);
03:27:17:969;03:27:17:964;1448289797.61;(0.6392921924591064, 0.789675055609809);74.93800354;0.992475276348;0;0;0;0;0;0;0;0;0;();(-2000.0, -2000.0);
03:27:17:986;03:27:17:964;1448289797.61;(0.6392921924591064, 0.789675055609809);74.93800354;0.992475276348;0;0;0;0;0;0;0;0;0;();(-2000.0, -2000.0);
03:27:18:003;03:27:17:964;1448289797.61;(0.6392921924591064, 0.789675055609809);74.93800354;0.992475276348;0;0;0;0;0;0;0;0;0;();(-2000.0, -2000.0);
03:27:18:018;03:27:17:964;1448289797.61;(0.6392921924591064, 0.789675055609809);74.93800354;0.992475276348;0;0;0;0;0;0;0;0;0;();(-2000.0, -2000.0);
03:27:18:035;03:27:18:024;1448289797.68;(0.6432231426239013, 0.7909056769476996);74.5078125;0.719287161155;0;0;0;0;0;0;0;0;0;();(-2000.0, -2000.0);
03:27:18:069;03:27:18:024;1448289797.68;(0.6432231426239013, 0.7909056769476996);74.5078125;0.719287161155;0;0;0;0;0;0;0;0;0;();(-2000.0, -2000.0);
03:27:18:084;03:27:18:066;1448289797.71;(0.6445551872253418, 0.7868489371405707);75.3057937622;0.773449934995;0;0;0;0;0;0;0;0;0;();(-2000.0, -2000.0);
03:27:18:101;03:27:18:066;1448289797.71;(0.6445551872253418, 0.7868489371405707);75.3057937622;0.773449934995;0;0;0;0;0;0;0;0;0;();(-2000.0, -2000.0);
03:27:18:118;03:27:18:066;1448289797.71;(0.6445551872253418, 0.7868489371405707);75.3057937622;0.773449934995;0;0;0;0;0;0;0;0;0;();(-2000.0, -2000.0);
03:27:18:135;03:27:18:130;1448289797.78;(0, 0);0;0;0;0;0;0;0;0;0;0;0;();(-2000.0, -2000.0);
03:27:18:169;03:27:18:164;1448289797.81;(0.649590253829956, 0.7858229319254557);73.8915328979;0.794715904609;0;0;0;0;0;0;0;0;0;();(-2000.0, -2000.0);
03:27:18:184;03:27:18:164;1448289797.81;(0.649590253829956, 0.7858229319254557);73.8915328979;0.794715904609;0;0;0;0;0;0;0;0;0;();(-2000.0, -2000.0);
03:27:18:201;03:27:18:164;1448289797.81;(0.649590253829956, 0.7858229319254557);73.8915328979;0.794715904609;0;0;0;0;0;0;0;0;0;();(-2000.0, -2000.0);
03:27:18:218;03:27:18:164;1448289797.81;(0.649590253829956, 0.7858229319254557);73.8915328979;0.794715904609;0;0;0;0;0;0;0;0;0;();(-2000.0, -2000.0);
03:27:18:234;03:27:18:218;1448289797.88;(0.6506699562072754, 0.7842416551378038);73.6142501831;0.792802246713;0;0;0;0;0;0;0;0;0;();(-2000.0, -2000.0);
03:27:18:267;03:27:18:218;1448289797.88;(0.6506699562072754, 0.7842416551378038);73.6142501831;0.792802246713;0;0;0;0;0;0;0;0;0;();(-2000.0, -2000.0);
03:27:18:284;03:27:18:267;1448289797.91;(0.6514037132263184, 0.7883040957980686);74.6742935181;0.663493741361;0;0;0;0;0;0;0;0;0;();(-2000.0, -2000.0);
03:27:18:301;03:27:18:267;1448289797.91;(0.6514037132263184, 0.7883040957980686);74.6742935181;0.663493741361;0;0;0;0;0;0;0;0;0;();(-2000.0, -2000.0);
03:27:18:317;03:27:18:267;1448289797.91;(0.6514037132263184, 0.7883040957980686);74.6742935181;0.663493741361;0;0;0;0;0;0;0;0;0;();(-2000.0, -2000.0);
03:27:18:333;03:27:18:322;1448289797.98;(0.6236773490905761, 0.7661199569702148);73.2794113159;0.638517522354;0;0;0;0;0;0;0;0;0;();(-2000.0, -2000.0);
03:27:18:367;03:27:18:322;1448289797.98;(0.6236773490905761, 0.7661199569702148);73.2794113159;0.638517522354;0;0;0;0;0;0;0;0;0;();(-2000.0, -2000.0);
03:27:18:383;03:27:18:365;1448289798.01;(0, 0);0;0;0;0;0;0;0;0;0;0;0;();(-2000.0, -2000.0);
03:27:18:400;03:27:18:365;1448289798.01;(0, 0);0;0;0;0;0;0;0;0;0;0;0;();(-2000.0, -2000.0);
03:27:18:416;03:27:18:365;1448289798.01;(0, 0);0;0;0;0;0;0;0;0;0;0;0;();(-2000.0, -2000.0);
03:27:18:432;03:27:18:417;1448289798.04;(0.6252393245697021, 0.7725362353854709);74.3070144653;0.724369881174;0;0;0;0;0;0;0;0;0;();(-2000.0, -2000.0);
03:27:18:467;03:27:18:417;1448289798.04;(0.6252393245697021, 0.7725362353854709);74.3070144653;0.724369881174;0;0;0;0;0;0;0;0;0;();(-2000.0, -2000.0);
03:27:18:483;03:27:18:466;1448289798.11;(0, 0);0;0;0;0;0;0;0;0;0;0;0;();(-2000.0, -2000.0);
03:27:18:499;03:27:18:466;1448289798.11;(0, 0);0;0;0;0;0;0;0;0;0;0;0;();(-2000.0, -2000.0);
03:27:18:516;03:27:18:466;1448289798.11;(0, 0);0;0;0;0;0;0;0;0;0;0;0;();(-2000.0, -2000.0);
03:27:18:548;03:27:18:520;1448289798.18;(0.6249114513397217, 0.7657482359144423);73.654586792;0.708527271923;0;0;0;0;0;0;0;0;0;();(-2000.0, -2000.0);
03:27:18:566;03:27:18:520;1448289798.18;(0.6249114513397217, 0.7657482359144423);73.654586792;0.708527271923;0;0;0;0;0;0;0;0;0;();(-2000.0, -2000.0);
03:27:18:582;03:27:18:566;1448289798.21;(0.6269697189331055, 0.7642091327243381);70.6100616455;0.693564055266;0;0;0;0;0;0;0;0;0;();(-2000.0, -2000.0);
03:27:18:599;03:27:18:566;1448289798.21;(0.6269697189331055, 0.7642091327243381);70.6100616455;0.693564055266;0;0;0;0;0;0;0;0;0;();(-2000.0, -2000.0);
03:27:18:616;03:27:18:566;1448289798.21;(0.6269697189331055, 0.7642091327243381);70.6100616455;0.693564055266;0;0;0;0;0;0;0;0;0;();(-2000.0, -2000.0);
03:27:18:648;03:27:18:615;1448289798.28;(0.6249959468841553, 0.7686669243706598);72.9641571045;0.854387695347;0;0;0;0;0;0;0;0;0;();(-2000.0, -2000.0);
03:27:18:665;03:27:18:615;1448289798.28;(0.6249959468841553, 0.7686669243706598);72.9641571045;0.854387695347;0;0;0;0;0;0;0;0;0;();(-2000.0, -2000.0);
03:27:18:682;03:27:18:673;1448289798.34;(0.6251789093017578, 0.7670217090182834);74.3342971802;0.852841244092;0;0;0;0;0;0;0;0;0;();(-2000.0, -2000.0);
03:27:18:698;03:27:18:673;1448289798.34;(0.6251789093017578, 0.7670217090182834);74.3342971802;0.852841244092;0;0;0;0;0;0;0;0;0;();(-2000.0, -2000.0);
03:27:18:716;03:27:18:673;1448289798.34;(0.6251789093017578, 0.7670217090182834);74.3342971802;0.852841244092;0;0;0;0;0;0;0;0;0;();(-2000.0, -2000.0);
03:27:18:750;03:27:18:713;1448289798.38;(0.646662712097168, 0.7423387951321072);74.3952484131;0.799789588906;0;0;0;0;0;0;0;0;0;();(-2000.0, -2000.0);
03:27:18:765;03:27:18:760;1448289798.41;(0.6479056358337403, 0.7332707087198893);75.0235214233;0.860471543008;0;0;0;0;0;0;0;0;0;();(-2000.0, -2000.0);
03:27:18:781;03:27:18:760;1448289798.41;(0.6479056358337403, 0.7332707087198893);75.0235214233;0.860471543008;0;0;0;0;0;0;0;0;0;();(-2000.0, -2000.0);
03:27:18:797;03:27:18:760;1448289798.41;(0.6479056358337403, 0.7332707087198893);75.0235214233;0.860471543008;0;0;0;0;0;0;0;0;0;();(-2000.0, -2000.0);
03:27:18:814;03:27:18:760;1448289798.41;(0.6479056358337403, 0.7332707087198893);75.0235214233;0.860471543008;0;0;0;0;0;0;0;0;0;();(-2000.0, -2000.0);
03:27:18:847;03:27:18:815;1448289798.48;(0.6495313167572021, 0.7329609129163954);74.3677139282;0.918678700376;0;0;0;0;0;0;0;0;0;();(-2000.0, -2000.0);
03:27:18:864;03:27:18:860;1448289798.51;(0.6496236801147461, 0.7329405042860243);74.3627700806;0.991241499926;0;0;0;0;0;0;0;0;0;();(-2000.0, -2000.0);
03:27:18:880;03:27:18:860;1448289798.51;(0.6496236801147461, 0.7329405042860243);74.3627700806;0.991241499926;0;0;0;0;0;0;0;0;0;();(-2000.0, -2000.0);
03:27:18:897;03:27:18:860;1448289798.51;(0.6496236801147461, 0.7329405042860243);74.3627700806;0.991241499926;0;0;0;0;0;0;0;0;0;();(-2000.0, -2000.0);
03:27:18:913;03:27:18:860;1448289798.51;(0.6496236801147461, 0.7329405042860243);74.3627700806;0.991241499926;0;0;0;0;0;0;0;0;0;();(-2000.0, -2000.0);
03:27:18:947;03:27:18:915;1448289798.58;(0.6500338554382324, 0.7333829667833116);74.3106842041;0.956603838033;0;0;0;0;0;0;0;0;0;();(-2000.0, -2000.0);
03:27:18:964;03:27:18:915;1448289798.58;(0.6500338554382324, 0.7333829667833116);74.3106842041;0.956603838033;0;0;0;0;0;0;0;0;0;();(-2000.0, -2000.0);
03:27:18:980;03:27:18:962;1448289798.61;(0.6501694202423096, 0.7332148869832357);74.3042755127;0.949212231237;0;0;0;0;0;0;0;0;0;();(-2000.0, -2000.0);
03:27:18:996;03:27:18:962;1448289798.61;(0.6501694202423096, 0.7332148869832357);74.3042755127;0.949212231237;0;0;0;0;0;0;0;0;0;();(-2000.0, -2000.0);
03:27:19:013;03:27:18:962;1448289798.61;(0.6501694202423096, 0.7332148869832357);74.3042755127;0.949212231237;0;0;0;0;0;0;0;0;0;();(-2000.0, -2000.0);
03:27:19:046;03:27:19:017;1448289798.68;(0.6498669147491455, 0.7336801528930664);74.494682312;0.948231175523;0;0;0;0;0;0;0;0;0;();(-2000.0, -2000.0);
03:27:19:062;03:27:19:017;1448289798.68;(0.6498669147491455, 0.7336801528930664);74.494682312;0.948231175523;0;0;0;0;0;0;0;0;0;();(-2000.0, -2000.0);
03:27:19:079;03:27:19:061;1448289798.71;(0.6496316909790039, 0.7339705573187933);74.248664856;1.0;0;0;0;0;0;0;0;0;0;();(-2000.0, -2000.0);
03:27:19:095;03:27:19:061;1448289798.71;(0.6496316909790039, 0.7339705573187933);74.248664856;1.0;0;0;0;0;0;0;0;0;0;();(-2000.0, -2000.0);
03:27:19:129;03:27:19:112;1448289798.74;(0.6501933574676514, 0.7335652457343207);74.1121292114;0.952505679323;0;0;0;0;0;0;0;0;0;();(-2000.0, -2000.0);
03:27:19:146;03:27:19:112;1448289798.74;(0.6501933574676514, 0.7335652457343207);74.1121292114;0.952505679323;0;0;0;0;0;0;0;0;0;();(-2000.0, -2000.0);
03:27:19:162;03:27:19:112;1448289798.74;(0.6501933574676514, 0.7335652457343207);74.1121292114;0.952505679323;0;0;0;0;0;0;0;0;0;();(-2000.0, -2000.0);
03:27:19:178;03:27:19:163;1448289798.81;(0.6699012756347656, 0.713884056939019);73.6185379028;0.850047692895;0;0;0;0;0;0;0;0;0;();(-2000.0, -2000.0);
03:27:19:194;03:27:19:163;1448289798.81;(0.6699012756347656, 0.713884056939019);73.6185379028;0.850047692895;0;0;0;0;0;0;0;0;0;();(-2000.0, -2000.0);
03:27:19:228;03:27:19:210;1448289798.88;(0.6709316730499267, 0.7145567999945747);73.3722915649;0.937408393008;0;0;0;0;0;0;0;0;0;();(-2000.0, -2000.0);
03:27:19:245;03:27:19:210;1448289798.88;(0.6709316730499267, 0.7145567999945747);73.3722915649;0.937408393008;0;0;0;0;0;0;0;0;0;();(-2000.0, -2000.0);
03:27:19:262;03:27:19:210;1448289798.88;(0.6709316730499267, 0.7145567999945747);73.3722915649;0.937408393008;0;0;0;0;0;0;0;0;0;();(-2000.0, -2000.0);
03:27:19:278;03:27:19:261;1448289798.91;(0.6709437847137452, 0.7146027247111002);72.9370193481;0.978417133127;0;0;0;0;0;0;0;0;0;();(-2000.0, -2000.0);
03:27:19:294;03:27:19:261;1448289798.91;(0.6709437847137452, 0.7146027247111002);72.9370193481;0.978417133127;0;0;0;0;0;0;0;0;0;();(-2000.0, -2000.0);
03:27:19:327;03:27:19:310;1448289798.98;(0.6715558528900146, 0.7143988715277778);72.2158966064;1.0;0;0;0;0;0;0;0;0;0;();(-2000.0, -2000.0);
03:27:19:344;03:27:19:310;1448289798.98;(0.6715558528900146, 0.7143988715277778);72.2158966064;1.0;0;0;0;0;0;0;0;0;0;();(-2000.0, -2000.0);
03:27:19:360;03:27:19:310;1448289798.98;(0.6715558528900146, 0.7143988715277778);72.2158966064;1.0;0;0;0;0;0;0;0;0;0;();(-2000.0, -2000.0);
03:27:19:377;03:27:19:363;1448289799.01;(0.6717202663421631, 0.7140419642130533);72.6542892456;1.0;0;0;0;0;0;0;0;0;0;();(-2000.0, -2000.0);
03:27:19:393;03:27:19:363;1448289799.01;(0.6717202663421631, 0.7140419642130533);72.6542892456;1.0;0;0;0;0;0;0;0;0;0;();(-2000.0, -2000.0);
03:27:19:427;03:27:19:410;1448289799.08;(0.671644926071167, 0.7135444853040906);72.5302505493;0.992060077294;0;0;0;0;0;0;0;0;0;();(-2000.0, -2000.0);
03:27:19:444;03:27:19:410;1448289799.08;(0.671644926071167, 0.7135444853040906);72.5302505493;0.992060077294;0;0;0;0;0;0;0;0;0;();(-2000.0, -2000.0);
03:27:19:460;03:27:19:410;1448289799.08;(0.671644926071167, 0.7135444853040906);72.5302505493;0.992060077294;0;0;0;0;0;0;0;0;0;();(-2000.0, -2000.0);
03:27:19:476;03:27:19:461;1448289799.11;(0.6714150905609131, 0.7144375907050239);72.8646850586;0.957759077693;0;0;0;0;0;0;0;0;0;();(-2000.0, -2000.0);
03:27:19:493;03:27:19:461;1448289799.11;(0.6714150905609131, 0.7144375907050239);72.8646850586;0.957759077693;0;0;0;0;0;0;0;0;0;();(-2000.0, -2000.0);
03:27:19:526;03:27:19:509;1448289799.18;(0.7014054775238037, 0.695222896999783);70.8297576904;0.845678131517;0;0;0;0;0;0;0;0;0;();(-2000.0, -2000.0);
03:27:19:543;03:27:19:509;1448289799.18;(0.7014054775238037, 0.695222896999783);70.8297576904;0.845678131517;0;0;0;0;0;0;0;0;0;();(-2000.0, -2000.0);
03:27:19:559;03:27:19:509;1448289799.18;(0.7014054775238037, 0.695222896999783);70.8297576904;0.845678131517;0;0;0;0;0;0;0;0;0;();(-2000.0, -2000.0);
03:27:19:576;03:27:19:565;1448289799.21;(0.3228928089141846, 0.7877759509616428);30.2587299347;0.729503058332;0;0;0;0;0;0;0;0;0;();(-2000.0, -2000.0);
03:27:19:609;03:27:19:565;1448289799.21;(0.3228928089141846, 0.7877759509616428);30.2587299347;0.729503058332;0;0;0;0;0;0;0;0;0;();(-2000.0, -2000.0);
03:27:19:626;03:27:19:609;1448289799.24;(0.7012764930725097, 0.6997350904676649);72.5783004761;0.950591322902;0;0;0;0;0;0;0;0;0;();(-2000.0, -2000.0);
03:27:19:642;03:27:19:609;1448289799.24;(0.7012764930725097, 0.6997350904676649);72.5783004761;0.950591322902;0;0;0;0;0;0;0;0;0;();(-2000.0, -2000.0);
03:27:19:658;03:27:19:609;1448289799.24;(0.7012764930725097, 0.6997350904676649);72.5783004761;0.950591322902;0;0;0;0;0;0;0;0;0;();(-2000.0, -2000.0);
03:27:19:675;03:27:19:661;1448289799.31;(0.7009493350982666, 0.7008396784464519);72.3121261597;0.926293076236;0;0;0;0;0;0;0;0;0;();(-2000.0, -2000.0);
03:27:19:708;03:27:19:661;1448289799.31;(0.7009493350982666, 0.7008396784464519);72.3121261597;0.926293076236;0;0;0;0;0;0;0;0;0;();(-2000.0, -2000.0);
03:27:19:725;03:27:19:713;1448289799.38;(0.6997024536132812, 0.7014629575941298);72.4450378418;0.915219513406;0;0;0;0;0;0;0;0;0;();(-2000.0, -2000.0);
03:27:19:741;03:27:19:713;1448289799.38;(0.6997024536132812, 0.7014629575941298);72.4450378418;0.915219513406;0;0;0;0;0;0;0;0;0;();(-2000.0, -2000.0);
03:27:19:758;03:27:19:713;1448289799.38;(0.6997024536132812, 0.7014629575941298);72.4450378418;0.915219513406;0;0;0;0;0;0;0;0;0;();(-2000.0, -2000.0);
03:27:19:775;03:27:19:764;1448289799.41;(0.7089121818542481, 0.6947267744276259);78.0839309692;0.990243485432;0;0;0;0;0;0;0;0;0;();(-2000.0, -2000.0);
03:27:19:808;03:27:19:764;1448289799.41;(0.7089121818542481, 0.6947267744276259);78.0839309692;0.990243485432;0;0;0;0;0;0;0;0;0;();(-2000.0, -2000.0);
03:27:19:824;03:27:19:813;1448289799.44;(0.7468406677246093, 0.654150750901964);74.0222320557;0.788803711838;0;0;0;0;0;0;0;0;0;();(-2000.0, -2000.0);
03:27:19:841;03:27:19:813;1448289799.44;(0.7468406677246093, 0.654150750901964);74.0222320557;0.788803711838;0;0;0;0;0;0;0;0;0;();(-2000.0, -2000.0);
03:27:19:859;03:27:19:813;1448289799.44;(0.7468406677246093, 0.654150750901964);74.0222320557;0.788803711838;0;0;0;0;0;0;0;0;0;();(-2000.0, -2000.0);
03:27:19:875;03:27:19:861;1448289799.51;(0.7639185905456543, 0.627762942843967);69.8963928223;0.996177920772;0;0;0;0;0;0;0;0;0;();(-2000.0, -2000.0);
03:27:19:907;03:27:19:861;1448289799.51;(0.7639185905456543, 0.627762942843967);69.8963928223;0.996177920772;0;0;0;0;0;0;0;0;0;();(-2000.0, -2000.0);
03:27:19:924;03:27:19:861;1448289799.51;(0.7639185905456543, 0.627762942843967);69.8963928223;0.996177920772;0;0;0;0;0;0;0;0;0;();(-2000.0, -2000.0);
03:27:19:944;03:27:19:861;1448289799.51;(0.7639185905456543, 0.627762942843967);69.8963928223;0.996177920772;0;0;0;0;0;0;0;0;0;();(-2000.0, -2000.0);
03:27:19:959;03:27:19:861;1448289799.51;(0.7639185905456543, 0.627762942843967);69.8963928223;0.996177920772;0;0;0;0;0;0;0;0;0;();(-2000.0, -2000.0);
03:27:19:976;03:27:19:861;1448289799.51;(0.7639185905456543, 0.627762942843967);69.8963928223;0.996177920772;0;0;0;0;0;0;0;0;0;();(-2000.0, -2000.0);
03:27:20:008;03:27:19:988;1448289799.54;(0.7656576633453369, 0.6208655251397026);70.1514968872;0.957291086756;0;0;0;0;0;0;0;0;0;();(-2000.0, -2000.0);
03:27:20:025;03:27:20:011;1448289799.65;(0.7570513248443603, 0.6243572023179795);69.7291183472;0.980810334681;0;0;0;0;0;0;0;0;0;();(-2000.0, -2000.0);
03:27:20:042;03:27:20:011;1448289799.65;(0.7570513248443603, 0.6243572023179795);69.7291183472;0.980810334681;0;0;0;0;0;0;0;0;0;();(-2000.0, -2000.0);
03:27:20:058;03:27:20:011;1448289799.65;(0.7570513248443603, 0.6243572023179795);69.7291183472;0.980810334681;0;0;0;0;0;0;0;0;0;();(-2000.0, -2000.0);
03:27:20:075;03:27:20:060;1448289799.73;(0.7483375549316407, 0.6301694869995117);68.8509292603;0.817266231469;0;0;0;0;0;0;0;0;0;();(-2000.0, -2000.0);
03:27:20:108;03:27:20:104;1448289799.74;(0.7452183723449707, 0.6320077048407661);69.1977767944;1.0;0;0;0;0;0;0;0;0;0;();(-2000.0, -2000.0);
03:27:20:125;03:27:20:104;1448289799.74;(0.7452183723449707, 0.6320077048407661);69.1977767944;1.0;0;0;0;0;0;0;0;0;0;();(-2000.0, -2000.0);
03:27:20:142;03:27:20:104;1448289799.74;(0.7452183723449707, 0.6320077048407661);69.1977767944;1.0;0;0;0;0;0;0;0;0;0;();(-2000.0, -2000.0);
03:27:20:158;03:27:20:104;1448289799.74;(0.7452183723449707, 0.6320077048407661);69.1977767944;1.0;0;0;0;0;0;0;0;0;0;();(-2000.0, -2000.0);
03:27:20:174;03:27:20:158;1448289799.81;(0.7412629127502441, 0.6358773761325412);68.6003494263;1.0;0;0;0;0;0;0;0;0;0;();(-2000.0, -2000.0);
03:27:20:208;03:27:20:204;1448289799.84;(0.7404933452606202, 0.6373062981499567);69.0781555176;0.857494751878;0;0;0;0;0;0;0;0;0;();(-2000.0, -2000.0);
03:27:20:224;03:27:20:204;1448289799.84;(0.7404933452606202, 0.6373062981499567);69.0781555176;0.857494751878;0;0;0;0;0;0;0;0;0;();(-2000.0, -2000.0);
03:27:20:241;03:27:20:204;1448289799.84;(0.7404933452606202, 0.6373062981499567);69.0781555176;0.857494751878;0;0;0;0;0;0;0;0;0;();(-2000.0, -2000.0);
03:27:20:258;03:27:20:204;1448289799.84;(0.7404933452606202, 0.6373062981499567);69.0781555176;0.857494751878;0;0;0;0;0;0;0;0;0;();(-2000.0, -2000.0);
03:27:20:274;03:27:20:261;1448289799.91;(0.7382708549499511, 0.6393675062391493);66.0101013184;0.903982180647;0;0;0;0;0;0;0;0;0;();(-2000.0, -2000.0);
03:27:20:308;03:27:20:261;1448289799.91;(0.7382708549499511, 0.6393675062391493);66.0101013184;0.903982180647;0;0;0;0;0;0;0;0;0;();(-2000.0, -2000.0);
03:27:20:323;03:27:20:305;1448289799.94;(0, 0);0;0;0;0;0;0;0;0;0;0;0;();(-2000.0, -2000.0);
03:27:20:340;03:27:20:305;1448289799.94;(0, 0);0;0;0;0;0;0;0;0;0;0;0;();(-2000.0, -2000.0);
03:27:20:356;03:27:20:305;1448289799.94;(0, 0);0;0;0;0;0;0;0;0;0;0;0;();(-2000.0, -2000.0);
03:27:20:373;03:27:20:362;1448289800.01;(0.7235756397247315, 0.6673636330498589);68.0032577515;0.895949607681;0;0;0;0;0;0;0;0;0;();(-2000.0, -2000.0);
03:27:20:407;03:27:20:362;1448289800.01;(0.7235756397247315, 0.6673636330498589);68.0032577515;0.895949607681;0;0;0;0;0;0;0;0;0;();(-2000.0, -2000.0);
03:27:20:423;03:27:20:407;1448289800.08;(0.7236163139343261, 0.6661089579264323);66.5110321045;0.9896919344;0;0;0;0;0;0;0;0;0;();(-2000.0, -2000.0);
03:27:20:439;03:27:20:407;1448289800.08;(0.7236163139343261, 0.6661089579264323);66.5110321045;0.9896919344;0;0;0;0;0;0;0;0;0;();(-2000.0, -2000.0);
03:27:20:456;03:27:20:407;1448289800.08;(0.7236163139343261, 0.6661089579264323);66.5110321045;0.9896919344;0;0;0;0;0;0;0;0;0;();(-2000.0, -2000.0);
03:27:20:489;03:27:20:457;1448289800.11;(0.7236530780792236, 0.6661838531494141);67.0217819214;1.0;0;0;0;0;0;0;0;0;0;();(-2000.0, -2000.0);
03:27:20:506;03:27:20:457;1448289800.11;(0.7236530780792236, 0.6661838531494141);67.0217819214;1.0;0;0;0;0;0;0;0;0;0;();(-2000.0, -2000.0);
03:27:20:522;03:27:20:506;1448289800.18;(0.7240109443664551, 0.6657250510321724);67.0784683228;1.0;0;0;0;0;0;0;0;0;0;();(-2000.0, -2000.0);
03:27:20:538;03:27:20:506;1448289800.18;(0.7240109443664551, 0.6657250510321724);67.0784683228;1.0;0;0;0;0;0;0;0;0;0;();(-2000.0, -2000.0);
03:27:20:556;03:27:20:506;1448289800.18;(0.7240109443664551, 0.6657250510321724);67.0784683228;1.0;0;0;0;0;0;0;0;0;0;();(-2000.0, -2000.0);
03:27:20:588;03:27:20:553;1448289800.21;(0.724220085144043, 0.6655348671807183);68.0193634033;1.0;0;0;0;0;0;0;0;0;0;();(-2000.0, -2000.0);
03:27:20:605;03:27:20:553;1448289800.21;(0.724220085144043, 0.6655348671807183);68.0193634033;1.0;0;0;0;0;0;0;0;0;0;();(-2000.0, -2000.0);
03:27:20:621;03:27:20:607;1448289800.28;(0.7246651172637939, 0.6656585481431749);68.0495376587;1.0;0;0;0;0;0;0;0;0;0;();(-2000.0, -2000.0);
03:27:20:638;03:27:20:607;1448289800.28;(0.7246651172637939, 0.6656585481431749);68.0495376587;1.0;0;0;0;0;0;0;0;0;0;();(-2000.0, -2000.0);
03:27:20:655;03:27:20:607;1448289800.28;(0.7246651172637939, 0.6656585481431749);68.0495376587;1.0;0;0;0;0;0;0;0;0;0;();(-2000.0, -2000.0);
03:27:20:688;03:27:20:654;1448289800.31;(0.7249678611755371, 0.6649624718560112);68.137298584;1.0;0;0;0;0;0;0;0;0;0;();(-2000.0, -2000.0);
03:27:20:704;03:27:20:654;1448289800.31;(0.7249678611755371, 0.6649624718560112);68.137298584;1.0;0;0;0;0;0;0;0;0;0;();(-2000.0, -2000.0);
03:27:20:721;03:27:20:708;1448289800.38;(0.7246273994445801, 0.6650564617580838);68.6278762817;1.0;0;0;0;0;0;0;0;0;0;();(-2000.0, -2000.0);
03:27:20:738;03:27:20:708;1448289800.38;(0.7246273994445801, 0.6650564617580838);68.6278762817;1.0;0;0;0;0;0;0;0;0;0;();(-2000.0, -2000.0);
03:27:20:754;03:27:20:708;1448289800.38;(0.7246273994445801, 0.6650564617580838);68.6278762817;1.0;0;0;0;0;0;0;0;0;0;();(-2000.0, -2000.0);
03:27:20:787;03:27:20:753;1448289800.41;(0.7245693683624268, 0.6646134058634441);68.3687973022;1.0;0;0;0;0;0;0;0;0;0;();(-2000.0, -2000.0);
03:27:20:804;03:27:20:753;1448289800.41;(0.7245693683624268, 0.6646134058634441);68.3687973022;1.0;0;0;0;0;0;0;0;0;0;();(-2000.0, -2000.0);
03:27:20:820;03:27:20:807;1448289800.48;(0.7244827270507812, 0.6645758310953775);69.6143722534;1.0;0;0;0;0;0;0;0;0;0;();(-2000.0, -2000.0);
03:27:20:837;03:27:20:807;1448289800.48;(0.7244827270507812, 0.6645758310953775);69.6143722534;1.0;0;0;0;0;0;0;0;0;0;();(-2000.0, -2000.0);
03:27:20:854;03:27:20:807;1448289800.48;(0.7244827270507812, 0.6645758310953775);69.6143722534;1.0;0;0;0;0;0;0;0;0;0;();(-2000.0, -2000.0);
03:27:20:887;03:27:20:852;1448289800.51;(0.72456955909729, 0.6641070048014324);70.0429992676;1.0;0;0;0;0;0;0;0;0;0;();(-2000.0, -2000.0);
03:27:20:904;03:27:20:852;1448289800.51;(0.72456955909729, 0.6641070048014324);70.0429992676;1.0;0;0;0;0;0;0;0;0;0;();(-2000.0, -2000.0);
03:27:20:920;03:27:20:908;1448289800.58;(0.7241346359252929, 0.6643485599093967);71.5717086792;0.99519971569;0;0;0;0;0;0;0;0;0;();(-2000.0, -2000.0);
03:27:20:937;03:27:20:908;1448289800.58;(0.7241346359252929, 0.6643485599093967);71.5717086792;0.99519971569;0;0;0;0;0;0;0;0;0;();(-2000.0, -2000.0);
03:27:20:954;03:27:20:908;1448289800.58;(0.7241346359252929, 0.6643485599093967);71.5717086792;0.99519971569;0;0;0;0;0;0;0;0;0;();(-2000.0, -2000.0);
03:27:20:987;03:27:20:954;1448289800.61;(0.7238979339599609, 0.6642474492390951);72.1736907959;1.0;0;0;0;0;0;0;0;0;0;();(-2000.0, -2000.0);
03:27:21:004;03:27:20:954;1448289800.61;(0.7238979339599609, 0.6642474492390951);72.1736907959;1.0;0;0;0;0;0;0;0;0;0;();(-2000.0, -2000.0);
03:27:21:020;03:27:21:004;1448289800.68;(0.7239136219024658, 0.6640515433417427);73.045539856;1.0;0;0;0;0;0;0;0;0;0;();(-2000.0, -2000.0);
03:27:21:037;03:27:21:004;1448289800.68;(0.7239136219024658, 0.6640515433417427);73.045539856;1.0;0;0;0;0;0;0;0;0;0;();(-2000.0, -2000.0);
03:27:21:070;03:27:21:053;1448289800.71;(0.7236014366149902, 0.6638111962212456);73.2741928101;1.0;0;0;0;0;0;0;0;0;0;();(-2000.0, -2000.0);
03:27:21:086;03:27:21:053;1448289800.71;(0.7236014366149902, 0.6638111962212456);73.2741928101;1.0;0;0;0;0;0;0;0;0;0;();(-2000.0, -2000.0);
03:27:21:103;03:27:21:053;1448289800.71;(0.7236014366149902, 0.6638111962212456);73.2741928101;1.0;0;0;0;0;0;0;0;0;0;();(-2000.0, -2000.0);
03:27:21:119;03:27:21:103;1448289800.74;(0.723704719543457, 0.6638794793023004);73.7373733521;1.0;0;0;0;0;0;0;0;0;0;();(-2000.0, -2000.0);
03:27:21:136;03:27:21:103;1448289800.74;(0.723704719543457, 0.6638794793023004);73.7373733521;1.0;0;0;0;0;0;0;0;0;0;();(-2000.0, -2000.0);
03:27:21:169;03:27:21:154;1448289800.81;(0.7407990455627441, 0.6593679216172961);73.7425994873;0.924532994004;0;0;0;0;0;0;0;0;0;();(-2000.0, -2000.0);
03:27:21:185;03:27:21:154;1448289800.81;(0.7407990455627441, 0.6593679216172961);73.7425994873;0.924532994004;0;0;0;0;0;0;0;0;0;();(-2000.0, -2000.0);
03:27:21:202;03:27:21:154;1448289800.81;(0.7407990455627441, 0.6593679216172961);73.7425994873;0.924532994004;0;0;0;0;0;0;0;0;0;();(-2000.0, -2000.0);
03:27:21:219;03:27:21:208;1448289800.84;(0.7407856941223144, 0.6588949627346463);75.3748092651;0.866447151449;0;0;0;0;0;0;0;0;0;();(-2000.0, -2000.0);
03:27:21:235;03:27:21:208;1448289800.84;(0.7407856941223144, 0.6588949627346463);75.3748092651;0.866447151449;0;0;0;0;0;0;0;0;0;();(-2000.0, -2000.0);
03:27:21:268;03:27:21:254;1448289800.91;(0.7411285400390625, 0.6593080096774631);74.5725326538;1.0;0;0;0;0;0;0;0;0;0;();(-2000.0, -2000.0);
03:27:21:285;03:27:21:254;1448289800.91;(0.7411285400390625, 0.6593080096774631);74.5725326538;1.0;0;0;0;0;0;0;0;0;0;();(-2000.0, -2000.0);
03:27:21:301;03:27:21:254;1448289800.91;(0.7411285400390625, 0.6593080096774631);74.5725326538;1.0;0;0;0;0;0;0;0;0;0;();(-2000.0, -2000.0);
03:27:21:318;03:27:21:305;1448289800.98;(0.741368579864502, 0.6595260408189562);74.7388076782;1.0;0;0;0;0;0;0;0;0;0;();(-2000.0, -2000.0);
03:27:21:334;03:27:21:305;1448289800.98;(0.741368579864502, 0.6595260408189562);74.7388076782;1.0;0;0;0;0;0;0;0;0;0;();(-2000.0, -2000.0);
03:27:21:368;03:27:21:353;1448289801.01;(0.7413702011108398, 0.6593347125583224);74.3978805542;1.0;0;0;0;0;0;0;0;0;0;();(-2000.0, -2000.0);
03:27:21:385;03:27:21:353;1448289801.01;(0.7413702011108398, 0.6593347125583224);74.3978805542;1.0;0;0;0;0;0;0;0;0;0;();(-2000.0, -2000.0);
03:27:21:401;03:27:21:353;1448289801.01;(0.7413702011108398, 0.6593347125583224);74.3978805542;1.0;0;0;0;0;0;0;0;0;0;();(-2000.0, -2000.0);
03:27:21:417;03:27:21:407;1448289801.08;(0.7412587642669678, 0.6606882519192165);75.1652526855;1.0;0;0;0;0;0;0;0;0;0;();(-2000.0, -2000.0);
03:27:21:434;03:27:21:407;1448289801.08;(0.7412587642669678, 0.6606882519192165);75.1652526855;1.0;0;0;0;0;0;0;0;0;0;();(-2000.0, -2000.0);
03:27:21:467;03:27:21:458;1448289801.11;(0.7415406227111816, 0.6605336719089084);74.6575241089;1.0;0;0;0;0;0;0;0;0;0;();(-2000.0, -2000.0);
03:27:21:484;03:27:21:458;1448289801.11;(0.7415406227111816, 0.6605336719089084);74.6575241089;1.0;0;0;0;0;0;0;0;0;0;();(-2000.0, -2000.0);
03:27:21:500;03:27:21:458;1448289801.11;(0.7415406227111816, 0.6605336719089084);74.6575241089;1.0;0;0;0;0;0;0;0;0;0;();(-2000.0, -2000.0);
03:27:21:517;03:27:21:505;1448289801.18;(0.7413322448730468, 0.6606226179334853);74.4942550659;1.0;0;0;0;0;0;0;0;0;0;();(-2000.0, -2000.0);
03:27:21:534;03:27:21:505;1448289801.18;(0.7413322448730468, 0.6606226179334853);74.4942550659;1.0;0;0;0;0;0;0;0;0;0;();(-2000.0, -2000.0);
03:27:21:567;03:27:21:549;1448289801.21;(0.7411999225616455, 0.6602873272365994);74.3343963623;1.0;0;0;0;0;0;0;0;0;0;();(-2000.0, -2000.0);
03:27:21:583;03:27:21:549;1448289801.21;(0.7411999225616455, 0.6602873272365994);74.3343963623;1.0;0;0;0;0;0;0;0;0;0;();(-2000.0, -2000.0);
03:27:21:600;03:27:21:549;1448289801.21;(0.7411999225616455, 0.6602873272365994);74.3343963623;1.0;0;0;0;0;0;0;0;0;0;();(-2000.0, -2000.0);
03:27:21:616;03:27:21:612;1448289801.28;(0.7416619777679443, 0.6593661838107638);73.9231491089;0.989178636642;0;0;0;0;0;0;0;0;0;();(-2000.0, -2000.0);
03:27:21:649;03:27:21:612;1448289801.28;(0.7416619777679443, 0.6593661838107638);73.9231491089;0.989178636642;0;0;0;0;0;0;0;0;0;();(-2000.0, -2000.0);
03:27:21:666;03:27:21:661;1448289801.31;(0.7418159484863281, 0.6592980702718099);73.9337463379;1.0;0;0;0;0;0;0;0;0;0;();(-2000.0, -2000.0);
03:27:21:682;03:27:21:661;1448289801.31;(0.7418159484863281, 0.6592980702718099);73.9337463379;1.0;0;0;0;0;0;0;0;0;0;();(-2000.0, -2000.0);
03:27:21:699;03:27:21:661;1448289801.31;(0.7418159484863281, 0.6592980702718099);73.9337463379;1.0;0;0;0;0;0;0;0;0;0;();(-2000.0, -2000.0);
03:27:21:716;03:27:21:707;1448289801.38;(0.7420127868652344, 0.6592381583319771);73.6456680298;0.97703561872;0;0;0;0;0;0;0;0;0;();(-2000.0, -2000.0);
03:27:21:749;03:27:21:707;1448289801.38;(0.7420127868652344, 0.6592381583319771);73.6456680298;0.97703561872;0;0;0;0;0;0;0;0;0;();(-2000.0, -2000.0);
03:27:21:766;03:27:21:749;1448289801.41;(0.7420588970184326, 0.6592387941148545);74.0375518799;1.0;0;0;0;0;0;0;0;0;0;();(-2000.0, -2000.0);
03:27:21:782;03:27:21:749;1448289801.41;(0.7420588970184326, 0.6592387941148545);74.0375518799;1.0;0;0;0;0;0;0;0;0;0;();(-2000.0, -2000.0);
03:27:21:798;03:27:21:749;1448289801.41;(0.7420588970184326, 0.6592387941148545);74.0375518799;1.0;0;0;0;0;0;0;0;0;0;();(-2000.0, -2000.0);
03:27:21:815;03:27:21:806;1448289801.48;(0.7415055274963379, 0.6591302659776476);73.2493362427;1.0;0;0;0;0;0;0;0;0;0;();(-2000.0, -2000.0);
03:27:21:848;03:27:21:806;1448289801.48;(0.7415055274963379, 0.6591302659776476);73.2493362427;1.0;0;0;0;0;0;0;0;0;0;();(-2000.0, -2000.0);
03:27:21:865;03:27:21:849;1448289801.51;(0.7156041622161865, 0.6851680331759983);72.2523651123;0.857949677357;0;0;0;0;0;0;0;0;0;();(-2000.0, -2000.0);
03:27:21:881;03:27:21:849;1448289801.51;(0.7156041622161865, 0.6851680331759983);72.2523651123;0.857949677357;0;0;0;0;0;0;0;0;0;();(-2000.0, -2000.0);
03:27:21:898;03:27:21:849;1448289801.51;(0.7156041622161865, 0.6851680331759983);72.2523651123;0.857949677357;0;0;0;0;0;0;0;0;0;();(-2000.0, -2000.0);
03:27:21:914;03:27:21:898;1448289801.54;(0.6933132648468018, 0.7047888437906902);71.8750991821;0.902049274534;0;0;0;0;0;0;0;0;0;();(-2000.0, -2000.0);
03:27:21:947;03:27:21:898;1448289801.54;(0.6933132648468018, 0.7047888437906902);71.8750991821;0.902049274534;0;0;0;0;0;0;0;0;0;();(-2000.0, -2000.0);
03:27:21:964;03:27:21:898;1448289801.54;(0.6933132648468018, 0.7047888437906902);71.8750991821;0.902049274534;0;0;0;0;0;0;0;0;0;();(-2000.0, -2000.0);
03:27:21:981;03:27:21:898;1448289801.54;(0.6933132648468018, 0.7047888437906902);71.8750991821;0.902049274534;0;0;0;0;0;0;0;0;0;();(-2000.0, -2000.0);
03:27:21:997;03:27:21:898;1448289801.54;(0.6933132648468018, 0.7047888437906902);71.8750991821;0.902049274534;0;0;0;0;0;0;0;0;0;();(-2000.0, -2000.0);
03:27:22:014;03:27:21:997;1448289801.58;(0.6814294815063476, 0.7106195025973849);74.1172790527;0.945216255887;0;0;0;0;0;0;0;0;0;();(-2000.0, -2000.0);
03:27:22:047;03:27:21:997;1448289801.58;(0.6814294815063476, 0.7106195025973849);74.1172790527;0.945216255887;0;0;0;0;0;0;0;0;0;();(-2000.0, -2000.0);
03:27:22:063;03:27:22:049;1448289801.65;(0.6620587825775146, 0.7054469214545356);74.7629013062;1.0;0;0;0;0;0;0;0;0;0;();(-2000.0, -2000.0);
03:27:22:080;03:27:22:049;1448289801.65;(0.6620587825775146, 0.7054469214545356);74.7629013062;1.0;0;0;0;0;0;0;0;0;0;();(-2000.0, -2000.0);
03:27:22:097;03:27:22:049;1448289801.65;(0.6620587825775146, 0.7054469214545356);74.7629013062;1.0;0;0;0;0;0;0;0;0;0;();(-2000.0, -2000.0);
03:27:22:130;03:27:22:124;1448289801.71;(0.6629459381103515, 0.7049060609605577);76.3353881836;0.865271688655;0;0;0;0;0;0;0;0;0;();(-2000.0, -2000.0);
03:27:22:146;03:27:22:128;1448289801.74;(0.6633032321929931, 0.7042674594455295);76.229927063;0.928837804051;0;0;0;0;0;0;0;0;0;();(-2000.0, -2000.0);
03:27:22:163;03:27:22:151;1448289801.81;(0.6645448207855225, 0.7032036887274848);76.0126953125;0.877326001622;0;0;0;0;0;0;0;0;0;();(-2000.0, -2000.0);
03:27:22:179;03:27:22:151;1448289801.81;(0.6645448207855225, 0.7032036887274848);76.0126953125;0.877326001622;0;0;0;0;0;0;0;0;0;();(-2000.0, -2000.0);
03:27:22:196;03:27:22:151;1448289801.81;(0.6645448207855225, 0.7032036887274848);76.0126953125;0.877326001622;0;0;0;0;0;0;0;0;0;();(-2000.0, -2000.0);
03:27:22:229;03:27:22:221;1448289801.84;(0.27441442012786865, 0.6734895918104384);19.4333019257;0.822156773622;0;0;0;0;0;0;0;0;0;();(-2000.0, -2000.0);
03:27:22:246;03:27:22:221;1448289801.84;(0.27441442012786865, 0.6734895918104384);19.4333019257;0.822156773622;0;0;0;0;0;0;0;0;0;();(-2000.0, -2000.0);
03:27:22:262;03:27:22:253;1448289801.91;(0.9135316848754883, 0.41259418063693576);22.5457363129;0.697652070258;0;0;0;0;0;0;0;0;0;();(-2000.0, -2000.0);
03:27:22:279;03:27:22:253;1448289801.91;(0.9135316848754883, 0.41259418063693576);22.5457363129;0.697652070258;0;0;0;0;0;0;0;0;0;();(-2000.0, -2000.0);
03:27:22:296;03:27:22:253;1448289801.91;(0.9135316848754883, 0.41259418063693576);22.5457363129;0.697652070258;0;0;0;0;0;0;0;0;0;();(-2000.0, -2000.0);
03:27:22:329;03:27:22:297;1448289801.94;(0.6168468952178955, 0.7687320285373264);74.2382736206;0.935114583792;0;0;0;0;0;0;0;0;0;();(-2000.0, -2000.0);
03:27:22:345;03:27:22:297;1448289801.94;(0.6168468952178955, 0.7687320285373264);74.2382736206;0.935114583792;0;0;0;0;0;0;0;0;0;();(-2000.0, -2000.0);
03:27:22:362;03:27:22:347;1448289802.01;(0.6189966678619385, 0.7681680891248914);72.3644943237;0.954556190092;0;0;0;0;0;0;0;0;0;();(-2000.0, -2000.0);
03:27:22:378;03:27:22:347;1448289802.01;(0.6189966678619385, 0.7681680891248914);72.3644943237;0.954556190092;0;0;0;0;0;0;0;0;0;();(-2000.0, -2000.0);
03:27:22:395;03:27:22:347;1448289802.01;(0.6189966678619385, 0.7681680891248914);72.3644943237;0.954556190092;0;0;0;0;0;0;0;0;0;();(-2000.0, -2000.0);
03:27:22:429;03:27:22:397;1448289802.04;(0.6199808597564698, 0.768224631415473);72.7066268921;0.825043541185;0;0;0;0;0;0;0;0;0;();(-2000.0, -2000.0);
03:27:22:444;03:27:22:397;1448289802.04;(0.6199808597564698, 0.768224631415473);72.7066268921;0.825043541185;0;0;0;0;0;0;0;0;0;();(-2000.0, -2000.0);
03:27:22:461;03:27:22:446;1448289802.11;(0.6160257816314697, 0.7705673217773438);72.3443145752;0.855586282269;0;0;0;0;0;0;0;0;0;();(-2000.0, -2000.0);
03:27:22:478;03:27:22:446;1448289802.11;(0.6160257816314697, 0.7705673217773438);72.3443145752;0.855586282269;0;0;0;0;0;0;0;0;0;();(-2000.0, -2000.0);
03:27:22:494;03:27:22:446;1448289802.11;(0.6160257816314697, 0.7705673217773438);72.3443145752;0.855586282269;0;0;0;0;0;0;0;0;0;();(-2000.0, -2000.0);
03:27:22:527;03:27:22:498;1448289802.14;(0.6017514228820801, 0.7822710037231445);69.548324585;0.779391410504;0;0;0;0;0;0;0;0;0;();(-2000.0, -2000.0);
03:27:22:544;03:27:22:498;1448289802.14;(0.6017514228820801, 0.7822710037231445);69.548324585;0.779391410504;0;0;0;0;0;0;0;0;0;();(-2000.0, -2000.0);
03:27:22:560;03:27:22:547;1448289802.21;(0.604093599319458, 0.7791431638929579);68.503868103;0.782484720549;0;0;0;0;0;0;0;0;0;();(-2000.0, -2000.0);
03:27:22:577;03:27:22:547;1448289802.21;(0.604093599319458, 0.7791431638929579);68.503868103;0.782484720549;0;0;0;0;0;0;0;0;0;();(-2000.0, -2000.0);
03:27:22:594;03:27:22:547;1448289802.21;(0.604093599319458, 0.7791431638929579);68.503868103;0.782484720549;0;0;0;0;0;0;0;0;0;();(-2000.0, -2000.0);
03:27:22:627;03:27:22:597;1448289802.24;(0, 0);0;0;0;0;0;0;0;0;0;0;0;();(-2000.0, -2000.0);
03:27:22:643;03:27:22:597;1448289802.24;(0, 0);0;0;0;0;0;0;0;0;0;0;0;();(-2000.0, -2000.0);
03:27:22:660;03:27:22:650;1448289802.31;(0.6126075744628906, 0.7844595379299588);65.4842071533;0.65068197983;0;0;0;0;0;0;0;0;0;();(-2000.0, -2000.0);
03:27:22:676;03:27:22:650;1448289802.31;(0.6126075744628906, 0.7844595379299588);65.4842071533;0.65068197983;0;0;0;0;0;0;0;0;0;();(-2000.0, -2000.0);
03:27:22:709;03:27:22:696;1448289802.34;(0.6160798072814941, 0.7782473458184136);67.8269271851;0.62647054098;0;0;0;0;0;0;0;0;0;();(-2000.0, -2000.0);
03:27:22:726;03:27:22:696;1448289802.34;(0.6160798072814941, 0.7782473458184136);67.8269271851;0.62647054098;0;0;0;0;0;0;0;0;0;();(-2000.0, -2000.0);
03:27:22:742;03:27:22:696;1448289802.34;(0.6160798072814941, 0.7782473458184136);67.8269271851;0.62647054098;0;0;0;0;0;0;0;0;0;();(-2000.0, -2000.0);
03:27:22:759;03:27:22:748;1448289802.41;(0.5925482273101806, 0.8102519459194607);79.8483428955;0.778734552494;0;0;0;0;0;0;0;0;0;();(-2000.0, -2000.0);
03:27:22:776;03:27:22:748;1448289802.41;(0.5925482273101806, 0.8102519459194607);79.8483428955;0.778734552494;0;0;0;0;0;0;0;0;0;();(-2000.0, -2000.0);
03:27:22:809;03:27:22:792;1448289802.44;(0.7113018989562988, 0.6107888115776909);19.1128463745;0.883061524826;0;0;0;0;0;0;0;0;0;();(-2000.0, -2000.0);
03:27:22:825;03:27:22:792;1448289802.44;(0.7113018989562988, 0.6107888115776909);19.1128463745;0.883061524826;0;0;0;0;0;0;0;0;0;();(-2000.0, -2000.0);
03:27:22:842;03:27:22:792;1448289802.44;(0.7113018989562988, 0.6107888115776909);19.1128463745;0.883061524826;0;0;0;0;0;0;0;0;0;();(-2000.0, -2000.0);
03:27:22:859;03:27:22:848;1448289802.51;(0.269661545753479, 0.8995795249938965);26.2957801819;0.667783943626;0;0;0;0;0;0;0;0;0;();(-2000.0, -2000.0);
03:27:22:875;03:27:22:848;1448289802.51;(0.269661545753479, 0.8995795249938965);26.2957801819;0.667783943626;0;0;0;0;0;0;0;0;0;();(-2000.0, -2000.0);
03:27:22:909;03:27:22:892;1448289802.54;(0, 0);0;0;0;0;0;0;0;0;0;0;0;();(-2000.0, -2000.0);
03:27:22:925;03:27:22:892;1448289802.54;(0, 0);0;0;0;0;0;0;0;0;0;0;0;();(-2000.0, -2000.0);
03:27:22:942;03:27:22:892;1448289802.54;(0, 0);0;0;0;0;0;0;0;0;0;0;0;();(-2000.0, -2000.0);
03:27:22:958;03:27:22:953;1448289802.61;(0.6095373153686523, 0.7998678419325087);68.3269729614;0.901011081598;0;0;0;0;0;0;0;0;0;();(-2000.0, -2000.0);
03:27:22:975;03:27:22:953;1448289802.61;(0.6095373153686523, 0.7998678419325087);68.3269729614;0.901011081598;0;0;0;0;0;0;0;0;0;();(-2000.0, -2000.0);
03:27:23:008;03:27:22:992;1448289802.64;(0.6106104373931884, 0.7978861702813043);67.9877929688;0.920149320188;0;0;0;0;0;0;0;0;0;();(-2000.0, -2000.0);
03:27:23:024;03:27:22:992;1448289802.64;(0.6106104373931884, 0.7978861702813043);67.9877929688;0.920149320188;0;0;0;0;0;0;0;0;0;();(-2000.0, -2000.0);
03:27:23:041;03:27:22:992;1448289802.64;(0.6106104373931884, 0.7978861702813043);67.9877929688;0.920149320188;0;0;0;0;0;0;0;0;0;();(-2000.0, -2000.0);
03:27:23:057;03:27:23:047;1448289802.71;(0, 0);0;0;0;0;0;0;0;0;0;0;0;();(-2000.0, -2000.0);
03:27:23:074;03:27:23:047;1448289802.71;(0, 0);0;0;0;0;0;0;0;0;0;0;0;();(-2000.0, -2000.0);
03:27:23:107;03:27:23:092;1448289802.74;(0.5688148975372315, 0.6442923016018338);23.4626941681;0.710077548549;0;0;0;0;0;0;0;0;0;();(-2000.0, -2000.0);
03:27:23:124;03:27:23:092;1448289802.74;(0.5688148975372315, 0.6442923016018338);23.4626941681;0.710077548549;0;0;0;0;0;0;0;0;0;();(-2000.0, -2000.0);
03:27:23:140;03:27:23:092;1448289802.74;(0.5688148975372315, 0.6442923016018338);23.4626941681;0.710077548549;0;0;0;0;0;0;0;0;0;();(-2000.0, -2000.0);
03:27:23:157;03:27:23:145;1448289802.78;(0, 0);0;0;0;0;0;0;0;0;0;0;0;();(-2000.0, -2000.0);
03:27:23:173;03:27:23:145;1448289802.78;(0, 0);0;0;0;0;0;0;0;0;0;0;0;();(-2000.0, -2000.0);
03:27:23:206;03:27:23:193;1448289802.84;(0.6130234241485596, 0.8058826764424643);67.5466308594;0.686842006648;0;0;0;0;0;0;0;0;0;();(-2000.0, -2000.0);
03:27:23:223;03:27:23:193;1448289802.84;(0.6130234241485596, 0.8058826764424643);67.5466308594;0.686842006648;0;0;0;0;0;0;0;0;0;();(-2000.0, -2000.0);
03:27:23:240;03:27:23:193;1448289802.84;(0.6130234241485596, 0.8058826764424643);67.5466308594;0.686842006648;0;0;0;0;0;0;0;0;0;();(-2000.0, -2000.0);
03:27:23:256;03:27:23:245;1448289802.91;(0.6160398960113526, 0.8082540088229709);68.6028594971;0.762687015452;0;0;0;0;0;0;0;0;0;();(-2000.0, -2000.0);
03:27:23:289;03:27:23:245;1448289802.91;(0.6160398960113526, 0.8082540088229709);68.6028594971;0.762687015452;0;0;0;0;0;0;0;0;0;();(-2000.0, -2000.0);
03:27:23:305;03:27:23:293;1448289802.94;(0, 0);0;0;0;0;0;0;0;0;0;0;0;();(-2000.0, -2000.0);
03:27:23:323;03:27:23:293;1448289802.94;(0, 0);0;0;0;0;0;0;0;0;0;0;0;();(-2000.0, -2000.0);
03:27:23:338;03:27:23:293;1448289802.94;(0, 0);0;0;0;0;0;0;0;0;0;0;0;();(-2000.0, -2000.0);
03:27:23:356;03:27:23:351;1448289803.01;(0.6182286739349365, 0.8055488480461969);68.9564590454;0.798535264731;0;0;0;0;0;0;0;0;0;();(-2000.0, -2000.0);
03:27:23:389;03:27:23:351;1448289803.01;(0.6182286739349365, 0.8055488480461969);68.9564590454;0.798535264731;0;0;0;0;0;0;0;0;0;();(-2000.0, -2000.0);
03:27:23:406;03:27:23:351;1448289803.01;(0.6182286739349365, 0.8055488480461969);68.9564590454;0.798535264731;0;0;0;0;0;0;0;0;0;();(-2000.0, -2000.0);
03:27:23:422;03:27:23:403;1448289803.04;(0.6182363510131836, 0.8058387120564778);67.3160705566;0.945037794827;0;0;0;0;0;0;0;0;0;();(-2000.0, -2000.0);
03:27:23:438;03:27:23:403;1448289803.04;(0.6182363510131836, 0.8058387120564778);67.3160705566;0.945037794827;0;0;0;0;0;0;0;0;0;();(-2000.0, -2000.0);
03:27:23:455;03:27:23:443;1448289803.11;(0.6644122123718261, 0.7590823703342013);71.1725921631;0.924919096057;0;0;0;0;0;0;0;0;0;();(-2000.0, -2000.0);
03:27:23:487;03:27:23:443;1448289803.11;(0.6644122123718261, 0.7590823703342013);71.1725921631;0.924919096057;0;0;0;0;0;0;0;0;0;();(-2000.0, -2000.0);
03:27:23:504;03:27:23:492;1448289803.14;(0.6962653636932373, 0.71064453125);71.1098480225;0.828356369294;0;0;0;0;0;0;0;0;0;();(-2000.0, -2000.0);
03:27:23:521;03:27:23:492;1448289803.14;(0.6962653636932373, 0.71064453125);71.1098480225;0.828356369294;0;0;0;0;0;0;0;0;0;();(-2000.0, -2000.0);
03:27:23:538;03:27:23:492;1448289803.14;(0.6962653636932373, 0.71064453125);71.1098480225;0.828356369294;0;0;0;0;0;0;0;0;0;();(-2000.0, -2000.0);
03:27:23:554;03:27:23:541;1448289803.18;(0.7173532962799072, 0.6710415734185113);67.718421936;0.907963707395;0;0;0;0;0;0;0;0;0;();(-2000.0, -2000.0);
03:27:23:587;03:27:23:541;1448289803.18;(0.7173532962799072, 0.6710415734185113);67.718421936;0.907963707395;0;0;0;0;0;0;0;0;0;();(-2000.0, -2000.0);
03:27:23:604;03:27:23:594;1448289803.24;(0.7175020217895508, 0.6707024680243598);67.1796264648;0.951588579361;0;0;0;0;0;0;0;0;0;();(-2000.0, -2000.0);
03:27:23:620;03:27:23:594;1448289803.24;(0.7175020217895508, 0.6707024680243598);67.1796264648;0.951588579361;0;0;0;0;0;0;0;0;0;();(-2000.0, -2000.0);
03:27:23:637;03:27:23:594;1448289803.24;(0.7175020217895508, 0.6707024680243598);67.1796264648;0.951588579361;0;0;0;0;0;0;0;0;0;();(-2000.0, -2000.0);
03:27:23:654;03:27:23:648;1448289803.31;(0.2785822868347168, 0.6923485226101346);20.5518932343;0.834233101745;0;0;0;0;0;0;0;0;0;();(-2000.0, -2000.0);
03:27:23:687;03:27:23:648;1448289803.31;(0.2785822868347168, 0.6923485226101346);20.5518932343;0.834233101745;0;0;0;0;0;0;0;0;0;();(-2000.0, -2000.0);
03:27:23:703;03:27:23:690;1448289803.34;(0.714542293548584, 0.6761228137546116);69.8955535889;0.999403859848;0;0;0;0;0;0;0;0;0;();(-2000.0, -2000.0);
03:27:23:719;03:27:23:690;1448289803.34;(0.714542293548584, 0.6761228137546116);69.8955535889;0.999403859848;0;0;0;0;0;0;0;0;0;();(-2000.0, -2000.0);
03:27:23:737;03:27:23:690;1448289803.34;(0.714542293548584, 0.6761228137546116);69.8955535889;0.999403859848;0;0;0;0;0;0;0;0;0;();(-2000.0, -2000.0);
03:27:23:770;03:27:23:741;1448289803.38;(0.7125969409942627, 0.6780620786878797);70.3071517944;0.971027111656;0;0;0;0;0;0;0;0;0;();(-2000.0, -2000.0);
03:27:23:786;03:27:23:741;1448289803.38;(0.7125969409942627, 0.6780620786878797);70.3071517944;0.971027111656;0;0;0;0;0;0;0;0;0;();(-2000.0, -2000.0);
03:27:23:803;03:27:23:789;1448289803.41;(0.7114669799804687, 0.6799364937676324);70.2070999146;0.959326611733;0;0;0;0;0;0;0;0;0;();(-2000.0, -2000.0);
03:27:23:819;03:27:23:789;1448289803.41;(0.7114669799804687, 0.6799364937676324);70.2070999146;0.959326611733;0;0;0;0;0;0;0;0;0;();(-2000.0, -2000.0);
03:27:23:836;03:27:23:789;1448289803.41;(0.7114669799804687, 0.6799364937676324);70.2070999146;0.959326611733;0;0;0;0;0;0;0;0;0;();(-2000.0, -2000.0);
03:27:23:868;03:27:23:842;1448289803.48;(0.7102342128753663, 0.680725351969401);69.0963363647;0.821127798446;0;0;0;0;0;0;0;0;0;();(-2000.0, -2000.0);
03:27:23:885;03:27:23:842;1448289803.48;(0.7102342128753663, 0.680725351969401);69.0963363647;0.821127798446;0;0;0;0;0;0;0;0;0;();(-2000.0, -2000.0);
03:27:23:902;03:27:23:891;1448289803.54;(0.7076354503631592, 0.6839135699801975);67.9125900269;0.803562523936;0;0;0;0;0;0;0;0;0;();(-2000.0, -2000.0);
03:27:23:918;03:27:23:891;1448289803.54;(0.7076354503631592, 0.6839135699801975);67.9125900269;0.803562523936;0;0;0;0;0;0;0;0;0;();(-2000.0, -2000.0);
03:27:23:935;03:27:23:891;1448289803.54;(0.7076354503631592, 0.6839135699801975);67.9125900269;0.803562523936;0;0;0;0;0;0;0;0;0;();(-2000.0, -2000.0);
03:27:23:969;03:27:23:942;1448289803.61;(0.7064146995544434, 0.6857307434082032);67.502822876;0.912881591246;0;0;0;0;0;0;0;0;0;();(-2000.0, -2000.0);
03:27:23:985;03:27:23:942;1448289803.61;(0.7064146995544434, 0.6857307434082032);67.502822876;0.912881591246;0;0;0;0;0;0;0;0;0;();(-2000.0, -2000.0);
03:27:24:001;03:27:23:989;1448289803.64;(0.7058848381042481, 0.6864323510064019);67.0467071533;0.923662596389;0;0;0;0;0;0;0;0;0;();(-2000.0, -2000.0);
03:27:24:018;03:27:23:989;1448289803.64;(0.7058848381042481, 0.6864323510064019);67.0467071533;0.923662596389;0;0;0;0;0;0;0;0;0;();(-2000.0, -2000.0);
03:27:24:034;03:27:23:989;1448289803.64;(0.7058848381042481, 0.6864323510064019);67.0467071533;0.923662596389;0;0;0;0;0;0;0;0;0;();(-2000.0, -2000.0);
03:27:24:068;03:27:24:040;1448289803.68;(0.7257057189941406, 0.6638030793931748);68.5726699829;0.872262663909;0;0;0;0;0;0;0;0;0;();(-2000.0, -2000.0);
03:27:24:084;03:27:24:040;1448289803.68;(0.7257057189941406, 0.6638030793931748);68.5726699829;0.872262663909;0;0;0;0;0;0;0;0;0;();(-2000.0, -2000.0);
03:27:24:101;03:27:24:090;1448289803.74;(0.7255922794342041, 0.6623942057291667);66.9182281494;1.0;0;0;0;0;0;0;0;0;0;();(-2000.0, -2000.0);
03:27:24:117;03:27:24:090;1448289803.74;(0.7255922794342041, 0.6623942057291667);66.9182281494;1.0;0;0;0;0;0;0;0;0;0;();(-2000.0, -2000.0);
03:27:24:134;03:27:24:090;1448289803.74;(0.7255922794342041, 0.6623942057291667);66.9182281494;1.0;0;0;0;0;0;0;0;0;0;();(-2000.0, -2000.0);
03:27:24:167;03:27:24:140;1448289803.81;(0.7246322154998779, 0.6641435623168945);66.8452606201;1.0;0;0;0;0;0;0;0;0;0;();(-2000.0, -2000.0);
03:27:24:183;03:27:24:140;1448289803.81;(0.7246322154998779, 0.6641435623168945);66.8452606201;1.0;0;0;0;0;0;0;0;0;0;();(-2000.0, -2000.0);
03:27:24:201;03:27:24:189;1448289803.84;(0.7244634628295898, 0.6651161405775282);66.9875793457;1.0;0;0;0;0;0;0;0;0;0;();(-2000.0, -2000.0);
03:27:24:217;03:27:24:189;1448289803.84;(0.7244634628295898, 0.6651161405775282);66.9875793457;1.0;0;0;0;0;0;0;0;0;0;();(-2000.0, -2000.0);
03:27:24:233;03:27:24:189;1448289803.84;(0.7244634628295898, 0.6651161405775282);66.9875793457;1.0;0;0;0;0;0;0;0;0;0;();(-2000.0, -2000.0);
03:27:24:266;03:27:24:239;1448289803.91;(0.7237957954406739, 0.6665064705742729);66.065864563;0.915754587067;0;0;0;0;0;0;0;0;0;();(-2000.0, -2000.0);
03:27:24:297;03:27:24:288;1448289803.94;(0.7241443157196045, 0.6669904073079427);65.5859146118;1.0;0;0;0;0;0;0;0;0;0;();(-2000.0, -2000.0);
03:27:24:304;03:27:24:288;1448289803.94;(0.7241443157196045, 0.6669904073079427);65.5859146118;1.0;0;0;0;0;0;0;0;0;0;();(-2000.0, -2000.0);
03:27:24:318;03:27:24:288;1448289803.94;(0.7241443157196045, 0.6669904073079427);65.5859146118;1.0;0;0;0;0;0;0;0;0;0;();(-2000.0, -2000.0);
03:27:24:334;03:27:24:288;1448289803.94;(0.7241443157196045, 0.6669904073079427);65.5859146118;1.0;0;0;0;0;0;0;0;0;0;();(-2000.0, -2000.0);
03:27:24:367;03:27:24:338;1448289804.01;(0.7238132953643799, 0.6676870769924588);64.9168243408;1.0;0;0;0;0;0;0;0;0;0;();(-2000.0, -2000.0);
03:27:24:384;03:27:24:338;1448289804.01;(0.7238132953643799, 0.6676870769924588);64.9168243408;1.0;0;0;0;0;0;0;0;0;0;();(-2000.0, -2000.0);
03:27:24:400;03:27:24:389;1448289804.04;(0.7236935138702393, 0.6681418100992839);64.5700683594;0.964102435539;0;0;0;0;0;0;0;0;0;();(-2000.0, -2000.0);
03:27:24:417;03:27:24:389;1448289804.04;(0.7236935138702393, 0.6681418100992839);64.5700683594;0.964102435539;0;0;0;0;0;0;0;0;0;();(-2000.0, -2000.0);
03:27:24:434;03:27:24:389;1448289804.04;(0.7236935138702393, 0.6681418100992839);64.5700683594;0.964102435539;0;0;0;0;0;0;0;0;0;();(-2000.0, -2000.0);
03:27:24:467;03:27:24:449;1448289804.11;(0.7226956844329834, 0.6690070894029405);63.7379493713;0.991459944192;0;0;0;0;0;0;0;0;0;();(-2000.0, -2000.0);
03:27:24:483;03:27:24:449;1448289804.11;(0.7226956844329834, 0.6690070894029405);63.7379493713;0.991459944192;0;0;0;0;0;0;0;0;0;();(-2000.0, -2000.0);
03:27:24:500;03:27:24:490;1448289804.14;(0.7224354267120361, 0.6691476186116536);63.9717903137;1.0;0;0;0;0;0;0;0;0;0;();(-2000.0, -2000.0);
03:27:24:516;03:27:24:490;1448289804.14;(0.7224354267120361, 0.6691476186116536);63.9717903137;1.0;0;0;0;0;0;0;0;0;0;();(-2000.0, -2000.0);
03:27:24:550;03:27:24:537;1448289804.21;(0.7212783813476562, 0.669450208875868);63.5740623474;0.954959266686;0;0;0;0;0;0;0;0;0;();(-2000.0, -2000.0);
03:27:24:566;03:27:24:537;1448289804.21;(0.7212783813476562, 0.669450208875868);63.5740623474;0.954959266686;0;0;0;0;0;0;0;0;0;();(-2000.0, -2000.0);
03:27:24:582;03:27:24:537;1448289804.21;(0.7212783813476562, 0.669450208875868);63.5740623474;0.954959266686;0;0;0;0;0;0;0;0;0;();(-2000.0, -2000.0);
03:27:24:599;03:27:24:585;1448289804.24;(0.721015214920044, 0.6707083596123589);64.2152252197;0.975562073335;0;0;0;0;0;0;0;0;0;();(-2000.0, -2000.0);
03:27:24:616;03:27:24:585;1448289804.24;(0.721015214920044, 0.6707083596123589);64.2152252197;0.975562073335;0;0;0;0;0;0;0;0;0;();(-2000.0, -2000.0);
03:27:24:649;03:27:24:638;1448289804.31;(0.7198589324951172, 0.671295526292589);64.764755249;1.0;0;0;0;0;0;0;0;0;0;();(-2000.0, -2000.0);
03:27:24:666;03:27:24:638;1448289804.31;(0.7198589324951172, 0.671295526292589);64.764755249;1.0;0;0;0;0;0;0;0;0;0;();(-2000.0, -2000.0);
03:27:24:682;03:27:24:638;1448289804.31;(0.7198589324951172, 0.671295526292589);64.764755249;1.0;0;0;0;0;0;0;0;0;0;();(-2000.0, -2000.0);
03:27:24:698;03:27:24:638;1448289804.31;(0.7198589324951172, 0.671295526292589);64.764755249;1.0;0;0;0;0;0;0;0;0;0;();(-2000.0, -2000.0);
03:27:24:715;03:27:24:699;1448289804.34;(0.7194344520568847, 0.6721664852566189);65.6200180054;0.982471021462;0;0;0;0;0;0;0;0;0;();(-2000.0, -2000.0);
03:27:24:748;03:27:24:737;1448289804.41;(0.7182990550994873, 0.6735011630588108);66.5552825928;0.815628415758;0;0;0;0;0;0;0;0;0;();(-2000.0, -2000.0);
03:27:24:764;03:27:24:737;1448289804.41;(0.7182990550994873, 0.6735011630588108);66.5552825928;0.815628415758;0;0;0;0;0;0;0;0;0;();(-2000.0, -2000.0);
03:27:24:782;03:27:24:737;1448289804.41;(0.7182990550994873, 0.6735011630588108);66.5552825928;0.815628415758;0;0;0;0;0;0;0;0;0;();(-2000.0, -2000.0);
03:27:24:798;03:27:24:793;1448289804.44;(0.7160598754882812, 0.6761339399549696);68.2585678101;0.893317176513;0;0;0;0;0;0;0;0;0;();(-2000.0, -2000.0);
03:27:24:814;03:27:24:793;1448289804.44;(0.7160598754882812, 0.6761339399549696);68.2585678101;0.893317176513;0;0;0;0;0;0;0;0;0;();(-2000.0, -2000.0);
03:27:24:847;03:27:24:837;1448289804.51;(0.7156763553619385, 0.6755712297227647);67.4819488525;0.887361960606;0;0;0;0;0;0;0;0;0;();(-2000.0, -2000.0);
03:27:24:864;03:27:24:837;1448289804.51;(0.7156763553619385, 0.6755712297227647);67.4819488525;0.887361960606;0;0;0;0;0;0;0;0;0;();(-2000.0, -2000.0);
03:27:24:881;03:27:24:837;1448289804.51;(0.7156763553619385, 0.6755712297227647);67.4819488525;0.887361960606;0;0;0;0;0;0;0;0;0;();(-2000.0, -2000.0);
03:27:24:897;03:27:24:886;1448289804.54;(0.7149484157562256, 0.6760194354587131);68.6413574219;0.867424739232;0;0;0;0;0;0;0;0;0;();(-2000.0, -2000.0);
03:27:24:913;03:27:24:886;1448289804.54;(0.7149484157562256, 0.6760194354587131);68.6413574219;0.867424739232;0;0;0;0;0;0;0;0;0;();(-2000.0, -2000.0);
03:27:24:947;03:27:24:937;1448289804.61;(0.7142085075378418, 0.677276971605089);70.5687484741;1.0;0;0;0;0;0;0;0;0;0;();(-2000.0, -2000.0);
03:27:24:964;03:27:24:937;1448289804.61;(0.7142085075378418, 0.677276971605089);70.5687484741;1.0;0;0;0;0;0;0;0;0;0;();(-2000.0, -2000.0);
03:27:24:981;03:27:24:937;1448289804.61;(0.7142085075378418, 0.677276971605089);70.5687484741;1.0;0;0;0;0;0;0;0;0;0;();(-2000.0, -2000.0);
03:27:24:997;03:27:24:988;1448289804.64;(0.7139663219451904, 0.6775997161865235);71.0857772827;1.0;0;0;0;0;0;0;0;0;0;();(-2000.0, -2000.0);
03:27:25:013;03:27:24:988;1448289804.64;(0.7139663219451904, 0.6775997161865235);71.0857772827;1.0;0;0;0;0;0;0;0;0;0;();(-2000.0, -2000.0);
03:27:25:047;03:27:25:034;1448289804.71;(0.713392686843872, 0.6773050944010417);71.6075286865;1.0;0;0;0;0;0;0;0;0;0;();(-2000.0, -2000.0);
03:27:25:063;03:27:25:034;1448289804.71;(0.713392686843872, 0.6773050944010417);71.6075286865;1.0;0;0;0;0;0;0;0;0;0;();(-2000.0, -2000.0);
03:27:25:080;03:27:25:034;1448289804.71;(0.713392686843872, 0.6773050944010417);71.6075286865;1.0;0;0;0;0;0;0;0;0;0;();(-2000.0, -2000.0);
03:27:25:096;03:27:25:085;1448289804.74;(0.7132723331451416, 0.6779629389444988);71.7969818115;1.0;0;0;0;0;0;0;0;0;0;();(-2000.0, -2000.0);
03:27:25:130;03:27:25:085;1448289804.74;(0.7132723331451416, 0.6779629389444988);71.7969818115;1.0;0;0;0;0;0;0;0;0;0;();(-2000.0, -2000.0);
03:27:25:146;03:27:25:133;1448289804.78;(0.706723690032959, 0.6807112375895182);70.9763031006;0.981125403587;0;0;0;0;0;0;0;0;0;();(-2000.0, -2000.0);
03:27:25:163;03:27:25:133;1448289804.78;(0.706723690032959, 0.6807112375895182);70.9763031006;0.981125403587;0;0;0;0;0;0;0;0;0;();(-2000.0, -2000.0);
03:27:25:179;03:27:25:133;1448289804.78;(0.706723690032959, 0.6807112375895182);70.9763031006;0.981125403587;0;0;0;0;0;0;0;0;0;();(-2000.0, -2000.0);
03:27:25:196;03:27:25:189;1448289804.84;(0, 0);0;0;0;0;0;0;0;0;0;0;0;();(-2000.0, -2000.0);
03:27:25:213;03:27:25:189;1448289804.84;(0, 0);0;0;0;0;0;0;0;0;0;0;0;();(-2000.0, -2000.0);
03:27:25:246;03:27:25:233;1448289804.88;(0.3865216732025146, 0.6371955447726779);25.4887008667;0.68557354205;0;0;0;0;0;0;0;0;0;();(-2000.0, -2000.0);
03:27:25:262;03:27:25:233;1448289804.88;(0.3865216732025146, 0.6371955447726779);25.4887008667;0.68557354205;0;0;0;0;0;0;0;0;0;();(-2000.0, -2000.0);
03:27:25:279;03:27:25:233;1448289804.88;(0.3865216732025146, 0.6371955447726779);25.4887008667;0.68557354205;0;0;0;0;0;0;0;0;0;();(-2000.0, -2000.0);
03:27:25:295;03:27:25:285;1448289804.91;(0.6294036388397217, 0.7311769485473633);69.7562942505;0.69582198145;0;0;0;0;0;0;0;0;0;();(-2000.0, -2000.0);
03:27:25:328;03:27:25:285;1448289804.91;(0.6294036388397217, 0.7311769485473633);69.7562942505;0.69582198145;0;0;0;0;0;0;0;0;0;();(-2000.0, -2000.0);
03:27:25:345;03:27:25:333;1448289804.94;(0.6562596321105957, 0.726409191555447);73.5042648315;0.899038889658;0;0;0;0;0;0;0;0;0;();(-2000.0, -2000.0);
03:27:25:361;03:27:25:333;1448289804.94;(0.6562596321105957, 0.726409191555447);73.5042648315;0.899038889658;0;0;0;0;0;0;0;0;0;();(-2000.0, -2000.0);
03:27:25:377;03:27:25:333;1448289804.94;(0.6562596321105957, 0.726409191555447);73.5042648315;0.899038889658;0;0;0;0;0;0;0;0;0;();(-2000.0, -2000.0);
03:27:25:395;03:27:25:387;1448289805.04;(0.662788724899292, 0.7217614703708225);73.7911987305;0.855811513936;0;0;0;0;0;0;0;0;0;();(-2000.0, -2000.0);
03:27:25:427;03:27:25:387;1448289805.04;(0.662788724899292, 0.7217614703708225);73.7911987305;0.855811513936;0;0;0;0;0;0;0;0;0;();(-2000.0, -2000.0);
03:27:25:444;03:27:25:435;1448289805.11;(0.6638759136199951, 0.7215962939792209);73.7453231812;0.972441109277;0;0;0;0;0;0;0;0;0;();(-2000.0, -2000.0);
03:27:25:461;03:27:25:435;1448289805.11;(0.6638759136199951, 0.7215962939792209);73.7453231812;0.972441109277;0;0;0;0;0;0;0;0;0;();(-2000.0, -2000.0);
03:27:25:477;03:27:25:435;1448289805.11;(0.6638759136199951, 0.7215962939792209);73.7453231812;0.972441109277;0;0;0;0;0;0;0;0;0;();(-2000.0, -2000.0);
03:27:25:494;03:27:25:480;1448289805.14;(0.6642122268676758, 0.7213718626234267);73.8693084717;0.951259190419;0;0;0;0;0;0;0;0;0;();(-2000.0, -2000.0);
03:27:25:527;03:27:25:480;1448289805.14;(0.6642122268676758, 0.7213718626234267);73.8693084717;0.951259190419;0;0;0;0;0;0;0;0;0;();(-2000.0, -2000.0);
03:27:25:544;03:27:25:535;1448289805.21;(0.6651045322418213, 0.720943726433648);73.4588928223;1.0;0;0;0;0;0;0;0;0;0;();(-2000.0, -2000.0);
03:27:25:560;03:27:25:535;1448289805.21;(0.6651045322418213, 0.720943726433648);73.4588928223;1.0;0;0;0;0;0;0;0;0;0;();(-2000.0, -2000.0);
03:27:25:577;03:27:25:535;1448289805.21;(0.6651045322418213, 0.720943726433648);73.4588928223;1.0;0;0;0;0;0;0;0;0;0;();(-2000.0, -2000.0);
03:27:25:593;03:27:25:581;1448289805.24;(0.665437889099121, 0.7207023620605468);73.7258377075;1.0;0;0;0;0;0;0;0;0;0;();(-2000.0, -2000.0);
03:27:25:626;03:27:25:581;1448289805.24;(0.665437889099121, 0.7207023620605468);73.7258377075;1.0;0;0;0;0;0;0;0;0;0;();(-2000.0, -2000.0);
03:27:25:643;03:27:25:632;1448289805.28;(0.6655081748962403, 0.721291372511122);73.3854827881;0.969886485295;0;0;0;0;0;0;0;0;0;();(-2000.0, -2000.0);
03:27:25:660;03:27:25:632;1448289805.28;(0.6655081748962403, 0.721291372511122);73.3854827881;0.969886485295;0;0;0;0;0;0;0;0;0;();(-2000.0, -2000.0);
03:27:25:676;03:27:25:632;1448289805.28;(0.6655081748962403, 0.721291372511122);73.3854827881;0.969886485295;0;0;0;0;0;0;0;0;0;();(-2000.0, -2000.0);
03:27:25:709;03:27:25:685;1448289805.34;(0.665776538848877, 0.7210440317789714);72.8633041382;0.861186011497;0;0;0;0;0;0;0;0;0;();(-2000.0, -2000.0);
03:27:25:726;03:27:25:685;1448289805.34;(0.665776538848877, 0.7210440317789714);72.8633041382;0.861186011497;0;0;0;0;0;0;0;0;0;();(-2000.0, -2000.0);
03:27:25:742;03:27:25:732;1448289805.38;(0.6659020900726318, 0.7209517161051433);72.7292556763;0.926070893203;0;0;0;0;0;0;0;0;0;();(-2000.0, -2000.0);
03:27:25:759;03:27:25:732;1448289805.38;(0.6659020900726318, 0.7209517161051433);72.7292556763;0.926070893203;0;0;0;0;0;0;0;0;0;();(-2000.0, -2000.0);
03:27:25:776;03:27:25:732;1448289805.38;(0.6659020900726318, 0.7209517161051433);72.7292556763;0.926070893203;0;0;0;0;0;0;0;0;0;();(-2000.0, -2000.0);
03:27:25:809;03:27:25:786;1448289805.41;(0.662769889831543, 0.7204846488104926);70.4481048584;0.99209594543;0;0;0;0;0;0;0;0;0;();(-2000.0, -2000.0);
03:27:25:825;03:27:25:786;1448289805.41;(0.662769889831543, 0.7204846488104926);70.4481048584;0.99209594543;0;0;0;0;0;0;0;0;0;();(-2000.0, -2000.0);
03:27:25:841;03:27:25:833;1448289805.48;(0.6563700675964356, 0.7213552686903212);71.2808761597;0.908748141861;0;0;0;0;0;0;0;0;0;();(-2000.0, -2000.0);
03:27:25:858;03:27:25:833;1448289805.48;(0.6563700675964356, 0.7213552686903212);71.2808761597;0.908748141861;0;0;0;0;0;0;0;0;0;();(-2000.0, -2000.0);
03:27:25:874;03:27:25:833;1448289805.48;(0.6563700675964356, 0.7213552686903212);71.2808761597;0.908748141861;0;0;0;0;0;0;0;0;0;();(-2000.0, -2000.0);
03:27:25:907;03:27:25:880;1448289805.51;(0, 0);0;0;0;0;0;0;0;0;0;0;0;();(-2000.0, -2000.0);
03:27:25:924;03:27:25:880;1448289805.51;(0, 0);0;0;0;0;0;0;0;0;0;0;0;();(-2000.0, -2000.0);
03:27:25:941;03:27:25:930;1448289805.58;(0.6477574825286865, 0.7333312140570747);84.8154220581;0.602423665957;0;0;0;0;0;0;0;0;0;();(-2000.0, -2000.0);
03:27:25:957;03:27:25:930;1448289805.58;(0.6477574825286865, 0.7333312140570747);84.8154220581;0.602423665957;0;0;0;0;0;0;0;0;0;();(-2000.0, -2000.0);
03:27:25:974;03:27:25:930;1448289805.58;(0.6477574825286865, 0.7333312140570747);84.8154220581;0.602423665957;0;0;0;0;0;0;0;0;0;();(-2000.0, -2000.0);
03:27:26:007;03:27:25:980;1448289805.61;(0.6580521106719971, 0.722754881117079);67.5764770508;0.759435606991;0;0;0;0;0;0;0;0;0;();(-2000.0, -2000.0);
03:27:26:023;03:27:25:980;1448289805.61;(0.6580521106719971, 0.722754881117079);67.5764770508;0.759435606991;0;0;0;0;0;0;0;0;0;();(-2000.0, -2000.0);
03:27:26:041;03:27:26:030;1448289805.68;(0.6579930782318115, 0.722964859008789);68.2228088379;0.892281406187;0;0;0;0;0;0;0;0;0;();(-2000.0, -2000.0);
03:27:26:056;03:27:26:030;1448289805.68;(0.6579930782318115, 0.722964859008789);68.2228088379;0.892281406187;0;0;0;0;0;0;0;0;0;();(-2000.0, -2000.0);
03:27:26:073;03:27:26:030;1448289805.68;(0.6579930782318115, 0.722964859008789);68.2228088379;0.892281406187;0;0;0;0;0;0;0;0;0;();(-2000.0, -2000.0);
03:27:26:111;03:27:26:081;1448289805.74;(0.6581392288208008, 0.7232388814290365);67.679901123;1.0;0;0;0;0;0;0;0;0;0;();(-2000.0, -2000.0);
03:27:26:123;03:27:26:081;1448289805.74;(0.6581392288208008, 0.7232388814290365);67.679901123;1.0;0;0;0;0;0;0;0;0;0;();(-2000.0, -2000.0);
03:27:26:139;03:27:26:129;1448289805.78;(0.6583908081054688, 0.7230654610527887);66.8961486816;0.854442095954;0;0;0;0;0;0;0;0;0;();(-2000.0, -2000.0);
03:27:26:156;03:27:26:129;1448289805.78;(0.6583908081054688, 0.7230654610527887);66.8961486816;0.854442095954;0;0;0;0;0;0;0;0;0;();(-2000.0, -2000.0);
03:27:26:173;03:27:26:129;1448289805.78;(0.6583908081054688, 0.7230654610527887);66.8961486816;0.854442095954;0;0;0;0;0;0;0;0;0;();(-2000.0, -2000.0);
03:27:26:206;03:27:26:182;1448289805.84;(0.6587898254394531, 0.7232061174180773);66.3905944824;0.82402487327;0;0;0;0;0;0;0;0;0;();(-2000.0, -2000.0);
03:27:26:223;03:27:26:182;1448289805.84;(0.6587898254394531, 0.7232061174180773);66.3905944824;0.82402487327;0;0;0;0;0;0;0;0;0;();(-2000.0, -2000.0);
03:27:26:240;03:27:26:228;1448289805.88;(0.658598518371582, 0.7230458789401584);65.7248306274;0.97057916473;0;0;0;0;0;0;0;0;0;();(-2000.0, -2000.0);
03:27:26:256;03:27:26:228;1448289805.88;(0.658598518371582, 0.7230458789401584);65.7248306274;0.97057916473;0;0;0;0;0;0;0;0;0;();(-2000.0, -2000.0);
03:27:26:289;03:27:26:282;1448289805.94;(0.6585612297058105, 0.7197909884982638);64.4390487671;0.798572034564;0;0;0;0;0;0;0;0;0;();(-2000.0, -2000.0);
03:27:26:305;03:27:26:282;1448289805.94;(0.6585612297058105, 0.7197909884982638);64.4390487671;0.798572034564;0;0;0;0;0;0;0;0;0;();(-2000.0, -2000.0);
03:27:26:322;03:27:26:282;1448289805.94;(0.6585612297058105, 0.7197909884982638);64.4390487671;0.798572034564;0;0;0;0;0;0;0;0;0;();(-2000.0, -2000.0);
03:27:26:339;03:27:26:329;1448289805.98;(0.659162187576294, 0.721522945827908);64.7605667114;0.848731543908;0;0;0;0;0;0;0;0;0;();(-2000.0, -2000.0);
03:27:26:355;03:27:26:329;1448289805.98;(0.659162187576294, 0.721522945827908);64.7605667114;0.848731543908;0;0;0;0;0;0;0;0;0;();(-2000.0, -2000.0);
03:27:26:389;03:27:26:378;1448289806.04;(0.6591428756713867, 0.7221618016560872);65.128074646;0.825135575199;0;0;0;0;0;0;0;0;0;();(-2000.0, -2000.0);
03:27:26:405;03:27:26:378;1448289806.04;(0.6591428756713867, 0.7221618016560872);65.128074646;0.825135575199;0;0;0;0;0;0;0;0;0;();(-2000.0, -2000.0);
03:27:26:421;03:27:26:378;1448289806.04;(0.6591428756713867, 0.7221618016560872);65.128074646;0.825135575199;0;0;0;0;0;0;0;0;0;();(-2000.0, -2000.0);
03:27:26:438;03:27:26:430;1448289806.08;(0.6592038154602051, 0.7216551462809244);65.1554412842;0.822797886338;0;0;0;0;0;0;0;0;0;();(-2000.0, -2000.0);
03:27:26:455;03:27:26:430;1448289806.08;(0.6592038154602051, 0.7216551462809244);65.1554412842;0.822797886338;0;0;0;0;0;0;0;0;0;();(-2000.0, -2000.0);
03:27:26:488;03:27:26:477;1448289806.14;(0.6591617584228515, 0.7212790807088216);65.5014801025;0.957442485532;0;0;0;0;0;0;0;0;0;();(-2000.0, -2000.0);
03:27:26:505;03:27:26:477;1448289806.14;(0.6591617584228515, 0.7212790807088216);65.5014801025;0.957442485532;0;0;0;0;0;0;0;0;0;();(-2000.0, -2000.0);
03:27:26:521;03:27:26:477;1448289806.14;(0.6591617584228515, 0.7212790807088216);65.5014801025;0.957442485532;0;0;0;0;0;0;0;0;0;();(-2000.0, -2000.0);
03:27:26:537;03:27:26:530;1448289806.18;(0.6590976238250732, 0.7210306379530165);66.0493240356;1.0;0;0;0;0;0;0;0;0;0;();(-2000.0, -2000.0);
03:27:26:554;03:27:26:530;1448289806.18;(0.6590976238250732, 0.7210306379530165);66.0493240356;1.0;0;0;0;0;0;0;0;0;0;();(-2000.0, -2000.0);
03:27:26:587;03:27:26:578;1448289806.24;(0, 0);0;0;0;0;0;0;0;0;0;0;0;();(-2000.0, -2000.0);
03:27:26:604;03:27:26:578;1448289806.24;(0, 0);0;0;0;0;0;0;0;0;0;0;0;();(-2000.0, -2000.0);
03:27:26:620;03:27:26:578;1448289806.24;(0, 0);0;0;0;0;0;0;0;0;0;0;0;();(-2000.0, -2000.0);
03:27:26:637;03:27:26:632;1448289806.28;(0.718984317779541, 0.6892361746893989);67.4233551025;1.0;0;0;0;0;0;0;0;0;0;();(-2000.0, -2000.0);
03:27:26:653;03:27:26:632;1448289806.28;(0.718984317779541, 0.6892361746893989);67.4233551025;1.0;0;0;0;0;0;0;0;0;0;();(-2000.0, -2000.0);
03:27:26:687;03:27:26:632;1448289806.28;(0.718984317779541, 0.6892361746893989);67.4233551025;1.0;0;0;0;0;0;0;0;0;0;();(-2000.0, -2000.0);
03:27:26:703;03:27:26:632;1448289806.28;(0.718984317779541, 0.6892361746893989);67.4233551025;1.0;0;0;0;0;0;0;0;0;0;();(-2000.0, -2000.0);
03:27:26:720;03:27:26:632;1448289806.28;(0.718984317779541, 0.6892361746893989);67.4233551025;1.0;0;0;0;0;0;0;0;0;0;();(-2000.0, -2000.0);
03:27:26:736;03:27:26:730;1448289806.39;(0.752058458328247, 0.661841180589464);64.8616790771;0.951044250817;0;0;0;0;0;0;0;0;0;();(-2000.0, -2000.0);
03:27:26:753;03:27:26:730;1448289806.39;(0.752058458328247, 0.661841180589464);64.8616790771;0.951044250817;0;0;0;0;0;0;0;0;0;();(-2000.0, -2000.0);
03:27:26:786;03:27:26:776;1448289806.41;(0.7532333850860595, 0.6569382985432943);67.574836731;1.0;0;0;0;0;0;0;0;0;0;();(-2000.0, -2000.0);
03:27:26:802;03:27:26:776;1448289806.41;(0.7532333850860595, 0.6569382985432943);67.574836731;1.0;0;0;0;0;0;0;0;0;0;();(-2000.0, -2000.0);
03:27:26:820;03:27:26:776;1448289806.41;(0.7532333850860595, 0.6569382985432943);67.574836731;1.0;0;0;0;0;0;0;0;0;0;();(-2000.0, -2000.0);
03:27:26:836;03:27:26:826;1448289806.44;(0.7575299739837646, 0.6472375869750977);67.8258590698;1.0;0;0;0;0;0;0;0;0;0;();(-2000.0, -2000.0);
03:27:26:869;03:27:26:826;1448289806.44;(0.7575299739837646, 0.6472375869750977);67.8258590698;1.0;0;0;0;0;0;0;0;0;0;();(-2000.0, -2000.0);
03:27:26:886;03:27:26:876;1448289806.5;(0.7592394351959229, 0.6422213448418511);67.8348846436;0.997193848765;0;0;0;0;0;0;0;0;0;();(-2000.0, -2000.0);
03:27:26:902;03:27:26:876;1448289806.5;(0.7592394351959229, 0.6422213448418511);67.8348846436;0.997193848765;0;0;0;0;0;0;0;0;0;();(-2000.0, -2000.0);
03:27:26:918;03:27:26:876;1448289806.5;(0.7592394351959229, 0.6422213448418511);67.8348846436;0.997193848765;0;0;0;0;0;0;0;0;0;();(-2000.0, -2000.0);
03:27:26:936;03:27:26:925;1448289806.54;(0.7560521125793457, 0.6425970289442274);67.5848464966;0.922428473713;0;0;0;0;0;0;0;0;0;();(-2000.0, -2000.0);
03:27:26:969;03:27:26:939;1448289806.59;(0.7549338817596436, 0.6426073498196072);67.9223403931;0.998842666801;0;0;0;0;0;0;0;0;0;();(-2000.0, -2000.0);
03:27:26:985;03:27:26:978;1448289806.64;(0.752941370010376, 0.6442541122436524);68.4342956543;0.809533750141;0;0;0;0;0;0;0;0;0;();(-2000.0, -2000.0);
03:27:27:002;03:27:26:978;1448289806.64;(0.752941370010376, 0.6442541122436524);68.4342956543;0.809533750141;0;0;0;0;0;0;0;0;0;();(-2000.0, -2000.0);
03:27:27:018;03:27:26:978;1448289806.64;(0.752941370010376, 0.6442541122436524);68.4342956543;0.809533750141;0;0;0;0;0;0;0;0;0;();(-2000.0, -2000.0);
03:27:27:034;03:27:27:025;1448289806.68;(0.7519883155822754, 0.6453419579399957);68.1796340942;0.889995485483;0;0;0;0;0;0;0;0;0;();(-2000.0, -2000.0);
03:27:27:067;03:27:27:025;1448289806.68;(0.7519883155822754, 0.6453419579399957);68.1796340942;0.889995485483;0;0;0;0;0;0;0;0;0;();(-2000.0, -2000.0);
03:27:27:084;03:27:27:077;1448289806.74;(0.7510248184204101, 0.6460535049438476);68.4835205078;0.992904249724;0;0;0;0;0;0;0;0;0;();(-2000.0, -2000.0);
03:27:27:101;03:27:27:077;1448289806.74;(0.7510248184204101, 0.6460535049438476);68.4835205078;0.992904249724;0;0;0;0;0;0;0;0;0;();(-2000.0, -2000.0);
03:27:27:117;03:27:27:077;1448289806.74;(0.7510248184204101, 0.6460535049438476);68.4835205078;0.992904249724;0;0;0;0;0;0;0;0;0;();(-2000.0, -2000.0);
03:27:27:134;03:27:27:124;1448289806.78;(0.7505727291107178, 0.6470226923624675);69.003288269;0.884454081334;0;0;0;0;0;0;0;0;0;();(-2000.0, -2000.0);
03:27:27:167;03:27:27:124;1448289806.78;(0.7505727291107178, 0.6470226923624675);69.003288269;0.884454081334;0;0;0;0;0;0;0;0;0;();(-2000.0, -2000.0);
03:27:27:183;03:27:27:177;1448289806.84;(0.7489639282226562, 0.647563468085395);69.2311325073;0.831031779226;0;0;0;0;0;0;0;0;0;();(-2000.0, -2000.0);
03:27:27:200;03:27:27:177;1448289806.84;(0.7489639282226562, 0.647563468085395);69.2311325073;0.831031779226;0;0;0;0;0;0;0;0;0;();(-2000.0, -2000.0);
03:27:27:217;03:27:27:177;1448289806.84;(0.7489639282226562, 0.647563468085395);69.2311325073;0.831031779226;0;0;0;0;0;0;0;0;0;();(-2000.0, -2000.0);
03:27:27:234;03:27:27:227;1448289806.88;(0.7481686115264893, 0.6481817881266276);69.0917434692;0.904427590818;0;0;0;0;0;0;0;0;0;();(-2000.0, -2000.0);
03:27:27:266;03:27:27:227;1448289806.88;(0.7481686115264893, 0.6481817881266276);69.0917434692;0.904427590818;0;0;0;0;0;0;0;0;0;();(-2000.0, -2000.0);
03:27:27:283;03:27:27:274;1448289806.94;(0.7473417282104492, 0.6484159469604492);69.6893081665;1.0;0;0;0;0;0;0;0;0;0;();(-2000.0, -2000.0);
03:27:27:299;03:27:27:274;1448289806.94;(0.7473417282104492, 0.6484159469604492);69.6893081665;1.0;0;0;0;0;0;0;0;0;0;();(-2000.0, -2000.0);
03:27:27:317;03:27:27:274;1448289806.94;(0.7473417282104492, 0.6484159469604492);69.6893081665;1.0;0;0;0;0;0;0;0;0;0;();(-2000.0, -2000.0);
03:27:27:333;03:27:27:324;1448289806.98;(0.7471391677856445, 0.6479600058661568);69.8913345337;1.0;0;0;0;0;0;0;0;0;0;();(-2000.0, -2000.0);
03:27:27:366;03:27:27:324;1448289806.98;(0.7471391677856445, 0.6479600058661568);69.8913345337;1.0;0;0;0;0;0;0;0;0;0;();(-2000.0, -2000.0);
03:27:27:382;03:27:27:373;1448289807.04;(0.7470180988311768, 0.6484960132175022);70.0081634521;1.0;0;0;0;0;0;0;0;0;0;();(-2000.0, -2000.0);
03:27:27:398;03:27:27:373;1448289807.04;(0.7470180988311768, 0.6484960132175022);70.0081634521;1.0;0;0;0;0;0;0;0;0;0;();(-2000.0, -2000.0);
03:27:27:416;03:27:27:373;1448289807.04;(0.7470180988311768, 0.6484960132175022);70.0081634521;1.0;0;0;0;0;0;0;0;0;0;();(-2000.0, -2000.0);
03:27:27:448;03:27:27:426;1448289807.08;(0.7469490528106689, 0.6489930894639757);70.1067886353;1.0;0;0;0;0;0;0;0;0;0;();(-2000.0, -2000.0);
03:27:27:466;03:27:27:426;1448289807.08;(0.7469490528106689, 0.6489930894639757);70.1067886353;1.0;0;0;0;0;0;0;0;0;0;();(-2000.0, -2000.0);
03:27:27:482;03:27:27:472;1448289807.11;(0.7464453697204589, 0.6497667736477322);69.6998214722;1.0;0;0;0;0;0;0;0;0;0;();(-2000.0, -2000.0);
03:27:27:498;03:27:27:472;1448289807.11;(0.7464453697204589, 0.6497667736477322);69.6998214722;1.0;0;0;0;0;0;0;0;0;0;();(-2000.0, -2000.0);
03:27:27:514;03:27:27:472;1448289807.11;(0.7464453697204589, 0.6497667736477322);69.6998214722;1.0;0;0;0;0;0;0;0;0;0;();(-2000.0, -2000.0);
03:27:27:548;03:27:27:526;1448289807.18;(0.71046142578125, 0.6797876993815104);70.8972396851;0.8389299386;0;0;0;0;0;0;0;0;0;();(-2000.0, -2000.0);
03:27:27:564;03:27:27:526;1448289807.18;(0.71046142578125, 0.6797876993815104);70.8972396851;0.8389299386;0;0;0;0;0;0;0;0;0;();(-2000.0, -2000.0);
03:27:27:581;03:27:27:573;1448289807.24;(0.7102844715118408, 0.6790172153049046);70.7132644653;1.0;0;0;0;0;0;0;0;0;0;();(-2000.0, -2000.0);
03:27:27:598;03:27:27:573;1448289807.24;(0.7102844715118408, 0.6790172153049046);70.7132644653;1.0;0;0;0;0;0;0;0;0;0;();(-2000.0, -2000.0);
03:27:27:614;03:27:27:573;1448289807.24;(0.7102844715118408, 0.6790172153049046);70.7132644653;1.0;0;0;0;0;0;0;0;0;0;();(-2000.0, -2000.0);
03:27:27:648;03:27:27:624;1448289807.28;(0.7103182315826416, 0.6787897533840603);70.690536499;0.99421281016;0;0;0;0;0;0;0;0;0;();(-2000.0, -2000.0);
03:27:27:664;03:27:27:624;1448289807.28;(0.7103182315826416, 0.6787897533840603);70.690536499;0.99421281016;0;0;0;0;0;0;0;0;0;();(-2000.0, -2000.0);
03:27:27:680;03:27:27:674;1448289807.34;(0.711305809020996, 0.6785199271308051);70.665687561;0.843337779409;0;0;0;0;0;0;0;0;0;();(-2000.0, -2000.0);
03:27:27:697;03:27:27:674;1448289807.34;(0.711305809020996, 0.6785199271308051);70.665687561;0.843337779409;0;0;0;0;0;0;0;0;0;();(-2000.0, -2000.0);
03:27:27:713;03:27:27:674;1448289807.34;(0.711305809020996, 0.6785199271308051);70.665687561;0.843337779409;0;0;0;0;0;0;0;0;0;();(-2000.0, -2000.0);
03:27:27:747;03:27:27:721;1448289807.38;(0.7119715690612793, 0.6778414196438259);71.093170166;0.910413002379;0;0;0;0;0;0;0;0;0;();(-2000.0, -2000.0);
03:27:27:763;03:27:27:721;1448289807.38;(0.7119715690612793, 0.6778414196438259);71.093170166;0.910413002379;0;0;0;0;0;0;0;0;0;();(-2000.0, -2000.0);
03:27:27:780;03:27:27:773;1448289807.41;(0.7119239330291748, 0.6774144702487521);70.6689147949;1.0;0;0;0;0;0;0;0;0;0;();(-2000.0, -2000.0);
03:27:27:797;03:27:27:773;1448289807.41;(0.7119239330291748, 0.6774144702487521);70.6689147949;1.0;0;0;0;0;0;0;0;0;0;();(-2000.0, -2000.0);
03:27:27:813;03:27:27:773;1448289807.41;(0.7119239330291748, 0.6774144702487521);70.6689147949;1.0;0;0;0;0;0;0;0;0;0;();(-2000.0, -2000.0);
03:27:27:846;03:27:27:822;1448289807.48;(0, 0);0;0;0;0;0;0;0;0;0;0;0;();(-2000.0, -2000.0);
03:27:27:863;03:27:27:822;1448289807.48;(0, 0);0;0;0;0;0;0;0;0;0;0;0;();(-2000.0, -2000.0);
03:27:27:879;03:27:27:873;1448289807.54;(0.6357813835144043, 0.672975582546658);43.5248680115;0.614521029636;0;0;0;0;0;0;0;0;0;();(-2000.0, -2000.0);
03:27:27:896;03:27:27:873;1448289807.54;(0.6357813835144043, 0.672975582546658);43.5248680115;0.614521029636;0;0;0;0;0;0;0;0;0;();(-2000.0, -2000.0);
03:27:27:913;03:27:27:873;1448289807.54;(0.6357813835144043, 0.672975582546658);43.5248680115;0.614521029636;0;0;0;0;0;0;0;0;0;();(-2000.0, -2000.0);
03:27:27:946;03:27:27:920;1448289807.58;(0.22886668443679808, 0.7757457521226672);20.1379394531;0.655867336331;0;0;0;0;0;0;0;0;0;();(-2000.0, -2000.0);
03:27:27:962;03:27:27:920;1448289807.58;(0.22886668443679808, 0.7757457521226672);20.1379394531;0.655867336331;0;0;0;0;0;0;0;0;0;();(-2000.0, -2000.0);
03:27:27:979;03:27:27:975;1448289807.61;(0, 0);0;0;0;0;0;0;0;0;0;0;0;();(-2000.0, -2000.0);
03:27:27:995;03:27:27:975;1448289807.61;(0, 0);0;0;0;0;0;0;0;0;0;0;0;();(-2000.0, -2000.0);
03:27:28:028;03:27:28:021;1448289807.68;(0.32506346702575684, 0.7837169223361545);40.154510498;0.632898898521;0;0;0;0;0;0;0;0;0;();(-2000.0, -2000.0);
03:27:28:046;03:27:28:021;1448289807.68;(0.32506346702575684, 0.7837169223361545);40.154510498;0.632898898521;0;0;0;0;0;0;0;0;0;();(-2000.0, -2000.0);
03:27:28:061;03:27:28:021;1448289807.68;(0.32506346702575684, 0.7837169223361545);40.154510498;0.632898898521;0;0;0;0;0;0;0;0;0;();(-2000.0, -2000.0);
03:27:28:078;03:27:28:072;1448289807.71;(0.600377082824707, 0.8010967042711046);68.3842773438;0.905414064878;0;0;0;0;0;0;0;0;0;();(-2000.0, -2000.0);
03:27:28:095;03:27:28:072;1448289807.71;(0.600377082824707, 0.8010967042711046);68.3842773438;0.905414064878;0;0;0;0;0;0;0;0;0;();(-2000.0, -2000.0);
03:27:28:128;03:27:28:122;1448289807.78;(0, 0);0;0;0;0;0;0;0;0;0;0;0;();(-2000.0, -2000.0);
03:27:28:144;03:27:28:122;1448289807.78;(0, 0);0;0;0;0;0;0;0;0;0;0;0;();(-2000.0, -2000.0);
03:27:28:161;03:27:28:122;1448289807.78;(0, 0);0;0;0;0;0;0;0;0;0;0;0;();(-2000.0, -2000.0);
03:27:28:177;03:27:28:170;1448289807.81;(0.6104843616485596, 0.7964909871419271);68.4149551392;0.857312664723;0;0;0;0;0;0;0;0;0;();(-2000.0, -2000.0);
03:27:28:194;03:27:28:170;1448289807.81;(0.6104843616485596, 0.7964909871419271);68.4149551392;0.857312664723;0;0;0;0;0;0;0;0;0;();(-2000.0, -2000.0);
03:27:28:227;03:27:28:221;1448289807.88;(0.607276725769043, 0.7944321314493815);69.1649932861;0.665677570576;0;0;0;0;0;0;0;0;0;();(-2000.0, -2000.0);
03:27:28:244;03:27:28:221;1448289807.88;(0.607276725769043, 0.7944321314493815);69.1649932861;0.665677570576;0;0;0;0;0;0;0;0;0;();(-2000.0, -2000.0);
03:27:28:261;03:27:28:221;1448289807.88;(0.607276725769043, 0.7944321314493815);69.1649932861;0.665677570576;0;0;0;0;0;0;0;0;0;();(-2000.0, -2000.0);
03:27:28:278;03:27:28:221;1448289807.88;(0.607276725769043, 0.7944321314493815);69.1649932861;0.665677570576;0;0;0;0;0;0;0;0;0;();(-2000.0, -2000.0);
03:27:28:294;03:27:28:276;1448289807.94;(0, 0);0;0;0;0;0;0;0;0;0;0;0;();(-2000.0, -2000.0);
03:27:28:314;03:27:28:276;1448289807.94;(0, 0);0;0;0;0;0;0;0;0;0;0;0;();(-2000.0, -2000.0);
03:27:28:346;03:27:28:320;1448289807.98;(0.6127928256988525, 0.7900746239556207);67.2772598267;0.6053529952;0;0;0;0;0;0;0;0;0;();(-2000.0, -2000.0);
03:27:28:362;03:27:28:320;1448289807.98;(0.6127928256988525, 0.7900746239556207);67.2772598267;0.6053529952;0;0;0;0;0;0;0;0;0;();(-2000.0, -2000.0);
03:27:28:380;03:27:28:368;1448289808.01;(0.6136865139007568, 0.7891884909735786);67.9474182129;0.835529664862;0;0;0;0;0;0;0;0;0;();(-2000.0, -2000.0);
03:27:28:396;03:27:28:368;1448289808.01;(0.6136865139007568, 0.7891884909735786);67.9474182129;0.835529664862;0;0;0;0;0;0;0;0;0;();(-2000.0, -2000.0);
03:27:28:430;03:27:28:422;1448289808.08;(0.6155959606170655, 0.7837440702650282);67.1590118408;0.682184360373;0;0;0;0;0;0;0;0;0;();(-2000.0, -2000.0);
03:27:28:446;03:27:28:422;1448289808.08;(0.6155959606170655, 0.7837440702650282);67.1590118408;0.682184360373;0;0;0;0;0;0;0;0;0;();(-2000.0, -2000.0);
03:27:28:463;03:27:28:422;1448289808.08;(0.6155959606170655, 0.7837440702650282);67.1590118408;0.682184360373;0;0;0;0;0;0;0;0;0;();(-2000.0, -2000.0);
03:27:28:479;03:27:28:422;1448289808.08;(0.6155959606170655, 0.7837440702650282);67.1590118408;0.682184360373;0;0;0;0;0;0;0;0;0;();(-2000.0, -2000.0);
03:27:28:496;03:27:28:481;1448289808.11;(0, 0);0;0;0;0;0;0;0;0;0;0;0;();(-2000.0, -2000.0);
03:27:28:529;03:27:28:522;1448289808.18;(0.6172092914581299, 0.7847184075249566);67.8309249878;0.850711485801;0;0;0;0;0;0;0;0;0;();(-2000.0, -2000.0);
03:27:28:545;03:27:28:522;1448289808.18;(0.6172092914581299, 0.7847184075249566);67.8309249878;0.850711485801;0;0;0;0;0;0;0;0;0;();(-2000.0, -2000.0);
03:27:28:562;03:27:28:522;1448289808.18;(0.6172092914581299, 0.7847184075249566);67.8309249878;0.850711485801;0;0;0;0;0;0;0;0;0;();(-2000.0, -2000.0);
03:27:28:580;03:27:28:575;1448289808.24;(0.6179597854614258, 0.7832310358683268);67.0794219971;0.872395763657;0;0;0;0;0;0;0;0;0;();(-2000.0, -2000.0);
03:27:28:595;03:27:28:575;1448289808.24;(0.6179597854614258, 0.7832310358683268);67.0794219971;0.872395763657;0;0;0;0;0;0;0;0;0;();(-2000.0, -2000.0);
03:27:28:628;03:27:28:617;1448289808.28;(0.6186044692993165, 0.7828303866916233);66.5916671753;0.870694173707;0;0;0;0;0;0;0;0;0;();(-2000.0, -2000.0);
03:27:28:645;03:27:28:617;1448289808.28;(0.6186044692993165, 0.7828303866916233);66.5916671753;0.870694173707;0;0;0;0;0;0;0;0;0;();(-2000.0, -2000.0);
