%Timestamp,timestamp_write;timestamp_gotpupil;eyeTrackerTime;normPos;diameter;confidence;timestamp_gotbitdata;CRC;SEQ;AnalogOutp1;AnalogOutp2;AnalogOutp3;AnalogOutp4;AnalogOutp5;AnalogOutp6;DigitalOutp1;DigitalOutp2;DigitalOutp3;DigitalOutp4;nplanes;listofAirplanesonScreen;lastAction;lastActionDetails;lastActionAirplaneNumber;calculatedScore;positiveScore;negativeScore;collidedAirplaneNumbers;targetPositions;collisionPoint
12:24:25:971;12:24:25:958;1448408424.51;(0.6367862701416016, 0.8560623168945313);82.2383117676;0.86298320071;;;;;;;;;;;;;;0;0;0;0;0;0;0;0;0;();(0.0, 0.0);
12:24:25:984;12:24:25:974;1448408424.54;(0.6189066886901855, 0.8568978945414225);82.6405944824;0.629798813563;;;;;;;;;;;;;;0;0;0;0;0;0;0;0;0;();(-2000.0, -2000.0);
12:24:25:992;12:24:25:974;1448408424.54;(0.6189066886901855, 0.8568978945414225);82.6405944824;0.629798813563;;;;;;;;;;;;;;0;0;0;0;0;0;0;0;0;();(-2000.0, -2000.0);
12:24:25:997;12:24:25:974;1448408424.54;(0.6189066886901855, 0.8568978945414225);82.6405944824;0.629798813563;;;;;;;;;;;;;;0;0;0;0;0;0;0;0;0;();(-2000.0, -2000.0);
12:24:26:000;12:24:25:974;1448408424.54;(0.6189066886901855, 0.8568978945414225);82.6405944824;0.629798813563;;;;;;;;;;;;;;0;0;0;0;0;0;0;0;0;();(-2000.0, -2000.0);
12:24:26:003;12:24:25:974;1448408424.54;(0.6189066886901855, 0.8568978945414225);82.6405944824;0.629798813563;;;;;;;;;;;;;;0;0;0;0;0;0;0;0;0;();(-2000.0, -2000.0);
12:24:26:006;12:24:25:974;1448408424.54;(0.6189066886901855, 0.8568978945414225);82.6405944824;0.629798813563;;;;;;;;;;;;;;0;0;0;0;0;0;0;0;0;();(-2000.0, -2000.0);
12:24:26:009;12:24:25:974;1448408424.54;(0.6189066886901855, 0.8568978945414225);82.6405944824;0.629798813563;;;;;;;;;;;;;;0;0;0;0;0;0;0;0;0;();(-2000.0, -2000.0);
12:24:26:012;12:24:25:974;1448408424.54;(0.6189066886901855, 0.8568978945414225);82.6405944824;0.629798813563;;;;;;;;;;;;;;0;0;0;0;0;0;0;0;0;();(-2000.0, -2000.0);
12:24:26:015;12:24:25:974;1448408424.54;(0.6189066886901855, 0.8568978945414225);82.6405944824;0.629798813563;;;;;;;;;;;;;;0;0;0;0;0;0;0;0;0;();(-2000.0, -2000.0);
12:24:26:018;12:24:25:974;1448408424.54;(0.6189066886901855, 0.8568978945414225);82.6405944824;0.629798813563;;;;;;;;;;;;;;0;0;0;0;0;0;0;0;0;();(-2000.0, -2000.0);
12:24:26:021;12:24:25:974;1448408424.54;(0.6189066886901855, 0.8568978945414225);82.6405944824;0.629798813563;;;;;;;;;;;;;;0;0;0;0;0;0;0;0;0;();(-2000.0, -2000.0);
12:24:26:025;12:24:26:021;1448408424.58;(0.6172034740447998, 0.8568551487392849);83.4322509766;0.838950866609;;;;;;;;;;;;;;0;0;0;0;0;0;0;0;0;();(-2000.0, -2000.0);
12:24:26:030;12:24:26:022;1448408424.61;(0.6163901329040528, 0.8572873645358615);84.3245773315;0.86345028975;;;;;;;;;;;;;;0;0;0;0;0;0;0;0;0;();(-2000.0, -2000.0);
12:24:26:033;12:24:26:022;1448408424.61;(0.6163901329040528, 0.8572873645358615);84.3245773315;0.86345028975;;;;;;;;;;;;;;0;0;0;0;0;0;0;0;0;();(-2000.0, -2000.0);
12:24:26:035;12:24:26:022;1448408424.61;(0.6163901329040528, 0.8572873645358615);84.3245773315;0.86345028975;;;;;;;;;;;;;;0;0;0;0;0;0;0;0;0;();(-2000.0, -2000.0);
12:24:26:039;12:24:26:022;1448408424.61;(0.6163901329040528, 0.8572873645358615);84.3245773315;0.86345028975;;;;;;;;;;;;;;0;0;0;0;0;0;0;0;0;();(-2000.0, -2000.0);
12:24:26:042;12:24:26:022;1448408424.61;(0.6163901329040528, 0.8572873645358615);84.3245773315;0.86345028975;;;;;;;;;;;;;;0;0;0;0;0;0;0;0;0;();(-2000.0, -2000.0);
12:24:26:045;12:24:26:022;1448408424.61;(0.6163901329040528, 0.8572873645358615);84.3245773315;0.86345028975;;;;;;;;;;;;;;0;0;0;0;0;0;0;0;0;();(-2000.0, -2000.0);
12:24:26:048;12:24:26:022;1448408424.61;(0.6163901329040528, 0.8572873645358615);84.3245773315;0.86345028975;;;;;;;;;;;;;;0;0;0;0;0;0;0;0;0;();(-2000.0, -2000.0);
12:24:26:051;12:24:26:022;1448408424.61;(0.6163901329040528, 0.8572873645358615);84.3245773315;0.86345028975;;;;;;;;;;;;;;0;0;0;0;0;0;0;0;0;();(-2000.0, -2000.0);
12:24:26:070;12:24:26:022;1448408424.61;(0.6163901329040528, 0.8572873645358615);84.3245773315;0.86345028975;;;;;;;;;;;;;;0;0;0;0;0;0;0;0;0;();(-2000.0, -2000.0);
12:24:26:087;12:24:26:022;1448408424.61;(0.6163901329040528, 0.8572873645358615);84.3245773315;0.86345028975;;;;;;;;;;;;;;0;0;0;0;0;0;0;0;0;();(-2000.0, -2000.0);
12:24:26:121;12:24:26:088;1448408424.64;(0.6183753967285156, 0.8554108619689942);82.4040222168;0.687868673357;;;;;;;;;;;;;;0;0;0;0;0;0;0;0;0;();(-2000.0, -2000.0);
12:24:26:137;12:24:26:088;1448408424.64;(0.6183753967285156, 0.8554108619689942);82.4040222168;0.687868673357;;;;;;;;;;;;;;0;0;0;0;0;0;0;0;0;();(-2000.0, -2000.0);
12:24:26:154;12:24:26:088;1448408424.64;(0.6183753967285156, 0.8554108619689942);82.4040222168;0.687868673357;;;;;;;;;;;;;;0;0;0;0;0;0;0;0;0;();(-2000.0, -2000.0);
12:24:26:170;12:24:26:159;1448408424.71;(0, 0);0;0;;;;;;;;;;;;;;0;0;0;0;0;0;0;0;0;();(-2000.0, -2000.0);
12:24:26:187;12:24:26:159;1448408424.71;(0, 0);0;0;;;;;;;;;;;;;;0;0;0;0;0;0;0;0;0;();(-2000.0, -2000.0);
12:24:26:221;12:24:26:159;1448408424.71;(0, 0);0;0;;;;;;;;;;;;;;0;0;0;0;0;0;0;0;0;();(-2000.0, -2000.0);
12:24:26:237;12:24:26:225;1448408424.78;(0.6173819541931153, 0.8631886906094022);83.8277359009;0.748162777229;;;;;;;;;;;;;;0;0;0;0;0;0;0;0;0;();(-2000.0, -2000.0);
12:24:26:254;12:24:26:225;1448408424.78;(0.6173819541931153, 0.8631886906094022);83.8277359009;0.748162777229;;;;;;;;;;;;;;0;0;0;0;0;0;0;0;0;();(-2000.0, -2000.0);
12:24:26:270;12:24:26:225;1448408424.78;(0.6173819541931153, 0.8631886906094022);83.8277359009;0.748162777229;;;;;;;;;;;;;;0;0;0;0;0;0;0;0;0;();(-2000.0, -2000.0);
12:24:26:287;12:24:26:225;1448408424.78;(0.6173819541931153, 0.8631886906094022);83.8277359009;0.748162777229;;;;;;;;;;;;;;0;0;0;0;0;0;0;0;0;();(-2000.0, -2000.0);
12:24:26:321;12:24:26:291;1448408424.84;(0, 0);0;0;;;;;;;;;;;;;;0;0;0;0;0;0;0;0;0;();(-2000.0, -2000.0);
12:24:26:337;12:24:26:291;1448408424.84;(0, 0);0;0;;;;;;;;;;;;;;0;0;0;0;0;0;0;0;0;();(-2000.0, -2000.0);
12:24:26:354;12:24:26:291;1448408424.84;(0, 0);0;0;;;;;;;;;;;;;;0;0;0;0;0;0;0;0;0;();(-2000.0, -2000.0);
12:24:26:371;12:24:26:355;1448408424.91;(0.6155343055725098, 0.8589390648735894);84.9907989502;0.941132965231;;;;;;;;;;;;;;0;0;0;0;0;0;0;0;0;();(-2000.0, -2000.0);
12:24:26:387;12:24:26:355;1448408424.91;(0.6155343055725098, 0.8589390648735894);84.9907989502;0.941132965231;;;;;;;;;;;;;;0;0;0;0;0;0;0;0;0;();(-2000.0, -2000.0);
12:24:26:421;12:24:26:355;1448408424.91;(0.6155343055725098, 0.8589390648735894);84.9907989502;0.941132965231;;;;;;;;;;;;;;0;0;0;0;0;0;0;0;0;();(-2000.0, -2000.0);
12:24:26:437;12:24:26:425;1448408424.98;(0.3211935520172119, 0.7033676359388563);18.414642334;0.773331801496;;;;;;;;;;;;;;0;0;0;0;0;0;0;0;0;();(-2000.0, -2000.0);
12:24:26:454;12:24:26:425;1448408424.98;(0.3211935520172119, 0.7033676359388563);18.414642334;0.773331801496;;;;;;;;;;;;;;0;0;0;0;0;0;0;0;0;();(-2000.0, -2000.0);
12:24:26:470;12:24:26:425;1448408424.98;(0.3211935520172119, 0.7033676359388563);18.414642334;0.773331801496;;;;;;;;;;;;;;0;0;0;0;0;0;0;0;0;();(-2000.0, -2000.0);
12:24:26:486;12:24:26:425;1448408424.98;(0.3211935520172119, 0.7033676359388563);18.414642334;0.773331801496;;;;;;;;;;;;;;0;0;0;0;0;0;0;0;0;();(-2000.0, -2000.0);
12:24:26:521;12:24:26:491;1448408425.04;(0.6290178298950195, 0.8596173816257053);86.0839157104;0.681098291447;;;;;;;;;;;;;;0;0;0;0;0;0;0;0;0;();(-2000.0, -2000.0);
12:24:26:537;12:24:26:491;1448408425.04;(0.6290178298950195, 0.8596173816257053);86.0839157104;0.681098291447;;;;;;;;;;;;;;0;0;0;0;0;0;0;0;0;();(-2000.0, -2000.0);
12:24:26:554;12:24:26:491;1448408425.04;(0.6290178298950195, 0.8596173816257053);86.0839157104;0.681098291447;;;;;;;;;;;;;;0;0;0;0;0;0;0;0;0;();(-2000.0, -2000.0);
12:24:26:571;12:24:26:566;1448408425.11;(0, 0);0;0;;;;;;;;;;;;;;0;0;0;0;0;0;0;0;0;();(-2000.0, -2000.0);
12:24:26:588;12:24:26:566;1448408425.11;(0, 0);0;0;;;;;;;;;;;;;;0;0;0;0;0;0;0;0;0;();(-2000.0, -2000.0);
12:24:26:621;12:24:26:566;1448408425.11;(0, 0);0;0;;;;;;;;;;;;;;0;0;0;0;0;0;0;0;0;();(-2000.0, -2000.0);
12:24:26:637;12:24:26:622;1448408425.18;(0, 0);0;0;;;;;;;;;;;;;;0;0;0;0;0;0;0;0;0;();(-2000.0, -2000.0);
12:24:26:654;12:24:26:622;1448408425.18;(0, 0);0;0;;;;;;;;;;;;;;0;0;0;0;0;0;0;0;0;();(-2000.0, -2000.0);
12:24:26:671;12:24:26:622;1448408425.18;(0, 0);0;0;;;;;;;;;;;;;;0;0;0;0;0;0;0;0;0;();(-2000.0, -2000.0);
12:24:26:688;12:24:26:685;1448408425.21;(0.8787956237792969, 0.6120599110921223);20.772731781;0.649192513936;;;;;;;;;;;;;;0;0;0;0;0;0;0;0;0;();(-2000.0, -2000.0);
12:24:26:721;12:24:26:688;1448408425.24;(0.9449929237365723, 0.5960120730929904);30.3259277344;0.611879830414;;;;;;;;;;;;;;0;0;0;0;0;0;0;0;0;();(-2000.0, -2000.0);
12:24:26:738;12:24:26:688;1448408425.24;(0.9449929237365723, 0.5960120730929904);30.3259277344;0.611879830414;;;;;;;;;;;;;;0;0;0;0;0;0;0;0;0;();(-2000.0, -2000.0);
12:24:26:754;12:24:26:752;1448408425.28;(0, 0);0;0;;;;;;;;;;;;;;0;0;0;0;0;0;0;0;0;();(-2000.0, -2000.0);
12:24:26:771;12:24:26:754;1448408425.31;(0.2941697359085083, 0.803350904252794);18.1332855225;0.903373136775;;;;;;;;;;;;;;0;0;0;0;0;0;0;0;0;();(-2000.0, -2000.0);
12:24:26:788;12:24:26:754;1448408425.31;(0.2941697359085083, 0.803350904252794);18.1332855225;0.903373136775;;;;;;;;;;;;;;0;0;0;0;0;0;0;0;0;();(-2000.0, -2000.0);
12:24:26:821;12:24:26:818;1448408425.39;(0.6817214965820313, 0.8059179200066461);85.4034347534;0.913811997349;;;;;;;;;;;;;;0;0;0;0;0;0;0;0;0;();(-2000.0, -2000.0);
12:24:26:837;12:24:26:818;1448408425.39;(0.6817214965820313, 0.8059179200066461);85.4034347534;0.913811997349;;;;;;;;;;;;;;0;0;0;0;0;0;0;0;0;();(-2000.0, -2000.0);
12:24:26:854;12:24:26:818;1448408425.39;(0.6817214965820313, 0.8059179200066461);85.4034347534;0.913811997349;;;;;;;;;;;;;;0;0;0;0;0;0;0;0;0;();(-2000.0, -2000.0);
12:24:26:871;12:24:26:818;1448408425.39;(0.6817214965820313, 0.8059179200066461);85.4034347534;0.913811997349;;;;;;;;;;;;;;0;0;0;0;0;0;0;0;0;();(-2000.0, -2000.0);
12:24:26:887;12:24:26:885;1448408425.41;(0.6811835765838623, 0.8059615770975749);85.5203857422;0.803232701946;;;;;;;;;;;;;;0;0;0;0;0;0;0;0;0;();(-2000.0, -2000.0);
12:24:26:920;12:24:26:887;1448408425.44;(0, 0);0;0;;;;;;;;;;;;;;0;0;0;0;0;0;0;0;0;();(-2000.0, -2000.0);
12:24:26:937;12:24:26:887;1448408425.44;(0, 0);0;0;;;;;;;;;;;;;;0;0;0;0;0;0;0;0;0;();(-2000.0, -2000.0);
12:24:26:954;12:24:26:953;1448408425.48;(0.677063274383545, 0.8073047002156576);85.419670105;0.93333641518;;;;;;;;;;;;;;0;0;0;0;0;0;0;0;0;();(-2000.0, -2000.0);
12:24:26:971;12:24:26:954;1448408425.52;(0, 0);0;0;;;;;;;;;;;;;;0;0;0;0;0;0;0;0;0;();(-2000.0, -2000.0);
12:24:26:988;12:24:26:954;1448408425.52;(0, 0);0;0;;;;;;;;;;;;;;0;0;0;0;0;0;0;0;0;();(-2000.0, -2000.0);
12:24:27:021;12:24:27:018;1448408425.58;(0.6734483718872071, 0.8093107329474555);86.3235549927;0.714300173703;;;;;;;;;;;;;;0;0;0;0;0;0;0;0;0;();(-2000.0, -2000.0);
12:24:27:038;12:24:27:018;1448408425.58;(0.6734483718872071, 0.8093107329474555);86.3235549927;0.714300173703;;;;;;;;;;;;;;0;0;0;0;0;0;0;0;0;();(-2000.0, -2000.0);
12:24:27:055;12:24:27:018;1448408425.58;(0.6734483718872071, 0.8093107329474555);86.3235549927;0.714300173703;;;;;;;;;;;;;;0;0;0;0;0;0;0;0;0;();(-2000.0, -2000.0);
12:24:27:071;12:24:27:018;1448408425.58;(0.6734483718872071, 0.8093107329474555);86.3235549927;0.714300173703;;;;;;;;;;;;;;0;0;0;0;0;0;0;0;0;();(-2000.0, -2000.0);
12:24:27:088;12:24:27:087;1448408425.64;(0, 0);0;0;;;;;;;;;;;;;;0;0;0;0;0;0;0;0;0;();(-2000.0, -2000.0);
12:24:27:122;12:24:27:087;1448408425.64;(0, 0);0;0;;;;;;;;;;;;;;0;0;0;0;0;0;0;0;0;();(-2000.0, -2000.0);
12:24:27:138;12:24:27:087;1448408425.64;(0, 0);0;0;;;;;;;;;;;;;;0;0;0;0;0;0;0;0;0;();(-2000.0, -2000.0);
12:24:27:155;12:24:27:151;1448408425.71;(0.7244291305541992, 0.766612794664171);86.3279342651;0.878717253197;;;;;;;;;;;;;;0;0;0;0;0;0;0;0;0;();(-2000.0, -2000.0);
12:24:27:172;12:24:27:151;1448408425.71;(0.7244291305541992, 0.766612794664171);86.3279342651;0.878717253197;;;;;;;;;;;;;;0;0;0;0;0;0;0;0;0;();(-2000.0, -2000.0);
12:24:27:188;12:24:27:151;1448408425.71;(0.7244291305541992, 0.766612794664171);86.3279342651;0.878717253197;;;;;;;;;;;;;;0;0;0;0;0;0;0;0;0;();(-2000.0, -2000.0);
12:24:27:221;12:24:27:218;1448408425.78;(0.7251149177551269, 0.7605219946967231);82.6444244385;0.679844329323;;;;;;;;;;;;;;0;0;0;0;0;0;0;0;0;();(-2000.0, -2000.0);
12:24:27:238;12:24:27:218;1448408425.78;(0.7251149177551269, 0.7605219946967231);82.6444244385;0.679844329323;;;;;;;;;;;;;;0;0;0;0;0;0;0;0;0;();(-2000.0, -2000.0);
12:24:27:255;12:24:27:218;1448408425.78;(0.7251149177551269, 0.7605219946967231);82.6444244385;0.679844329323;;;;;;;;;;;;;;0;0;0;0;0;0;0;0;0;();(-2000.0, -2000.0);
12:24:27:271;12:24:27:218;1448408425.78;(0.7251149177551269, 0.7605219946967231);82.6444244385;0.679844329323;;;;;;;;;;;;;;0;0;0;0;0;0;0;0;0;();(-2000.0, -2000.0);
12:24:27:288;12:24:27:218;1448408425.78;(0.7251149177551269, 0.7605219946967231);82.6444244385;0.679844329323;;;;;;;;;;;;;;0;0;0;0;0;0;0;0;0;();(-2000.0, -2000.0);
12:24:27:321;12:24:27:293;1448408425.84;(0.7120056629180909, 0.7783637576633029);85.31590271;0.744174600448;;;;;;;;;;;;;;0;0;0;0;0;0;0;0;0;();(-2000.0, -2000.0);
12:24:27:337;12:24:27:293;1448408425.84;(0.7120056629180909, 0.7783637576633029);85.31590271;0.744174600448;;;;;;;;;;;;;;0;0;0;0;0;0;0;0;0;();(-2000.0, -2000.0);
12:24:27:354;12:24:27:350;1448408425.91;(0.6956160068511963, 0.7847105238172742);87.3948135376;0.876002620229;;;;;;;;;;;;;;0;0;0;0;0;0;0;0;0;();(-2000.0, -2000.0);
12:24:27:371;12:24:27:350;1448408425.91;(0.6956160068511963, 0.7847105238172742);87.3948135376;0.876002620229;;;;;;;;;;;;;;0;0;0;0;0;0;0;0;0;();(-2000.0, -2000.0);
12:24:27:388;12:24:27:350;1448408425.91;(0.6956160068511963, 0.7847105238172742);87.3948135376;0.876002620229;;;;;;;;;;;;;;0;0;0;0;0;0;0;0;0;();(-2000.0, -2000.0);
12:24:27:421;12:24:27:418;1448408425.98;(0.7511127471923829, 0.7478903452555339);86.4636001587;0.820489820117;;;;;;;;;;;;;;0;0;0;0;0;0;0;0;0;();(-2000.0, -2000.0);
12:24:27:438;12:24:27:418;1448408425.98;(0.7511127471923829, 0.7478903452555339);86.4636001587;0.820489820117;;;;;;;;;;;;;;0;0;0;0;0;0;0;0;0;();(-2000.0, -2000.0);
12:24:27:454;12:24:27:418;1448408425.98;(0.7511127471923829, 0.7478903452555339);86.4636001587;0.820489820117;;;;;;;;;;;;;;0;0;0;0;0;0;0;0;0;();(-2000.0, -2000.0);
12:24:27:472;12:24:27:418;1448408425.98;(0.7511127471923829, 0.7478903452555339);86.4636001587;0.820489820117;;;;;;;;;;;;;;0;0;0;0;0;0;0;0;0;();(-2000.0, -2000.0);
12:24:27:488;12:24:27:481;1448408426.01;(0, 0);0;0;;;;;;;;;;;;;;0;0;0;0;0;0;0;0;0;();(-2000.0, -2000.0);
12:24:27:522;12:24:27:481;1448408426.01;(0, 0);0;0;;;;;;;;;;;;;;0;0;0;0;0;0;0;0;0;();(-2000.0, -2000.0);
12:24:27:538;12:24:27:481;1448408426.01;(0, 0);0;0;;;;;;;;;;;;;;0;0;0;0;0;0;0;0;0;();(-2000.0, -2000.0);
12:24:27:555;12:24:27:552;1448408426.11;(0.7384687423706054, 0.7580109702216254);84.4990310669;0.702360193354;;;;;;;;;;;;;;0;0;0;0;0;0;0;0;0;();(-2000.0, -2000.0);
12:24:27:572;12:24:27:552;1448408426.11;(0.7384687423706054, 0.7580109702216254);84.4990310669;0.702360193354;;;;;;;;;;;;;;0;0;0;0;0;0;0;0;0;();(-2000.0, -2000.0);
12:24:27:588;12:24:27:552;1448408426.11;(0.7384687423706054, 0.7580109702216254);84.4990310669;0.702360193354;;;;;;;;;;;;;;0;0;0;0;0;0;0;0;0;();(-2000.0, -2000.0);
12:24:27:621;12:24:27:619;1448408426.18;(0, 0);0;0;;;;;;;;;;;;;;0;0;0;0;0;0;0;0;0;();(-2000.0, -2000.0);
12:24:27:638;12:24:27:619;1448408426.18;(0, 0);0;0;;;;;;;;;;;;;;0;0;0;0;0;0;0;0;0;();(-2000.0, -2000.0);
12:24:27:655;12:24:27:619;1448408426.18;(0, 0);0;0;;;;;;;;;;;;;;0;0;0;0;0;0;0;0;0;();(-2000.0, -2000.0);
12:24:27:672;12:24:27:619;1448408426.18;(0, 0);0;0;;;;;;;;;;;;;;0;0;0;0;0;0;0;0;0;();(-2000.0, -2000.0);
12:24:27:689;12:24:27:683;1448408426.24;(0, 0);0;0;;;;;;;;;;;;;;0;0;0;0;0;0;0;0;0;();(-2000.0, -2000.0);
12:24:27:722;12:24:27:683;1448408426.24;(0, 0);0;0;;;;;;;;;;;;;;0;0;0;0;0;0;0;0;0;();(-2000.0, -2000.0);
12:24:27:739;12:24:27:683;1448408426.24;(0, 0);0;0;;;;;;;;;;;;;;0;0;0;0;0;0;0;0;0;();(-2000.0, -2000.0);
12:24:27:755;12:24:27:749;1448408426.28;(0, 0);0;0;;;;;;;;;;;;;;0;0;0;0;0;0;0;0;0;();(-2000.0, -2000.0);
12:24:27:772;12:24:27:749;1448408426.28;(0, 0);0;0;;;;;;;;;;;;;;0;0;0;0;0;0;0;0;0;();(-2000.0, -2000.0);
12:24:27:788;12:24:27:749;1448408426.28;(0, 0);0;0;;;;;;;;;;;;;;0;0;0;0;0;0;0;0;0;();(-2000.0, -2000.0);
12:24:27:821;12:24:27:815;1448408426.38;(0.5548221588134765, 0.8238123999701605);18.53358078;0.69278421229;;;;;;;;;;;;;;0;0;0;0;0;0;0;0;0;();(-2000.0, -2000.0);
12:24:27:838;12:24:27:815;1448408426.38;(0.5548221588134765, 0.8238123999701605);18.53358078;0.69278421229;;;;;;;;;;;;;;0;0;0;0;0;0;0;0;0;();(-2000.0, -2000.0);
12:24:27:855;12:24:27:815;1448408426.38;(0.5548221588134765, 0.8238123999701605);18.53358078;0.69278421229;;;;;;;;;;;;;;0;0;0;0;0;0;0;0;0;();(-2000.0, -2000.0);
12:24:27:872;12:24:27:815;1448408426.38;(0.5548221588134765, 0.8238123999701605);18.53358078;0.69278421229;;;;;;;;;;;;;;0;0;0;0;0;0;0;0;0;();(-2000.0, -2000.0);
12:24:27:889;12:24:27:883;1448408426.45;(0.7754432678222656, 0.7614705403645834);84.9410171509;0.741785917599;;;;;;;;;;;;;;0;0;0;0;0;0;0;0;0;();(-2000.0, -2000.0);
12:24:27:922;12:24:27:883;1448408426.45;(0.7754432678222656, 0.7614705403645834);84.9410171509;0.741785917599;;;;;;;;;;;;;;0;0;0;0;0;0;0;0;0;();(-2000.0, -2000.0);
12:24:27:939;12:24:27:883;1448408426.45;(0.7754432678222656, 0.7614705403645834);84.9410171509;0.741785917599;;;;;;;;;;;;;;0;0;0;0;0;0;0;0;0;();(-2000.0, -2000.0);
12:24:27:955;12:24:27:950;1448408426.51;(0.7798805713653565, 0.7574346542358399);82.3172988892;0.68546072539;;;;;;;;;;;;;;0;0;0;0;0;0;0;0;0;();(-2000.0, -2000.0);
12:24:27:972;12:24:27:950;1448408426.51;(0.7798805713653565, 0.7574346542358399);82.3172988892;0.68546072539;;;;;;;;;;;;;;0;0;0;0;0;0;0;0;0;();(-2000.0, -2000.0);
12:24:27:988;12:24:27:950;1448408426.51;(0.7798805713653565, 0.7574346542358399);82.3172988892;0.68546072539;;;;;;;;;;;;;;0;0;0;0;0;0;0;0;0;();(-2000.0, -2000.0);
12:24:28:022;12:24:28:014;1448408426.58;(0.7692923545837402, 0.7666451983981662);85.8629760742;0.675714217778;;;;;;;;;;;;;;0;0;0;0;0;0;0;0;0;();(-2000.0, -2000.0);
12:24:28:038;12:24:28:014;1448408426.58;(0.7692923545837402, 0.7666451983981662);85.8629760742;0.675714217778;;;;;;;;;;;;;;0;0;0;0;0;0;0;0;0;();(-2000.0, -2000.0);
12:24:28:055;12:24:28:014;1448408426.58;(0.7692923545837402, 0.7666451983981662);85.8629760742;0.675714217778;;;;;;;;;;;;;;0;0;0;0;0;0;0;0;0;();(-2000.0, -2000.0);
12:24:28:072;12:24:28:014;1448408426.58;(0.7692923545837402, 0.7666451983981662);85.8629760742;0.675714217778;;;;;;;;;;;;;;0;0;0;0;0;0;0;0;0;();(-2000.0, -2000.0);
12:24:28:088;12:24:28:083;1448408426.65;(0.7544172763824463, 0.7752386093139648);85.2770996094;0.62964353064;;;;;;;;;;;;;;0;0;0;0;0;0;0;0;0;();(-2000.0, -2000.0);
12:24:28:122;12:24:28:083;1448408426.65;(0.7544172763824463, 0.7752386093139648);85.2770996094;0.62964353064;;;;;;;;;;;;;;0;0;0;0;0;0;0;0;0;();(-2000.0, -2000.0);
12:24:28:139;12:24:28:083;1448408426.65;(0.7544172763824463, 0.7752386093139648);85.2770996094;0.62964353064;;;;;;;;;;;;;;0;0;0;0;0;0;0;0;0;();(-2000.0, -2000.0);
12:24:28:155;12:24:28:146;1448408426.71;(0.7748227119445801, 0.7537515216403537);91.2407836914;0.846217946083;;;;;;;;;;;;;;0;0;0;0;0;0;0;0;0;();(-2000.0, -2000.0);
12:24:28:172;12:24:28:146;1448408426.71;(0.7748227119445801, 0.7537515216403537);91.2407836914;0.846217946083;;;;;;;;;;;;;;0;0;0;0;0;0;0;0;0;();(-2000.0, -2000.0);
12:24:28:189;12:24:28:146;1448408426.71;(0.7748227119445801, 0.7537515216403537);91.2407836914;0.846217946083;;;;;;;;;;;;;;0;0;0;0;0;0;0;0;0;();(-2000.0, -2000.0);
12:24:28:223;12:24:28:213;1448408426.74;(0.7786614894866943, 0.7474482642279732);85.9278564453;0.93664363328;;;;;;;;;;;;;;0;0;0;0;0;0;0;0;0;();(-2000.0, -2000.0);
12:24:28:239;12:24:28:213;1448408426.74;(0.7786614894866943, 0.7474482642279732);85.9278564453;0.93664363328;;;;;;;;;;;;;;0;0;0;0;0;0;0;0;0;();(-2000.0, -2000.0);
12:24:28:256;12:24:28:213;1448408426.74;(0.7786614894866943, 0.7474482642279732);85.9278564453;0.93664363328;;;;;;;;;;;;;;0;0;0;0;0;0;0;0;0;();(-2000.0, -2000.0);
12:24:28:272;12:24:28:213;1448408426.74;(0.7786614894866943, 0.7474482642279732);85.9278564453;0.93664363328;;;;;;;;;;;;;;0;0;0;0;0;0;0;0;0;();(-2000.0, -2000.0);
12:24:28:289;12:24:28:283;1448408426.84;(0.7696513652801513, 0.7609364403618707);86.4013061523;0.873379399318;;;;;;;;;;;;;;0;0;0;0;0;0;0;0;0;();(-2000.0, -2000.0);
12:24:28:322;12:24:28:283;1448408426.84;(0.7696513652801513, 0.7609364403618707);86.4013061523;0.873379399318;;;;;;;;;;;;;;0;0;0;0;0;0;0;0;0;();(-2000.0, -2000.0);
12:24:28:339;12:24:28:283;1448408426.84;(0.7696513652801513, 0.7609364403618707);86.4013061523;0.873379399318;;;;;;;;;;;;;;0;0;0;0;0;0;0;0;0;();(-2000.0, -2000.0);
12:24:28:356;12:24:28:348;1448408426.91;(0.7650271415710449, 0.7660198423597548);86.1483306885;0.875827230759;;;;;;;;;;;;;;0;0;0;0;0;0;0;0;0;();(-2000.0, -2000.0);
12:24:28:373;12:24:28:348;1448408426.91;(0.7650271415710449, 0.7660198423597548);86.1483306885;0.875827230759;;;;;;;;;;;;;;0;0;0;0;0;0;0;0;0;();(-2000.0, -2000.0);
12:24:28:389;12:24:28:348;1448408426.91;(0.7650271415710449, 0.7660198423597548);86.1483306885;0.875827230759;;;;;;;;;;;;;;0;0;0;0;0;0;0;0;0;();(-2000.0, -2000.0);
12:24:28:422;12:24:28:414;1448408426.98;(0, 0);0;0;;;;;;;;;;;;;;0;0;0;0;0;0;0;0;0;();(-2000.0, -2000.0);
12:24:28:439;12:24:28:414;1448408426.98;(0, 0);0;0;;;;;;;;;;;;;;0;0;0;0;0;0;0;0;0;();(-2000.0, -2000.0);
12:24:28:455;12:24:28:414;1448408426.98;(0, 0);0;0;;;;;;;;;;;;;;0;0;0;0;0;0;0;0;0;();(-2000.0, -2000.0);
12:24:28:473;12:24:28:414;1448408426.98;(0, 0);0;0;;;;;;;;;;;;;;0;0;0;0;0;0;0;0;0;();(-2000.0, -2000.0);
12:24:28:489;12:24:28:481;1448408427.04;(0.7594780921936035, 0.7723915523952908);85.9097518921;0.903067763483;;;;;;;;;;;;;;0;0;0;0;0;0;0;0;0;();(-2000.0, -2000.0);
12:24:28:506;12:24:28:481;1448408427.04;(0.7594780921936035, 0.7723915523952908);85.9097518921;0.903067763483;;;;;;;;;;;;;;0;0;0;0;0;0;0;0;0;();(-2000.0, -2000.0);
12:24:28:539;12:24:28:481;1448408427.04;(0.7594780921936035, 0.7723915523952908);85.9097518921;0.903067763483;;;;;;;;;;;;;;0;0;0;0;0;0;0;0;0;();(-2000.0, -2000.0);
12:24:28:556;12:24:28:546;1448408427.11;(0.8611751556396484, 0.6703011830647787);31.1398849487;0.628113703665;;;;;;;;;;;;;;0;0;0;0;0;0;0;0;0;();(-2000.0, -2000.0);
12:24:28:573;12:24:28:546;1448408427.11;(0.8611751556396484, 0.6703011830647787);31.1398849487;0.628113703665;;;;;;;;;;;;;;0;0;0;0;0;0;0;0;0;();(-2000.0, -2000.0);
12:24:28:589;12:24:28:546;1448408427.11;(0.8611751556396484, 0.6703011830647787);31.1398849487;0.628113703665;;;;;;;;;;;;;;0;0;0;0;0;0;0;0;0;();(-2000.0, -2000.0);
12:24:28:623;12:24:28:614;1448408427.18;(0.6868871688842774, 0.6908633126152885);19.4384841919;0.807623930553;;;;;;;;;;;;;;0;0;0;0;0;0;0;0;0;();(-2000.0, -2000.0);
12:24:28:639;12:24:28:614;1448408427.18;(0.6868871688842774, 0.6908633126152885);19.4384841919;0.807623930553;;;;;;;;;;;;;;0;0;0;0;0;0;0;0;0;();(-2000.0, -2000.0);
12:24:28:655;12:24:28:614;1448408427.18;(0.6868871688842774, 0.6908633126152885);19.4384841919;0.807623930553;;;;;;;;;;;;;;0;0;0;0;0;0;0;0;0;();(-2000.0, -2000.0);
12:24:28:673;12:24:28:614;1448408427.18;(0.6868871688842774, 0.6908633126152885);19.4384841919;0.807623930553;;;;;;;;;;;;;;0;0;0;0;0;0;0;0;0;();(-2000.0, -2000.0);
12:24:28:689;12:24:28:678;1448408427.24;(0.742528772354126, 0.8099494934082031);83.5474700928;0.892520237123;;;;;;;;;;;;;;0;0;0;0;0;0;0;0;0;();(-2000.0, -2000.0);
12:24:28:723;12:24:28:678;1448408427.24;(0.742528772354126, 0.8099494934082031);83.5474700928;0.892520237123;;;;;;;;;;;;;;0;0;0;0;0;0;0;0;0;();(-2000.0, -2000.0);
12:24:28:740;12:24:28:678;1448408427.24;(0.742528772354126, 0.8099494934082031);83.5474700928;0.892520237123;;;;;;;;;;;;;;0;0;0;0;0;0;0;0;0;();(-2000.0, -2000.0);
12:24:28:756;12:24:28:749;1448408427.31;(0.7429515838623046, 0.8092011875576444);85.3273773193;0.852417059515;;;;;;;;;;;;;;0;0;0;0;0;0;0;0;0;();(-2000.0, -2000.0);
12:24:28:773;12:24:28:749;1448408427.31;(0.7429515838623046, 0.8092011875576444);85.3273773193;0.852417059515;;;;;;;;;;;;;;0;0;0;0;0;0;0;0;0;();(-2000.0, -2000.0);
12:24:28:790;12:24:28:749;1448408427.31;(0.7429515838623046, 0.8092011875576444);85.3273773193;0.852417059515;;;;;;;;;;;;;;0;0;0;0;0;0;0;0;0;();(-2000.0, -2000.0);
12:24:28:822;12:24:28:810;1448408427.34;(0.7454915523529053, 0.8083067576090495);86.3877792358;0.845113091736;;;;;;;;;;;;;;0;0;0;0;0;0;0;0;0;();(-2000.0, -2000.0);
12:24:28:840;12:24:28:810;1448408427.34;(0.7454915523529053, 0.8083067576090495);86.3877792358;0.845113091736;;;;;;;;;;;;;;0;0;0;0;0;0;0;0;0;();(-2000.0, -2000.0);
12:24:28:856;12:24:28:810;1448408427.34;(0.7454915523529053, 0.8083067576090495);86.3877792358;0.845113091736;;;;;;;;;;;;;;0;0;0;0;0;0;0;0;0;();(-2000.0, -2000.0);
12:24:28:873;12:24:28:810;1448408427.34;(0.7454915523529053, 0.8083067576090495);86.3877792358;0.845113091736;;;;;;;;;;;;;;0;0;0;0;0;0;0;0;0;();(-2000.0, -2000.0);
12:24:28:889;12:24:28:882;1448408427.44;(0.7473371028900146, 0.8070297347174751);86.2033538818;0.994407746765;;;;;;;;;;;;;;0;0;0;0;0;0;0;0;0;();(-2000.0, -2000.0);
12:24:28:922;12:24:28:882;1448408427.44;(0.7473371028900146, 0.8070297347174751);86.2033538818;0.994407746765;;;;;;;;;;;;;;0;0;0;0;0;0;0;0;0;();(-2000.0, -2000.0);
12:24:28:940;12:24:28:882;1448408427.44;(0.7473371028900146, 0.8070297347174751);86.2033538818;0.994407746765;;;;;;;;;;;;;;0;0;0;0;0;0;0;0;0;();(-2000.0, -2000.0);
12:24:28:957;12:24:28:949;1448408427.51;(0.7492268562316895, 0.8059882799784343);86.4156265259;0.870599443206;;;;;;;;;;;;;;0;0;0;0;0;0;0;0;0;();(-2000.0, -2000.0);
12:24:28:973;12:24:28:949;1448408427.51;(0.7492268562316895, 0.8059882799784343);86.4156265259;0.870599443206;;;;;;;;;;;;;;0;0;0;0;0;0;0;0;0;();(-2000.0, -2000.0);
12:24:28:989;12:24:28:949;1448408427.51;(0.7492268562316895, 0.8059882799784343);86.4156265259;0.870599443206;;;;;;;;;;;;;;0;0;0;0;0;0;0;0;0;();(-2000.0, -2000.0);
12:24:29:006;12:24:28:949;1448408427.51;(0.7492268562316895, 0.8059882799784343);86.4156265259;0.870599443206;;;;;;;;;;;;;;0;0;0;0;0;0;0;0;0;();(-2000.0, -2000.0);
12:24:29:040;12:24:29:010;1448408427.58;(0.7259149074554443, 0.8422859933641222);86.0180206299;0.851712110912;;;;;;;;;;;;;;0;0;0;0;0;0;0;0;0;();(-2000.0, -2000.0);
12:24:29:056;12:24:29:010;1448408427.58;(0.7259149074554443, 0.8422859933641222);86.0180206299;0.851712110912;;;;;;;;;;;;;;0;0;0;0;0;0;0;0;0;();(-2000.0, -2000.0);
12:24:29:073;12:24:29:010;1448408427.58;(0.7259149074554443, 0.8422859933641222);86.0180206299;0.851712110912;;;;;;;;;;;;;;0;0;0;0;0;0;0;0;0;();(-2000.0, -2000.0);
12:24:29:090;12:24:29:080;1448408427.64;(0.7254884243011475, 0.841223833296034);86.1351394653;1.0;;;;;;;;;;;;;;0;0;0;0;0;0;0;0;0;();(-2000.0, -2000.0);
12:24:29:106;12:24:29:080;1448408427.64;(0.7254884243011475, 0.841223833296034);86.1351394653;1.0;;;;;;;;;;;;;;0;0;0;0;0;0;0;0;0;();(-2000.0, -2000.0);
12:24:29:139;12:24:29:080;1448408427.64;(0.7254884243011475, 0.841223833296034);86.1351394653;1.0;;;;;;;;;;;;;;0;0;0;0;0;0;0;0;0;();(-2000.0, -2000.0);
12:24:29:155;12:24:29:143;1448408427.71;(0.7263539791107178, 0.8394562191433377);86.0901107788;0.891453279481;;;;;;;;;;;;;;0;0;0;0;0;0;0;0;0;();(-2000.0, -2000.0);
12:24:29:173;12:24:29:143;1448408427.71;(0.7263539791107178, 0.8394562191433377);86.0901107788;0.891453279481;;;;;;;;;;;;;;0;0;0;0;0;0;0;0;0;();(-2000.0, -2000.0);
12:24:29:189;12:24:29:143;1448408427.71;(0.7263539791107178, 0.8394562191433377);86.0901107788;0.891453279481;;;;;;;;;;;;;;0;0;0;0;0;0;0;0;0;();(-2000.0, -2000.0);
12:24:29:223;12:24:29:210;1448408427.78;(0.7277323246002197, 0.8379818280537923);87.5571594238;0.830102356407;;;;;;;;;;;;;;0;0;0;0;0;0;0;0;0;();(-2000.0, -2000.0);
12:24:29:240;12:24:29:210;1448408427.78;(0.7277323246002197, 0.8379818280537923);87.5571594238;0.830102356407;;;;;;;;;;;;;;0;0;0;0;0;0;0;0;0;();(-2000.0, -2000.0);
12:24:29:257;12:24:29:210;1448408427.78;(0.7277323246002197, 0.8379818280537923);87.5571594238;0.830102356407;;;;;;;;;;;;;;0;0;0;0;0;0;0;0;0;();(-2000.0, -2000.0);
12:24:29:273;12:24:29:210;1448408427.78;(0.7277323246002197, 0.8379818280537923);87.5571594238;0.830102356407;;;;;;;;;;;;;;0;0;0;0;0;0;0;0;0;();(-2000.0, -2000.0);
12:24:29:290;12:24:29:276;1448408427.81;(0.7282623767852783, 0.8374161826239692);88.1957092285;0.906703798466;;;;;;;;;;;;;;0;0;0;0;0;0;0;0;0;();(-2000.0, -2000.0);
12:24:29:323;12:24:29:293;1448408427.84;(0.7291426658630371, 0.8357799953884548);87.7822875977;0.807344267648;;;;;;;;;;;;;;0;0;0;0;0;0;0;0;0;();(-2000.0, -2000.0);
12:24:29:340;12:24:29:293;1448408427.84;(0.7291426658630371, 0.8357799953884548);87.7822875977;0.807344267648;;;;;;;;;;;;;;0;0;0;0;0;0;0;0;0;();(-2000.0, -2000.0);
12:24:29:357;12:24:29:348;1448408427.91;(0.7253940105438232, 0.8310701794094509);85.0974197388;0.792718182767;;;;;;;;;;;;;;0;0;0;0;0;0;0;0;0;();(-2000.0, -2000.0);
12:24:29:373;12:24:29:348;1448408427.91;(0.7253940105438232, 0.8310701794094509);85.0974197388;0.792718182767;;;;;;;;;;;;;;0;0;0;0;0;0;0;0;0;();(-2000.0, -2000.0);
12:24:29:390;12:24:29:348;1448408427.91;(0.7253940105438232, 0.8310701794094509);85.0974197388;0.792718182767;;;;;;;;;;;;;;0;0;0;0;0;0;0;0;0;();(-2000.0, -2000.0);
12:24:29:407;12:24:29:348;1448408427.91;(0.7253940105438232, 0.8310701794094509);85.0974197388;0.792718182767;;;;;;;;;;;;;;0;0;0;0;0;0;0;0;0;();(-2000.0, -2000.0);
12:24:29:440;12:24:29:412;1448408427.98;(0.6975739955902099, 0.8133627149793836);86.2231140137;0.742159455946;;;;;;;;;;;;;;0;0;0;0;0;0;0;0;0;();(-2000.0, -2000.0);
12:24:29:457;12:24:29:412;1448408427.98;(0.6975739955902099, 0.8133627149793836);86.2231140137;0.742159455946;;;;;;;;;;;;;;0;0;0;0;0;0;0;0;0;();(-2000.0, -2000.0);
12:24:29:473;12:24:29:412;1448408427.98;(0.6975739955902099, 0.8133627149793836);86.2231140137;0.742159455946;;;;;;;;;;;;;;0;0;0;0;0;0;0;0;0;();(-2000.0, -2000.0);
12:24:29:490;12:24:29:475;1448408428.04;(0, 0);0;0;;;;;;;;;;;;;;0;0;0;0;0;0;0;0;0;();(-2000.0, -2000.0);
12:24:29:507;12:24:29:475;1448408428.04;(0, 0);0;0;;;;;;;;;;;;;;0;0;0;0;0;0;0;0;0;();(-2000.0, -2000.0);
12:24:29:540;12:24:29:475;1448408428.04;(0, 0);0;0;;;;;;;;;;;;;;0;0;0;0;0;0;0;0;0;();(-2000.0, -2000.0);
12:24:29:556;12:24:29:544;1448408428.11;(0.6992734909057617, 0.815096092224121);87.9094238281;0.715115036541;;;;;;;;;;;;;;0;0;0;0;0;0;0;0;0;();(-2000.0, -2000.0);
12:24:29:573;12:24:29:544;1448408428.11;(0.6992734909057617, 0.815096092224121);87.9094238281;0.715115036541;;;;;;;;;;;;;;0;0;0;0;0;0;0;0;0;();(-2000.0, -2000.0);
12:24:29:590;12:24:29:544;1448408428.11;(0.6992734909057617, 0.815096092224121);87.9094238281;0.715115036541;;;;;;;;;;;;;;0;0;0;0;0;0;0;0;0;();(-2000.0, -2000.0);
12:24:29:607;12:24:29:605;1448408428.14;(0.6982459545135498, 0.8149850315517849);88.7218322754;0.822285858231;;;;;;;;;;;;;;0;0;0;0;0;0;0;0;0;();(-2000.0, -2000.0);
12:24:29:640;12:24:29:606;1448408428.18;(0, 0);0;0;;;;;;;;;;;;;;0;0;0;0;0;0;0;0;0;();(-2000.0, -2000.0);
12:24:29:657;12:24:29:606;1448408428.18;(0, 0);0;0;;;;;;;;;;;;;;0;0;0;0;0;0;0;0;0;();(-2000.0, -2000.0);
12:24:29:673;12:24:29:606;1448408428.18;(0, 0);0;0;;;;;;;;;;;;;;0;0;0;0;0;0;0;0;0;();(-2000.0, -2000.0);
12:24:29:690;12:24:29:675;1448408428.24;(0.7030223369598388, 0.8069739871554904);85.0817184448;0.71825735715;;;;;;;;;;;;;;0;0;0;0;0;0;0;0;0;();(-2000.0, -2000.0);
12:24:29:706;12:24:29:675;1448408428.24;(0.7030223369598388, 0.8069739871554904);85.0817184448;0.71825735715;;;;;;;;;;;;;;0;0;0;0;0;0;0;0;0;();(-2000.0, -2000.0);
12:24:29:740;12:24:29:675;1448408428.24;(0.7030223369598388, 0.8069739871554904);85.0817184448;0.71825735715;;;;;;;;;;;;;;0;0;0;0;0;0;0;0;0;();(-2000.0, -2000.0);
12:24:29:756;12:24:29:744;1448408428.31;(0, 0);0;0;;;;;;;;;;;;;;0;0;0;0;0;0;0;0;0;();(-2000.0, -2000.0);
12:24:29:773;12:24:29:744;1448408428.31;(0, 0);0;0;;;;;;;;;;;;;;0;0;0;0;0;0;0;0;0;();(-2000.0, -2000.0);
12:24:29:790;12:24:29:744;1448408428.31;(0, 0);0;0;;;;;;;;;;;;;;0;0;0;0;0;0;0;0;0;();(-2000.0, -2000.0);
12:24:29:807;12:24:29:744;1448408428.31;(0, 0);0;0;;;;;;;;;;;;;;0;0;0;0;0;0;0;0;0;();(-2000.0, -2000.0);
12:24:29:841;12:24:29:810;1448408428.38;(0, 0);0;0;;;;;;;;;;;;;;0;0;0;0;0;0;0;0;0;();(-2000.0, -2000.0);
12:24:29:857;12:24:29:810;1448408428.38;(0, 0);0;0;;;;;;;;;;;;;;0;0;0;0;0;0;0;0;0;();(-2000.0, -2000.0);
12:24:29:873;12:24:29:810;1448408428.38;(0, 0);0;0;;;;;;;;;;;;;;0;0;0;0;0;0;0;0;0;();(-2000.0, -2000.0);
12:24:29:891;12:24:29:875;1448408428.44;(0.7064023017883301, 0.8535971217685275);88.3665390015;0.978284953331;;;;;;;;;;;;;;0;0;0;0;0;0;0;0;0;();(-2000.0, -2000.0);
12:24:29:907;12:24:29:875;1448408428.44;(0.7064023017883301, 0.8535971217685275);88.3665390015;0.978284953331;;;;;;;;;;;;;;0;0;0;0;0;0;0;0;0;();(-2000.0, -2000.0);
12:24:29:940;12:24:29:938;1448408428.51;(0, 0);0;0;;;;;;;;;;;;;;0;0;0;0;0;0;0;0;0;();(-2000.0, -2000.0);
12:24:29:957;12:24:29:938;1448408428.51;(0, 0);0;0;;;;;;;;;;;;;;0;0;0;0;0;0;0;0;0;();(-2000.0, -2000.0);
12:24:29:974;12:24:29:938;1448408428.51;(0, 0);0;0;;;;;;;;;;;;;;0;0;0;0;0;0;0;0;0;();(-2000.0, -2000.0);
12:24:29:991;12:24:29:938;1448408428.51;(0, 0);0;0;;;;;;;;;;;;;;0;0;0;0;0;0;0;0;0;();(-2000.0, -2000.0);
12:24:30:007;12:24:30:005;1448408428.54;(0.7095254421234131, 0.8540140469868978);89.1593093872;0.730892564648;;;;;;;;;;;;;;0;0;0;0;0;0;0;0;0;();(-2000.0, -2000.0);
12:24:30:040;12:24:30:008;1448408428.58;(0, 0);0;0;;;;;;;;;;;;;;0;0;0;0;0;0;0;0;0;();(-2000.0, -2000.0);
12:24:30:057;12:24:30:008;1448408428.58;(0, 0);0;0;;;;;;;;;;;;;;0;0;0;0;0;0;0;0;0;();(-2000.0, -2000.0);
12:24:30:073;12:24:30:008;1448408428.58;(0, 0);0;0;;;;;;;;;;;;;;0;0;0;0;0;0;0;0;0;();(-2000.0, -2000.0);
12:24:30:091;12:24:30:076;1448408428.64;(0, 0);0;0;;;;;;;;;;;;;;0;0;0;0;0;0;0;0;0;();(-2000.0, -2000.0);
12:24:30:107;12:24:30:076;1448408428.64;(0, 0);0;0;;;;;;;;;;;;;;0;0;0;0;0;0;0;0;0;();(-2000.0, -2000.0);
12:24:30:140;12:24:30:138;1448408428.71;(0.7316335201263428, 0.7811410480075412);87.1829147339;0.854302305109;;;;;;;;;;;;;;0;0;0;0;0;0;0;0;0;();(-2000.0, -2000.0);
12:24:30:157;12:24:30:138;1448408428.71;(0.7316335201263428, 0.7811410480075412);87.1829147339;0.854302305109;;;;;;;;;;;;;;0;0;0;0;0;0;0;0;0;();(-2000.0, -2000.0);
12:24:30:174;12:24:30:138;1448408428.71;(0.7316335201263428, 0.7811410480075412);87.1829147339;0.854302305109;;;;;;;;;;;;;;0;0;0;0;0;0;0;0;0;();(-2000.0, -2000.0);
12:24:30:190;12:24:30:138;1448408428.71;(0.7316335201263428, 0.7811410480075412);87.1829147339;0.854302305109;;;;;;;;;;;;;;0;0;0;0;0;0;0;0;0;();(-2000.0, -2000.0);
12:24:30:207;12:24:30:206;1448408428.74;(0.7318809509277344, 0.7864684846666123);90.0874023438;0.926336115879;;;;;;;;;;;;;;0;0;0;0;0;0;0;0;0;();(-2000.0, -2000.0);
12:24:30:241;12:24:30:207;1448408428.78;(0.7319176673889161, 0.7876504474216037);90.1814117432;0.847896364131;;;;;;;;;;;;;;0;0;0;0;0;0;0;0;0;();(-2000.0, -2000.0);
12:24:30:257;12:24:30:207;1448408428.78;(0.7319176673889161, 0.7876504474216037);90.1814117432;0.847896364131;;;;;;;;;;;;;;0;0;0;0;0;0;0;0;0;();(-2000.0, -2000.0);
12:24:30:274;12:24:30:269;1448408428.81;(0.7324443817138672, 0.7885814030965169);89.9791946411;0.827090647109;;;;;;;;;;;;;;0;0;0;0;0;0;0;0;0;();(-2000.0, -2000.0);
12:24:30:291;12:24:30:272;1448408428.84;(0.733191728591919, 0.7888596004909939);89.5375976562;0.903298489662;;;;;;;;;;;;;;0;0;0;0;0;0;0;0;0;();(-2000.0, -2000.0);
12:24:30:308;12:24:30:272;1448408428.84;(0.733191728591919, 0.7888596004909939);89.5375976562;0.903298489662;;;;;;;;;;;;;;0;0;0;0;0;0;0;0;0;();(-2000.0, -2000.0);
12:24:30:341;12:24:30:338;1448408428.91;(0.7342991828918457, 0.7895508660210504);89.7818069458;0.82083169344;;;;;;;;;;;;;;0;0;0;0;0;0;0;0;0;();(-2000.0, -2000.0);
12:24:30:357;12:24:30:338;1448408428.91;(0.7342991828918457, 0.7895508660210504);89.7818069458;0.82083169344;;;;;;;;;;;;;;0;0;0;0;0;0;0;0;0;();(-2000.0, -2000.0);
12:24:30:373;12:24:30:338;1448408428.91;(0.7342991828918457, 0.7895508660210504);89.7818069458;0.82083169344;;;;;;;;;;;;;;0;0;0;0;0;0;0;0;0;();(-2000.0, -2000.0);
12:24:30:391;12:24:30:338;1448408428.91;(0.7342991828918457, 0.7895508660210504);89.7818069458;0.82083169344;;;;;;;;;;;;;;0;0;0;0;0;0;0;0;0;();(-2000.0, -2000.0);
12:24:30:407;12:24:30:338;1448408428.91;(0.7342991828918457, 0.7895508660210504);89.7818069458;0.82083169344;;;;;;;;;;;;;;0;0;0;0;0;0;0;0;0;();(-2000.0, -2000.0);
12:24:30:440;12:24:30:406;1448408428.94;(0.7347695827484131, 0.7904397328694661);89.7125549316;0.853369789525;;;;;;;;;;;;;;0;0;0;0;0;0;0;0;0;();(-2000.0, -2000.0);
12:24:30:458;12:24:30:406;1448408428.94;(0.7347695827484131, 0.7904397328694661);89.7125549316;0.853369789525;;;;;;;;;;;;;;0;0;0;0;0;0;0;0;0;();(-2000.0, -2000.0);
12:24:30:474;12:24:30:406;1448408428.94;(0.7347695827484131, 0.7904397328694661);89.7125549316;0.853369789525;;;;;;;;;;;;;;0;0;0;0;0;0;0;0;0;();(-2000.0, -2000.0);
12:24:30:490;12:24:30:481;1448408429.05;(0.7388171672821044, 0.7960348871019152);90.0223922729;0.938126369198;;;;;;;;;;;;;;0;0;0;0;0;0;0;0;0;();(-2000.0, -2000.0);
12:24:30:508;12:24:30:481;1448408429.05;(0.7388171672821044, 0.7960348871019152);90.0223922729;0.938126369198;;;;;;;;;;;;;;0;0;0;0;0;0;0;0;0;();(-2000.0, -2000.0);
12:24:30:541;12:24:30:538;1448408429.11;(0.7242082118988037, 0.7824275970458985);88.8977890015;0.718414945441;;;;;;;;;;;;;;0;0;0;0;0;0;0;0;0;();(-2000.0, -2000.0);
12:24:30:557;12:24:30:538;1448408429.11;(0.7242082118988037, 0.7824275970458985);88.8977890015;0.718414945441;;;;;;;;;;;;;;0;0;0;0;0;0;0;0;0;();(-2000.0, -2000.0);
12:24:30:574;12:24:30:538;1448408429.11;(0.7242082118988037, 0.7824275970458985);88.8977890015;0.718414945441;;;;;;;;;;;;;;0;0;0;0;0;0;0;0;0;();(-2000.0, -2000.0);
12:24:30:591;12:24:30:538;1448408429.11;(0.7242082118988037, 0.7824275970458985);88.8977890015;0.718414945441;;;;;;;;;;;;;;0;0;0;0;0;0;0;0;0;();(-2000.0, -2000.0);
12:24:30:607;12:24:30:602;1448408429.18;(0, 0);0;0;;;;;;;;;;;;;;0;0;0;0;0;0;0;0;0;();(-2000.0, -2000.0);
12:24:30:641;12:24:30:602;1448408429.18;(0, 0);0;0;;;;;;;;;;;;;;0;0;0;0;0;0;0;0;0;();(-2000.0, -2000.0);
12:24:30:658;12:24:30:602;1448408429.18;(0, 0);0;0;;;;;;;;;;;;;;0;0;0;0;0;0;0;0;0;();(-2000.0, -2000.0);
12:24:30:674;12:24:30:670;1448408429.24;(0, 0);0;0;;;;;;;;;;;;;;0;0;0;0;0;0;0;0;0;();(-2000.0, -2000.0);
12:24:30:691;12:24:30:670;1448408429.24;(0, 0);0;0;;;;;;;;;;;;;;0;0;0;0;0;0;0;0;0;();(-2000.0, -2000.0);
12:24:30:708;12:24:30:670;1448408429.24;(0, 0);0;0;;;;;;;;;;;;;;0;0;0;0;0;0;0;0;0;();(-2000.0, -2000.0);
12:24:30:741;12:24:30:737;1448408429.28;(0.7267842292785645, 0.784568723042806);87.0305786133;0.701360254286;;;;;;;;;;;;;;0;0;0;0;0;0;0;0;0;();(-2000.0, -2000.0);
12:24:30:757;12:24:30:737;1448408429.28;(0.7267842292785645, 0.784568723042806);87.0305786133;0.701360254286;;;;;;;;;;;;;;0;0;0;0;0;0;0;0;0;();(-2000.0, -2000.0);
12:24:30:775;12:24:30:737;1448408429.28;(0.7267842292785645, 0.784568723042806);87.0305786133;0.701360254286;;;;;;;;;;;;;;0;0;0;0;0;0;0;0;0;();(-2000.0, -2000.0);
12:24:30:791;12:24:30:737;1448408429.28;(0.7267842292785645, 0.784568723042806);87.0305786133;0.701360254286;;;;;;;;;;;;;;0;0;0;0;0;0;0;0;0;();(-2000.0, -2000.0);
12:24:30:807;12:24:30:805;1448408429.38;(0.7293233871459961, 0.7890607621934679);87.1269683838;0.935135614415;;;;;;;;;;;;;;0;0;0;0;0;0;0;0;0;();(-2000.0, -2000.0);
12:24:30:841;12:24:30:805;1448408429.38;(0.7293233871459961, 0.7890607621934679);87.1269683838;0.935135614415;;;;;;;;;;;;;;0;0;0;0;0;0;0;0;0;();(-2000.0, -2000.0);
12:24:30:857;12:24:30:805;1448408429.38;(0.7293233871459961, 0.7890607621934679);87.1269683838;0.935135614415;;;;;;;;;;;;;;0;0;0;0;0;0;0;0;0;();(-2000.0, -2000.0);
12:24:30:875;12:24:30:872;1448408429.44;(0.7298817157745361, 0.7888351440429687);87.6601715088;0.909767022205;;;;;;;;;;;;;;0;0;0;0;0;0;0;0;0;();(-2000.0, -2000.0);
12:24:30:891;12:24:30:872;1448408429.44;(0.7298817157745361, 0.7888351440429687);87.6601715088;0.909767022205;;;;;;;;;;;;;;0;0;0;0;0;0;0;0;0;();(-2000.0, -2000.0);
12:24:30:908;12:24:30:872;1448408429.44;(0.7298817157745361, 0.7888351440429687);87.6601715088;0.909767022205;;;;;;;;;;;;;;0;0;0;0;0;0;0;0;0;();(-2000.0, -2000.0);
12:24:30:941;12:24:30:934;1448408429.51;(0, 0);0;0;;;;;;;;;;;;;;0;0;0;0;0;0;0;0;0;();(-2000.0, -2000.0);
12:24:30:958;12:24:30:934;1448408429.51;(0, 0);0;0;;;;;;;;;;;;;;0;0;0;0;0;0;0;0;0;();(-2000.0, -2000.0);
12:24:30:974;12:24:30:934;1448408429.51;(0, 0);0;0;;;;;;;;;;;;;;0;0;0;0;0;0;0;0;0;();(-2000.0, -2000.0);
12:24:30:991;12:24:30:934;1448408429.51;(0, 0);0;0;;;;;;;;;;;;;;0;0;0;0;0;0;0;0;0;();(-2000.0, -2000.0);
12:24:31:007;12:24:31:002;1448408429.58;(0.7356679916381836, 0.7630183537801107);87.2680969238;0.787778064568;;;;;;;;;;;;;;0;0;0;0;0;0;0;0;0;();(-2000.0, -2000.0);
12:24:31:041;12:24:31:002;1448408429.58;(0.7356679916381836, 0.7630183537801107);87.2680969238;0.787778064568;;;;;;;;;;;;;;0;0;0;0;0;0;0;0;0;();(-2000.0, -2000.0);
12:24:31:058;12:24:31:002;1448408429.58;(0.7356679916381836, 0.7630183537801107);87.2680969238;0.787778064568;;;;;;;;;;;;;;0;0;0;0;0;0;0;0;0;();(-2000.0, -2000.0);
12:24:31:075;12:24:31:071;1448408429.64;(0, 0);0;0;;;;;;;;;;;;;;0;0;0;0;0;0;0;0;0;();(-2000.0, -2000.0);
12:24:31:091;12:24:31:071;1448408429.64;(0, 0);0;0;;;;;;;;;;;;;;0;0;0;0;0;0;0;0;0;();(-2000.0, -2000.0);
12:24:31:108;12:24:31:071;1448408429.64;(0, 0);0;0;;;;;;;;;;;;;;0;0;0;0;0;0;0;0;0;();(-2000.0, -2000.0);
12:24:31:141;12:24:31:134;1448408429.71;(0.7394826889038086, 0.7667488310072157);87.8271331787;0.845042619956;;;;;;;;;;;;;;0;0;0;0;0;0;0;0;0;();(-2000.0, -2000.0);
12:24:31:158;12:24:31:134;1448408429.71;(0.7394826889038086, 0.7667488310072157);87.8271331787;0.845042619956;;;;;;;;;;;;;;0;0;0;0;0;0;0;0;0;();(-2000.0, -2000.0);
12:24:31:175;12:24:31:134;1448408429.71;(0.7394826889038086, 0.7667488310072157);87.8271331787;0.845042619956;;;;;;;;;;;;;;0;0;0;0;0;0;0;0;0;();(-2000.0, -2000.0);
12:24:31:191;12:24:31:134;1448408429.71;(0.7394826889038086, 0.7667488310072157);87.8271331787;0.845042619956;;;;;;;;;;;;;;0;0;0;0;0;0;0;0;0;();(-2000.0, -2000.0);
12:24:31:208;12:24:31:202;1448408429.78;(0.7399270057678222, 0.7667522642347548);87.0685882568;0.879605971926;;;;;;;;;;;;;;0;0;0;0;0;0;0;0;0;();(-2000.0, -2000.0);
12:24:31:241;12:24:31:202;1448408429.78;(0.7399270057678222, 0.7667522642347548);87.0685882568;0.879605971926;;;;;;;;;;;;;;0;0;0;0;0;0;0;0;0;();(-2000.0, -2000.0);
12:24:31:258;12:24:31:202;1448408429.78;(0.7399270057678222, 0.7667522642347548);87.0685882568;0.879605971926;;;;;;;;;;;;;;0;0;0;0;0;0;0;0;0;();(-2000.0, -2000.0);
12:24:31:274;12:24:31:266;1448408429.84;(0.7405722141265869, 0.7664521959092883);87.1151046753;0.881528729713;;;;;;;;;;;;;;0;0;0;0;0;0;0;0;0;();(-2000.0, -2000.0);
12:24:31:292;12:24:31:266;1448408429.84;(0.7405722141265869, 0.7664521959092883);87.1151046753;0.881528729713;;;;;;;;;;;;;;0;0;0;0;0;0;0;0;0;();(-2000.0, -2000.0);
12:24:31:308;12:24:31:266;1448408429.84;(0.7405722141265869, 0.7664521959092883);87.1151046753;0.881528729713;;;;;;;;;;;;;;0;0;0;0;0;0;0;0;0;();(-2000.0, -2000.0);
12:24:31:342;12:24:31:333;1448408429.88;(0.7411638259887695, 0.766042455037435);86.9675674438;0.875414932524;;;;;;;;;;;;;;0;0;0;0;0;0;0;0;0;();(-2000.0, -2000.0);
12:24:31:358;12:24:31:333;1448408429.88;(0.7411638259887695, 0.766042455037435);86.9675674438;0.875414932524;;;;;;;;;;;;;;0;0;0;0;0;0;0;0;0;();(-2000.0, -2000.0);
12:24:31:375;12:24:31:333;1448408429.88;(0.7411638259887695, 0.766042455037435);86.9675674438;0.875414932524;;;;;;;;;;;;;;0;0;0;0;0;0;0;0;0;();(-2000.0, -2000.0);
12:24:31:391;12:24:31:333;1448408429.88;(0.7411638259887695, 0.766042455037435);86.9675674438;0.875414932524;;;;;;;;;;;;;;0;0;0;0;0;0;0;0;0;();(-2000.0, -2000.0);
12:24:31:408;12:24:31:403;1448408429.98;(0.7463890075683594, 0.7821598688761393);86.3508377075;0.874849539758;;;;;;;;;;;;;;0;0;0;0;0;0;0;0;0;();(-2000.0, -2000.0);
12:24:31:442;12:24:31:403;1448408429.98;(0.7463890075683594, 0.7821598688761393);86.3508377075;0.874849539758;;;;;;;;;;;;;;0;0;0;0;0;0;0;0;0;();(-2000.0, -2000.0);
12:24:31:458;12:24:31:403;1448408429.98;(0.7463890075683594, 0.7821598688761393);86.3508377075;0.874849539758;;;;;;;;;;;;;;0;0;0;0;0;0;0;0;0;();(-2000.0, -2000.0);
12:24:31:474;12:24:31:464;1448408430.01;(0.7471063613891602, 0.7799009111192492);85.7362136841;0.80631293987;;;;;;;;;;;;;;0;0;0;0;0;0;0;0;0;();(-2000.0, -2000.0);
12:24:31:491;12:24:31:464;1448408430.01;(0.7471063613891602, 0.7799009111192492);85.7362136841;0.80631293987;;;;;;;;;;;;;;0;0;0;0;0;0;0;0;0;();(-2000.0, -2000.0);
12:24:31:509;12:24:31:464;1448408430.01;(0.7471063613891602, 0.7799009111192492);85.7362136841;0.80631293987;;;;;;;;;;;;;;0;0;0;0;0;0;0;0;0;();(-2000.0, -2000.0);
12:24:31:541;12:24:31:537;1448408430.11;(0.7497312068939209, 0.7792921702067057);86.7834091187;0.871217121478;;;;;;;;;;;;;;0;0;0;0;0;0;0;0;0;();(-2000.0, -2000.0);
12:24:31:559;12:24:31:537;1448408430.11;(0.7497312068939209, 0.7792921702067057);86.7834091187;0.871217121478;;;;;;;;;;;;;;0;0;0;0;0;0;0;0;0;();(-2000.0, -2000.0);
12:24:31:575;12:24:31:537;1448408430.11;(0.7497312068939209, 0.7792921702067057);86.7834091187;0.871217121478;;;;;;;;;;;;;;0;0;0;0;0;0;0;0;0;();(-2000.0, -2000.0);
12:24:31:592;12:24:31:537;1448408430.11;(0.7497312068939209, 0.7792921702067057);86.7834091187;0.871217121478;;;;;;;;;;;;;;0;0;0;0;0;0;0;0;0;();(-2000.0, -2000.0);
12:24:31:609;12:24:31:601;1448408430.18;(0.7501333236694336, 0.7795236375596788);86.6724700928;0.914532268551;;;;;;;;;;;;;;0;0;0;0;0;0;0;0;0;();(-2000.0, -2000.0);
12:24:31:642;12:24:31:601;1448408430.18;(0.7501333236694336, 0.7795236375596788);86.6724700928;0.914532268551;;;;;;;;;;;;;;0;0;0;0;0;0;0;0;0;();(-2000.0, -2000.0);
12:24:31:658;12:24:31:601;1448408430.18;(0.7501333236694336, 0.7795236375596788);86.6724700928;0.914532268551;;;;;;;;;;;;;;0;0;0;0;0;0;0;0;0;();(-2000.0, -2000.0);
12:24:31:675;12:24:31:667;1448408430.24;(0.7516463279724122, 0.7795578850640191);86.9272460938;0.949923846561;;;;;;;;;;;;;;0;0;0;0;0;0;0;0;0;();(-2000.0, -2000.0);
12:24:31:691;12:24:31:667;1448408430.24;(0.7516463279724122, 0.7795578850640191);86.9272460938;0.949923846561;;;;;;;;;;;;;;0;0;0;0;0;0;0;0;0;();(-2000.0, -2000.0);
12:24:31:709;12:24:31:667;1448408430.24;(0.7516463279724122, 0.7795578850640191);86.9272460938;0.949923846561;;;;;;;;;;;;;;0;0;0;0;0;0;0;0;0;();(-2000.0, -2000.0);
12:24:31:741;12:24:31:734;1448408430.31;(0.7523223876953125, 0.7787739647759332);88.1852416992;0.908746297621;;;;;;;;;;;;;;0;0;0;0;0;0;0;0;0;();(-2000.0, -2000.0);
12:24:31:759;12:24:31:734;1448408430.31;(0.7523223876953125, 0.7787739647759332);88.1852416992;0.908746297621;;;;;;;;;;;;;;0;0;0;0;0;0;0;0;0;();(-2000.0, -2000.0);
12:24:31:775;12:24:31:734;1448408430.31;(0.7523223876953125, 0.7787739647759332);88.1852416992;0.908746297621;;;;;;;;;;;;;;0;0;0;0;0;0;0;0;0;();(-2000.0, -2000.0);
12:24:31:791;12:24:31:734;1448408430.31;(0.7523223876953125, 0.7787739647759332);88.1852416992;0.908746297621;;;;;;;;;;;;;;0;0;0;0;0;0;0;0;0;();(-2000.0, -2000.0);
12:24:31:809;12:24:31:798;1448408430.38;(0.753483772277832, 0.7772480222913953);87.2395477295;0.927691875453;;;;;;;;;;;;;;0;0;0;0;0;0;0;0;0;();(-2000.0, -2000.0);
12:24:31:842;12:24:31:798;1448408430.38;(0.753483772277832, 0.7772480222913953);87.2395477295;0.927691875453;;;;;;;;;;;;;;0;0;0;0;0;0;0;0;0;();(-2000.0, -2000.0);
12:24:31:859;12:24:31:798;1448408430.38;(0.753483772277832, 0.7772480222913953);87.2395477295;0.927691875453;;;;;;;;;;;;;;0;0;0;0;0;0;0;0;0;();(-2000.0, -2000.0);
12:24:31:875;12:24:31:864;1448408430.41;(0, 0);0;0;;;;;;;;;;;;;;0;0;0;0;0;0;0;0;0;();(-2000.0, -2000.0);
12:24:31:892;12:24:31:864;1448408430.41;(0, 0);0;0;;;;;;;;;;;;;;0;0;0;0;0;0;0;0;0;();(-2000.0, -2000.0);
12:24:31:909;12:24:31:864;1448408430.41;(0, 0);0;0;;;;;;;;;;;;;;0;0;0;0;0;0;0;0;0;();(-2000.0, -2000.0);
12:24:31:942;12:24:31:931;1448408430.51;(0.7382658958435059, 0.8041919920179579);88.1532516479;0.994891528928;;;;;;;;;;;;;;0;0;0;0;0;0;0;0;0;();(-2000.0, -2000.0);
12:24:31:959;12:24:31:931;1448408430.51;(0.7382658958435059, 0.8041919920179579);88.1532516479;0.994891528928;;;;;;;;;;;;;;0;0;0;0;0;0;0;0;0;();(-2000.0, -2000.0);
12:24:31:975;12:24:31:931;1448408430.51;(0.7382658958435059, 0.8041919920179579);88.1532516479;0.994891528928;;;;;;;;;;;;;;0;0;0;0;0;0;0;0;0;();(-2000.0, -2000.0);
12:24:31:992;12:24:31:931;1448408430.51;(0.7382658958435059, 0.8041919920179579);88.1532516479;0.994891528928;;;;;;;;;;;;;;0;0;0;0;0;0;0;0;0;();(-2000.0, -2000.0);
12:24:32:008;12:24:31:931;1448408430.51;(0.7382658958435059, 0.8041919920179579);88.1532516479;0.994891528928;;;;;;;;;;;;;;0;0;0;0;0;0;0;0;0;();(-2000.0, -2000.0);
12:24:32:042;12:24:32:013;1448408430.58;(0.7390296936035157, 0.8035660001966689);88.1398849487;1.0;;;;;;;;;;;;;;0;0;0;0;0;0;0;0;0;();(-2000.0, -2000.0);
12:24:32:059;12:24:32:013;1448408430.58;(0.7390296936035157, 0.8035660001966689);88.1398849487;1.0;;;;;;;;;;;;;;0;0;0;0;0;0;0;0;0;();(-2000.0, -2000.0);
12:24:32:076;12:24:32:069;1448408430.64;(0.7400417804718018, 0.8025693681504991);88.8590011597;0.924090343384;;;;;;;;;;;;;;0;0;0;0;0;0;0;0;0;();(-2000.0, -2000.0);
12:24:32:092;12:24:32:069;1448408430.64;(0.7400417804718018, 0.8025693681504991);88.8590011597;0.924090343384;;;;;;;;;;;;;;0;0;0;0;0;0;0;0;0;();(-2000.0, -2000.0);
12:24:32:109;12:24:32:069;1448408430.64;(0.7400417804718018, 0.8025693681504991);88.8590011597;0.924090343384;;;;;;;;;;;;;;0;0;0;0;0;0;0;0;0;();(-2000.0, -2000.0);
12:24:32:142;12:24:32:130;1448408430.71;(0.7407009601593018, 0.8030345598856607);88.7735137939;0.941020265209;;;;;;;;;;;;;;0;0;0;0;0;0;0;0;0;();(-2000.0, -2000.0);
12:24:32:159;12:24:32:130;1448408430.71;(0.7407009601593018, 0.8030345598856607);88.7735137939;0.941020265209;;;;;;;;;;;;;;0;0;0;0;0;0;0;0;0;();(-2000.0, -2000.0);
12:24:32:175;12:24:32:130;1448408430.71;(0.7407009601593018, 0.8030345598856607);88.7735137939;0.941020265209;;;;;;;;;;;;;;0;0;0;0;0;0;0;0;0;();(-2000.0, -2000.0);
12:24:32:192;12:24:32:130;1448408430.71;(0.7407009601593018, 0.8030345598856607);88.7735137939;0.941020265209;;;;;;;;;;;;;;0;0;0;0;0;0;0;0;0;();(-2000.0, -2000.0);
12:24:32:209;12:24:32:198;1448408430.78;(0.741092586517334, 0.8035820960998535);88.8686904907;0.966245219566;;;;;;;;;;;;;;0;0;0;0;0;0;0;0;0;();(-2000.0, -2000.0);
12:24:32:242;12:24:32:198;1448408430.78;(0.741092586517334, 0.8035820960998535);88.8686904907;0.966245219566;;;;;;;;;;;;;;0;0;0;0;0;0;0;0;0;();(-2000.0, -2000.0);
12:24:32:259;12:24:32:198;1448408430.78;(0.741092586517334, 0.8035820960998535);88.8686904907;0.966245219566;;;;;;;;;;;;;;0;0;0;0;0;0;0;0;0;();(-2000.0, -2000.0);
12:24:32:275;12:24:32:264;1448408430.84;(0, 0);0;0;;;;;;;;;;;;;;0;0;0;0;0;0;0;0;0;();(-2000.0, -2000.0);
12:24:32:292;12:24:32:264;1448408430.84;(0, 0);0;0;;;;;;;;;;;;;;0;0;0;0;0;0;0;0;0;();(-2000.0, -2000.0);
12:24:32:309;12:24:32:264;1448408430.84;(0, 0);0;0;;;;;;;;;;;;;;0;0;0;0;0;0;0;0;0;();(-2000.0, -2000.0);
12:24:32:342;12:24:32:329;1448408430.88;(0, 0);0;0;;;;;;;;;;;;;;0;0;0;0;0;0;0;0;0;();(-2000.0, -2000.0);
12:24:32:359;12:24:32:329;1448408430.88;(0, 0);0;0;;;;;;;;;;;;;;0;0;0;0;0;0;0;0;0;();(-2000.0, -2000.0);
12:24:32:376;12:24:32:329;1448408430.88;(0, 0);0;0;;;;;;;;;;;;;;0;0;0;0;0;0;0;0;0;();(-2000.0, -2000.0);
12:24:32:392;12:24:32:329;1448408430.88;(0, 0);0;0;;;;;;;;;;;;;;0;0;0;0;0;0;0;0;0;();(-2000.0, -2000.0);
12:24:32:409;12:24:32:398;1448408430.98;(0.9533463478088379, 0.45612746344672306);19.1645584106;0.837564552266;;;;;;;;;;;;;;0;0;0;0;0;0;0;0;0;();(-2000.0, -2000.0);
12:24:32:448;12:24:32:398;1448408430.98;(0.9533463478088379, 0.45612746344672306);19.1645584106;0.837564552266;;;;;;;;;;;;;;0;33,48;0;0;0;0;0;0;0;();(-2000.0, -2000.0);
12:24:32:472;12:24:32:460;1448408431.01;(0, 0);0;0;;;;;;;;;;;;;;0;33,48;0;0;0;0;0;0;0;();(-2000.0, -2000.0);
12:24:32:476;12:24:32:460;1448408431.01;(0, 0);0;0;;;;;;;;;;;;;;0;33,48;0;0;0;0;0;0;0;();(-2000.0, -2000.0);
12:24:32:492;12:24:32:460;1448408431.01;(0, 0);0;0;;;;;;;;;;;;;;0;33,48;0;0;0;0;0;0;0;();(-2000.0, -2000.0);
12:24:32:509;12:24:32:460;1448408431.01;(0, 0);0;0;;;;;;;;;;;;;;0;33,48;0;0;0;0;0;0;0;();(-2000.0, -2000.0);
12:24:32:543;12:24:32:531;1448408431.11;(0, 0);0;0;;;;;;;;;;;;;;0;33,48;0;0;0;0;0;0;0;();(-2000.0, -2000.0);
12:24:32:559;12:24:32:531;1448408431.11;(0, 0);0;0;;;;;;;;;;;;;;0;33,48;0;0;0;0;0;0;0;();(-2000.0, -2000.0);
12:24:32:576;12:24:32:531;1448408431.11;(0, 0);0;0;;;;;;;;;;;;;;0;33,48;0;0;0;0;0;0;0;();(-2000.0, -2000.0);
12:24:32:593;12:24:32:531;1448408431.11;(0, 0);0;0;;;;;;;;;;;;;;0;33,48;0;0;0;0;0;0;0;();(-2000.0, -2000.0);
12:24:32:609;12:24:32:594;1448408431.18;(0.3641042232513428, 0.696102672153049);25.5223846436;0.693584168401;;;;;;;;;;;;;;0;33,48;0;0;0;0;0;0;0;();(-2000.0, -2000.0);
12:24:32:643;12:24:32:594;1448408431.18;(0.3641042232513428, 0.696102672153049);25.5223846436;0.693584168401;;;;;;;;;;;;;;0;33,48;0;0;0;0;0;0;0;();(-2000.0, -2000.0);
12:24:32:660;12:24:32:594;1448408431.18;(0.3641042232513428, 0.696102672153049);25.5223846436;0.693584168401;;;;;;;;;;;;;;0;33,48;0;0;0;0;0;0;0;();(-2000.0, -2000.0);
12:24:32:676;12:24:32:661;1448408431.21;(0, 0);0;0;;;;;;;;;;;;;;0;33,48;0;0;0;0;0;0;0;();(-2000.0, -2000.0);
12:24:32:693;12:24:32:661;1448408431.21;(0, 0);0;0;;;;;;;;;;;;;;0;33,48;0;0;0;0;0;0;0;();(-2000.0, -2000.0);
12:24:32:709;12:24:32:661;1448408431.21;(0, 0);0;0;;;;;;;;;;;;;;0;33,48;0;0;0;0;0;0;0;();(-2000.0, -2000.0);
12:24:32:742;12:24:32:726;1448408431.28;(0.7008730888366699, 0.8303380436367459);89.1673583984;0.842800989928;;;;;;;;;;;;;;0;33,48;0;0;0;0;0;0;0;();(-2000.0, -2000.0);
12:24:32:759;12:24:32:726;1448408431.28;(0.7008730888366699, 0.8303380436367459);89.1673583984;0.842800989928;;;;;;;;;;;;;;0;33,48;0;0;0;0;0;0;0;();(-2000.0, -2000.0);
12:24:32:776;12:24:32:726;1448408431.28;(0.7008730888366699, 0.8303380436367459);89.1673583984;0.842800989928;;;;;;;;;;;;;;0;33,48;0;0;0;0;0;0;0;();(-2000.0, -2000.0);
12:24:32:792;12:24:32:726;1448408431.28;(0.7008730888366699, 0.8303380436367459);89.1673583984;0.842800989928;;;;;;;;;;;;;;0;33,48;0;0;0;0;0;0;0;();(-2000.0, -2000.0);
12:24:32:810;12:24:32:797;1448408431.34;(0.7047441959381103, 0.8289374775356717);88.5402145386;0.769962261368;;;;;;;;;;;;;;0;33,48;0;0;0;0;0;0;0;();(-2000.0, -2000.0);
12:24:32:843;12:24:32:797;1448408431.34;(0.7047441959381103, 0.8289374775356717);88.5402145386;0.769962261368;;;;;;;;;;;;;;0;33,48;0;0;0;0;0;0;0;();(-2000.0, -2000.0);
12:24:32:859;12:24:32:797;1448408431.34;(0.7047441959381103, 0.8289374775356717);88.5402145386;0.769962261368;;;;;;;;;;;;;;0;33,48;0;0;0;0;0;0;0;();(-2000.0, -2000.0);
12:24:32:876;12:24:32:865;1448408431.44;(0.2682286977767944, 0.8895373609330919);21.2895317078;0.730091594602;;;;;;;;;;;;;;0;33,48;0;0;0;0;0;0;0;();(-2000.0, -2000.0);
12:24:32:893;12:24:32:865;1448408431.44;(0.2682286977767944, 0.8895373609330919);21.2895317078;0.730091594602;;;;;;;;;;;;;;0;33,48;0;0;0;0;0;0;0;();(-2000.0, -2000.0);
12:24:32:910;12:24:32:865;1448408431.44;(0.2682286977767944, 0.8895373609330919);21.2895317078;0.730091594602;;;;;;;;;;;;;;0;33,48;0;0;0;0;0;0;0;();(-2000.0, -2000.0);
12:24:32:926;12:24:32:925;1448408431.48;(0.2666365385055542, 0.8934671825832791);24.8841876984;0.645856326752;;;;;;;;;;;;;;0;33,48;0;0;0;0;0;0;0;();(-2000.0, -2000.0);
12:24:32:960;12:24:32:925;1448408431.48;(0.2666365385055542, 0.8934671825832791);24.8841876984;0.645856326752;;;;;;;;;;;;;;0;33,48;0;0;0;0;0;0;0;();(-2000.0, -2000.0);
12:24:32:977;12:24:32:925;1448408431.48;(0.2666365385055542, 0.8934671825832791);24.8841876984;0.645856326752;;;;;;;;;;;;;;0;33,48;0;0;0;0;0;0;0;();(-2000.0, -2000.0);
12:24:32:993;12:24:32:925;1448408431.48;(0.2666365385055542, 0.8934671825832791);24.8841876984;0.645856326752;;;;;;;;;;;;;;0;33,48;0;0;0;0;0;0;0;();(-2000.0, -2000.0);
12:24:33:010;12:24:32:994;1448408431.54;(0.7063578128814697, 0.8202808380126954);88.276512146;0.752932654153;;;;;;;;;;;;;;0;33,48;0;0;0;0;0;0;0;();(-2000.0, -2000.0);
12:24:33:027;12:24:32:994;1448408431.54;(0.7063578128814697, 0.8202808380126954);88.276512146;0.752932654153;;;;;;;;;;;;;;0;33,48;0;0;0;0;0;0;0;();(-2000.0, -2000.0);
12:24:33:060;12:24:33:057;1448408431.58;(0, 0);0;0;;;;;;;;;;;;;;0;33,48;0;0;0;0;0;0;0;();(-2000.0, -2000.0);
12:24:33:076;12:24:33:059;1448408431.61;(0.9485771179199218, 0.4544758690728081);18.2459049225;0.926817404452;;;;;;;;;;;;;;0;33,48;0;0;0;0;0;0;0;();(-2000.0, -2000.0);
12:24:33:093;12:24:33:059;1448408431.61;(0.9485771179199218, 0.4544758690728081);18.2459049225;0.926817404452;;;;;;;;;;;;;;0;33,48;0;0;0;0;0;0;0;();(-2000.0, -2000.0);
12:24:33:110;12:24:33:059;1448408431.61;(0.9485771179199218, 0.4544758690728081);18.2459049225;0.926817404452;;;;;;;;;;;;;;0;33,48;0;0;0;0;0;0;0;();(-2000.0, -2000.0);
12:24:33:127;12:24:33:125;1448408431.64;(0, 0);0;0;;;;;;;;;;;;;;0;33,48;0;0;0;0;0;0;0;();(-2000.0, -2000.0);
12:24:33:159;12:24:33:126;1448408431.68;(0.8017617225646972, 0.7329630109998915);88.7509536743;0.912196202497;;;;;;;;;;;;;;0;33,48;0;0;0;0;0;0;0;();(-2000.0, -2000.0);
12:24:33:176;12:24:33:126;1448408431.68;(0.8017617225646972, 0.7329630109998915);88.7509536743;0.912196202497;;;;;;;;;;;;;;0;33,48;0;0;0;0;0;0;0;();(-2000.0, -2000.0);
12:24:33:193;12:24:33:126;1448408431.68;(0.8017617225646972, 0.7329630109998915);88.7509536743;0.912196202497;;;;;;;;;;;;;;0;33,48;0;0;0;0;0;0;0;();(-2000.0, -2000.0);
12:24:33:210;12:24:33:194;1448408431.74;(0.8111438274383544, 0.7247817357381185);87.4145812988;0.792518579115;;;;;;;;;;;;;;0;33,48;0;0;0;0;0;0;0;();(-2000.0, -2000.0);
12:24:33:227;12:24:33:194;1448408431.74;(0.8111438274383544, 0.7247817357381185);87.4145812988;0.792518579115;;;;;;;;;;;;;;0;33,48;0;0;0;0;0;0;0;();(-2000.0, -2000.0);
12:24:33:260;12:24:33:194;1448408431.74;(0.8111438274383544, 0.7247817357381185);87.4145812988;0.792518579115;;;;;;;;;;;;;;0;33,48;0;0;0;0;0;0;0;();(-2000.0, -2000.0);
12:24:33:277;12:24:33:194;1448408431.74;(0.8111438274383544, 0.7247817357381185);87.4145812988;0.792518579115;;;;;;;;;;;;;;0;33,48;0;0;0;0;0;0;0;();(-2000.0, -2000.0);
12:24:33:293;12:24:33:283;1448408431.81;(0.8023609161376953, 0.7333936267428928);88.0916290283;0.904224509265;;;;;;;;;;;;;;0;33,48;0;0;0;0;0;0;0;();(-2000.0, -2000.0);
12:24:33:310;12:24:33:283;1448408431.81;(0.8023609161376953, 0.7333936267428928);88.0916290283;0.904224509265;;;;;;;;;;;;;;0;33,48;0;0;0;0;0;0;0;();(-2000.0, -2000.0);
12:24:33:327;12:24:33:325;1448408431.84;(0.798819637298584, 0.7374105029635959);88.5635681152;0.947835844835;;;;;;;;;;;;;;0;33,48;0;0;0;0;0;0;0;();(-2000.0, -2000.0);
12:24:33:360;12:24:33:326;1448408431.88;(0, 0);0;0;;;;;;;;;;;;;;0;33,48;0;0;0;0;0;0;0;();(-2000.0, -2000.0);
12:24:33:376;12:24:33:326;1448408431.88;(0, 0);0;0;;;;;;;;;;;;;;0;33,48;0;0;0;0;0;0;0;();(-2000.0, -2000.0);
12:24:33:393;12:24:33:391;1448408431.94;(0.78863525390625, 0.7453457090589735);85.5262069702;0.914323543968;;;;;;;;;;;;;;0;33,48;0;0;0;0;0;0;0;();(-2000.0, -2000.0);
12:24:33:410;12:24:33:391;1448408431.94;(0.78863525390625, 0.7453457090589735);85.5262069702;0.914323543968;;;;;;;;;;;;;;0;33,48;0;0;0;0;0;0;0;();(-2000.0, -2000.0);
12:24:33:427;12:24:33:391;1448408431.94;(0.78863525390625, 0.7453457090589735);85.5262069702;0.914323543968;;;;;;;;;;;;;;0;33,48;0;0;0;0;0;0;0;();(-2000.0, -2000.0);
12:24:33:460;12:24:33:458;1448408432.01;(0.7837338447570801, 0.7485147688123914);85.5694351196;0.871970781185;;;;;;;;;;;;;;0;33,48;0;0;0;0;0;0;0;();(-2000.0, -2000.0);
12:24:33:477;12:24:33:458;1448408432.01;(0.7837338447570801, 0.7485147688123914);85.5694351196;0.871970781185;;;;;;;;;;;;;;0;33,48;0;0;0;0;0;0;0;();(-2000.0, -2000.0);
12:24:33:493;12:24:33:458;1448408432.01;(0.7837338447570801, 0.7485147688123914);85.5694351196;0.871970781185;;;;;;;;;;;;;;0;33,48;0;0;0;0;0;0;0;();(-2000.0, -2000.0);
12:24:33:510;12:24:33:458;1448408432.01;(0.7837338447570801, 0.7485147688123914);85.5694351196;0.871970781185;;;;;;;;;;;;;;0;33,48;0;0;0;0;0;0;0;();(-2000.0, -2000.0);
12:24:33:526;12:24:33:524;1448408432.04;(0.7940208435058593, 0.7376979615953234);84.3583831787;0.926351387098;;;;;;;;;;;;;;0;33,48;0;0;0;0;0;0;0;();(-2000.0, -2000.0);
12:24:33:561;12:24:33:526;1448408432.08;(0.7929117202758789, 0.7394993888007271);84.3566741943;0.911020874001;;;;;;;;;;;;;;0;33,48;0;0;0;0;0;0;0;();(-2000.0, -2000.0);
12:24:33:577;12:24:33:526;1448408432.08;(0.7929117202758789, 0.7394993888007271);84.3566741943;0.911020874001;;;;;;;;;;;;;;0;33,48;0;0;0;0;0;0;0;();(-2000.0, -2000.0);
12:24:33:593;12:24:33:590;1448408432.14;(0.7910722732543946, 0.7413570192125108);84.5673599243;0.863550815519;;;;;;;;;;;;;;0;33,48;0;0;0;0;0;0;0;();(-2000.0, -2000.0);
12:24:33:610;12:24:33:590;1448408432.14;(0.7910722732543946, 0.7413570192125108);84.5673599243;0.863550815519;;;;;;;;;;;;;;0;33,48;0;0;0;0;0;0;0;();(-2000.0, -2000.0);
12:24:33:627;12:24:33:590;1448408432.14;(0.7910722732543946, 0.7413570192125108);84.5673599243;0.863550815519;;;;;;;;;;;;;;0;33,48;0;0;0;0;0;0;0;();(-2000.0, -2000.0);
12:24:33:660;12:24:33:658;1448408432.21;(0.7891132354736328, 0.7406380547417535);83.7508392334;0.989777239486;;;;;;;;;;;;;;0;33,48;0;0;0;0;0;0;0;();(-2000.0, -2000.0);
12:24:33:677;12:24:33:660;1448408432.24;(0.7885901927947998, 0.7409804026285807);84.1563491821;0.832304857657;;;;;;;;;;;;;;0;33,48;0;0;0;0;0;0;0;();(-2000.0, -2000.0);
12:24:33:694;12:24:33:660;1448408432.24;(0.7885901927947998, 0.7409804026285807);84.1563491821;0.832304857657;;;;;;;;;;;;;;0;33,48;0;0;0;0;0;0;0;();(-2000.0, -2000.0);
12:24:33:711;12:24:33:660;1448408432.24;(0.7885901927947998, 0.7409804026285807);84.1563491821;0.832304857657;;;;;;;;;;;;;;0;33,48;0;0;0;0;0;0;0;();(-2000.0, -2000.0);
12:24:33:728;12:24:33:722;1448408432.28;(0.78757643699646, 0.7395492129855685);82.5697174072;0.880557014255;;;;;;;;;;;;;;0;33,48;0;0;0;0;0;0;0;();(-2000.0, -2000.0);
12:24:33:760;12:24:33:722;1448408432.28;(0.78757643699646, 0.7395492129855685);82.5697174072;0.880557014255;;;;;;;;;;;;;;0;33,48;0;0;0;0;0;0;0;();(-2000.0, -2000.0);
12:24:33:776;12:24:33:722;1448408432.28;(0.78757643699646, 0.7395492129855685);82.5697174072;0.880557014255;;;;;;;;;;;;;;0;33,48;0;0;0;0;0;0;0;();(-2000.0, -2000.0);
12:24:33:794;12:24:33:790;1448408432.34;(0.7858558654785156, 0.7425083372328016);86.9688796997;1.0;;;;;;;;;;;;;;0;33,48;0;0;0;0;0;0;0;();(-2000.0, -2000.0);
12:24:33:810;12:24:33:790;1448408432.34;(0.7858558654785156, 0.7425083372328016);86.9688796997;1.0;;;;;;;;;;;;;;0;33,48;0;0;0;0;0;0;0;();(-2000.0, -2000.0);
12:24:33:826;12:24:33:790;1448408432.34;(0.7858558654785156, 0.7425083372328016);86.9688796997;1.0;;;;;;;;;;;;;;0;33,48;0;0;0;0;0;0;0;();(-2000.0, -2000.0);
12:24:33:860;12:24:33:859;1448408432.41;(0.7848031997680665, 0.744152577718099);88.608795166;0.911904989852;;;;;;;;;;;;;;0;33,48;0;0;0;0;0;0;0;();(-2000.0, -2000.0);
12:24:33:877;12:24:33:859;1448408432.41;(0.7848031997680665, 0.744152577718099);88.608795166;0.911904989852;;;;;;;;;;;;;;0;33,48;0;0;0;0;0;0;0;();(-2000.0, -2000.0);
12:24:33:894;12:24:33:859;1448408432.41;(0.7848031997680665, 0.744152577718099);88.608795166;0.911904989852;;;;;;;;;;;;;;0;33,48;0;0;0;0;0;0;0;();(-2000.0, -2000.0);
12:24:33:910;12:24:33:859;1448408432.41;(0.7848031997680665, 0.744152577718099);88.608795166;0.911904989852;;;;;;;;;;;;;;0;33,48;0;0;0;0;0;0;0;();(-2000.0, -2000.0);
12:24:33:927;12:24:33:922;1448408432.48;(0.7834811210632324, 0.7452533933851454);88.4525985718;0.900961226753;;;;;;;;;;;;;;0;33,48;0;0;0;0;0;0;0;();(-2000.0, -2000.0);
12:24:33:960;12:24:33:922;1448408432.48;(0.7834811210632324, 0.7452533933851454);88.4525985718;0.900961226753;;;;;;;;;;;;;;0;33,48;0;0;0;0;0;0;0;();(-2000.0, -2000.0);
12:24:33:977;12:24:33:922;1448408432.48;(0.7834811210632324, 0.7452533933851454);88.4525985718;0.900961226753;;;;;;;;;;;;;;0;33,48;0;0;0;0;0;0;0;();(-2000.0, -2000.0);
12:24:33:994;12:24:33:992;1448408432.54;(0.7823272228240967, 0.7460441377427842);89.7414016724;0.87814458097;;;;;;;;;;;;;;0;33,48;0;0;0;0;0;0;0;();(-2000.0, -2000.0);
12:24:34:011;12:24:33:995;1448408432.58;(0.7817833900451661, 0.7464273240831163);89.9712371826;0.816980071231;;;;;;;;;;;;;;0;33,48;0;0;0;0;0;0;0;();(-2000.0, -2000.0);
12:24:34:027;12:24:33:995;1448408432.58;(0.7817833900451661, 0.7464273240831163);89.9712371826;0.816980071231;;;;;;;;;;;;;;0;33,48;0;0;0;0;0;0;0;();(-2000.0, -2000.0);
12:24:34:061;12:24:34:054;1448408432.61;(0.7814998626708984, 0.7468970192803277);91.0479507446;0.902668198817;;;;;;;;;;;;;;0;33,48;0;0;0;0;0;0;0;();(-2000.0, -2000.0);
12:24:34:078;12:24:34:054;1448408432.61;(0.7814998626708984, 0.7468970192803277);91.0479507446;0.902668198817;;;;;;;;;;;;;;0;33,48;0;0;0;0;0;0;0;();(-2000.0, -2000.0);
12:24:34:094;12:24:34:054;1448408432.61;(0.7814998626708984, 0.7468970192803277);91.0479507446;0.902668198817;;;;;;;;;;;;;;0;33,48;0;0;0;0;0;0;0;();(-2000.0, -2000.0);
12:24:34:110;12:24:34:054;1448408432.61;(0.7814998626708984, 0.7468970192803277);91.0479507446;0.902668198817;;;;;;;;;;;;;;0;33,48;0;0;0;0;0;0;0;();(-2000.0, -2000.0);
12:24:34:127;12:24:34:123;1448408432.68;(0.7809725284576416, 0.7479963938395182);91.1543426514;0.998513717299;;;;;;;;;;;;;;0;33,48;0;0;0;0;0;0;0;();(-2000.0, -2000.0);
12:24:34:160;12:24:34:123;1448408432.68;(0.7809725284576416, 0.7479963938395182);91.1543426514;0.998513717299;;;;;;;;;;;;;;0;33,48;0;0;0;0;0;0;0;();(-2000.0, -2000.0);
12:24:34:175;12:24:34:123;1448408432.68;(0.7809725284576416, 0.7479963938395182);91.1543426514;0.998513717299;;;;;;;;;;;;;;0;33,48;0;0;0;0;0;0;0;();(-2000.0, -2000.0);
12:24:34:194;12:24:34:192;1448408432.74;(0.7807513236999511, 0.7490075853135851);91.4511566162;0.966108214647;;;;;;;;;;;;;;0;33,48;0;0;0;0;0;0;0;();(-2000.0, -2000.0);
12:24:34:211;12:24:34:195;1448408432.78;(0.7806440830230713, 0.7490585327148438);92.008430481;1.0;;;;;;;;;;;;;;0;33,48;0;0;0;0;0;0;0;();(-2000.0, -2000.0);
12:24:34:228;12:24:34:195;1448408432.78;(0.7806440830230713, 0.7490585327148438);92.008430481;1.0;;;;;;;;;;;;;;0;33,48;0;0;0;0;0;0;0;();(-2000.0, -2000.0);
12:24:34:261;12:24:34:255;1448408432.84;(0.7803721904754639, 0.7502834320068359);91.6589431763;1.0;;;;;;;;;;;;;;0;33,48;0;0;0;0;0;0;0;();(-2000.0, -2000.0);
12:24:34:277;12:24:34:255;1448408432.84;(0.7803721904754639, 0.7502834320068359);91.6589431763;1.0;;;;;;;;;;;;;;0;33,48;0;0;0;0;0;0;0;();(-2000.0, -2000.0);
12:24:34:294;12:24:34:255;1448408432.84;(0.7803721904754639, 0.7502834320068359);91.6589431763;1.0;;;;;;;;;;;;;;0;33,48;0;0;0;0;0;0;0;();(-2000.0, -2000.0);
12:24:34:311;12:24:34:255;1448408432.84;(0.7803721904754639, 0.7502834320068359);91.6589431763;1.0;;;;;;;;;;;;;;0;33,48;0;0;0;0;0;0;0;();(-2000.0, -2000.0);
12:24:34:328;12:24:34:322;1448408432.88;(0.7800687313079834, 0.7501984490288629);91.8287963867;0.972339087405;;;;;;;;;;;;;;0;33,48;0;0;0;0;0;0;0;();(-2000.0, -2000.0);
12:24:34:361;12:24:34:322;1448408432.88;(0.7800687313079834, 0.7501984490288629);91.8287963867;0.972339087405;;;;;;;;;;;;;;0;33,48;0;0;0;0;0;0;0;();(-2000.0, -2000.0);
12:24:34:378;12:24:34:322;1448408432.88;(0.7800687313079834, 0.7501984490288629);91.8287963867;0.972339087405;;;;;;;;;;;;;;0;33,48;0;0;0;0;0;0;0;();(-2000.0, -2000.0);
12:24:34:394;12:24:34:386;1448408432.94;(0.77218656539917, 0.7555892732408311);90.3988113403;1.0;;;;;;;;;;;;;;0;33,48;0;0;0;0;0;0;0;();(-2000.0, -2000.0);
12:24:34:411;12:24:34:386;1448408432.94;(0.77218656539917, 0.7555892732408311);90.3988113403;1.0;;;;;;;;;;;;;;0;33,48;0;0;0;0;0;0;0;();(-2000.0, -2000.0);
12:24:34:427;12:24:34:386;1448408432.94;(0.77218656539917, 0.7555892732408311);90.3988113403;1.0;;;;;;;;;;;;;;0;33,48;0;0;0;0;0;0;0;();(-2000.0, -2000.0);
12:24:34:461;12:24:34:458;1448408433.01;(0.7722424507141114, 0.7560575273301866);90.6020965576;0.930611410654;;;;;;;;;;;;;;0;33,48;0;0;0;0;0;0;0;();(-2000.0, -2000.0);
12:24:34:478;12:24:34:458;1448408433.01;(0.7722424507141114, 0.7560575273301866);90.6020965576;0.930611410654;;;;;;;;;;;;;;0;33,48;0;0;0;0;0;0;0;();(-2000.0, -2000.0);
12:24:34:493;12:24:34:458;1448408433.01;(0.7722424507141114, 0.7560575273301866);90.6020965576;0.930611410654;;;;;;;;;;;;;;0;33,48;0;0;0;0;0;0;0;();(-2000.0, -2000.0);
12:24:34:511;12:24:34:458;1448408433.01;(0.7722424507141114, 0.7560575273301866);90.6020965576;0.930611410654;;;;;;;;;;;;;;0;33,48;0;0;0;0;0;0;0;();(-2000.0, -2000.0);
12:24:34:528;12:24:34:523;1448408433.11;(0.7714349746704101, 0.7561156590779623);89.8098449707;1.0;;;;;;;;;;;;;;0;33,48;0;0;0;0;0;0;0;();(-2000.0, -2000.0);
12:24:34:561;12:24:34:523;1448408433.11;(0.7714349746704101, 0.7561156590779623);89.8098449707;1.0;;;;;;;;;;;;;;0;33,48;0;0;0;0;0;0;0;();(-2000.0, -2000.0);
12:24:34:578;12:24:34:523;1448408433.11;(0.7714349746704101, 0.7561156590779623);89.8098449707;1.0;;;;;;;;;;;;;;0;33,48;0;0;0;0;0;0;0;();(-2000.0, -2000.0);
12:24:34:594;12:24:34:585;1448408433.14;(0.7712960243225098, 0.7556030061509874);89.7128753662;1.0;;;;;;;;;;;;;;0;33,48;0;0;0;0;0;0;0;();(-2000.0, -2000.0);
12:24:34:611;12:24:34:585;1448408433.14;(0.7712960243225098, 0.7556030061509874);89.7128753662;1.0;;;;;;;;;;;;;;0;33,48;0;0;0;0;0;0;0;();(-2000.0, -2000.0);
12:24:34:628;12:24:34:585;1448408433.14;(0.7712960243225098, 0.7556030061509874);89.7128753662;1.0;;;;;;;;;;;;;;0;33,48;0;0;0;0;0;0;0;();(-2000.0, -2000.0);
12:24:34:661;12:24:34:654;1448408433.21;(0.7714246273040771, 0.7557463751898872);89.29271698;0.99426255993;;;;;;;;;;;;;;0;33,48;0;0;0;0;0;0;0;();(-2000.0, -2000.0);
12:24:34:678;12:24:34:654;1448408433.21;(0.7714246273040771, 0.7557463751898872);89.29271698;0.99426255993;;;;;;;;;;;;;;0;33,48;0;0;0;0;0;0;0;();(-2000.0, -2000.0);
12:24:34:694;12:24:34:654;1448408433.21;(0.7714246273040771, 0.7557463751898872);89.29271698;0.99426255993;;;;;;;;;;;;;;0;33,48;0;0;0;0;0;0;0;();(-2000.0, -2000.0);
12:24:34:711;12:24:34:654;1448408433.21;(0.7714246273040771, 0.7557463751898872);89.29271698;0.99426255993;;;;;;;;;;;;;;0;33,48;0;0;0;0;0;0;0;();(-2000.0, -2000.0);
12:24:34:728;12:24:34:719;1448408433.28;(0.771364402770996, 0.7567845238579645);88.346534729;0.944892158412;;;;;;;;;;;;;;0;33,48;0;0;0;0;0;0;0;();(-2000.0, -2000.0);
12:24:34:761;12:24:34:719;1448408433.28;(0.771364402770996, 0.7567845238579645);88.346534729;0.944892158412;;;;;;;;;;;;;;0;33,48;0;0;0;0;0;0;0;();(-2000.0, -2000.0);
12:24:34:778;12:24:34:719;1448408433.28;(0.771364402770996, 0.7567845238579645);88.346534729;0.944892158412;;;;;;;;;;;;;;0;33,48;0;0;0;0;0;0;0;();(-2000.0, -2000.0);
12:24:34:795;12:24:34:786;1448408433.34;(0.7709981441497803, 0.7571337170071072);88.2867355347;0.992239770791;;;;;;;;;;;;;;0;33,48;0;0;0;0;0;0;0;();(-2000.0, -2000.0);
12:24:34:811;12:24:34:786;1448408433.34;(0.7709981441497803, 0.7571337170071072);88.2867355347;0.992239770791;;;;;;;;;;;;;;0;33,48;0;0;0;0;0;0;0;();(-2000.0, -2000.0);
12:24:34:828;12:24:34:786;1448408433.34;(0.7709981441497803, 0.7571337170071072);88.2867355347;0.992239770791;;;;;;;;;;;;;;0;33,48;0;0;0;0;0;0;0;();(-2000.0, -2000.0);
12:24:34:861;12:24:34:854;1448408433.41;(0.7705617904663086, 0.7574126561482748);88.5696563721;1.0;;;;;;;;;;;;;;0;33,48;0;0;0;0;0;0;0;();(-2000.0, -2000.0);
12:24:34:878;12:24:34:854;1448408433.41;(0.7705617904663086, 0.7574126561482748);88.5696563721;1.0;;;;;;;;;;;;;;0;33,48;0;0;0;0;0;0;0;();(-2000.0, -2000.0);
12:24:34:894;12:24:34:854;1448408433.41;(0.7705617904663086, 0.7574126561482748);88.5696563721;1.0;;;;;;;;;;;;;;0;33,48;0;0;0;0;0;0;0;();(-2000.0, -2000.0);
12:24:34:912;12:24:34:854;1448408433.41;(0.7705617904663086, 0.7574126561482748);88.5696563721;1.0;;;;;;;;;;;;;;0;33,48;0;0;0;0;0;0;0;();(-2000.0, -2000.0);
12:24:34:928;12:24:34:919;1448408433.48;(0.7699285507202148, 0.7577915827433268);88.8735809326;0.974574744063;;;;;;;;;;;;;;0;33,48;0;0;0;0;0;0;0;();(-2000.0, -2000.0);
12:24:34:961;12:24:34:919;1448408433.48;(0.7699285507202148, 0.7577915827433268);88.8735809326;0.974574744063;;;;;;;;;;;;;;0;33,48;0;0;0;0;0;0;0;();(-2000.0, -2000.0);
12:24:34:978;12:24:34:919;1448408433.48;(0.7699285507202148, 0.7577915827433268);88.8735809326;0.974574744063;;;;;;;;;;;;;;0;33,48;0;0;0;0;0;0;0;();(-2000.0, -2000.0);
12:24:34:995;12:24:34:988;1448408433.58;(0.7691932201385498, 0.758327039082845);88.1354064941;1.0;;;;;;;;;;;;;;0;33,48;0;0;0;0;0;0;0;();(-2000.0, -2000.0);
12:24:35:012;12:24:34:988;1448408433.58;(0.7691932201385498, 0.758327039082845);88.1354064941;1.0;;;;;;;;;;;;;;0;33,48;0;0;0;0;0;0;0;();(-2000.0, -2000.0);
12:24:35:027;12:24:34:988;1448408433.58;(0.7691932201385498, 0.758327039082845);88.1354064941;1.0;;;;;;;;;;;;;;0;33,48;0;0;0;0;0;0;0;();(-2000.0, -2000.0);
12:24:35:062;12:24:35:048;1448408433.61;(0.769513463973999, 0.7583602905273438);88.4732666016;1.0;;;;;;;;;;;;;;0;33,48;0;0;0;0;0;0;0;();(-2000.0, -2000.0);
12:24:35:078;12:24:35:048;1448408433.61;(0.769513463973999, 0.7583602905273438);88.4732666016;1.0;;;;;;;;;;;;;;0;33,48;0;0;0;0;0;0;0;();(-2000.0, -2000.0);
12:24:35:094;12:24:35:048;1448408433.61;(0.769513463973999, 0.7583602905273438);88.4732666016;1.0;;;;;;;;;;;;;;0;33,48;0;0;0;0;0;0;0;();(-2000.0, -2000.0);
12:24:35:111;12:24:35:048;1448408433.61;(0.769513463973999, 0.7583602905273438);88.4732666016;1.0;;;;;;;;;;;;;;0;33,48;0;0;0;0;0;0;0;();(-2000.0, -2000.0);
12:24:35:128;12:24:35:118;1448408433.68;(0.768925952911377, 0.7586503982543945);88.0458679199;0.976907688781;;;;;;;;;;;;;;0;33,48;0;0;0;0;0;0;0;();(-2000.0, -2000.0);
12:24:35:160;12:24:35:118;1448408433.68;(0.768925952911377, 0.7586503982543945);88.0458679199;0.976907688781;;;;;;;;;;;;;;0;33,48;0;0;0;0;0;0;0;();(-2000.0, -2000.0);
12:24:35:178;12:24:35:118;1448408433.68;(0.768925952911377, 0.7586503982543945);88.0458679199;0.976907688781;;;;;;;;;;;;;;0;33,48;0;0;0;0;0;0;0;();(-2000.0, -2000.0);
12:24:35:194;12:24:35:186;1448408433.74;(0, 0);0;0;;;;;;;;;;;;;;0;33,48;0;0;0;0;0;0;0;();(-2000.0, -2000.0);
12:24:35:212;12:24:35:186;1448408433.74;(0, 0);0;0;;;;;;;;;;;;;;0;33,48;0;0;0;0;0;0;0;();(-2000.0, -2000.0);
12:24:35:228;12:24:35:186;1448408433.74;(0, 0);0;0;;;;;;;;;;;;;;0;33,48;0;0;0;0;0;0;0;();(-2000.0, -2000.0);
12:24:35:262;12:24:35:250;1448408433.81;(0, 0);0;0;;;;;;;;;;;;;;0;33,48;0;0;0;0;0;0;0;();(-2000.0, -2000.0);
12:24:35:278;12:24:35:250;1448408433.81;(0, 0);0;0;;;;;;;;;;;;;;0;33,48;0;0;0;0;0;0;0;();(-2000.0, -2000.0);
12:24:35:295;12:24:35:250;1448408433.81;(0, 0);0;0;;;;;;;;;;;;;;0;33,48;0;0;0;0;0;0;0;();(-2000.0, -2000.0);
12:24:35:312;12:24:35:250;1448408433.81;(0, 0);0;0;;;;;;;;;;;;;;0;33,48;0;0;0;0;0;0;0;();(-2000.0, -2000.0);
12:24:35:328;12:24:35:318;1448408433.88;(0.7627564907073975, 0.7587338553534614);82.3194198608;0.794961260776;;;;;;;;;;;;;;0;33,48;0;0;0;0;0;0;0;();(-2000.0, -2000.0);
12:24:35:361;12:24:35:318;1448408433.88;(0.7627564907073975, 0.7587338553534614);82.3194198608;0.794961260776;;;;;;;;;;;;;;0;33,48;0;0;0;0;0;0;0;();(-2000.0, -2000.0);
12:24:35:378;12:24:35:318;1448408433.88;(0.7627564907073975, 0.7587338553534614);82.3194198608;0.794961260776;;;;;;;;;;;;;;0;33,48;0;0;0;0;0;0;0;();(-2000.0, -2000.0);
12:24:35:395;12:24:35:386;1448408433.94;(0.7647180080413818, 0.761311149597168);87.3530502319;0.976055458846;;;;;;;;;;;;;;0;33,48;0;0;0;0;0;0;0;();(-2000.0, -2000.0);
12:24:35:412;12:24:35:386;1448408433.94;(0.7647180080413818, 0.761311149597168);87.3530502319;0.976055458846;;;;;;;;;;;;;;0;33,48;0;0;0;0;0;0;0;();(-2000.0, -2000.0);
12:24:35:429;12:24:35:386;1448408433.94;(0.7647180080413818, 0.761311149597168);87.3530502319;0.976055458846;;;;;;;;;;;;;;0;33,48;0;0;0;0;0;0;0;();(-2000.0, -2000.0);
12:24:35:462;12:24:35:450;1448408434.01;(0.7652925014495849, 0.759436649746365);86.8630523682;0.981688191954;;;;;;;;;;;;;;0;33,48;0;0;0;0;0;0;0;();(-2000.0, -2000.0);
12:24:35:478;12:24:35:450;1448408434.01;(0.7652925014495849, 0.759436649746365);86.8630523682;0.981688191954;;;;;;;;;;;;;;0;33,48;0;0;0;0;0;0;0;();(-2000.0, -2000.0);
12:24:35:494;12:24:35:450;1448408434.01;(0.7652925014495849, 0.759436649746365);86.8630523682;0.981688191954;;;;;;;;;;;;;;0;33,48;0;0;0;0;0;0;0;();(-2000.0, -2000.0);
12:24:35:512;12:24:35:450;1448408434.01;(0.7652925014495849, 0.759436649746365);86.8630523682;0.981688191954;;;;;;;;;;;;;;0;33,48;0;0;0;0;0;0;0;();(-2000.0, -2000.0);
12:24:35:528;12:24:35:517;1448408434.08;(0.7655566215515137, 0.7588109122382269);86.3428878784;1.0;;;;;;;;;;;;;;0;33,48;0;0;0;0;0;0;0;();(-2000.0, -2000.0);
12:24:35:562;12:24:35:517;1448408434.08;(0.7655566215515137, 0.7588109122382269);86.3428878784;1.0;;;;;;;;;;;;;;0;33,48;0;0;0;0;0;0;0;();(-2000.0, -2000.0);
12:24:35:578;12:24:35:517;1448408434.08;(0.7655566215515137, 0.7588109122382269);86.3428878784;1.0;;;;;;;;;;;;;;0;33,48;0;0;0;0;0;0;0;();(-2000.0, -2000.0);
12:24:35:595;12:24:35:591;1448408434.14;(0.7654630661010742, 0.758907699584961);86.4466094971;1.0;;;;;;;;;;;;;;0;33,48;0;0;0;0;0;0;0;();(-2000.0, -2000.0);
12:24:35:614;12:24:35:591;1448408434.14;(0.7654630661010742, 0.758907699584961);86.4466094971;1.0;;;;;;;;;;;;;;0;33,48,70,22;0;0;0;0;0;0;0;();(-2000.0, -2000.0);
12:24:35:629;12:24:35:591;1448408434.14;(0.7654630661010742, 0.758907699584961);86.4466094971;1.0;;;;;;;;;;;;;;0;33,48,70,22;0;0;0;0;0;0;0;();(-2000.0, -2000.0);
12:24:35:662;12:24:35:650;1448408434.21;(0.7658394336700439, 0.757859378390842);86.5237045288;1.0;;;;;;;;;;;;;;0;33,48,70,22;0;0;0;0;0;0;0;();(-2000.0, -2000.0);
12:24:35:679;12:24:35:650;1448408434.21;(0.7658394336700439, 0.757859378390842);86.5237045288;1.0;;;;;;;;;;;;;;0;33,48,70,22;0;0;0;0;0;0;0;();(-2000.0, -2000.0);
12:24:35:695;12:24:35:650;1448408434.21;(0.7658394336700439, 0.757859378390842);86.5237045288;1.0;;;;;;;;;;;;;;0;33,48,70,22;0;0;0;0;0;0;0;();(-2000.0, -2000.0);
12:24:35:712;12:24:35:650;1448408434.21;(0.7658394336700439, 0.757859378390842);86.5237045288;1.0;;;;;;;;;;;;;;0;33,48,70,22;0;0;0;0;0;0;0;();(-2000.0, -2000.0);
12:24:35:729;12:24:35:717;1448408434.28;(0.7656383037567138, 0.7582612567477756);86.5889968872;1.0;;;;;;;;;;;;;;0;33,48,70,22;0;0;0;0;0;0;0;();(-2000.0, -2000.0);
12:24:35:762;12:24:35:717;1448408434.28;(0.7656383037567138, 0.7582612567477756);86.5889968872;1.0;;;;;;;;;;;;;;0;33,48,70,22;0;0;0;0;0;0;0;();(-2000.0, -2000.0);
12:24:35:778;12:24:35:717;1448408434.28;(0.7656383037567138, 0.7582612567477756);86.5889968872;1.0;;;;;;;;;;;;;;0;33,48,70,22;0;0;0;0;0;0;0;();(-2000.0, -2000.0);
12:24:35:795;12:24:35:782;1448408434.34;(0.7654393196105957, 0.7582649654812283);86.5191879272;1.0;;;;;;;;;;;;;;0;33,48,70,22;0;0;0;0;0;0;0;();(-2000.0, -2000.0);
12:24:35:812;12:24:35:782;1448408434.34;(0.7654393196105957, 0.7582649654812283);86.5191879272;1.0;;;;;;;;;;;;;;0;33,48,70,22;0;0;0;0;0;0;0;();(-2000.0, -2000.0);
12:24:35:828;12:24:35:782;1448408434.34;(0.7654393196105957, 0.7582649654812283);86.5191879272;1.0;;;;;;;;;;;;;;0;33,48,70,22;0;0;0;0;0;0;0;();(-2000.0, -2000.0);
12:24:35:862;12:24:35:846;1448408434.41;(0.7702682971954345, 0.7538041220770941);85.6175765991;1.0;;;;;;;;;;;;;;0;33,48,70,22;0;0;0;0;0;0;0;();(-2000.0, -2000.0);
12:24:35:878;12:24:35:846;1448408434.41;(0.7702682971954345, 0.7538041220770941);85.6175765991;1.0;;;;;;;;;;;;;;0;33,48,70,22;0;0;0;0;0;0;0;();(-2000.0, -2000.0);
12:24:35:896;12:24:35:846;1448408434.41;(0.7702682971954345, 0.7538041220770941);85.6175765991;1.0;;;;;;;;;;;;;;0;33,48,70,22;0;0;0;0;0;0;0;();(-2000.0, -2000.0);
12:24:35:912;12:24:35:846;1448408434.41;(0.7702682971954345, 0.7538041220770941);85.6175765991;1.0;;;;;;;;;;;;;;0;33,48,70,22;0;0;0;0;0;0;0;();(-2000.0, -2000.0);
12:24:35:929;12:24:35:917;1448408434.48;(0.7736935138702392, 0.7540417989095052);84.9856719971;0.8486768319;;;;;;;;;;;;;;0;33,48,70,22;0;0;0;0;0;0;0;();(-2000.0, -2000.0);
12:24:35:962;12:24:35:917;1448408434.48;(0.7736935138702392, 0.7540417989095052);84.9856719971;0.8486768319;;;;;;;;;;;;;;0;33,48,70,22;0;0;0;0;0;0;0;();(-2000.0, -2000.0);
12:24:35:979;12:24:35:917;1448408434.48;(0.7736935138702392, 0.7540417989095052);84.9856719971;0.8486768319;;;;;;;;;;;;;;0;33,48,70,22;0;0;0;0;0;0;0;();(-2000.0, -2000.0);
12:24:35:995;12:24:35:984;1448408434.54;(0.7732243061065673, 0.7537331687079536);83.1658554077;0.948596029087;;;;;;;;;;;;;;0;33,48,70,22;0;0;0;0;0;0;0;();(-2000.0, -2000.0);
12:24:36:012;12:24:35:984;1448408434.54;(0.7732243061065673, 0.7537331687079536);83.1658554077;0.948596029087;;;;;;;;;;;;;;0;33,48,70,22;0;0;0;0;0;0;0;();(-2000.0, -2000.0);
12:24:36:029;12:24:35:984;1448408434.54;(0.7732243061065673, 0.7537331687079536);83.1658554077;0.948596029087;;;;;;;;;;;;;;0;33,48,70,22;0;0;0;0;0;0;0;();(-2000.0, -2000.0);
12:24:36:062;12:24:36:046;1448408434.61;(0.7728769779205322, 0.7535908593071832);82.376083374;1.0;;;;;;;;;;;;;;0;33,48,70,22;0;0;0;0;0;0;0;();(-2000.0, -2000.0);
12:24:36:079;12:24:36:046;1448408434.61;(0.7728769779205322, 0.7535908593071832);82.376083374;1.0;;;;;;;;;;;;;;0;33,48,70,22;0;0;0;0;0;0;0;();(-2000.0, -2000.0);
12:24:36:095;12:24:36:046;1448408434.61;(0.7728769779205322, 0.7535908593071832);82.376083374;1.0;;;;;;;;;;;;;;0;33,48,70,22;0;0;0;0;0;0;0;();(-2000.0, -2000.0);
12:24:36:112;12:24:36:046;1448408434.61;(0.7728769779205322, 0.7535908593071832);82.376083374;1.0;;;;;;;;;;;;;;0;33,48,70,22;0;0;0;0;0;0;0;();(-2000.0, -2000.0);
12:24:36:128;12:24:36:117;1448408434.68;(0.7727032661437988, 0.754332012600369);81.7129211426;0.993205381548;;;;;;;;;;;;;;0;33,48,70,22;0;0;0;0;0;0;0;();(-2000.0, -2000.0);
12:24:36:162;12:24:36:117;1448408434.68;(0.7727032661437988, 0.754332012600369);81.7129211426;0.993205381548;;;;;;;;;;;;;;0;33,48,70,22;0;0;0;0;0;0;0;();(-2000.0, -2000.0);
12:24:36:179;12:24:36:177;1448408434.71;(0.7724450111389161, 0.7540921317206488);82.0202026367;1.0;;;;;;;;;;;;;;0;33,48,70,22;0;0;0;0;0;0;0;();(-2000.0, -2000.0);
12:24:36:196;12:24:36:178;1448408434.74;(0.7721190929412842, 0.7545339796278212);82.2563705444;1.0;;;;;;;;;;;;;;0;33,48,70,22;0;0;0;0;0;0;0;();(-2000.0, -2000.0);
12:24:36:212;12:24:36:178;1448408434.74;(0.7721190929412842, 0.7545339796278212);82.2563705444;1.0;;;;;;;;;;;;;;0;33,48,70,22;0;0;0;0;0;0;0;();(-2000.0, -2000.0);
12:24:36:229;12:24:36:178;1448408434.74;(0.7721190929412842, 0.7545339796278212);82.2563705444;1.0;;;;;;;;;;;;;;0;33,48,70,22;0;0;0;0;0;0;0;();(-2000.0, -2000.0);
12:24:36:263;12:24:36:247;1448408434.81;(0.77151517868042, 0.7549644682142469);82.6458053589;1.0;;;;;;;;;;;;;;0;33,48,70,22;0;0;0;0;0;0;0;();(-2000.0, -2000.0);
12:24:36:279;12:24:36:247;1448408434.81;(0.77151517868042, 0.7549644682142469);82.6458053589;1.0;;;;;;;;;;;;;;0;33,48,70,22;0;0;0;0;0;0;0;();(-2000.0, -2000.0);
12:24:36:295;12:24:36:247;1448408434.81;(0.77151517868042, 0.7549644682142469);82.6458053589;1.0;;;;;;;;;;;;;;0;33,48,70,22;0;0;0;0;0;0;0;();(-2000.0, -2000.0);
12:24:36:313;12:24:36:247;1448408434.81;(0.77151517868042, 0.7549644682142469);82.6458053589;1.0;;;;;;;;;;;;;;0;33,48,70,22;0;0;0;0;0;0;0;();(-2000.0, -2000.0);
12:24:36:329;12:24:36:318;1448408434.88;(0.7709734439849854, 0.7549359003702799);82.4346923828;1.0;;;;;;;;;;;;;;0;33,48,70,22;0;0;0;0;0;0;0;();(-2000.0, -2000.0);
12:24:36:362;12:24:36:318;1448408434.88;(0.7709734439849854, 0.7549359003702799);82.4346923828;1.0;;;;;;;;;;;;;;0;33,48,70,22;0;0;0;0;0;0;0;();(-2000.0, -2000.0);
12:24:36:379;12:24:36:377;1448408434.91;(0.7707644939422608, 0.7546863343980577);82.8023452759;1.0;;;;;;;;;;;;;;0;33,48,70,22;0;0;0;0;0;0;0;();(-2000.0, -2000.0);
12:24:36:396;12:24:36:378;1448408434.94;(0.770796823501587, 0.7543726815117731);82.7722473145;1.0;;;;;;;;;;;;;;0;33,48,70,22;0;0;0;0;0;0;0;();(-2000.0, -2000.0);
12:24:36:412;12:24:36:378;1448408434.94;(0.770796823501587, 0.7543726815117731);82.7722473145;1.0;;;;;;;;;;;;;;0;33,48,70,22;0;0;0;0;0;0;0;();(-2000.0, -2000.0);
12:24:36:429;12:24:36:378;1448408434.94;(0.770796823501587, 0.7543726815117731);82.7722473145;1.0;;;;;;;;;;;;;;0;33,48,70,22;0;0;0;0;0;0;0;();(-2000.0, -2000.0);
12:24:36:463;12:24:36:446;1448408435.01;(0.7622682094573975, 0.7629703733656141);82.2027435303;0.816550497712;;;;;;;;;;;;;;0;33,48,70,22;0;0;0;0;0;0;0;();(-2000.0, -2000.0);
12:24:36:479;12:24:36:446;1448408435.01;(0.7622682094573975, 0.7629703733656141);82.2027435303;0.816550497712;;;;;;;;;;;;;;0;33,48,70,22;0;0;0;0;0;0;0;();(-2000.0, -2000.0);
12:24:36:496;12:24:36:446;1448408435.01;(0.7622682094573975, 0.7629703733656141);82.2027435303;0.816550497712;;;;;;;;;;;;;;0;33,48,70,22;0;0;0;0;0;0;0;();(-2000.0, -2000.0);
12:24:36:513;12:24:36:510;1448408435.08;(0.7603102684020996, 0.7610628339979384);82.4989242554;0.946111468889;;;;;;;;;;;;;;0;33,48,70,22;0;0;0;0;0;0;0;();(-2000.0, -2000.0);
12:24:36:530;12:24:36:510;1448408435.08;(0.7603102684020996, 0.7610628339979384);82.4989242554;0.946111468889;;;;;;;;;;;;;;0;33,48,70,22;0;0;0;0;0;0;0;();(-2000.0, -2000.0);
12:24:36:546;12:24:36:510;1448408435.08;(0.7603102684020996, 0.7610628339979384);82.4989242554;0.946111468889;;;;;;;;;;;;;;0;33,48,70,22;0;0;0;0;0;0;0;();(-2000.0, -2000.0);
12:24:36:579;12:24:36:577;1448408435.11;(0.7600615501403809, 0.7619358486599392);82.1017150879;0.903319141787;;;;;;;;;;;;;;0;33,48,70,22;0;0;0;0;0;0;0;();(-2000.0, -2000.0);
12:24:36:596;12:24:36:578;1448408435.14;(0.7599057674407959, 0.762089114718967);81.8313217163;0.963631135036;;;;;;;;;;;;;;0;33,48,70,22;0;0;0;0;0;0;0;();(-2000.0, -2000.0);
12:24:36:613;12:24:36:578;1448408435.14;(0.7599057674407959, 0.762089114718967);81.8313217163;0.963631135036;;;;;;;;;;;;;;0;33,48,70,22;0;0;0;0;0;0;0;();(-2000.0, -2000.0);
12:24:36:630;12:24:36:578;1448408435.14;(0.7599057674407959, 0.762089114718967);81.8313217163;0.963631135036;;;;;;;;;;;;;;0;33,48,70,22;0;0;0;0;0;0;0;();(-2000.0, -2000.0);
12:24:36:647;12:24:36:645;1448408435.18;(0.7597408771514893, 0.76206423441569);81.3349761963;0.941957431977;;;;;;;;;;;;;;0;33,48,70,22;0;0;0;0;0;0;0;();(-2000.0, -2000.0);
12:24:36:679;12:24:36:648;1448408435.21;(0.7596152782440185, 0.7617634667290581);81.1729202271;1.0;;;;;;;;;;;;;;0;33,48,70,22;0;0;0;0;0;0;0;();(-2000.0, -2000.0);
12:24:36:697;12:24:36:648;1448408435.21;(0.7596152782440185, 0.7617634667290581);81.1729202271;1.0;;;;;;;;;;;;;;0;33,48,70,22;0;0;0;0;0;0;0;();(-2000.0, -2000.0);
12:24:36:713;12:24:36:711;1448408435.28;(0.7589981555938721, 0.7613372166951498);80.5968475342;0.982068909876;;;;;;;;;;;;;;0;33,48,70,22;0;0;0;0;0;0;0;();(-2000.0, -2000.0);
12:24:36:730;12:24:36:711;1448408435.28;(0.7589981555938721, 0.7613372166951498);80.5968475342;0.982068909876;;;;;;;;;;;;;;0;33,48,70,22;0;0;0;0;0;0;0;();(-2000.0, -2000.0);
12:24:36:763;12:24:36:711;1448408435.28;(0.7589981555938721, 0.7613372166951498);80.5968475342;0.982068909876;;;;;;;;;;;;;;0;33,48,70,22;0;0;0;0;0;0;0;();(-2000.0, -2000.0);
12:24:36:779;12:24:36:777;1448408435.31;(0.7584006786346436, 0.7618201361762152);80.8729324341;0.932301813563;;;;;;;;;;;;;;0;33,48,70,22;0;0;0;0;0;0;0;();(-2000.0, -2000.0);
12:24:36:796;12:24:36:778;1448408435.34;(0.7580360889434814, 0.7622118843926324);81.1346282959;0.941615330454;;;;;;;;;;;;;;0;33,48,70,22;0;0;0;0;0;0;0;();(-2000.0, -2000.0);
12:24:36:813;12:24:36:778;1448408435.34;(0.7580360889434814, 0.7622118843926324);81.1346282959;0.941615330454;;;;;;;;;;;;;;0;33,48,70,22;0;0;0;0;0;0;0;();(-2000.0, -2000.0);
12:24:36:829;12:24:36:778;1448408435.34;(0.7580360889434814, 0.7622118843926324);81.1346282959;0.941615330454;;;;;;;;;;;;;;0;33,48,70,22;0;0;0;0;0;0;0;();(-2000.0, -2000.0);
12:24:36:846;12:24:36:842;1448408435.41;(0.7602696895599366, 0.7660919613308377);81.5188751221;0.803198266396;;;;;;;;;;;;;;0;33,48,70,22;0;0;0;0;0;0;0;();(-2000.0, -2000.0);
12:24:36:880;12:24:36:842;1448408435.41;(0.7602696895599366, 0.7660919613308377);81.5188751221;0.803198266396;;;;;;;;;;;;;;0;33,48,70,22;0;0;0;0;0;0;0;();(-2000.0, -2000.0);
12:24:36:896;12:24:36:842;1448408435.41;(0.7602696895599366, 0.7660919613308377);81.5188751221;0.803198266396;;;;;;;;;;;;;;0;33,48,70,22;0;0;0;0;0;0;0;();(-2000.0, -2000.0);
12:24:36:912;12:24:36:910;1448408435.48;(0.7935575485229492, 0.8023074679904514);81.9612197876;0.859245326036;;;;;;;;;;;;;;0;33,48,70,22;0;0;0;0;0;0;0;();(-2000.0, -2000.0);
12:24:36:929;12:24:36:910;1448408435.48;(0.7935575485229492, 0.8023074679904514);81.9612197876;0.859245326036;;;;;;;;;;;;;;0;33,48,70,22;0;0;0;0;0;0;0;();(-2000.0, -2000.0);
12:24:36:946;12:24:36:910;1448408435.48;(0.7935575485229492, 0.8023074679904514);81.9612197876;0.859245326036;;;;;;;;;;;;;;0;33,48,70,22;0;0;0;0;0;0;0;();(-2000.0, -2000.0);
12:24:36:979;12:24:36:910;1448408435.48;(0.7935575485229492, 0.8023074679904514);81.9612197876;0.859245326036;;;;;;;;;;;;;;0;33,48,70,22;0;0;0;0;0;0;0;();(-2000.0, -2000.0);
12:24:36:996;12:24:36:989;1448408435.54;(0.7930964946746826, 0.804962158203125);82.7056884766;0.933975393398;;;;;;;;;;;;;;0;33,48,70,22;0;0;0;0;0;0;0;();(-2000.0, -2000.0);
12:24:37:013;12:24:36:989;1448408435.54;(0.7930964946746826, 0.804962158203125);82.7056884766;0.933975393398;;;;;;;;;;;;;;0;33,48,70,22;0;0;0;0;0;0;0;();(-2000.0, -2000.0);
12:24:37:030;12:24:36:989;1448408435.54;(0.7930964946746826, 0.804962158203125);82.7056884766;0.933975393398;;;;;;;;;;;;;;0;33,48,70,22;0;0;0;0;0;0;0;();(-2000.0, -2000.0);
12:24:37:046;12:24:37:042;1448408435.61;(0.790774154663086, 0.8057429949442545);80.8748016357;0.904237841436;;;;;;;;;;;;;;0;33,48,70,22;0;0;0;0;0;0;0;();(-2000.0, -2000.0);
12:24:37:080;12:24:37:042;1448408435.61;(0.790774154663086, 0.8057429949442545);80.8748016357;0.904237841436;;;;;;;;;;;;;;0;33,48,70,22;0;0;0;0;0;0;0;();(-2000.0, -2000.0);
12:24:37:096;12:24:37:042;1448408435.61;(0.790774154663086, 0.8057429949442545);80.8748016357;0.904237841436;;;;;;;;;;;;;;0;33,48,70,22;0;0;0;0;0;0;0;();(-2000.0, -2000.0);
12:24:37:113;12:24:37:110;1448408435.68;(0, 0);0;0;;;;;;;;;;;;;;0;33,48,70,22;0;0;0;0;0;0;0;();(-2000.0, -2000.0);
12:24:37:130;12:24:37:110;1448408435.68;(0, 0);0;0;;;;;;;;;;;;;;0;33,48,70,22;0;0;0;0;0;0;0;();(-2000.0, -2000.0);
12:24:37:163;12:24:37:110;1448408435.68;(0, 0);0;0;;;;;;;;;;;;;;0;33,48,70,22;0;0;0;0;0;0;0;();(-2000.0, -2000.0);
12:24:37:180;12:24:37:174;1448408435.74;(0, 0);0;0;;;;;;;;;;;;;;0;33,48,70,22;0;0;0;0;0;0;0;();(-2000.0, -2000.0);
12:24:37:197;12:24:37:174;1448408435.74;(0, 0);0;0;;;;;;;;;;;;;;0;33,48,70,22;0;0;0;0;0;0;0;();(-2000.0, -2000.0);
12:24:37:213;12:24:37:174;1448408435.74;(0, 0);0;0;;;;;;;;;;;;;;0;33,48,70,22;0;0;0;0;0;0;0;();(-2000.0, -2000.0);
12:24:37:230;12:24:37:174;1448408435.74;(0, 0);0;0;;;;;;;;;;;;;;0;33,48,70,22;0;0;0;0;0;0;0;();(-2000.0, -2000.0);
12:24:37:246;12:24:37:242;1448408435.81;(0.7875236511230469, 0.8085560480753581);78.5156173706;0.943289811286;;;;;;;;;;;;;;0;33,48,70,22;0;0;0;0;0;0;0;();(-2000.0, -2000.0);
12:24:37:280;12:24:37:242;1448408435.81;(0.7875236511230469, 0.8085560480753581);78.5156173706;0.943289811286;;;;;;;;;;;;;;0;33,48,70,22;0;0;0;0;0;0;0;();(-2000.0, -2000.0);
12:24:37:296;12:24:37:242;1448408435.81;(0.7875236511230469, 0.8085560480753581);78.5156173706;0.943289811286;;;;;;;;;;;;;;0;33,48,70,22;0;0;0;0;0;0;0;();(-2000.0, -2000.0);
12:24:37:314;12:24:37:311;1448408435.88;(0.7873526573181152, 0.8080837037828233);78.1739349365;0.93986880088;;;;;;;;;;;;;;0;33,48,70,22;0;0;0;0;0;0;0;();(-2000.0, -2000.0);
12:24:37:330;12:24:37:311;1448408435.88;(0.7873526573181152, 0.8080837037828233);78.1739349365;0.93986880088;;;;;;;;;;;;;;0;33,48,70,22;0;0;0;0;0;0;0;();(-2000.0, -2000.0);
12:24:37:347;12:24:37:311;1448408435.88;(0.7873526573181152, 0.8080837037828233);78.1739349365;0.93986880088;;;;;;;;;;;;;;0;33,48,70,22;0;0;0;0;0;0;0;();(-2000.0, -2000.0);
12:24:37:380;12:24:37:375;1448408435.94;(0.7867922306060791, 0.8077408790588378);78.1614379883;1.0;;;;;;;;;;;;;;0;33,48,70,22;0;0;0;0;0;0;0;();(-2000.0, -2000.0);
12:24:37:396;12:24:37:375;1448408435.94;(0.7867922306060791, 0.8077408790588378);78.1614379883;1.0;;;;;;;;;;;;;;0;33,48,70,22;0;0;0;0;0;0;0;();(-2000.0, -2000.0);
12:24:37:414;12:24:37:375;1448408435.94;(0.7867922306060791, 0.8077408790588378);78.1614379883;1.0;;;;;;;;;;;;;;0;33,48,70,22;0;0;0;0;0;0;0;();(-2000.0, -2000.0);
12:24:37:430;12:24:37:375;1448408435.94;(0.7867922306060791, 0.8077408790588378);78.1614379883;1.0;;;;;;;;;;;;;;0;33,48,70,22;0;0;0;0;0;0;0;();(-2000.0, -2000.0);
12:24:37:447;12:24:37:442;1448408436.01;(0.78623366355896, 0.8074150191413032);78.2835235596;0.924680202883;;;;;;;;;;;;;;0;33,48,70,22;0;0;0;0;0;0;0;();(-2000.0, -2000.0);
12:24:37:480;12:24:37:442;1448408436.01;(0.78623366355896, 0.8074150191413032);78.2835235596;0.924680202883;;;;;;;;;;;;;;0;33,48,70,22;0;0;0;0;0;0;0;();(-2000.0, -2000.0);
12:24:37:496;12:24:37:442;1448408436.01;(0.78623366355896, 0.8074150191413032);78.2835235596;0.924680202883;;;;;;;;;;;;;;0;33,48,70,22;0;0;0;0;0;0;0;();(-2000.0, -2000.0);
12:24:37:513;12:24:37:506;1448408436.08;(0.7539600372314453, 0.768497191535102);79.1652145386;0.858861580296;;;;;;;;;;;;;;0;33,48,70,22;0;0;0;0;0;0;0;();(-2000.0, -2000.0);
12:24:37:530;12:24:37:506;1448408436.08;(0.7539600372314453, 0.768497191535102);79.1652145386;0.858861580296;;;;;;;;;;;;;;0;33,48,70,22;0;0;0;0;0;0;0;();(-2000.0, -2000.0);
12:24:37:546;12:24:37:506;1448408436.08;(0.7539600372314453, 0.768497191535102);79.1652145386;0.858861580296;;;;;;;;;;;;;;0;33,48,70,22;0;0;0;0;0;0;0;();(-2000.0, -2000.0);
12:24:37:580;12:24:37:575;1448408436.14;(0.7535378932952881, 0.7713180330064562);82.0763931274;0.89070788661;;;;;;;;;;;;;;0;33,48,70,22;0;0;0;0;0;0;0;();(-2000.0, -2000.0);
12:24:37:597;12:24:37:575;1448408436.14;(0.7535378932952881, 0.7713180330064562);82.0763931274;0.89070788661;;;;;;;;;;;;;;0;33,48,70,22;0;0;0;0;0;0;0;();(-2000.0, -2000.0);
12:24:37:614;12:24:37:575;1448408436.14;(0.7535378932952881, 0.7713180330064562);82.0763931274;0.89070788661;;;;;;;;;;;;;;0;33,48,70,22;0;0;0;0;0;0;0;();(-2000.0, -2000.0);
12:24:37:630;12:24:37:575;1448408436.14;(0.7535378932952881, 0.7713180330064562);82.0763931274;0.89070788661;;;;;;;;;;;;;;0;33,48,70,22;0;0;0;0;0;0;0;();(-2000.0, -2000.0);
12:24:37:647;12:24:37:643;1448408436.21;(0.7524739265441894, 0.7693356196085612);82.8159255981;0.943818392391;;;;;;;;;;;;;;0;33,48,70,22;0;0;0;0;0;0;0;();(-2000.0, -2000.0);
12:24:37:680;12:24:37:643;1448408436.21;(0.7524739265441894, 0.7693356196085612);82.8159255981;0.943818392391;;;;;;;;;;;;;;0;33,48,70,22;0;0;0;0;0;0;0;();(-2000.0, -2000.0);
12:24:37:697;12:24:37:643;1448408436.21;(0.7524739265441894, 0.7693356196085612);82.8159255981;0.943818392391;;;;;;;;;;;;;;0;33,48,70,22;0;0;0;0;0;0;0;();(-2000.0, -2000.0);
12:24:37:714;12:24:37:706;1448408436.28;(0.7522866249084472, 0.7683699289957682);82.6576690674;0.925719155148;;;;;;;;;;;;;;0;33,48,70,22;0;0;0;0;0;0;0;();(-2000.0, -2000.0);
12:24:37:730;12:24:37:706;1448408436.28;(0.7522866249084472, 0.7683699289957682);82.6576690674;0.925719155148;;;;;;;;;;;;;;0;33,48,70,22;0;0;0;0;0;0;0;();(-2000.0, -2000.0);
12:24:37:747;12:24:37:706;1448408436.28;(0.7522866249084472, 0.7683699289957682);82.6576690674;0.925719155148;;;;;;;;;;;;;;0;33,48,70,22;0;0;0;0;0;0;0;();(-2000.0, -2000.0);
12:24:37:780;12:24:37:774;1448408436.34;(0.7523696422576904, 0.7685639063517252);83.3191070557;0.968558503352;;;;;;;;;;;;;;0;33,48,70,22;0;0;0;0;0;0;0;();(-2000.0, -2000.0);
12:24:37:797;12:24:37:774;1448408436.34;(0.7523696422576904, 0.7685639063517252);83.3191070557;0.968558503352;;;;;;;;;;;;;;0;33,48,70,22;0;0;0;0;0;0;0;();(-2000.0, -2000.0);
12:24:37:813;12:24:37:774;1448408436.34;(0.7523696422576904, 0.7685639063517252);83.3191070557;0.968558503352;;;;;;;;;;;;;;0;33,48,70,22;0;0;0;0;0;0;0;();(-2000.0, -2000.0);
12:24:37:830;12:24:37:774;1448408436.34;(0.7523696422576904, 0.7685639063517252);83.3191070557;0.968558503352;;;;;;;;;;;;;;0;33,48,70,22;0;0;0;0;0;0;0;();(-2000.0, -2000.0);
12:24:37:847;12:24:37:838;1448408436.41;(0.7521074771881103, 0.7688953399658203);83.4680252075;0.994201694095;;;;;;;;;;;;;;0;33,48,70,22;0;0;0;0;0;0;0;();(-2000.0, -2000.0);
12:24:37:881;12:24:37:838;1448408436.41;(0.7521074771881103, 0.7688953399658203);83.4680252075;0.994201694095;;;;;;;;;;;;;;0;33,48,70,22;0;0;0;0;0;0;0;();(-2000.0, -2000.0);
12:24:37:897;12:24:37:838;1448408436.41;(0.7521074771881103, 0.7688953399658203);83.4680252075;0.994201694095;;;;;;;;;;;;;;0;33,48,70,22;0;0;0;0;0;0;0;();(-2000.0, -2000.0);
12:24:37:914;12:24:37:906;1448408436.48;(0.7522682189941406, 0.7679466671413846);82.7797927856;0.871243481693;;;;;;;;;;;;;;0;33,48,70,22;0;0;0;0;0;0;0;();(-2000.0, -2000.0);
12:24:37:931;12:24:37:906;1448408436.48;(0.7522682189941406, 0.7679466671413846);82.7797927856;0.871243481693;;;;;;;;;;;;;;0;33,48,70,22;0;0;0;0;0;0;0;();(-2000.0, -2000.0);
12:24:37:947;12:24:37:906;1448408436.48;(0.7522682189941406, 0.7679466671413846);82.7797927856;0.871243481693;;;;;;;;;;;;;;0;33,48,70,22;0;0;0;0;0;0;0;();(-2000.0, -2000.0);
12:24:37:981;12:24:37:974;1448408436.54;(0.7526105880737305, 0.7685547722710504);83.1729812622;0.922776936247;;;;;;;;;;;;;;0;33,48,70,22;0;0;0;0;0;0;0;();(-2000.0, -2000.0);
12:24:37:997;12:24:37:974;1448408436.54;(0.7526105880737305, 0.7685547722710504);83.1729812622;0.922776936247;;;;;;;;;;;;;;0;33,48,70,22;0;0;0;0;0;0;0;();(-2000.0, -2000.0);
12:24:38:014;12:24:37:974;1448408436.54;(0.7526105880737305, 0.7685547722710504);83.1729812622;0.922776936247;;;;;;;;;;;;;;0;33,48,70,22;0;0;0;0;0;0;0;();(-2000.0, -2000.0);
12:24:38:031;12:24:37:974;1448408436.54;(0.7526105880737305, 0.7685547722710504);83.1729812622;0.922776936247;;;;;;;;;;;;;;0;33,48,70,22;0;0;0;0;0;0;0;();(-2000.0, -2000.0);
12:24:38:047;12:24:38:044;1448408436.61;(0.7530903339385986, 0.7690192328559028);82.9087142944;0.895978498039;;;;;;;;;;;;;;0;33,48,70,22;0;0;0;0;0;0;0;();(-2000.0, -2000.0);
12:24:38:081;12:24:38:044;1448408436.61;(0.7530903339385986, 0.7690192328559028);82.9087142944;0.895978498039;;;;;;;;;;;;;;0;33,48,70,22;0;0;0;0;0;0;0;();(-2000.0, -2000.0);
12:24:38:097;12:24:38:044;1448408436.61;(0.7530903339385986, 0.7690192328559028);82.9087142944;0.895978498039;;;;;;;;;;;;;;0;33,48,70,22;0;0;0;0;0;0;0;();(-2000.0, -2000.0);
12:24:38:114;12:24:38:106;1448408436.68;(0.7467298984527588, 0.7670720630221897);82.8925476074;0.763770946038;;;;;;;;;;;;;;0;33,48,70,22;0;0;0;0;0;0;0;();(-2000.0, -2000.0);
12:24:38:130;12:24:38:106;1448408436.68;(0.7467298984527588, 0.7670720630221897);82.8925476074;0.763770946038;;;;;;;;;;;;;;0;33,48,70,22;0;0;0;0;0;0;0;();(-2000.0, -2000.0);
12:24:38:147;12:24:38:106;1448408436.68;(0.7467298984527588, 0.7670720630221897);82.8925476074;0.763770946038;;;;;;;;;;;;;;0;33,48,70,22;0;0;0;0;0;0;0;();(-2000.0, -2000.0);
12:24:38:181;12:24:38:170;1448408436.74;(0.749600887298584, 0.7644959343804254);82.5499267578;0.809285127055;;;;;;;;;;;;;;0;33,48,70,22;0;0;0;0;0;0;0;();(-2000.0, -2000.0);
12:24:38:198;12:24:38:170;1448408436.74;(0.749600887298584, 0.7644959343804254);82.5499267578;0.809285127055;;;;;;;;;;;;;;0;33,48,70,22;0;0;0;0;0;0;0;();(-2000.0, -2000.0);
12:24:38:214;12:24:38:170;1448408436.74;(0.749600887298584, 0.7644959343804254);82.5499267578;0.809285127055;;;;;;;;;;;;;;0;33,48,70,22;0;0;0;0;0;0;0;();(-2000.0, -2000.0);
12:24:38:230;12:24:38:170;1448408436.74;(0.749600887298584, 0.7644959343804254);82.5499267578;0.809285127055;;;;;;;;;;;;;;0;33,48,70,22;0;0;0;0;0;0;0;();(-2000.0, -2000.0);
12:24:38:248;12:24:38:238;1448408436.81;(0.7499972820281983, 0.7642958323160807);80.7212753296;0.886780603337;;;;;;;;;;;;;;0;33,48,70,22;0;0;0;0;0;0;0;();(-2000.0, -2000.0);
12:24:38:281;12:24:38:238;1448408436.81;(0.7499972820281983, 0.7642958323160807);80.7212753296;0.886780603337;;;;;;;;;;;;;;0;33,48,70,22;0;0;0;0;0;0;0;();(-2000.0, -2000.0);
12:24:38:297;12:24:38:238;1448408436.81;(0.7499972820281983, 0.7642958323160807);80.7212753296;0.886780603337;;;;;;;;;;;;;;0;33,48,70,22;0;0;0;0;0;0;0;();(-2000.0, -2000.0);
12:24:38:314;12:24:38:238;1448408436.81;(0.7499972820281983, 0.7642958323160807);80.7212753296;0.886780603337;;;;;;;;;;;;;;0;33,48,70,22;0;0;0;0;0;0;0;();(-2000.0, -2000.0);
12:24:38:331;12:24:38:316;1448408436.88;(0.7504333019256592, 0.7642374462551541);80.8347091675;0.913811521426;;;;;;;;;;;;;;0;33,48,70,22;0;0;0;0;0;0;0;();(-2000.0, -2000.0);
12:24:38:347;12:24:38:316;1448408436.88;(0.7504333019256592, 0.7642374462551541);80.8347091675;0.913811521426;;;;;;;;;;;;;;0;33,48,70,22;0;0;0;0;0;0;0;();(-2000.0, -2000.0);
12:24:38:381;12:24:38:370;1448408436.94;(0.7507786273956298, 0.7634993235270182);80.7360916138;0.930961790635;;;;;;;;;;;;;;0;33,48,70,22;0;0;0;0;0;0;0;();(-2000.0, -2000.0);
12:24:38:398;12:24:38:370;1448408436.94;(0.7507786273956298, 0.7634993235270182);80.7360916138;0.930961790635;;;;;;;;;;;;;;0;33,48,70,22;0;0;0;0;0;0;0;();(-2000.0, -2000.0);
12:24:38:414;12:24:38:370;1448408436.94;(0.7507786273956298, 0.7634993235270182);80.7360916138;0.930961790635;;;;;;;;;;;;;;0;33,48,70,22;0;0;0;0;0;0;0;();(-2000.0, -2000.0);
12:24:38:431;12:24:38:370;1448408436.94;(0.7507786273956298, 0.7634993235270182);80.7360916138;0.930961790635;;;;;;;;;;;;;;0;33,48,70,22;0;0;0;0;0;0;0;();(-2000.0, -2000.0);
12:24:38:448;12:24:38:438;1448408437.01;(0.750261926651001, 0.7641430960761176);81.566947937;1.0;;;;;;;;;;;;;;0;33,48,70,22;0;0;0;0;0;0;0;();(-2000.0, -2000.0);
12:24:38:481;12:24:38:438;1448408437.01;(0.750261926651001, 0.7641430960761176);81.566947937;1.0;;;;;;;;;;;;;;0;33,48,70,22;0;0;0;0;0;0;0;();(-2000.0, -2000.0);
12:24:38:497;12:24:38:438;1448408437.01;(0.750261926651001, 0.7641430960761176);81.566947937;1.0;;;;;;;;;;;;;;0;33,48,70,22;0;0;0;0;0;0;0;();(-2000.0, -2000.0);
12:24:38:514;12:24:38:502;1448408437.08;(0.7499879837036133, 0.7638685438368056);82.2602615356;0.98286620143;;;;;;;;;;;;;;0;33,48,70,22;0;0;0;0;0;0;0;();(-2000.0, -2000.0);
12:24:38:531;12:24:38:502;1448408437.08;(0.7499879837036133, 0.7638685438368056);82.2602615356;0.98286620143;;;;;;;;;;;;;;0;33,48,70,22;0;0;0;0;0;0;0;();(-2000.0, -2000.0);
12:24:38:547;12:24:38:502;1448408437.08;(0.7499879837036133, 0.7638685438368056);82.2602615356;0.98286620143;;;;;;;;;;;;;;0;33,48,70,22;0;0;0;0;0;0;0;();(-2000.0, -2000.0);
12:24:38:581;12:24:38:570;1448408437.14;(0.7497999191284179, 0.7640107896592883);83.5914382935;1.0;;;;;;;;;;;;;;0;33,48,70,22;0;0;0;0;0;0;0;();(-2000.0, -2000.0);
12:24:38:597;12:24:38:570;1448408437.14;(0.7497999191284179, 0.7640107896592883);83.5914382935;1.0;;;;;;;;;;;;;;0;33,48,70,22;0;0;0;0;0;0;0;();(-2000.0, -2000.0);
12:24:38:614;12:24:38:570;1448408437.14;(0.7497999191284179, 0.7640107896592883);83.5914382935;1.0;;;;;;;;;;;;;;0;33,48,70,22;0;0;0;0;0;0;0;();(-2000.0, -2000.0);
12:24:38:631;12:24:38:570;1448408437.14;(0.7497999191284179, 0.7640107896592883);83.5914382935;1.0;;;;;;;;;;;;;;0;33,48,70,22;0;0;0;0;0;0;0;();(-2000.0, -2000.0);
12:24:38:648;12:24:38:636;1448408437.21;(0.7491250991821289, 0.7650234858194986);82.9458312988;0.968617436849;;;;;;;;;;;;;;0;33,48,70,22;0;0;0;0;0;0;0;();(-2000.0, -2000.0);
12:24:38:681;12:24:38:636;1448408437.21;(0.7491250991821289, 0.7650234858194986);82.9458312988;0.968617436849;;;;;;;;;;;;;;0;33,48,70,22;0;0;0;0;0;0;0;();(-2000.0, -2000.0);
12:24:38:698;12:24:38:636;1448408437.21;(0.7491250991821289, 0.7650234858194986);82.9458312988;0.968617436849;;;;;;;;;;;;;;0;33,48,70,22;0;0;0;0;0;0;0;();(-2000.0, -2000.0);
12:24:38:715;12:24:38:703;1448408437.28;(0.7488664150238037, 0.7649311065673828);83.3688430786;0.896543694097;;;;;;;;;;;;;;0;33,48,70,22;0;0;0;0;0;0;0;();(-2000.0, -2000.0);
12:24:38:731;12:24:38:703;1448408437.28;(0.7488664150238037, 0.7649311065673828);83.3688430786;0.896543694097;;;;;;;;;;;;;;0;33,48,70,22;0;0;0;0;0;0;0;();(-2000.0, -2000.0);
12:24:38:748;12:24:38:703;1448408437.28;(0.7488664150238037, 0.7649311065673828);83.3688430786;0.896543694097;;;;;;;;;;;;;;0;33,48,70,22;0;0;0;0;0;0;0;();(-2000.0, -2000.0);
12:24:38:781;12:24:38:770;1448408437.34;(0, 0);0;0;;;;;;;;;;;;;;0;33,48,70,22;0;0;0;0;0;0;0;();(-2000.0, -2000.0);
12:24:38:798;12:24:38:770;1448408437.34;(0, 0);0;0;;;;;;;;;;;;;;0;33,48,70,22;0;0;0;0;0;0;0;();(-2000.0, -2000.0);
12:24:38:814;12:24:38:770;1448408437.34;(0, 0);0;0;;;;;;;;;;;;;;0;33,48,70,22;0;0;0;0;0;0;0;();(-2000.0, -2000.0);
12:24:38:831;12:24:38:770;1448408437.34;(0, 0);0;0;;;;;;;;;;;;;;0;33,48,70,22;0;0;0;0;0;0;0;();(-2000.0, -2000.0);
12:24:38:850;12:24:38:835;1448408437.41;(0.7478736877441406, 0.7887841966417101);84.1980209351;0.706606176409;;;;;;;;;;;;;;0;33,48,70,22,84,13;0;0;0;0;0;0;0;();(-2000.0, -2000.0);
12:24:38:881;12:24:38:835;1448408437.41;(0.7478736877441406, 0.7887841966417101);84.1980209351;0.706606176409;;;;;;;;;;;;;;0;33,48,70,22,84,13;0;0;0;0;0;0;0;();(-2000.0, -2000.0);
12:24:38:898;12:24:38:835;1448408437.41;(0.7478736877441406, 0.7887841966417101);84.1980209351;0.706606176409;;;;;;;;;;;;;;0;33,48,70,22,84,13;0;0;0;0;0;0;0;();(-2000.0, -2000.0);
12:24:38:915;12:24:38:903;1448408437.48;(0, 0);0;0;;;;;;;;;;;;;;0;33,48,70,22,84,13;0;0;0;0;0;0;0;();(-2000.0, -2000.0);
12:24:38:931;12:24:38:903;1448408437.48;(0, 0);0;0;;;;;;;;;;;;;;0;33,48,70,22,84,13;0;0;0;0;0;0;0;();(-2000.0, -2000.0);
12:24:38:948;12:24:38:903;1448408437.48;(0, 0);0;0;;;;;;;;;;;;;;0;33,48,70,22,84,13;0;0;0;0;0;0;0;();(-2000.0, -2000.0);
12:24:38:982;12:24:38:964;1448408437.51;(0, 0);0;0;;;;;;;;;;;;;;0;33,48,70,22,84,13;0;0;0;0;0;0;0;();(-2000.0, -2000.0);
12:24:38:998;12:24:38:964;1448408437.51;(0, 0);0;0;;;;;;;;;;;;;;0;33,48,70,22,84,13;0;0;0;0;0;0;0;();(-2000.0, -2000.0);
12:24:39:015;12:24:38:964;1448408437.51;(0, 0);0;0;;;;;;;;;;;;;;0;33,48,70,22,84,13;0;0;0;0;0;0;0;();(-2000.0, -2000.0);
12:24:39:032;12:24:38:964;1448408437.51;(0, 0);0;0;;;;;;;;;;;;;;0;33,48,70,22,84,13;0;0;0;0;0;0;0;();(-2000.0, -2000.0);
12:24:39:048;12:24:39:038;1448408437.61;(0, 0);0;0;;;;;;;;;;;;;;0;33,48,70,22,84,13;0;0;0;0;0;0;0;();(-2000.0, -2000.0);
12:24:39:082;12:24:39:038;1448408437.61;(0, 0);0;0;;;;;;;;;;;;;;0;33,48,70,22,84,13;0;0;0;0;0;0;0;();(-2000.0, -2000.0);
12:24:39:098;12:24:39:038;1448408437.61;(0, 0);0;0;;;;;;;;;;;;;;0;33,48,70,22,84,13;0;0;0;0;0;0;0;();(-2000.0, -2000.0);
12:24:39:114;12:24:39:102;1448408437.68;(0.5653762817382812, 0.8787660174899631);79.9751358032;0.776687900109;;;;;;;;;;;;;;0;33,48,70,22,84,13;0;0;0;0;0;0;0;();(-2000.0, -2000.0);
12:24:39:132;12:24:39:102;1448408437.68;(0.5653762817382812, 0.8787660174899631);79.9751358032;0.776687900109;;;;;;;;;;;;;;0;33,48,70,22,84,13;0;0;0;0;0;0;0;();(-2000.0, -2000.0);
12:24:39:148;12:24:39:102;1448408437.68;(0.5653762817382812, 0.8787660174899631);79.9751358032;0.776687900109;;;;;;;;;;;;;;0;33,48,70,22,84,13;0;0;0;0;0;0;0;();(-2000.0, -2000.0);
12:24:39:182;12:24:39:164;1448408437.71;(0.557473611831665, 0.8736258824666341);80.4489517212;0.886443392139;;;;;;;;;;;;;;0;33,48,70,22,84,13;0;0;0;0;0;0;0;();(-2000.0, -2000.0);
12:24:39:198;12:24:39:164;1448408437.71;(0.557473611831665, 0.8736258824666341);80.4489517212;0.886443392139;;;;;;;;;;;;;;0;33,48,70,22,84,13;0;0;0;0;0;0;0;();(-2000.0, -2000.0);
12:24:39:215;12:24:39:164;1448408437.71;(0.557473611831665, 0.8736258824666341);80.4489517212;0.886443392139;;;;;;;;;;;;;;0;33,48,70,22,84,13;0;0;0;0;0;0;0;();(-2000.0, -2000.0);
12:24:39:232;12:24:39:164;1448408437.71;(0.557473611831665, 0.8736258824666341);80.4489517212;0.886443392139;;;;;;;;;;;;;;0;33,48,70,22,84,13;0;0;0;0;0;0;0;();(-2000.0, -2000.0);
12:24:39:248;12:24:39:238;1448408437.81;(0.2529045820236206, 0.8869656191931831);24.6977901459;0.632576891603;;;;;;;;;;;;;;0;33,48,70,22,84,13;0;0;0;0;0;0;0;();(-2000.0, -2000.0);
12:24:39:282;12:24:39:238;1448408437.81;(0.2529045820236206, 0.8869656191931831);24.6977901459;0.632576891603;;;;;;;;;;;;;;0;33,48,70,22,84,13;0;0;0;0;0;0;0;();(-2000.0, -2000.0);
12:24:39:298;12:24:39:296;1448408437.84;(0.5792601585388184, 0.8698115454779731);82.2926940918;0.61662703018;;;;;;;;;;;;;;0;33,48,70,22,84,13;0;0;0;0;0;0;0;();(-2000.0, -2000.0);
12:24:39:315;12:24:39:298;1448408437.88;(0.5834448337554932, 0.8652157677544488);78.9706878662;0.701083187143;;;;;;;;;;;;;;0;33,48,70,22,84,13;0;0;0;0;0;0;0;();(-2000.0, -2000.0);
12:24:39:332;12:24:39:298;1448408437.88;(0.5834448337554932, 0.8652157677544488);78.9706878662;0.701083187143;;;;;;;;;;;;;;0;33,48,70,22,84,13;0;0;0;0;0;0;0;();(-2000.0, -2000.0);
12:24:39:349;12:24:39:298;1448408437.88;(0.5834448337554932, 0.8652157677544488);78.9706878662;0.701083187143;;;;;;;;;;;;;;0;33,48,70,22,84,13;0;0;0;0;0;0;0;();(-2000.0, -2000.0);
12:24:39:381;12:24:39:367;1448408437.94;(0.5936790943145752, 0.8660862922668457);78.3532791138;0.841041662802;;;;;;;;;;;;;;0;33,48,70,22,84,13;0;0;0;0;0;0;0;();(-2000.0, -2000.0);
12:24:39:399;12:24:39:367;1448408437.94;(0.5936790943145752, 0.8660862922668457);78.3532791138;0.841041662802;;;;;;;;;;;;;;0;33,48,70,22,84,13;0;0;0;0;0;0;0;();(-2000.0, -2000.0);
12:24:39:415;12:24:39:367;1448408437.94;(0.5936790943145752, 0.8660862922668457);78.3532791138;0.841041662802;;;;;;;;;;;;;;0;33,48,70,22,84,13;0;0;0;0;0;0;0;();(-2000.0, -2000.0);
12:24:39:432;12:24:39:367;1448408437.94;(0.5936790943145752, 0.8660862922668457);78.3532791138;0.841041662802;;;;;;;;;;;;;;0;33,48,70,22,84,13;0;0;0;0;0;0;0;();(-2000.0, -2000.0);
12:24:39:449;12:24:39:432;1448408437.98;(0.5990589618682861, 0.8669162326388888);79.4354019165;0.693143417651;;;;;;;;;;;;;;0;33,48,70,22,84,13;0;0;0;0;0;0;0;();(-2000.0, -2000.0);
12:24:39:481;12:24:39:432;1448408437.98;(0.5990589618682861, 0.8669162326388888);79.4354019165;0.693143417651;;;;;;;;;;;;;;0;33,48,70,22,84,13;0;0;0;0;0;0;0;();(-2000.0, -2000.0);
12:24:39:499;12:24:39:497;1448408438.01;(0.5944792270660401, 0.8709845966762967);77.3298797607;0.835322317515;;;;;;;;;;;;;;0;33,48,70,22,84,13;0;0;0;0;0;0;0;();(-2000.0, -2000.0);
12:24:39:515;12:24:39:504;1448408438.08;(0.5995975017547608, 0.8745905134412977);75.3590698242;0.898702455222;;;;;;;;;;;;;;0;33,48,70,22,84,13;0;0;0;0;0;0;0;();(-2000.0, -2000.0);
12:24:39:532;12:24:39:504;1448408438.08;(0.5995975017547608, 0.8745905134412977);75.3590698242;0.898702455222;;;;;;;;;;;;;;0;33,48,70,22,84,13;0;0;0;0;0;0;0;();(-2000.0, -2000.0);
12:24:39:549;12:24:39:504;1448408438.08;(0.5995975017547608, 0.8745905134412977);75.3590698242;0.898702455222;;;;;;;;;;;;;;0;33,48,70,22,84,13;0;0;0;0;0;0;0;();(-2000.0, -2000.0);
12:24:39:582;12:24:39:564;1448408438.11;(0.6024595737457276, 0.8734829372829861);74.9806747437;0.875083406861;;;;;;;;;;;;;;0;33,48,70,22,84,13;0;0;0;0;0;0;0;();(-2000.0, -2000.0);
12:24:39:598;12:24:39:564;1448408438.11;(0.6024595737457276, 0.8734829372829861);74.9806747437;0.875083406861;;;;;;;;;;;;;;0;33,48,70,22,84,13;0;0;0;0;0;0;0;();(-2000.0, -2000.0);
12:24:39:615;12:24:39:564;1448408438.11;(0.6024595737457276, 0.8734829372829861);74.9806747437;0.875083406861;;;;;;;;;;;;;;0;33,48,70,22,84,13;0;0;0;0;0;0;0;();(-2000.0, -2000.0);
12:24:39:631;12:24:39:630;1448408438.18;(0, 0);0;0;;;;;;;;;;;;;;0;33,48,70,22,84,13;0;0;0;0;0;0;0;();(-2000.0, -2000.0);
12:24:39:649;12:24:39:631;1448408438.21;(0.6101897716522217, 0.8702307489183214);73.4649810791;0.629139443342;;;;;;;;;;;;;;0;33,48,70,22,84,13;0;0;0;0;0;0;0;();(-2000.0, -2000.0);
12:24:39:682;12:24:39:631;1448408438.21;(0.6101897716522217, 0.8702307489183214);73.4649810791;0.629139443342;;;;;;;;;;;;;;0;33,48,70,22,84,13;0;0;0;0;0;0;0;();(-2000.0, -2000.0);
12:24:39:699;12:24:39:697;1448408438.24;(0.6113569259643554, 0.8684106720818414);72.3481521606;0.731131044871;;;;;;;;;;;;;;0;33,48,70,22,84,13;0;0;0;0;0;0;0;();(-2000.0, -2000.0);
12:24:39:715;12:24:39:698;1448408438.28;(0.6119806289672851, 0.8711377673678928);71.6311798096;0.948879896873;;;;;;;;;;;;;;0;33,48,70,22,84,13;0;0;0;0;0;0;0;();(-2000.0, -2000.0);
12:24:39:732;12:24:39:698;1448408438.28;(0.6119806289672851, 0.8711377673678928);71.6311798096;0.948879896873;;;;;;;;;;;;;;0;33,48,70,22,84,13;0;0;0;0;0;0;0;();(-2000.0, -2000.0);
12:24:39:749;12:24:39:698;1448408438.28;(0.6119806289672851, 0.8711377673678928);71.6311798096;0.948879896873;;;;;;;;;;;;;;0;33,48,70,22,84,13;0;0;0;0;0;0;0;();(-2000.0, -2000.0);
12:24:39:782;12:24:39:766;1448408438.34;(0.6131228446960449, 0.8691177474127876);71.7558517456;0.841610929591;;;;;;;;;;;;;;0;33,48,70,22,84,13;0;0;0;0;0;0;0;();(-2000.0, -2000.0);
12:24:39:799;12:24:39:766;1448408438.34;(0.6131228446960449, 0.8691177474127876);71.7558517456;0.841610929591;;;;;;;;;;;;;;0;33,48,70,22,84,13;0;0;0;0;0;0;0;();(-2000.0, -2000.0);
12:24:39:817;12:24:39:766;1448408438.34;(0.6131228446960449, 0.8691177474127876);71.7558517456;0.841610929591;;;;;;;;;;;;;;0;33,48,70,22,84,13;0;0;0;0;0;0;0;();(-2000.0, -2000.0);
12:24:39:832;12:24:39:831;1448408438.38;(0.613566780090332, 0.8681062062581381);71.5266723633;0.954331046045;;;;;;;;;;;;;;0;33,48,70,22,84,13;0;0;0;0;0;0;0;();(-2000.0, -2000.0);
12:24:39:849;12:24:39:832;1448408438.41;(0.6137641906738281, 0.8673424932691787);70.8874206543;0.953623560692;;;;;;;;;;;;;;0;33,48,70,22,84,13;0;0;0;0;0;0;0;();(-2000.0, -2000.0);
12:24:39:882;12:24:39:832;1448408438.41;(0.6137641906738281, 0.8673424932691787);70.8874206543;0.953623560692;;;;;;;;;;;;;;0;33,48,70,22,84,13;0;0;0;0;0;0;0;();(-2000.0, -2000.0);
12:24:39:899;12:24:39:897;1448408438.44;(0.614281702041626, 0.866867192586263);70.5419464111;0.828391353348;;;;;;;;;;;;;;0;33,48,70,22,84,13;0;0;0;0;0;0;0;();(-2000.0, -2000.0);
12:24:39:916;12:24:39:898;1448408438.48;(0.614603853225708, 0.8661556985643175);70.4422149658;0.978596633133;;;;;;;;;;;;;;0;33,48,70,22,84,13;0;0;0;0;0;0;0;();(-2000.0, -2000.0);
12:24:39:932;12:24:39:898;1448408438.48;(0.614603853225708, 0.8661556985643175);70.4422149658;0.978596633133;;;;;;;;;;;;;;0;33,48,70,22,84,13;0;0;0;0;0;0;0;();(-2000.0, -2000.0);
12:24:39:949;12:24:39:898;1448408438.48;(0.614603853225708, 0.8661556985643175);70.4422149658;0.978596633133;;;;;;;;;;;;;;0;33,48,70,22,84,13;0;0;0;0;0;0;0;();(-2000.0, -2000.0);
12:24:39:982;12:24:39:962;1448408438.54;(0.6148758411407471, 0.8656370374891493);70.4142532349;0.962201760869;;;;;;;;;;;;;;0;33,48,70,22,84,13;0;0;0;0;0;0;0;();(-2000.0, -2000.0);
12:24:39:999;12:24:39:962;1448408438.54;(0.6148758411407471, 0.8656370374891493);70.4142532349;0.962201760869;;;;;;;;;;;;;;0;33,48,70,22,84,13;0;0;0;0;0;0;0;();(-2000.0, -2000.0);
12:24:40:015;12:24:39:962;1448408438.54;(0.6148758411407471, 0.8656370374891493);70.4142532349;0.962201760869;;;;;;;;;;;;;;0;33,48,70,22,84,13;0;0;0;0;0;0;0;();(-2000.0, -2000.0);
12:24:40:032;12:24:40:030;1448408438.61;(0, 0);0;0;;;;;;;;;;;;;;0;33,48,70,22,84,13;0;0;0;0;0;0;0;();(-2000.0, -2000.0);
12:24:40:049;12:24:40:030;1448408438.61;(0, 0);0;0;;;;;;;;;;;;;;0;33,48,70,22,84,13;0;0;0;0;0;0;0;();(-2000.0, -2000.0);
12:24:40:082;12:24:40:030;1448408438.61;(0, 0);0;0;;;;;;;;;;;;;;0;33,48,70,22,84,13;0;0;0;0;0;0;0;();(-2000.0, -2000.0);
12:24:40:099;12:24:40:097;1448408438.64;(0.2654577255249023, 0.8660303645663792);20.6947135925;0.996470983266;;;;;;;;;;;;;;0;33,48,70,22,84,13;0;0;0;0;0;0;0;();(-2000.0, -2000.0);
12:24:40:115;12:24:40:097;1448408438.64;(0.2654577255249023, 0.8660303645663792);20.6947135925;0.996470983266;;;;;;;;;;;;;;0;33,48,70,22,84,13;0;0;0;0;0;0;0;();(-2000.0, -2000.0);
12:24:40:133;12:24:40:097;1448408438.64;(0.2654577255249023, 0.8660303645663792);20.6947135925;0.996470983266;;;;;;;;;;;;;;0;33,48,70,22,84,13;0;0;0;0;0;0;0;();(-2000.0, -2000.0);
12:24:40:149;12:24:40:097;1448408438.64;(0.2654577255249023, 0.8660303645663792);20.6947135925;0.996470983266;;;;;;;;;;;;;;0;33,48,70,22,84,13;0;0;0;0;0;0;0;();(-2000.0, -2000.0);
12:24:40:183;12:24:40:162;1448408438.71;(0.6779164791107177, 0.7406184514363607);72.4473190308;0.702191130627;;;;;;;;;;;;;;0;33,48,70,22,84,13;0;0;0;0;0;0;0;();(-2000.0, -2000.0);
12:24:40:199;12:24:40:162;1448408438.71;(0.6779164791107177, 0.7406184514363607);72.4473190308;0.702191130627;;;;;;;;;;;;;;0;33,48,70,22,84,13;0;0;0;0;0;0;0;();(-2000.0, -2000.0);
12:24:40:216;12:24:40:162;1448408438.71;(0.6779164791107177, 0.7406184514363607);72.4473190308;0.702191130627;;;;;;;;;;;;;;0;33,48,70,22,84,13;0;0;0;0;0;0;0;();(-2000.0, -2000.0);
12:24:40:232;12:24:40:230;1448408438.78;(0.6758554935455322, 0.7409927792019314);73.7625274658;0.85706164711;;;;;;;;;;;;;;0;33,48,70,22,84,13;0;0;0;0;0;0;0;();(-2000.0, -2000.0);
12:24:40:249;12:24:40:231;1448408438.81;(0.67494797706604, 0.7412272347344293);73.912689209;0.844787134603;;;;;;;;;;;;;;0;33,48,70,22,84,13;0;0;0;0;0;0;0;();(-2000.0, -2000.0);
12:24:40:282;12:24:40:231;1448408438.81;(0.67494797706604, 0.7412272347344293);73.912689209;0.844787134603;;;;;;;;;;;;;;0;33,48,70,22,84,13;0;0;0;0;0;0;0;();(-2000.0, -2000.0);
12:24:40:299;12:24:40:293;1448408438.84;(0, 0);0;0;;;;;;;;;;;;;;0;33,48,70,22,84,13;0;0;0;0;0;0;0;();(-2000.0, -2000.0);
12:24:40:316;12:24:40:293;1448408438.84;(0, 0);0;0;;;;;;;;;;;;;;0;33,48,70,22,84,13;0;0;0;0;0;0;0;();(-2000.0, -2000.0);
12:24:40:333;12:24:40:293;1448408438.84;(0, 0);0;0;;;;;;;;;;;;;;0;33,48,70,22,84,13;0;0;0;0;0;0;0;();(-2000.0, -2000.0);
12:24:40:349;12:24:40:293;1448408438.84;(0, 0);0;0;;;;;;;;;;;;;;0;33,48,70,22,84,13;0;0;0;0;0;0;0;();(-2000.0, -2000.0);
12:24:40:366;12:24:40:362;1448408438.91;(0.6721005916595459, 0.7457106484307183);76.0749969482;0.806336254108;;;;;;;;;;;;;;0;33,48,70,22,84,13;0;0;0;0;0;0;0;();(-2000.0, -2000.0);
12:24:40:399;12:24:40:362;1448408438.91;(0.6721005916595459, 0.7457106484307183);76.0749969482;0.806336254108;;;;;;;;;;;;;;0;33,48,70,22,84,13;0;0;0;0;0;0;0;();(-2000.0, -2000.0);
12:24:40:416;12:24:40:362;1448408438.91;(0.6721005916595459, 0.7457106484307183);76.0749969482;0.806336254108;;;;;;;;;;;;;;0;33,48,70,22,84,13;0;0;0;0;0;0;0;();(-2000.0, -2000.0);
12:24:40:433;12:24:40:430;1448408438.98;(0.6732502460479737, 0.7472604115804036);78.0340118408;0.687169243442;;;;;;;;;;;;;;0;33,48,70,22,84,13;0;0;0;0;0;0;0;();(-2000.0, -2000.0);
12:24:40:449;12:24:40:430;1448408438.98;(0.6732502460479737, 0.7472604115804036);78.0340118408;0.687169243442;;;;;;;;;;;;;;0;33,48,70,22,84,13;0;0;0;0;0;0;0;();(-2000.0, -2000.0);
12:24:40:482;12:24:40:430;1448408438.98;(0.6732502460479737, 0.7472604115804036);78.0340118408;0.687169243442;;;;;;;;;;;;;;0;33,48,70,22,84,13;0;0;0;0;0;0;0;();(-2000.0, -2000.0);
12:24:40:499;12:24:40:494;1448408439.04;(0.3199928283691406, 0.657116338941786);24.9703731537;0.62274053114;;;;;;;;;;;;;;0;33,48,70,22,84,13;0;0;0;0;0;0;0;();(-2000.0, -2000.0);
12:24:40:516;12:24:40:494;1448408439.04;(0.3199928283691406, 0.657116338941786);24.9703731537;0.62274053114;;;;;;;;;;;;;;0;33,48,70,22,84,13;0;0;0;0;0;0;0;();(-2000.0, -2000.0);
12:24:40:532;12:24:40:494;1448408439.04;(0.3199928283691406, 0.657116338941786);24.9703731537;0.62274053114;;;;;;;;;;;;;;0;33,48,70,22,84,13;0;0;0;0;0;0;0;();(-2000.0, -2000.0);
12:24:40:550;12:24:40:494;1448408439.04;(0.3199928283691406, 0.657116338941786);24.9703731537;0.62274053114;;;;;;;;;;;;;;0;33,48,70,22,84,13;0;0;0;0;0;0;0;();(-2000.0, -2000.0);
12:24:40:584;12:24:40:562;1448408439.11;(0, 0);0;0;;;;;;;;;;;;;;0;33,48,70,22,84,13;0;0;0;0;0;0;0;();(-2000.0, -2000.0);
12:24:40:599;12:24:40:562;1448408439.11;(0, 0);0;0;;;;;;;;;;;;;;0;33,48,70,22,84,13;0;0;0;0;0;0;0;();(-2000.0, -2000.0);
12:24:40:616;12:24:40:562;1448408439.11;(0, 0);0;0;;;;;;;;;;;;;;0;33,48,70,22,84,13;0;0;0;0;0;0;0;();(-2000.0, -2000.0);
12:24:40:633;12:24:40:626;1448408439.18;(0.6312057495117187, 0.5126394483778212);19.0804309845;0.644085980436;;;;;;;;;;;;;;0;33,48,70,22,84,13;0;0;0;0;0;0;0;();(-2000.0, -2000.0);
12:24:40:649;12:24:40:626;1448408439.18;(0.6312057495117187, 0.5126394483778212);19.0804309845;0.644085980436;;;;;;;;;;;;;;0;33,48,70,22,84,13;0;0;0;0;0;0;0;();(-2000.0, -2000.0);
12:24:40:666;12:24:40:626;1448408439.18;(0.6312057495117187, 0.5126394483778212);19.0804309845;0.644085980436;;;;;;;;;;;;;;0;33,48,70,22,84,13;0;0;0;0;0;0;0;();(-2000.0, -2000.0);
12:24:40:700;12:24:40:694;1448408439.24;(0.6767462730407715, 0.7415890587700738);72.9862823486;0.670219144536;;;;;;;;;;;;;;0;33,48,70,22,84,13;0;0;0;0;0;0;0;();(-2000.0, -2000.0);
12:24:40:716;12:24:40:694;1448408439.24;(0.6767462730407715, 0.7415890587700738);72.9862823486;0.670219144536;;;;;;;;;;;;;;0;33,48,70,22,84,13;0;0;0;0;0;0;0;();(-2000.0, -2000.0);
12:24:40:733;12:24:40:694;1448408439.24;(0.6767462730407715, 0.7415890587700738);72.9862823486;0.670219144536;;;;;;;;;;;;;;0;33,48,70,22,84,13;0;0;0;0;0;0;0;();(-2000.0, -2000.0);
12:24:40:750;12:24:40:694;1448408439.24;(0.6767462730407715, 0.7415890587700738);72.9862823486;0.670219144536;;;;;;;;;;;;;;0;33,48,70,22,84,13;0;0;0;0;0;0;0;();(-2000.0, -2000.0);
12:24:40:766;12:24:40:762;1448408439.31;(0, 0);0;0;;;;;;;;;;;;;;0;33,48,70,22,84,13;0;0;0;0;0;0;0;();(-2000.0, -2000.0);
12:24:40:800;12:24:40:762;1448408439.31;(0, 0);0;0;;;;;;;;;;;;;;0;33,48,70,22,84,13;0;0;0;0;0;0;0;();(-2000.0, -2000.0);
12:24:40:816;12:24:40:762;1448408439.31;(0, 0);0;0;;;;;;;;;;;;;;0;33,48,70,22,84,13;0;0;0;0;0;0;0;();(-2000.0, -2000.0);
12:24:40:832;12:24:40:826;1448408439.38;(0.6692336082458497, 0.7465225431654188);75.8319625854;0.715991183083;;;;;;;;;;;;;;0;33,48,70,22,84,13;0;0;0;0;0;0;0;();(-2000.0, -2000.0);
12:24:40:850;12:24:40:826;1448408439.38;(0.6692336082458497, 0.7465225431654188);75.8319625854;0.715991183083;;;;;;;;;;;;;;0;33,48,70,22,84,13;0;0;0;0;0;0;0;();(-2000.0, -2000.0);
12:24:40:866;12:24:40:826;1448408439.38;(0.6692336082458497, 0.7465225431654188);75.8319625854;0.715991183083;;;;;;;;;;;;;;0;33,48,70,22,84,13;0;0;0;0;0;0;0;();(-2000.0, -2000.0);
