%Timestamp,timestamp_write;timestamp_gotpupil;eyeTrackerTime;normPos;diameter;confidence;timestamp_gotbitdata;CRC;SEQ;AnalogOutp1;AnalogOutp2;AnalogOutp3;AnalogOutp4;AnalogOutp5;AnalogOutp6;DigitalOutp1;DigitalOutp2;DigitalOutp3;DigitalOutp4;nplanes;listofAirplanesonScreen;lastAction;lastActionDetails;lastActionAirplaneNumber;calculatedScore;positiveScore;negativeScore;collidedAirplaneNumbers;targetPositions;collisionPoint
12:28:43:193;12:28:43:187;1448408681.76;(0, 0);0;0;;;;;;;;;;;;;;0;0;0;0;0;0;0;0;0;();(0.0, 0.0);
12:28:43:210;12:28:43:187;1448408681.76;(0, 0);0;0;;;;;;;;;;;;;;0;0;0;0;0;0;0;0;0;();(-2000.0, -2000.0);
12:28:43:216;12:28:43:187;1448408681.76;(0, 0);0;0;;;;;;;;;;;;;;0;0;0;0;0;0;0;0;0;();(-2000.0, -2000.0);
12:28:43:220;12:28:43:187;1448408681.76;(0, 0);0;0;;;;;;;;;;;;;;0;0;0;0;0;0;0;0;0;();(-2000.0, -2000.0);
12:28:43:223;12:28:43:187;1448408681.76;(0, 0);0;0;;;;;;;;;;;;;;0;0;0;0;0;0;0;0;0;();(-2000.0, -2000.0);
12:28:43:226;12:28:43:187;1448408681.76;(0, 0);0;0;;;;;;;;;;;;;;0;0;0;0;0;0;0;0;0;();(-2000.0, -2000.0);
12:28:43:229;12:28:43:187;1448408681.76;(0, 0);0;0;;;;;;;;;;;;;;0;0;0;0;0;0;0;0;0;();(-2000.0, -2000.0);
12:28:43:232;12:28:43:187;1448408681.76;(0, 0);0;0;;;;;;;;;;;;;;0;0;0;0;0;0;0;0;0;();(-2000.0, -2000.0);
12:28:43:235;12:28:43:187;1448408681.76;(0, 0);0;0;;;;;;;;;;;;;;0;0;0;0;0;0;0;0;0;();(-2000.0, -2000.0);
12:28:43:238;12:28:43:187;1448408681.76;(0, 0);0;0;;;;;;;;;;;;;;0;0;0;0;0;0;0;0;0;();(-2000.0, -2000.0);
12:28:43:242;12:28:43:187;1448408681.76;(0, 0);0;0;;;;;;;;;;;;;;0;0;0;0;0;0;0;0;0;();(-2000.0, -2000.0);
12:28:43:245;12:28:43:187;1448408681.76;(0, 0);0;0;;;;;;;;;;;;;;0;0;0;0;0;0;0;0;0;();(-2000.0, -2000.0);
12:28:43:247;12:28:43:187;1448408681.76;(0, 0);0;0;;;;;;;;;;;;;;0;0;0;0;0;0;0;0;0;();(-2000.0, -2000.0);
12:28:43:250;12:28:43:187;1448408681.76;(0, 0);0;0;;;;;;;;;;;;;;0;0;0;0;0;0;0;0;0;();(-2000.0, -2000.0);
12:28:43:252;12:28:43:187;1448408681.76;(0, 0);0;0;;;;;;;;;;;;;;0;0;0;0;0;0;0;0;0;();(-2000.0, -2000.0);
12:28:43:255;12:28:43:187;1448408681.76;(0, 0);0;0;;;;;;;;;;;;;;0;0;0;0;0;0;0;0;0;();(-2000.0, -2000.0);
12:28:43:260;12:28:43:256;1448408681.83;(0.6526562690734863, 0.842803520626492);87.4199981689;0.862295762001;;;;;;;;;;;;;;0;0;0;0;0;0;0;0;0;();(-2000.0, -2000.0);
12:28:43:263;12:28:43:256;1448408681.83;(0.6526562690734863, 0.842803520626492);87.4199981689;0.862295762001;;;;;;;;;;;;;;0;0;0;0;0;0;0;0;0;();(-2000.0, -2000.0);
12:28:43:266;12:28:43:256;1448408681.83;(0.6526562690734863, 0.842803520626492);87.4199981689;0.862295762001;;;;;;;;;;;;;;0;0;0;0;0;0;0;0;0;();(-2000.0, -2000.0);
12:28:43:270;12:28:43:256;1448408681.83;(0.6526562690734863, 0.842803520626492);87.4199981689;0.862295762001;;;;;;;;;;;;;;0;0;0;0;0;0;0;0;0;();(-2000.0, -2000.0);
12:28:43:291;12:28:43:256;1448408681.83;(0.6526562690734863, 0.842803520626492);87.4199981689;0.862295762001;;;;;;;;;;;;;;0;0;0;0;0;0;0;0;0;();(-2000.0, -2000.0);
12:28:43:307;12:28:43:256;1448408681.83;(0.6526562690734863, 0.842803520626492);87.4199981689;0.862295762001;;;;;;;;;;;;;;0;0;0;0;0;0;0;0;0;();(-2000.0, -2000.0);
12:28:43:324;12:28:43:318;1448408681.9;(0.6538089752197266, 0.8381478203667535);87.9709091187;0.663227285526;;;;;;;;;;;;;;0;0;0;0;0;0;0;0;0;();(-2000.0, -2000.0);
12:28:43:341;12:28:43:318;1448408681.9;(0.6538089752197266, 0.8381478203667535);87.9709091187;0.663227285526;;;;;;;;;;;;;;0;0;0;0;0;0;0;0;0;();(-2000.0, -2000.0);
12:28:43:357;12:28:43:318;1448408681.9;(0.6538089752197266, 0.8381478203667535);87.9709091187;0.663227285526;;;;;;;;;;;;;;0;0;0;0;0;0;0;0;0;();(-2000.0, -2000.0);
12:28:43:391;12:28:43:387;1448408681.96;(0, 0);0;0;;;;;;;;;;;;;;0;0;0;0;0;0;0;0;0;();(-2000.0, -2000.0);
12:28:43:407;12:28:43:387;1448408681.96;(0, 0);0;0;;;;;;;;;;;;;;0;0;0;0;0;0;0;0;0;();(-2000.0, -2000.0);
12:28:43:424;12:28:43:387;1448408681.96;(0, 0);0;0;;;;;;;;;;;;;;0;0;0;0;0;0;0;0;0;();(-2000.0, -2000.0);
12:28:43:441;12:28:43:387;1448408681.96;(0, 0);0;0;;;;;;;;;;;;;;0;0;0;0;0;0;0;0;0;();(-2000.0, -2000.0);
12:28:43:458;12:28:43:451;1448408682.03;(0, 0);0;0;;;;;;;;;;;;;;0;0;0;0;0;0;0;0;0;();(-2000.0, -2000.0);
12:28:43:491;12:28:43:451;1448408682.03;(0, 0);0;0;;;;;;;;;;;;;;0;0;0;0;0;0;0;0;0;();(-2000.0, -2000.0);
12:28:43:507;12:28:43:451;1448408682.03;(0, 0);0;0;;;;;;;;;;;;;;0;0;0;0;0;0;0;0;0;();(-2000.0, -2000.0);
12:28:43:525;12:28:43:518;1448408682.06;(0.6826926231384277, 0.8054148144192166);85.9762420654;0.881359591664;;;;;;;;;;;;;;0;0;0;0;0;0;0;0;0;();(-2000.0, -2000.0);
12:28:43:540;12:28:43:518;1448408682.06;(0.6826926231384277, 0.8054148144192166);85.9762420654;0.881359591664;;;;;;;;;;;;;;0;0;0;0;0;0;0;0;0;();(-2000.0, -2000.0);
12:28:43:557;12:28:43:518;1448408682.06;(0.6826926231384277, 0.8054148144192166);85.9762420654;0.881359591664;;;;;;;;;;;;;;0;0;0;0;0;0;0;0;0;();(-2000.0, -2000.0);
12:28:43:591;12:28:43:587;1448408682.13;(0, 0);0;0;;;;;;;;;;;;;;0;0;0;0;0;0;0;0;0;();(-2000.0, -2000.0);
12:28:43:608;12:28:43:587;1448408682.13;(0, 0);0;0;;;;;;;;;;;;;;0;0;0;0;0;0;0;0;0;();(-2000.0, -2000.0);
12:28:43:624;12:28:43:587;1448408682.13;(0, 0);0;0;;;;;;;;;;;;;;0;0;0;0;0;0;0;0;0;();(-2000.0, -2000.0);
12:28:43:641;12:28:43:587;1448408682.13;(0, 0);0;0;;;;;;;;;;;;;;0;0;0;0;0;0;0;0;0;();(-2000.0, -2000.0);
12:28:43:658;12:28:43:651;1448408682.2;(0.6799420356750489, 0.8084794680277506);88.7704544067;0.809515854456;;;;;;;;;;;;;;0;0;0;0;0;0;0;0;0;();(-2000.0, -2000.0);
12:28:43:690;12:28:43:651;1448408682.2;(0.6799420356750489, 0.8084794680277506);88.7704544067;0.809515854456;;;;;;;;;;;;;;0;0;0;0;0;0;0;0;0;();(-2000.0, -2000.0);
12:28:43:708;12:28:43:651;1448408682.2;(0.6799420356750489, 0.8084794680277506);88.7704544067;0.809515854456;;;;;;;;;;;;;;0;0;0;0;0;0;0;0;0;();(-2000.0, -2000.0);
12:28:43:724;12:28:43:720;1448408682.3;(0, 0);0;0;;;;;;;;;;;;;;0;0;0;0;0;0;0;0;0;();(-2000.0, -2000.0);
12:28:43:741;12:28:43:720;1448408682.3;(0, 0);0;0;;;;;;;;;;;;;;0;0;0;0;0;0;0;0;0;();(-2000.0, -2000.0);
12:28:43:758;12:28:43:720;1448408682.3;(0, 0);0;0;;;;;;;;;;;;;;0;0;0;0;0;0;0;0;0;();(-2000.0, -2000.0);
12:28:43:792;12:28:43:782;1448408682.36;(0.7269186973571777, 0.7744150161743164);88.3721389771;0.904732198123;;;;;;;;;;;;;;0;0;0;0;0;0;0;0;0;();(-2000.0, -2000.0);
12:28:43:808;12:28:43:782;1448408682.36;(0.7269186973571777, 0.7744150161743164);88.3721389771;0.904732198123;;;;;;;;;;;;;;0;0;0;0;0;0;0;0;0;();(-2000.0, -2000.0);
12:28:43:824;12:28:43:782;1448408682.36;(0.7269186973571777, 0.7744150161743164);88.3721389771;0.904732198123;;;;;;;;;;;;;;0;0;0;0;0;0;0;0;0;();(-2000.0, -2000.0);
12:28:43:841;12:28:43:782;1448408682.36;(0.7269186973571777, 0.7744150161743164);88.3721389771;0.904732198123;;;;;;;;;;;;;;0;0;0;0;0;0;0;0;0;();(-2000.0, -2000.0);
12:28:43:858;12:28:43:853;1448408682.43;(0, 0);0;0;;;;;;;;;;;;;;0;0;0;0;0;0;0;0;0;();(-2000.0, -2000.0);
12:28:43:891;12:28:43:853;1448408682.43;(0, 0);0;0;;;;;;;;;;;;;;0;0;0;0;0;0;0;0;0;();(-2000.0, -2000.0);
12:28:43:909;12:28:43:853;1448408682.43;(0, 0);0;0;;;;;;;;;;;;;;0;0;0;0;0;0;0;0;0;();(-2000.0, -2000.0);
12:28:43:925;12:28:43:921;1448408682.5;(0.7172329425811768, 0.7843377007378473);93.2655410767;0.66621644324;;;;;;;;;;;;;;0;0;0;0;0;0;0;0;0;();(-2000.0, -2000.0);
12:28:43:941;12:28:43:921;1448408682.5;(0.7172329425811768, 0.7843377007378473);93.2655410767;0.66621644324;;;;;;;;;;;;;;0;0;0;0;0;0;0;0;0;();(-2000.0, -2000.0);
12:28:43:958;12:28:43:921;1448408682.5;(0.7172329425811768, 0.7843377007378473);93.2655410767;0.66621644324;;;;;;;;;;;;;;0;0;0;0;0;0;0;0;0;();(-2000.0, -2000.0);
12:28:43:992;12:28:43:983;1448408682.56;(0.7186920166015625, 0.78161498175727);89.7665481567;0.803676921167;;;;;;;;;;;;;;0;0;0;0;0;0;0;0;0;();(-2000.0, -2000.0);
12:28:44:008;12:28:43:983;1448408682.56;(0.7186920166015625, 0.78161498175727);89.7665481567;0.803676921167;;;;;;;;;;;;;;0;0;0;0;0;0;0;0;0;();(-2000.0, -2000.0);
12:28:44:025;12:28:43:983;1448408682.56;(0.7186920166015625, 0.78161498175727);89.7665481567;0.803676921167;;;;;;;;;;;;;;0;0;0;0;0;0;0;0;0;();(-2000.0, -2000.0);
12:28:44:042;12:28:43:983;1448408682.56;(0.7186920166015625, 0.78161498175727);89.7665481567;0.803676921167;;;;;;;;;;;;;;0;0;0;0;0;0;0;0;0;();(-2000.0, -2000.0);
12:28:44:058;12:28:44:050;1448408682.6;(0.7175946712493897, 0.7846182505289714);89.3612823486;0.948110473003;;;;;;;;;;;;;;0;0;0;0;0;0;0;0;0;();(-2000.0, -2000.0);
12:28:44:091;12:28:44:050;1448408682.6;(0.7175946712493897, 0.7846182505289714);89.3612823486;0.948110473003;;;;;;;;;;;;;;0;0;0;0;0;0;0;0;0;();(-2000.0, -2000.0);
12:28:44:108;12:28:44:050;1448408682.6;(0.7175946712493897, 0.7846182505289714);89.3612823486;0.948110473003;;;;;;;;;;;;;;0;0;0;0;0;0;0;0;0;();(-2000.0, -2000.0);
12:28:44:124;12:28:44:115;1448408682.66;(0.7151310443878174, 0.7862229877048068);89.8163223267;0.94280377051;;;;;;;;;;;;;;0;0;0;0;0;0;0;0;0;();(-2000.0, -2000.0);
12:28:44:142;12:28:44:115;1448408682.66;(0.7151310443878174, 0.7862229877048068);89.8163223267;0.94280377051;;;;;;;;;;;;;;0;0;0;0;0;0;0;0;0;();(-2000.0, -2000.0);
12:28:44:158;12:28:44:115;1448408682.66;(0.7151310443878174, 0.7862229877048068);89.8163223267;0.94280377051;;;;;;;;;;;;;;0;0;0;0;0;0;0;0;0;();(-2000.0, -2000.0);
12:28:44:191;12:28:44:184;1448408682.73;(0, 0);0;0;;;;;;;;;;;;;;0;0;0;0;0;0;0;0;0;();(-2000.0, -2000.0);
12:28:44:208;12:28:44:184;1448408682.73;(0, 0);0;0;;;;;;;;;;;;;;0;0;0;0;0;0;0;0;0;();(-2000.0, -2000.0);
12:28:44:225;12:28:44:184;1448408682.73;(0, 0);0;0;;;;;;;;;;;;;;0;0;0;0;0;0;0;0;0;();(-2000.0, -2000.0);
12:28:44:242;12:28:44:184;1448408682.73;(0, 0);0;0;;;;;;;;;;;;;;0;0;0;0;0;0;0;0;0;();(-2000.0, -2000.0);
12:28:44:259;12:28:44:255;1448408682.83;(0.7104677200317383, 0.7891991085476345);90.0043029785;0.809650651636;;;;;;;;;;;;;;0;0;0;0;0;0;0;0;0;();(-2000.0, -2000.0);
12:28:44:292;12:28:44:255;1448408682.83;(0.7104677200317383, 0.7891991085476345);90.0043029785;0.809650651636;;;;;;;;;;;;;;0;0;0;0;0;0;0;0;0;();(-2000.0, -2000.0);
12:28:44:309;12:28:44:255;1448408682.83;(0.7104677200317383, 0.7891991085476345);90.0043029785;0.809650651636;;;;;;;;;;;;;;0;0;0;0;0;0;0;0;0;();(-2000.0, -2000.0);
12:28:44:325;12:28:44:319;1448408682.9;(0, 0);0;0;;;;;;;;;;;;;;0;0;0;0;0;0;0;0;0;();(-2000.0, -2000.0);
12:28:44:342;12:28:44:319;1448408682.9;(0, 0);0;0;;;;;;;;;;;;;;0;0;0;0;0;0;0;0;0;();(-2000.0, -2000.0);
12:28:44:358;12:28:44:319;1448408682.9;(0, 0);0;0;;;;;;;;;;;;;;0;0;0;0;0;0;0;0;0;();(-2000.0, -2000.0);
12:28:44:392;12:28:44:382;1448408682.96;(0.2592391729354858, 0.9096513801150852);22.9801635742;0.601816562307;;;;;;;;;;;;;;0;0;0;0;0;0;0;0;0;();(-2000.0, -2000.0);
12:28:44:409;12:28:44:382;1448408682.96;(0.2592391729354858, 0.9096513801150852);22.9801635742;0.601816562307;;;;;;;;;;;;;;0;0;0;0;0;0;0;0;0;();(-2000.0, -2000.0);
12:28:44:425;12:28:44:382;1448408682.96;(0.2592391729354858, 0.9096513801150852);22.9801635742;0.601816562307;;;;;;;;;;;;;;0;0;0;0;0;0;0;0;0;();(-2000.0, -2000.0);
12:28:44:442;12:28:44:382;1448408682.96;(0.2592391729354858, 0.9096513801150852);22.9801635742;0.601816562307;;;;;;;;;;;;;;0;0;0;0;0;0;0;0;0;();(-2000.0, -2000.0);
12:28:44:458;12:28:44:445;1448408683.0;(0.7062571525573731, 0.7947593477037218);89.846496582;0.945011398081;;;;;;;;;;;;;;0;0;0;0;0;0;0;0;0;();(-2000.0, -2000.0);
12:28:44:492;12:28:44:445;1448408683.0;(0.7062571525573731, 0.7947593477037218);89.846496582;0.945011398081;;;;;;;;;;;;;;0;0;0;0;0;0;0;0;0;();(-2000.0, -2000.0);
12:28:44:508;12:28:44:445;1448408683.0;(0.7062571525573731, 0.7947593477037218);89.846496582;0.945011398081;;;;;;;;;;;;;;0;0;0;0;0;0;0;0;0;();(-2000.0, -2000.0);
12:28:44:526;12:28:44:517;1448408683.06;(0.703803014755249, 0.7827852884928386);77.611907959;0.636933428652;;;;;;;;;;;;;;0;0;0;0;0;0;0;0;0;();(-2000.0, -2000.0);
12:28:44:542;12:28:44:517;1448408683.06;(0.703803014755249, 0.7827852884928386);77.611907959;0.636933428652;;;;;;;;;;;;;;0;0;0;0;0;0;0;0;0;();(-2000.0, -2000.0);
12:28:44:559;12:28:44:517;1448408683.06;(0.703803014755249, 0.7827852884928386);77.611907959;0.636933428652;;;;;;;;;;;;;;0;0;0;0;0;0;0;0;0;();(-2000.0, -2000.0);
12:28:44:592;12:28:44:579;1448408683.15;(0, 0);0;0;;;;;;;;;;;;;;0;0;0;0;0;0;0;0;0;();(-2000.0, -2000.0);
12:28:44:609;12:28:44:579;1448408683.15;(0, 0);0;0;;;;;;;;;;;;;;0;0;0;0;0;0;0;0;0;();(-2000.0, -2000.0);
12:28:44:625;12:28:44:579;1448408683.15;(0, 0);0;0;;;;;;;;;;;;;;0;0;0;0;0;0;0;0;0;();(-2000.0, -2000.0);
12:28:44:642;12:28:44:579;1448408683.15;(0, 0);0;0;;;;;;;;;;;;;;0;0;0;0;0;0;0;0;0;();(-2000.0, -2000.0);
12:28:44:659;12:28:44:645;1448408683.17;(0.42946414947509765, 0.8113198492262099);18.6574172974;0.654392009439;;;;;;;;;;;;;;0;0;0;0;0;0;0;0;0;();(-2000.0, -2000.0);
12:28:44:692;12:28:44:645;1448408683.17;(0.42946414947509765, 0.8113198492262099);18.6574172974;0.654392009439;;;;;;;;;;;;;;0;0;0;0;0;0;0;0;0;();(-2000.0, -2000.0);
12:28:44:709;12:28:44:645;1448408683.17;(0.42946414947509765, 0.8113198492262099);18.6574172974;0.654392009439;;;;;;;;;;;;;;0;0;0;0;0;0;0;0;0;();(-2000.0, -2000.0);
12:28:44:726;12:28:44:718;1448408683.3;(0.7185456275939941, 0.8022777451409234);90.1177902222;0.987859821145;;;;;;;;;;;;;;0;0;0;0;0;0;0;0;0;();(-2000.0, -2000.0);
12:28:44:742;12:28:44:718;1448408683.3;(0.7185456275939941, 0.8022777451409234);90.1177902222;0.987859821145;;;;;;;;;;;;;;0;0;0;0;0;0;0;0;0;();(-2000.0, -2000.0);
12:28:44:759;12:28:44:718;1448408683.3;(0.7185456275939941, 0.8022777451409234);90.1177902222;0.987859821145;;;;;;;;;;;;;;0;0;0;0;0;0;0;0;0;();(-2000.0, -2000.0);
12:28:44:793;12:28:44:778;1448408683.36;(0.7188914775848388, 0.8022727754380967);89.4412307739;0.954935015886;;;;;;;;;;;;;;0;0;0;0;0;0;0;0;0;();(-2000.0, -2000.0);
12:28:44:809;12:28:44:778;1448408683.36;(0.7188914775848388, 0.8022727754380967);89.4412307739;0.954935015886;;;;;;;;;;;;;;0;0;0;0;0;0;0;0;0;();(-2000.0, -2000.0);
12:28:44:826;12:28:44:778;1448408683.36;(0.7188914775848388, 0.8022727754380967);89.4412307739;0.954935015886;;;;;;;;;;;;;;0;0;0;0;0;0;0;0;0;();(-2000.0, -2000.0);
12:28:44:842;12:28:44:778;1448408683.36;(0.7188914775848388, 0.8022727754380967);89.4412307739;0.954935015886;;;;;;;;;;;;;;0;0;0;0;0;0;0;0;0;();(-2000.0, -2000.0);
12:28:44:859;12:28:44:847;1448408683.43;(0.7181990146636963, 0.8040259891086154);89.5493240356;0.947164729943;;;;;;;;;;;;;;0;0;0;0;0;0;0;0;0;();(-2000.0, -2000.0);
12:28:44:892;12:28:44:847;1448408683.43;(0.7181990146636963, 0.8040259891086154);89.5493240356;0.947164729943;;;;;;;;;;;;;;0;0;0;0;0;0;0;0;0;();(-2000.0, -2000.0);
12:28:44:909;12:28:44:847;1448408683.43;(0.7181990146636963, 0.8040259891086154);89.5493240356;0.947164729943;;;;;;;;;;;;;;0;0;0;0;0;0;0;0;0;();(-2000.0, -2000.0);
12:28:44:926;12:28:44:915;1448408683.5;(0.7176747798919678, 0.8042864481608073);89.4865112305;0.961358256371;;;;;;;;;;;;;;0;0;0;0;0;0;0;0;0;();(-2000.0, -2000.0);
12:28:44:942;12:28:44:915;1448408683.5;(0.7176747798919678, 0.8042864481608073);89.4865112305;0.961358256371;;;;;;;;;;;;;;0;0;0;0;0;0;0;0;0;();(-2000.0, -2000.0);
12:28:44:959;12:28:44:915;1448408683.5;(0.7176747798919678, 0.8042864481608073);89.4865112305;0.961358256371;;;;;;;;;;;;;;0;0;0;0;0;0;0;0;0;();(-2000.0, -2000.0);
12:28:44:992;12:28:44:978;1448408683.53;(0.7418909072875977, 0.7780821694268121);94.7736129761;0.897887467933;;;;;;;;;;;;;;0;0;0;0;0;0;0;0;0;();(-2000.0, -2000.0);
12:28:45:009;12:28:44:978;1448408683.53;(0.7418909072875977, 0.7780821694268121);94.7736129761;0.897887467933;;;;;;;;;;;;;;0;0;0;0;0;0;0;0;0;();(-2000.0, -2000.0);
12:28:45:025;12:28:44:978;1448408683.53;(0.7418909072875977, 0.7780821694268121);94.7736129761;0.897887467933;;;;;;;;;;;;;;0;0;0;0;0;0;0;0;0;();(-2000.0, -2000.0);
12:28:45:042;12:28:44:978;1448408683.53;(0.7418909072875977, 0.7780821694268121);94.7736129761;0.897887467933;;;;;;;;;;;;;;0;0;0;0;0;0;0;0;0;();(-2000.0, -2000.0);
12:28:45:059;12:28:45:048;1448408683.63;(0.7490226745605468, 0.7622581058078342);90.2032623291;0.891016868521;;;;;;;;;;;;;;0;0;0;0;0;0;0;0;0;();(-2000.0, -2000.0);
12:28:45:092;12:28:45:048;1448408683.63;(0.7490226745605468, 0.7622581058078342);90.2032623291;0.891016868521;;;;;;;;;;;;;;0;0;0;0;0;0;0;0;0;();(-2000.0, -2000.0);
12:28:45:109;12:28:45:048;1448408683.63;(0.7490226745605468, 0.7622581058078342);90.2032623291;0.891016868521;;;;;;;;;;;;;;0;0;0;0;0;0;0;0;0;();(-2000.0, -2000.0);
12:28:45:125;12:28:45:114;1448408683.7;(0.7479531288146972, 0.7636009640163846);89.4980773926;0.890139165992;;;;;;;;;;;;;;0;0;0;0;0;0;0;0;0;();(-2000.0, -2000.0);
12:28:45:142;12:28:45:114;1448408683.7;(0.7479531288146972, 0.7636009640163846);89.4980773926;0.890139165992;;;;;;;;;;;;;;0;0;0;0;0;0;0;0;0;();(-2000.0, -2000.0);
12:28:45:159;12:28:45:114;1448408683.7;(0.7479531288146972, 0.7636009640163846);89.4980773926;0.890139165992;;;;;;;;;;;;;;0;0;0;0;0;0;0;0;0;();(-2000.0, -2000.0);
12:28:45:193;12:28:45:177;1448408683.73;(0.7475658416748047, 0.7651958465576172);89.5705337524;0.855120498663;;;;;;;;;;;;;;0;0;0;0;0;0;0;0;0;();(-2000.0, -2000.0);
12:28:45:209;12:28:45:177;1448408683.73;(0.7475658416748047, 0.7651958465576172);89.5705337524;0.855120498663;;;;;;;;;;;;;;0;0;0;0;0;0;0;0;0;();(-2000.0, -2000.0);
12:28:45:226;12:28:45:177;1448408683.73;(0.7475658416748047, 0.7651958465576172);89.5705337524;0.855120498663;;;;;;;;;;;;;;0;0;0;0;0;0;0;0;0;();(-2000.0, -2000.0);
12:28:45:243;12:28:45:177;1448408683.73;(0.7475658416748047, 0.7651958465576172);89.5705337524;0.855120498663;;;;;;;;;;;;;;0;0;0;0;0;0;0;0;0;();(-2000.0, -2000.0);
12:28:45:259;12:28:45:248;1448408683.83;(0.7444270610809326, 0.7705251057942708);89.1667098999;0.826969164494;;;;;;;;;;;;;;0;0;0;0;0;0;0;0;0;();(-2000.0, -2000.0);
12:28:45:293;12:28:45:248;1448408683.83;(0.7444270610809326, 0.7705251057942708);89.1667098999;0.826969164494;;;;;;;;;;;;;;0;0;0;0;0;0;0;0;0;();(-2000.0, -2000.0);
12:28:45:309;12:28:45:248;1448408683.83;(0.7444270610809326, 0.7705251057942708);89.1667098999;0.826969164494;;;;;;;;;;;;;;0;0;0;0;0;0;0;0;0;();(-2000.0, -2000.0);
12:28:45:326;12:28:45:309;1448408683.86;(0.7421513080596924, 0.7741565068562826);89.5393600464;0.918299225974;;;;;;;;;;;;;;0;0;0;0;0;0;0;0;0;();(-2000.0, -2000.0);
12:28:45:343;12:28:45:309;1448408683.86;(0.7421513080596924, 0.7741565068562826);89.5393600464;0.918299225974;;;;;;;;;;;;;;0;0;0;0;0;0;0;0;0;();(-2000.0, -2000.0);
12:28:45:359;12:28:45:309;1448408683.86;(0.7421513080596924, 0.7741565068562826);89.5393600464;0.918299225974;;;;;;;;;;;;;;0;0;0;0;0;0;0;0;0;();(-2000.0, -2000.0);
12:28:45:393;12:28:45:379;1448408683.93;(0.7414041519165039, 0.7774878184000651);88.430519104;0.880684781996;;;;;;;;;;;;;;0;0;0;0;0;0;0;0;0;();(-2000.0, -2000.0);
12:28:45:409;12:28:45:379;1448408683.93;(0.7414041519165039, 0.7774878184000651);88.430519104;0.880684781996;;;;;;;;;;;;;;0;0;0;0;0;0;0;0;0;();(-2000.0, -2000.0);
12:28:45:426;12:28:45:379;1448408683.93;(0.7414041519165039, 0.7774878184000651);88.430519104;0.880684781996;;;;;;;;;;;;;;0;0;0;0;0;0;0;0;0;();(-2000.0, -2000.0);
12:28:45:442;12:28:45:379;1448408683.93;(0.7414041519165039, 0.7774878184000651);88.430519104;0.880684781996;;;;;;;;;;;;;;0;0;0;0;0;0;0;0;0;();(-2000.0, -2000.0);
12:28:45:460;12:28:45:448;1448408684.0;(0.7284931182861328, 0.7815617455376519);87.1618499756;0.797037869231;;;;;;;;;;;;;;0;0;0;0;0;0;0;0;0;();(-2000.0, -2000.0);
12:28:45:493;12:28:45:448;1448408684.0;(0.7284931182861328, 0.7815617455376519);87.1618499756;0.797037869231;;;;;;;;;;;;;;0;0;0;0;0;0;0;0;0;();(-2000.0, -2000.0);
12:28:45:509;12:28:45:448;1448408684.0;(0.7284931182861328, 0.7815617455376519);87.1618499756;0.797037869231;;;;;;;;;;;;;;0;0;0;0;0;0;0;0;0;();(-2000.0, -2000.0);
12:28:45:526;12:28:45:514;1448408684.06;(0.9295257568359375, 0.5914307064480252);21.6646213531;0.854089695082;;;;;;;;;;;;;;0;0;0;0;0;0;0;0;0;();(-2000.0, -2000.0);
12:28:45:543;12:28:45:514;1448408684.06;(0.9295257568359375, 0.5914307064480252);21.6646213531;0.854089695082;;;;;;;;;;;;;;0;0;0;0;0;0;0;0;0;();(-2000.0, -2000.0);
12:28:45:560;12:28:45:514;1448408684.06;(0.9295257568359375, 0.5914307064480252);21.6646213531;0.854089695082;;;;;;;;;;;;;;0;0;0;0;0;0;0;0;0;();(-2000.0, -2000.0);
12:28:45:593;12:28:45:575;1448408684.13;(0, 0);0;0;;;;;;;;;;;;;;0;0;0;0;0;0;0;0;0;();(-2000.0, -2000.0);
12:28:45:609;12:28:45:575;1448408684.13;(0, 0);0;0;;;;;;;;;;;;;;0;0;0;0;0;0;0;0;0;();(-2000.0, -2000.0);
12:28:45:626;12:28:45:575;1448408684.13;(0, 0);0;0;;;;;;;;;;;;;;0;0;0;0;0;0;0;0;0;();(-2000.0, -2000.0);
12:28:45:643;12:28:45:642;1448408684.16;(0, 0);0;0;;;;;;;;;;;;;;0;0;0;0;0;0;0;0;0;();(-2000.0, -2000.0);
12:28:45:659;12:28:45:643;1448408684.2;(0.7534204959869385, 0.7860141542222765);134.584899902;0.645852347354;;;;;;;;;;;;;;0;0;0;0;0;0;0;0;0;();(-2000.0, -2000.0);
12:28:45:676;12:28:45:643;1448408684.2;(0.7534204959869385, 0.7860141542222765);134.584899902;0.645852347354;;;;;;;;;;;;;;0;0;0;0;0;0;0;0;0;();(-2000.0, -2000.0);
12:28:45:709;12:28:45:643;1448408684.2;(0.7534204959869385, 0.7860141542222765);134.584899902;0.645852347354;;;;;;;;;;;;;;0;0;0;0;0;0;0;0;0;();(-2000.0, -2000.0);
12:28:45:726;12:28:45:715;1448408684.3;(0.7176795482635498, 0.7979822794596354);88.9757843018;0.989421451002;;;;;;;;;;;;;;0;0;0;0;0;0;0;0;0;();(-2000.0, -2000.0);
12:28:45:743;12:28:45:715;1448408684.3;(0.7176795482635498, 0.7979822794596354);88.9757843018;0.989421451002;;;;;;;;;;;;;;0;0;0;0;0;0;0;0;0;();(-2000.0, -2000.0);
12:28:45:759;12:28:45:715;1448408684.3;(0.7176795482635498, 0.7979822794596354);88.9757843018;0.989421451002;;;;;;;;;;;;;;0;0;0;0;0;0;0;0;0;();(-2000.0, -2000.0);
12:28:45:793;12:28:45:774;1448408684.36;(0.7178601264953614, 0.7982278399997287);89.7942886353;1.0;;;;;;;;;;;;;;0;0;0;0;0;0;0;0;0;();(-2000.0, -2000.0);
12:28:45:809;12:28:45:774;1448408684.36;(0.7178601264953614, 0.7982278399997287);89.7942886353;1.0;;;;;;;;;;;;;;0;0;0;0;0;0;0;0;0;();(-2000.0, -2000.0);
12:28:45:826;12:28:45:774;1448408684.36;(0.7178601264953614, 0.7982278399997287);89.7942886353;1.0;;;;;;;;;;;;;;0;0;0;0;0;0;0;0;0;();(-2000.0, -2000.0);
12:28:45:843;12:28:45:841;1448408684.4;(0.7177978992462158, 0.7981574058532714);89.834815979;1.0;;;;;;;;;;;;;;0;0;0;0;0;0;0;0;0;();(-2000.0, -2000.0);
12:28:45:859;12:28:45:843;1448408684.43;(0.7179548740386963, 0.798377799987793);90.1279144287;0.984818664349;;;;;;;;;;;;;;0;0;0;0;0;0;0;0;0;();(-2000.0, -2000.0);
12:28:45:893;12:28:45:843;1448408684.43;(0.7179548740386963, 0.798377799987793);90.1279144287;0.984818664349;;;;;;;;;;;;;;0;0;0;0;0;0;0;0;0;();(-2000.0, -2000.0);
12:28:45:910;12:28:45:907;1448408684.5;(0.7180571556091309, 0.7981566429138184);90.0216140747;0.967691633076;;;;;;;;;;;;;;0;0;0;0;0;0;0;0;0;();(-2000.0, -2000.0);
12:28:45:926;12:28:45:907;1448408684.5;(0.7180571556091309, 0.7981566429138184);90.0216140747;0.967691633076;;;;;;;;;;;;;;0;0;0;0;0;0;0;0;0;();(-2000.0, -2000.0);
12:28:45:943;12:28:45:907;1448408684.5;(0.7180571556091309, 0.7981566429138184);90.0216140747;0.967691633076;;;;;;;;;;;;;;0;0;0;0;0;0;0;0;0;();(-2000.0, -2000.0);
12:28:45:960;12:28:45:907;1448408684.5;(0.7180571556091309, 0.7981566429138184);90.0216140747;0.967691633076;;;;;;;;;;;;;;0;0;0;0;0;0;0;0;0;();(-2000.0, -2000.0);
12:28:45:993;12:28:45:976;1448408684.56;(0.7180746555328369, 0.7986484209696452);90.1343307495;0.965351711968;;;;;;;;;;;;;;0;0;0;0;0;0;0;0;0;();(-2000.0, -2000.0);
12:28:46:010;12:28:45:976;1448408684.56;(0.7180746555328369, 0.7986484209696452);90.1343307495;0.965351711968;;;;;;;;;;;;;;0;0;0;0;0;0;0;0;0;();(-2000.0, -2000.0);
12:28:46:027;12:28:45:976;1448408684.56;(0.7180746555328369, 0.7986484209696452);90.1343307495;0.965351711968;;;;;;;;;;;;;;0;0;0;0;0;0;0;0;0;();(-2000.0, -2000.0);
12:28:46:043;12:28:46:041;1448408684.6;(0.717965841293335, 0.7985786861843533);90.3298873901;0.951527404711;;;;;;;;;;;;;;0;0;0;0;0;0;0;0;0;();(-2000.0, -2000.0);
12:28:46:060;12:28:46:041;1448408684.6;(0.717965841293335, 0.7985786861843533);90.3298873901;0.951527404711;;;;;;;;;;;;;;0;0;0;0;0;0;0;0;0;();(-2000.0, -2000.0);
12:28:46:076;12:28:46:041;1448408684.6;(0.717965841293335, 0.7985786861843533);90.3298873901;0.951527404711;;;;;;;;;;;;;;0;0;0;0;0;0;0;0;0;();(-2000.0, -2000.0);
12:28:46:111;12:28:46:107;1448408684.63;(0.7179548740386963, 0.7990026050143771);90.0824966431;0.913177676605;;;;;;;;;;;;;;0;0;0;0;0;0;0;0;0;();(-2000.0, -2000.0);
12:28:46:127;12:28:46:109;1448408684.66;(0.7178403377532959, 0.7992498927646213);90.3231430054;0.99498056616;;;;;;;;;;;;;;0;0;0;0;0;0;0;0;0;();(-2000.0, -2000.0);
12:28:46:144;12:28:46:109;1448408684.66;(0.7178403377532959, 0.7992498927646213);90.3231430054;0.99498056616;;;;;;;;;;;;;;0;0;0;0;0;0;0;0;0;();(-2000.0, -2000.0);
12:28:46:160;12:28:46:109;1448408684.66;(0.7178403377532959, 0.7992498927646213);90.3231430054;0.99498056616;;;;;;;;;;;;;;0;0;0;0;0;0;0;0;0;();(-2000.0, -2000.0);
12:28:46:177;12:28:46:176;1448408684.73;(0.7173097133636475, 0.7992544809977213);89.9382247925;0.968882034795;;;;;;;;;;;;;;0;0;0;0;0;0;0;0;0;();(-2000.0, -2000.0);
12:28:46:210;12:28:46:176;1448408684.73;(0.7173097133636475, 0.7992544809977213);89.9382247925;0.968882034795;;;;;;;;;;;;;;0;0;0;0;0;0;0;0;0;();(-2000.0, -2000.0);
12:28:46:226;12:28:46:176;1448408684.73;(0.7173097133636475, 0.7992544809977213);89.9382247925;0.968882034795;;;;;;;;;;;;;;0;0;0;0;0;0;0;0;0;();(-2000.0, -2000.0);
12:28:46:243;12:28:46:239;1448408684.8;(0, 0);0;0;;;;;;;;;;;;;;0;0;0;0;0;0;0;0;0;();(-2000.0, -2000.0);
12:28:46:260;12:28:46:239;1448408684.8;(0, 0);0;0;;;;;;;;;;;;;;0;0;0;0;0;0;0;0;0;();(-2000.0, -2000.0);
12:28:46:277;12:28:46:239;1448408684.8;(0, 0);0;0;;;;;;;;;;;;;;0;0;0;0;0;0;0;0;0;();(-2000.0, -2000.0);
12:28:46:310;12:28:46:306;1448408684.86;(0.6959280014038086, 0.8091908031039767);91.1621704102;0.888653216211;;;;;;;;;;;;;;0;0;0;0;0;0;0;0;0;();(-2000.0, -2000.0);
12:28:46:327;12:28:46:306;1448408684.86;(0.6959280014038086, 0.8091908031039767);91.1621704102;0.888653216211;;;;;;;;;;;;;;0;0;0;0;0;0;0;0;0;();(-2000.0, -2000.0);
12:28:46:344;12:28:46:306;1448408684.86;(0.6959280014038086, 0.8091908031039767);91.1621704102;0.888653216211;;;;;;;;;;;;;;0;0;0;0;0;0;0;0;0;();(-2000.0, -2000.0);
12:28:46:360;12:28:46:306;1448408684.86;(0.6959280014038086, 0.8091908031039767);91.1621704102;0.888653216211;;;;;;;;;;;;;;0;0;0;0;0;0;0;0;0;();(-2000.0, -2000.0);
12:28:46:377;12:28:46:376;1448408684.93;(0.6959296226501465, 0.8090272161695693);90.8064193726;1.0;;;;;;;;;;;;;;0;0;0;0;0;0;0;0;0;();(-2000.0, -2000.0);
12:28:46:410;12:28:46:376;1448408684.93;(0.6959296226501465, 0.8090272161695693);90.8064193726;1.0;;;;;;;;;;;;;;0;0;0;0;0;0;0;0;0;();(-2000.0, -2000.0);
12:28:46:427;12:28:46:376;1448408684.93;(0.6959296226501465, 0.8090272161695693);90.8064193726;1.0;;;;;;;;;;;;;;0;0;0;0;0;0;0;0;0;();(-2000.0, -2000.0);
12:28:46:443;12:28:46:439;1448408685.0;(0.6955231666564942, 0.8084329605102539);90.2224578857;0.973483537456;;;;;;;;;;;;;;0;0;0;0;0;0;0;0;0;();(-2000.0, -2000.0);
12:28:46:460;12:28:46:439;1448408685.0;(0.6955231666564942, 0.8084329605102539);90.2224578857;0.973483537456;;;;;;;;;;;;;;0;0;0;0;0;0;0;0;0;();(-2000.0, -2000.0);
12:28:46:477;12:28:46:439;1448408685.0;(0.6955231666564942, 0.8084329605102539);90.2224578857;0.973483537456;;;;;;;;;;;;;;0;0;0;0;0;0;0;0;0;();(-2000.0, -2000.0);
12:28:46:510;12:28:46:507;1448408685.06;(0, 0);0;0;;;;;;;;;;;;;;0;0;0;0;0;0;0;0;0;();(-2000.0, -2000.0);
12:28:46:527;12:28:46:507;1448408685.06;(0, 0);0;0;;;;;;;;;;;;;;0;0;0;0;0;0;0;0;0;();(-2000.0, -2000.0);
12:28:46:544;12:28:46:507;1448408685.06;(0, 0);0;0;;;;;;;;;;;;;;0;0;0;0;0;0;0;0;0;();(-2000.0, -2000.0);
12:28:46:561;12:28:46:507;1448408685.06;(0, 0);0;0;;;;;;;;;;;;;;0;0;0;0;0;0;0;0;0;();(-2000.0, -2000.0);
12:28:46:577;12:28:46:570;1448408685.1;(0, 0);0;0;;;;;;;;;;;;;;0;0;0;0;0;0;0;0;0;();(-2000.0, -2000.0);
12:28:46:610;12:28:46:570;1448408685.1;(0, 0);0;0;;;;;;;;;;;;;;0;0;0;0;0;0;0;0;0;();(-2000.0, -2000.0);
12:28:46:627;12:28:46:570;1448408685.1;(0, 0);0;0;;;;;;;;;;;;;;0;0;0;0;0;0;0;0;0;();(-2000.0, -2000.0);
12:28:46:644;12:28:46:640;1448408685.2;(0.7292947769165039, 0.7892374674479167);88.5047607422;0.949368402115;;;;;;;;;;;;;;0;0;0;0;0;0;0;0;0;();(-2000.0, -2000.0);
12:28:46:660;12:28:46:640;1448408685.2;(0.7292947769165039, 0.7892374674479167);88.5047607422;0.949368402115;;;;;;;;;;;;;;0;0;0;0;0;0;0;0;0;();(-2000.0, -2000.0);
12:28:46:677;12:28:46:640;1448408685.2;(0.7292947769165039, 0.7892374674479167);88.5047607422;0.949368402115;;;;;;;;;;;;;;0;0;0;0;0;0;0;0;0;();(-2000.0, -2000.0);
12:28:46:710;12:28:46:708;1448408685.26;(0.7301586151123047, 0.78934326171875);89.3291854858;0.984383295611;;;;;;;;;;;;;;0;0;0;0;0;0;0;0;0;();(-2000.0, -2000.0);
12:28:46:727;12:28:46:708;1448408685.26;(0.7301586151123047, 0.78934326171875);89.3291854858;0.984383295611;;;;;;;;;;;;;;0;0;0;0;0;0;0;0;0;();(-2000.0, -2000.0);
12:28:46:744;12:28:46:708;1448408685.26;(0.7301586151123047, 0.78934326171875);89.3291854858;0.984383295611;;;;;;;;;;;;;;0;0;0;0;0;0;0;0;0;();(-2000.0, -2000.0);
12:28:46:761;12:28:46:708;1448408685.26;(0.7301586151123047, 0.78934326171875);89.3291854858;0.984383295611;;;;;;;;;;;;;;0;0;0;0;0;0;0;0;0;();(-2000.0, -2000.0);
12:28:46:777;12:28:46:776;1448408685.33;(0.7308657169342041, 0.7889909532335069);88.9636383057;1.0;;;;;;;;;;;;;;0;0;0;0;0;0;0;0;0;();(-2000.0, -2000.0);
12:28:46:810;12:28:46:776;1448408685.33;(0.7308657169342041, 0.7889909532335069);88.9636383057;1.0;;;;;;;;;;;;;;0;0;0;0;0;0;0;0;0;();(-2000.0, -2000.0);
12:28:46:827;12:28:46:776;1448408685.33;(0.7308657169342041, 0.7889909532335069);88.9636383057;1.0;;;;;;;;;;;;;;0;0;0;0;0;0;0;0;0;();(-2000.0, -2000.0);
12:28:46:844;12:28:46:839;1448408685.4;(0.730278730392456, 0.7899427202012803);88.303855896;0.985978624598;;;;;;;;;;;;;;0;0;0;0;0;0;0;0;0;();(-2000.0, -2000.0);
12:28:46:860;12:28:46:839;1448408685.4;(0.730278730392456, 0.7899427202012803);88.303855896;0.985978624598;;;;;;;;;;;;;;0;0;0;0;0;0;0;0;0;();(-2000.0, -2000.0);
12:28:46:877;12:28:46:839;1448408685.4;(0.730278730392456, 0.7899427202012803);88.303855896;0.985978624598;;;;;;;;;;;;;;0;0;0;0;0;0;0;0;0;();(-2000.0, -2000.0);
12:28:46:910;12:28:46:904;1448408685.46;(0.7291610240936279, 0.7909607781304253);87.4983062744;0.965457720641;;;;;;;;;;;;;;0;0;0;0;0;0;0;0;0;();(-2000.0, -2000.0);
12:28:46:927;12:28:46:904;1448408685.46;(0.7291610240936279, 0.7909607781304253);87.4983062744;0.965457720641;;;;;;;;;;;;;;0;0;0;0;0;0;0;0;0;();(-2000.0, -2000.0);
12:28:46:944;12:28:46:904;1448408685.46;(0.7291610240936279, 0.7909607781304253);87.4983062744;0.965457720641;;;;;;;;;;;;;;0;0;0;0;0;0;0;0;0;();(-2000.0, -2000.0);
12:28:46:961;12:28:46:904;1448408685.46;(0.7291610240936279, 0.7909607781304253);87.4983062744;0.965457720641;;;;;;;;;;;;;;0;0;0;0;0;0;0;0;0;();(-2000.0, -2000.0);
12:28:46:978;12:28:46:973;1448408685.53;(0.7283115863800049, 0.7920750512017144);87.0190124512;0.904034210231;;;;;;;;;;;;;;0;0;0;0;0;0;0;0;0;();(-2000.0, -2000.0);
12:28:47:011;12:28:46:973;1448408685.53;(0.7283115863800049, 0.7920750512017144);87.0190124512;0.904034210231;;;;;;;;;;;;;;0;0;0;0;0;0;0;0;0;();(-2000.0, -2000.0);
12:28:47:027;12:28:46:973;1448408685.53;(0.7283115863800049, 0.7920750512017144);87.0190124512;0.904034210231;;;;;;;;;;;;;;0;0;0;0;0;0;0;0;0;();(-2000.0, -2000.0);
12:28:47:044;12:28:47:039;1448408685.6;(0.7267350673675537, 0.7933540768093533);86.8851089478;0.918012501869;;;;;;;;;;;;;;0;0;0;0;0;0;0;0;0;();(-2000.0, -2000.0);
12:28:47:060;12:28:47:039;1448408685.6;(0.7267350673675537, 0.7933540768093533);86.8851089478;0.918012501869;;;;;;;;;;;;;;0;0;0;0;0;0;0;0;0;();(-2000.0, -2000.0);
12:28:47:078;12:28:47:039;1448408685.6;(0.7267350673675537, 0.7933540768093533);86.8851089478;0.918012501869;;;;;;;;;;;;;;0;0;0;0;0;0;0;0;0;();(-2000.0, -2000.0);
12:28:47:111;12:28:47:103;1448408685.66;(0.7293066024780274, 0.7901196797688802);87.4091186523;0.848853304928;;;;;;;;;;;;;;0;0;0;0;0;0;0;0;0;();(-2000.0, -2000.0);
12:28:47:127;12:28:47:103;1448408685.66;(0.7293066024780274, 0.7901196797688802);87.4091186523;0.848853304928;;;;;;;;;;;;;;0;0;0;0;0;0;0;0;0;();(-2000.0, -2000.0);
12:28:47:144;12:28:47:103;1448408685.66;(0.7293066024780274, 0.7901196797688802);87.4091186523;0.848853304928;;;;;;;;;;;;;;0;0;0;0;0;0;0;0;0;();(-2000.0, -2000.0);
12:28:47:161;12:28:47:103;1448408685.66;(0.7293066024780274, 0.7901196797688802);87.4091186523;0.848853304928;;;;;;;;;;;;;;0;0;0;0;0;0;0;0;0;();(-2000.0, -2000.0);
12:28:47:177;12:28:47:174;1448408685.73;(0, 0);0;0;;;;;;;;;;;;;;0;0;0;0;0;0;0;0;0;();(-2000.0, -2000.0);
12:28:47:211;12:28:47:174;1448408685.73;(0, 0);0;0;;;;;;;;;;;;;;0;0;0;0;0;0;0;0;0;();(-2000.0, -2000.0);
12:28:47:227;12:28:47:174;1448408685.73;(0, 0);0;0;;;;;;;;;;;;;;0;0;0;0;0;0;0;0;0;();(-2000.0, -2000.0);
12:28:47:244;12:28:47:236;1448408685.8;(0.7280458450317383, 0.7889049106174045);87.2116394043;0.968321382805;;;;;;;;;;;;;;0;0;0;0;0;0;0;0;0;();(-2000.0, -2000.0);
12:28:47:261;12:28:47:236;1448408685.8;(0.7280458450317383, 0.7889049106174045);87.2116394043;0.968321382805;;;;;;;;;;;;;;0;0;0;0;0;0;0;0;0;();(-2000.0, -2000.0);
12:28:47:277;12:28:47:236;1448408685.8;(0.7280458450317383, 0.7889049106174045);87.2116394043;0.968321382805;;;;;;;;;;;;;;0;0;0;0;0;0;0;0;0;();(-2000.0, -2000.0);
12:28:47:310;12:28:47:304;1448408685.86;(0.726927375793457, 0.7894865459865994);86.8732528687;0.993620545741;;;;;;;;;;;;;;0;0;0;0;0;0;0;0;0;();(-2000.0, -2000.0);
12:28:47:328;12:28:47:304;1448408685.86;(0.726927375793457, 0.7894865459865994);86.8732528687;0.993620545741;;;;;;;;;;;;;;0;0;0;0;0;0;0;0;0;();(-2000.0, -2000.0);
12:28:47:344;12:28:47:304;1448408685.86;(0.726927375793457, 0.7894865459865994);86.8732528687;0.993620545741;;;;;;;;;;;;;;0;0;0;0;0;0;0;0;0;();(-2000.0, -2000.0);
12:28:47:361;12:28:47:304;1448408685.86;(0.726927375793457, 0.7894865459865994);86.8732528687;0.993620545741;;;;;;;;;;;;;;0;0;0;0;0;0;0;0;0;();(-2000.0, -2000.0);
12:28:47:378;12:28:47:367;1448408685.93;(0.7266343593597412, 0.7886956956651476);87.0577926636;1.0;;;;;;;;;;;;;;0;0;0;0;0;0;0;0;0;();(-2000.0, -2000.0);
12:28:47:411;12:28:47:367;1448408685.93;(0.7266343593597412, 0.7886956956651476);87.0577926636;1.0;;;;;;;;;;;;;;0;0;0;0;0;0;0;0;0;();(-2000.0, -2000.0);
12:28:47:427;12:28:47:367;1448408685.93;(0.7266343593597412, 0.7886956956651476);87.0577926636;1.0;;;;;;;;;;;;;;0;0;0;0;0;0;0;0;0;();(-2000.0, -2000.0);
12:28:47:444;12:28:47:435;1448408686.0;(0.7260232448577881, 0.7892287996080187);86.5181045532;0.969086991192;;;;;;;;;;;;;;0;0;0;0;0;0;0;0;0;();(-2000.0, -2000.0);
12:28:47:461;12:28:47:435;1448408686.0;(0.7260232448577881, 0.7892287996080187);86.5181045532;0.969086991192;;;;;;;;;;;;;;0;0;0;0;0;0;0;0;0;();(-2000.0, -2000.0);
12:28:47:478;12:28:47:435;1448408686.0;(0.7260232448577881, 0.7892287996080187);86.5181045532;0.969086991192;;;;;;;;;;;;;;0;0;0;0;0;0;0;0;0;();(-2000.0, -2000.0);
12:28:47:511;12:28:47:503;1448408686.06;(0.7252079486846924, 0.7896522521972656);86.731842041;1.0;;;;;;;;;;;;;;0;0;0;0;0;0;0;0;0;();(-2000.0, -2000.0);
12:28:47:528;12:28:47:503;1448408686.06;(0.7252079486846924, 0.7896522521972656);86.731842041;1.0;;;;;;;;;;;;;;0;0;0;0;0;0;0;0;0;();(-2000.0, -2000.0);
12:28:47:544;12:28:47:503;1448408686.06;(0.7252079486846924, 0.7896522521972656);86.731842041;1.0;;;;;;;;;;;;;;0;0;0;0;0;0;0;0;0;();(-2000.0, -2000.0);
12:28:47:561;12:28:47:503;1448408686.06;(0.7252079486846924, 0.7896522521972656);86.731842041;1.0;;;;;;;;;;;;;;0;0;0;0;0;0;0;0;0;();(-2000.0, -2000.0);
12:28:47:578;12:28:47:567;1448408686.13;(0.7179525375366211, 0.7885887781778971);86.8381118774;0.957279339934;;;;;;;;;;;;;;0;0;0;0;0;0;0;0;0;();(-2000.0, -2000.0);
12:28:47:611;12:28:47:567;1448408686.13;(0.7179525375366211, 0.7885887781778971);86.8381118774;0.957279339934;;;;;;;;;;;;;;0;0;0;0;0;0;0;0;0;();(-2000.0, -2000.0);
12:28:47:628;12:28:47:567;1448408686.13;(0.7179525375366211, 0.7885887781778971);86.8381118774;0.957279339934;;;;;;;;;;;;;;0;0;0;0;0;0;0;0;0;();(-2000.0, -2000.0);
12:28:47:644;12:28:47:635;1448408686.2;(0.48783292770385744, 0.5691146850585938);21.5373458862;0.774280310656;;;;;;;;;;;;;;0;0;0;0;0;0;0;0;0;();(-2000.0, -2000.0);
12:28:47:661;12:28:47:635;1448408686.2;(0.48783292770385744, 0.5691146850585938);21.5373458862;0.774280310656;;;;;;;;;;;;;;0;0;0;0;0;0;0;0;0;();(-2000.0, -2000.0);
12:28:47:678;12:28:47:635;1448408686.2;(0.48783292770385744, 0.5691146850585938);21.5373458862;0.774280310656;;;;;;;;;;;;;;0;0;0;0;0;0;0;0;0;();(-2000.0, -2000.0);
12:28:47:711;12:28:47:697;1448408686.23;(0, 0);0;0;;;;;;;;;;;;;;0;0;0;0;0;0;0;0;0;();(-2000.0, -2000.0);
12:28:47:728;12:28:47:697;1448408686.23;(0, 0);0;0;;;;;;;;;;;;;;0;0;0;0;0;0;0;0;0;();(-2000.0, -2000.0);
12:28:47:744;12:28:47:697;1448408686.23;(0, 0);0;0;;;;;;;;;;;;;;0;0;0;0;0;0;0;0;0;();(-2000.0, -2000.0);
12:28:47:762;12:28:47:697;1448408686.23;(0, 0);0;0;;;;;;;;;;;;;;0;0;0;0;0;0;0;0;0;();(-2000.0, -2000.0);
12:28:47:778;12:28:47:769;1448408686.33;(0, 0);0;0;;;;;;;;;;;;;;0;0;0;0;0;0;0;0;0;();(-2000.0, -2000.0);
12:28:47:811;12:28:47:769;1448408686.33;(0, 0);0;0;;;;;;;;;;;;;;0;0;0;0;0;0;0;0;0;();(-2000.0, -2000.0);
12:28:47:828;12:28:47:769;1448408686.33;(0, 0);0;0;;;;;;;;;;;;;;0;0;0;0;0;0;0;0;0;();(-2000.0, -2000.0);
12:28:47:845;12:28:47:835;1448408686.4;(0.6049710273742676, 0.6460517671373156);90.6955947876;0.609975774498;;;;;;;;;;;;;;0;0;0;0;0;0;0;0;0;();(-2000.0, -2000.0);
12:28:47:861;12:28:47:835;1448408686.4;(0.6049710273742676, 0.6460517671373156);90.6955947876;0.609975774498;;;;;;;;;;;;;;0;0;0;0;0;0;0;0;0;();(-2000.0, -2000.0);
12:28:47:878;12:28:47:835;1448408686.4;(0.6049710273742676, 0.6460517671373156);90.6955947876;0.609975774498;;;;;;;;;;;;;;0;0;0;0;0;0;0;0;0;();(-2000.0, -2000.0);
12:28:47:911;12:28:47:903;1448408686.43;(0.6076399326324463, 0.6389573838975695);86.4313278198;0.702125749061;;;;;;;;;;;;;;0;0;0;0;0;0;0;0;0;();(-2000.0, -2000.0);
12:28:47:928;12:28:47:903;1448408686.43;(0.6076399326324463, 0.6389573838975695);86.4313278198;0.702125749061;;;;;;;;;;;;;;0;0;0;0;0;0;0;0;0;();(-2000.0, -2000.0);
12:28:47:945;12:28:47:903;1448408686.43;(0.6076399326324463, 0.6389573838975695);86.4313278198;0.702125749061;;;;;;;;;;;;;;0;0;0;0;0;0;0;0;0;();(-2000.0, -2000.0);
12:28:47:961;12:28:47:903;1448408686.43;(0.6076399326324463, 0.6389573838975695);86.4313278198;0.702125749061;;;;;;;;;;;;;;0;0;0;0;0;0;0;0;0;();(-2000.0, -2000.0);
12:28:47:978;12:28:47:967;1448408686.5;(0.6148909568786621, 0.6471967697143555);88.8390045166;0.74816316624;;;;;;;;;;;;;;0;0;0;0;0;0;0;0;0;();(-2000.0, -2000.0);
12:28:48:012;12:28:47:967;1448408686.5;(0.6148909568786621, 0.6471967697143555);88.8390045166;0.74816316624;;;;;;;;;;;;;;0;0;0;0;0;0;0;0;0;();(-2000.0, -2000.0);
12:28:48:028;12:28:47:967;1448408686.5;(0.6148909568786621, 0.6471967697143555);88.8390045166;0.74816316624;;;;;;;;;;;;;;0;0;0;0;0;0;0;0;0;();(-2000.0, -2000.0);
12:28:48:045;12:28:48:032;1448408686.59;(0.6246054172515869, 0.6457441965738933);88.5071487427;0.789683980281;;;;;;;;;;;;;;0;0;0;0;0;0;0;0;0;();(-2000.0, -2000.0);
12:28:48:061;12:28:48:032;1448408686.59;(0.6246054172515869, 0.6457441965738933);88.5071487427;0.789683980281;;;;;;;;;;;;;;0;0;0;0;0;0;0;0;0;();(-2000.0, -2000.0);
12:28:48:079;12:28:48:032;1448408686.59;(0.6246054172515869, 0.6457441965738933);88.5071487427;0.789683980281;;;;;;;;;;;;;;0;0;0;0;0;0;0;0;0;();(-2000.0, -2000.0);
12:28:48:112;12:28:48:099;1448408686.64;(0.592414379119873, 0.6098096635606554);86.0835723877;0.615530511212;;;;;;;;;;;;;;0;0;0;0;0;0;0;0;0;();(-2000.0, -2000.0);
12:28:48:128;12:28:48:099;1448408686.64;(0.592414379119873, 0.6098096635606554);86.0835723877;0.615530511212;;;;;;;;;;;;;;0;0;0;0;0;0;0;0;0;();(-2000.0, -2000.0);
12:28:48:145;12:28:48:099;1448408686.64;(0.592414379119873, 0.6098096635606554);86.0835723877;0.615530511212;;;;;;;;;;;;;;0;0;0;0;0;0;0;0;0;();(-2000.0, -2000.0);
12:28:48:162;12:28:48:099;1448408686.64;(0.592414379119873, 0.6098096635606554);86.0835723877;0.615530511212;;;;;;;;;;;;;;0;0;0;0;0;0;0;0;0;();(-2000.0, -2000.0);
12:28:48:178;12:28:48:169;1448408686.73;(0.5998177528381348, 0.6233119328816732);87.9224090576;0.708755444548;;;;;;;;;;;;;;0;0;0;0;0;0;0;0;0;();(-2000.0, -2000.0);
12:28:48:212;12:28:48:169;1448408686.73;(0.5998177528381348, 0.6233119328816732);87.9224090576;0.708755444548;;;;;;;;;;;;;;0;0;0;0;0;0;0;0;0;();(-2000.0, -2000.0);
12:28:48:228;12:28:48:169;1448408686.73;(0.5998177528381348, 0.6233119328816732);87.9224090576;0.708755444548;;;;;;;;;;;;;;0;0;0;0;0;0;0;0;0;();(-2000.0, -2000.0);
12:28:48:245;12:28:48:169;1448408686.73;(0.5998177528381348, 0.6233119328816732);87.9224090576;0.708755444548;;;;;;;;;;;;;;0;0;0;0;0;0;0;0;0;();(-2000.0, -2000.0);
12:28:48:262;12:28:48:169;1448408686.73;(0.5998177528381348, 0.6233119328816732);87.9224090576;0.708755444548;;;;;;;;;;;;;;0;0;0;0;0;0;0;0;0;();(-2000.0, -2000.0);
12:28:48:278;12:28:48:169;1448408686.73;(0.5998177528381348, 0.6233119328816732);87.9224090576;0.708755444548;;;;;;;;;;;;;;0;0;0;0;0;0;0;0;0;();(-2000.0, -2000.0);
12:28:48:312;12:28:48:299;1448408686.83;(0.6037943840026856, 0.6225937737358941);88.5036468506;0.657351347093;;;;;;;;;;;;;;0;0;0;0;0;0;0;0;0;();(-2000.0, -2000.0);
12:28:48:328;12:28:48:299;1448408686.83;(0.6037943840026856, 0.6225937737358941);88.5036468506;0.657351347093;;;;;;;;;;;;;;0;0;0;0;0;0;0;0;0;();(-2000.0, -2000.0);
12:28:48:345;12:28:48:299;1448408686.83;(0.6037943840026856, 0.6225937737358941);88.5036468506;0.657351347093;;;;;;;;;;;;;;0;0;0;0;0;0;0;0;0;();(-2000.0, -2000.0);
12:28:48:361;12:28:48:299;1448408686.83;(0.6037943840026856, 0.6225937737358941);88.5036468506;0.657351347093;;;;;;;;;;;;;;0;0;0;0;0;0;0;0;0;();(-2000.0, -2000.0);
12:28:48:378;12:28:48:366;1448408686.91;(0, 0);0;0;;;;;;;;;;;;;;0;0;0;0;0;0;0;0;0;();(-2000.0, -2000.0);
12:28:48:412;12:28:48:366;1448408686.91;(0, 0);0;0;;;;;;;;;;;;;;0;0;0;0;0;0;0;0;0;();(-2000.0, -2000.0);
12:28:48:429;12:28:48:366;1448408686.91;(0, 0);0;0;;;;;;;;;;;;;;0;0;0;0;0;0;0;0;0;();(-2000.0, -2000.0);
12:28:48:446;12:28:48:435;1448408687.0;(0, 0);0;0;;;;;;;;;;;;;;0;0;0;0;0;0;0;0;0;();(-2000.0, -2000.0);
12:28:48:462;12:28:48:435;1448408687.0;(0, 0);0;0;;;;;;;;;;;;;;0;0;0;0;0;0;0;0;0;();(-2000.0, -2000.0);
12:28:48:478;12:28:48:435;1448408687.0;(0, 0);0;0;;;;;;;;;;;;;;0;0;0;0;0;0;0;0;0;();(-2000.0, -2000.0);
12:28:48:512;12:28:48:499;1448408687.06;(0.7450201988220215, 0.7566915512084961);75.9447250366;0.668040623669;;;;;;;;;;;;;;0;0;0;0;0;0;0;0;0;();(-2000.0, -2000.0);
12:28:48:528;12:28:48:499;1448408687.06;(0.7450201988220215, 0.7566915512084961);75.9447250366;0.668040623669;;;;;;;;;;;;;;0;0;0;0;0;0;0;0;0;();(-2000.0, -2000.0);
12:28:48:546;12:28:48:499;1448408687.06;(0.7450201988220215, 0.7566915512084961);75.9447250366;0.668040623669;;;;;;;;;;;;;;0;0;0;0;0;0;0;0;0;();(-2000.0, -2000.0);
12:28:48:562;12:28:48:499;1448408687.06;(0.7450201988220215, 0.7566915512084961);75.9447250366;0.668040623669;;;;;;;;;;;;;;0;0;0;0;0;0;0;0;0;();(-2000.0, -2000.0);
12:28:48:579;12:28:48:564;1448408687.1;(0.7413147449493408, 0.7667136086357964);89.3702850342;0.916280556321;;;;;;;;;;;;;;0;0;0;0;0;0;0;0;0;();(-2000.0, -2000.0);
12:28:48:612;12:28:48:564;1448408687.1;(0.7413147449493408, 0.7667136086357964);89.3702850342;0.916280556321;;;;;;;;;;;;;;0;0;0;0;0;0;0;0;0;();(-2000.0, -2000.0);
12:28:48:628;12:28:48:564;1448408687.1;(0.7413147449493408, 0.7667136086357964);89.3702850342;0.916280556321;;;;;;;;;;;;;;0;0;0;0;0;0;0;0;0;();(-2000.0, -2000.0);
12:28:48:646;12:28:48:635;1448408687.2;(0.7312676429748535, 0.7699814054701064);90.7039108276;0.946339282703;;;;;;;;;;;;;;0;0;0;0;0;0;0;0;0;();(-2000.0, -2000.0);
12:28:48:663;12:28:48:635;1448408687.2;(0.7312676429748535, 0.7699814054701064);90.7039108276;0.946339282703;;;;;;;;;;;;;;0;0;0;0;0;0;0;0;0;();(-2000.0, -2000.0);
12:28:48:679;12:28:48:635;1448408687.2;(0.7312676429748535, 0.7699814054701064);90.7039108276;0.946339282703;;;;;;;;;;;;;;0;0;0;0;0;0;0;0;0;();(-2000.0, -2000.0);
12:28:48:712;12:28:48:694;1448408687.26;(0, 0);0;0;;;;;;;;;;;;;;0;0;0;0;0;0;0;0;0;();(-2000.0, -2000.0);
12:28:48:728;12:28:48:694;1448408687.26;(0, 0);0;0;;;;;;;;;;;;;;0;0;0;0;0;0;0;0;0;();(-2000.0, -2000.0);
12:28:48:746;12:28:48:694;1448408687.26;(0, 0);0;0;;;;;;;;;;;;;;0;0;0;0;0;0;0;0;0;();(-2000.0, -2000.0);
12:28:48:762;12:28:48:694;1448408687.26;(0, 0);0;0;;;;;;;;;;;;;;0;0;0;0;0;0;0;0;0;();(-2000.0, -2000.0);
12:28:48:778;12:28:48:761;1448408687.3;(0.7236201286315918, 0.775237931145562);91.1181640625;0.670334566659;;;;;;;;;;;;;;0;0;0;0;0;0;0;0;0;();(-2000.0, -2000.0);
12:28:48:812;12:28:48:761;1448408687.3;(0.7236201286315918, 0.775237931145562);91.1181640625;0.670334566659;;;;;;;;;;;;;;0;0;0;0;0;0;0;0;0;();(-2000.0, -2000.0);
12:28:48:829;12:28:48:761;1448408687.3;(0.7236201286315918, 0.775237931145562);91.1181640625;0.670334566659;;;;;;;;;;;;;;0;0;0;0;0;0;0;0;0;();(-2000.0, -2000.0);
12:28:48:846;12:28:48:835;1448408687.36;(0.7192191123962403, 0.7753509521484375);90.5415725708;0.916028526741;;;;;;;;;;;;;;0;0;0;0;0;0;0;0;0;();(-2000.0, -2000.0);
12:28:48:862;12:28:48:835;1448408687.36;(0.7192191123962403, 0.7753509521484375);90.5415725708;0.916028526741;;;;;;;;;;;;;;0;0;0;0;0;0;0;0;0;();(-2000.0, -2000.0);
12:28:48:879;12:28:48:835;1448408687.36;(0.7192191123962403, 0.7753509521484375);90.5415725708;0.916028526741;;;;;;;;;;;;;;0;0;0;0;0;0;0;0;0;();(-2000.0, -2000.0);
12:28:48:913;12:28:48:896;1448408687.46;(0.7163081645965577, 0.778371556599935);87.5492858887;0.635981886478;;;;;;;;;;;;;;0;0;0;0;0;0;0;0;0;();(-2000.0, -2000.0);
12:28:48:929;12:28:48:896;1448408687.46;(0.7163081645965577, 0.778371556599935);87.5492858887;0.635981886478;;;;;;;;;;;;;;0;0;0;0;0;0;0;0;0;();(-2000.0, -2000.0);
12:28:48:946;12:28:48:896;1448408687.46;(0.7163081645965577, 0.778371556599935);87.5492858887;0.635981886478;;;;;;;;;;;;;;0;0;0;0;0;0;0;0;0;();(-2000.0, -2000.0);
12:28:48:962;12:28:48:896;1448408687.46;(0.7163081645965577, 0.778371556599935);87.5492858887;0.635981886478;;;;;;;;;;;;;;0;0;0;0;0;0;0;0;0;();(-2000.0, -2000.0);
12:28:48:979;12:28:48:967;1448408687.53;(0.7160313606262207, 0.7865351147121853);90.4156341553;0.929056496077;;;;;;;;;;;;;;0;0;0;0;0;0;0;0;0;();(-2000.0, -2000.0);
12:28:49:013;12:28:48:967;1448408687.53;(0.7160313606262207, 0.7865351147121853);90.4156341553;0.929056496077;;;;;;;;;;;;;;0;0;0;0;0;0;0;0;0;();(-2000.0, -2000.0);
12:28:49:028;12:28:49:027;1448408687.6;(0.7151431560516357, 0.7874626371595594);90.4946899414;0.977653582572;;;;;;;;;;;;;;0;0;0;0;0;0;0;0;0;();(-2000.0, -2000.0);
12:28:49:045;12:28:49:027;1448408687.6;(0.7151431560516357, 0.7874626371595594);90.4946899414;0.977653582572;;;;;;;;;;;;;;0;0;0;0;0;0;0;0;0;();(-2000.0, -2000.0);
12:28:49:063;12:28:49:027;1448408687.6;(0.7151431560516357, 0.7874626371595594);90.4946899414;0.977653582572;;;;;;;;;;;;;;0;0;0;0;0;0;0;0;0;();(-2000.0, -2000.0);
12:28:49:079;12:28:49:027;1448408687.6;(0.7151431560516357, 0.7874626371595594);90.4946899414;0.977653582572;;;;;;;;;;;;;;0;0;0;0;0;0;0;0;0;();(-2000.0, -2000.0);
12:28:49:112;12:28:49:095;1448408687.66;(0.8990000724792481, 0.901582744386461);18.3340740204;0.732273039573;;;;;;;;;;;;;;0;0;0;0;0;0;0;0;0;();(-2000.0, -2000.0);
12:28:49:129;12:28:49:095;1448408687.66;(0.8990000724792481, 0.901582744386461);18.3340740204;0.732273039573;;;;;;;;;;;;;;0;0;0;0;0;0;0;0;0;();(-2000.0, -2000.0);
12:28:49:146;12:28:49:095;1448408687.66;(0.8990000724792481, 0.901582744386461);18.3340740204;0.732273039573;;;;;;;;;;;;;;0;0;0;0;0;0;0;0;0;();(-2000.0, -2000.0);
12:28:49:162;12:28:49:095;1448408687.66;(0.8990000724792481, 0.901582744386461);18.3340740204;0.732273039573;;;;;;;;;;;;;;0;0;0;0;0;0;0;0;0;();(-2000.0, -2000.0);
12:28:49:179;12:28:49:162;1448408687.73;(0.7121790885925293, 0.752423455980089);92.3419494629;0.742837878749;;;;;;;;;;;;;;0;0;0;0;0;0;0;0;0;();(-2000.0, -2000.0);
12:28:49:213;12:28:49:162;1448408687.73;(0.7121790885925293, 0.752423455980089);92.3419494629;0.742837878749;;;;;;;;;;;;;;0;0;0;0;0;0;0;0;0;();(-2000.0, -2000.0);
12:28:49:235;12:28:49:162;1448408687.73;(0.7121790885925293, 0.752423455980089);92.3419494629;0.742837878749;;;;;;;;;;;;;;0;78,47;0;0;0;0;0;0;0;();(-2000.0, -2000.0);
12:28:49:257;12:28:49:241;1448408687.76;(0.3379066467285156, 0.7888938479953342);22.3024539948;0.613020074677;;;;;;;;;;;;;;0;78,47;0;0;0;0;0;0;0;();(-2000.0, -2000.0);
12:28:49:261;12:28:49:241;1448408687.76;(0.3379066467285156, 0.7888938479953342);22.3024539948;0.613020074677;;;;;;;;;;;;;;0;78,47;0;0;0;0;0;0;0;();(-2000.0, -2000.0);
12:28:49:279;12:28:49:241;1448408687.76;(0.3379066467285156, 0.7888938479953342);22.3024539948;0.613020074677;;;;;;;;;;;;;;0;78,47;0;0;0;0;0;0;0;();(-2000.0, -2000.0);
12:28:49:312;12:28:49:296;1448408687.86;(0.7115759372711181, 0.7522046830919054);92.6622772217;0.904038255705;;;;;;;;;;;;;;0;78,47;0;0;0;0;0;0;0;();(-2000.0, -2000.0);
12:28:49:330;12:28:49:296;1448408687.86;(0.7115759372711181, 0.7522046830919054);92.6622772217;0.904038255705;;;;;;;;;;;;;;0;78,47;0;0;0;0;0;0;0;();(-2000.0, -2000.0);
12:28:49:346;12:28:49:296;1448408687.86;(0.7115759372711181, 0.7522046830919054);92.6622772217;0.904038255705;;;;;;;;;;;;;;0;78,47;0;0;0;0;0;0;0;();(-2000.0, -2000.0);
12:28:49:362;12:28:49:359;1448408687.93;(0.7058115005493164, 0.7492180506388346);90.3061676025;0.89093092073;;;;;;;;;;;;;;0;78,47;0;0;0;0;0;0;0;();(-2000.0, -2000.0);
12:28:49:379;12:28:49:359;1448408687.93;(0.7058115005493164, 0.7492180506388346);90.3061676025;0.89093092073;;;;;;;;;;;;;;0;78,47;0;0;0;0;0;0;0;();(-2000.0, -2000.0);
12:28:49:413;12:28:49:359;1448408687.93;(0.7058115005493164, 0.7492180506388346);90.3061676025;0.89093092073;;;;;;;;;;;;;;0;78,47;0;0;0;0;0;0;0;();(-2000.0, -2000.0);
12:28:49:430;12:28:49:427;1448408688.0;(0.5753232955932617, 0.5858348846435547);22.9595489502;0.71116985952;;;;;;;;;;;;;;0;78,47;0;0;0;0;0;0;0;();(-2000.0, -2000.0);
12:28:49:446;12:28:49:427;1448408688.0;(0.5753232955932617, 0.5858348846435547);22.9595489502;0.71116985952;;;;;;;;;;;;;;0;78,47;0;0;0;0;0;0;0;();(-2000.0, -2000.0);
12:28:49:463;12:28:49:427;1448408688.0;(0.5753232955932617, 0.5858348846435547);22.9595489502;0.71116985952;;;;;;;;;;;;;;0;78,47;0;0;0;0;0;0;0;();(-2000.0, -2000.0);
12:28:49:479;12:28:49:427;1448408688.0;(0.5753232955932617, 0.5858348846435547);22.9595489502;0.71116985952;;;;;;;;;;;;;;0;78,47;0;0;0;0;0;0;0;();(-2000.0, -2000.0);
12:28:49:513;12:28:49:427;1448408688.0;(0.5753232955932617, 0.5858348846435547);22.9595489502;0.71116985952;;;;;;;;;;;;;;0;78,47;0;0;0;0;0;0;0;();(-2000.0, -2000.0);
12:28:49:529;12:28:49:427;1448408688.0;(0.5753232955932617, 0.5858348846435547);22.9595489502;0.71116985952;;;;;;;;;;;;;;0;78,47;0;0;0;0;0;0;0;();(-2000.0, -2000.0);
12:28:49:546;12:28:49:427;1448408688.0;(0.5753232955932617, 0.5858348846435547);22.9595489502;0.71116985952;;;;;;;;;;;;;;0;78,47;0;0;0;0;0;0;0;();(-2000.0, -2000.0);
12:28:49:563;12:28:49:562;1448408688.06;(0.7235852718353272, 0.8921004666222466);29.1512680054;0.689309526645;;;;;;;;;;;;;;0;78,47;0;0;0;0;0;0;0;();(-2000.0, -2000.0);
12:28:49:580;12:28:49:565;1448408688.13;(0, 0);0;0;;;;;;;;;;;;;;0;78,47;0;0;0;0;0;0;0;();(-2000.0, -2000.0);
12:28:49:613;12:28:49:565;1448408688.13;(0, 0);0;0;;;;;;;;;;;;;;0;78,47;0;0;0;0;0;0;0;();(-2000.0, -2000.0);
12:28:49:630;12:28:49:625;1448408688.16;(0.7335703849792481, 0.8235019683837891);91.9190750122;0.974435518327;;;;;;;;;;;;;;0;78,47;0;0;0;0;0;0;0;();(-2000.0, -2000.0);
12:28:49:646;12:28:49:625;1448408688.16;(0.7335703849792481, 0.8235019683837891);91.9190750122;0.974435518327;;;;;;;;;;;;;;0;78,47;0;0;0;0;0;0;0;();(-2000.0, -2000.0);
12:28:49:663;12:28:49:625;1448408688.16;(0.7335703849792481, 0.8235019683837891);91.9190750122;0.974435518327;;;;;;;;;;;;;;0;78,47;0;0;0;0;0;0;0;();(-2000.0, -2000.0);
12:28:49:679;12:28:49:625;1448408688.16;(0.7335703849792481, 0.8235019683837891);91.9190750122;0.974435518327;;;;;;;;;;;;;;0;78,47;0;0;0;0;0;0;0;();(-2000.0, -2000.0);
12:28:49:713;12:28:49:692;1448408688.26;(0.7470996856689454, 0.820117441813151);94.2968597412;0.84486042761;;;;;;;;;;;;;;0;78,47;0;0;0;0;0;0;0;();(-2000.0, -2000.0);
12:28:49:730;12:28:49:692;1448408688.26;(0.7470996856689454, 0.820117441813151);94.2968597412;0.84486042761;;;;;;;;;;;;;;0;78,47;0;0;0;0;0;0;0;();(-2000.0, -2000.0);
12:28:49:746;12:28:49:692;1448408688.26;(0.7470996856689454, 0.820117441813151);94.2968597412;0.84486042761;;;;;;;;;;;;;;0;78,47;0;0;0;0;0;0;0;();(-2000.0, -2000.0);
12:28:49:763;12:28:49:758;1448408688.33;(0.7650619506835937, 0.8063303629557291);92.3512649536;0.916208456146;;;;;;;;;;;;;;0;78,47;0;0;0;0;0;0;0;();(-2000.0, -2000.0);
12:28:49:780;12:28:49:758;1448408688.33;(0.7650619506835937, 0.8063303629557291);92.3512649536;0.916208456146;;;;;;;;;;;;;;0;78,47;0;0;0;0;0;0;0;();(-2000.0, -2000.0);
12:28:49:813;12:28:49:758;1448408688.33;(0.7650619506835937, 0.8063303629557291);92.3512649536;0.916208456146;;;;;;;;;;;;;;0;78,47;0;0;0;0;0;0;0;();(-2000.0, -2000.0);
12:28:49:830;12:28:49:758;1448408688.33;(0.7650619506835937, 0.8063303629557291);92.3512649536;0.916208456146;;;;;;;;;;;;;;0;78,47;0;0;0;0;0;0;0;();(-2000.0, -2000.0);
12:28:49:847;12:28:49:758;1448408688.33;(0.7650619506835937, 0.8063303629557291);92.3512649536;0.916208456146;;;;;;;;;;;;;;0;78,47;0;0;0;0;0;0;0;();(-2000.0, -2000.0);
12:28:49:863;12:28:49:853;1448408688.4;(0.7583890438079834, 0.8030484517415365);92.4474411011;0.982463834326;;;;;;;;;;;;;;0;78,47;0;0;0;0;0;0;0;();(-2000.0, -2000.0);
12:28:49:880;12:28:49:853;1448408688.4;(0.7583890438079834, 0.8030484517415365);92.4474411011;0.982463834326;;;;;;;;;;;;;;0;78,47;0;0;0;0;0;0;0;();(-2000.0, -2000.0);
12:28:49:913;12:28:49:853;1448408688.4;(0.7583890438079834, 0.8030484517415365);92.4474411011;0.982463834326;;;;;;;;;;;;;;0;78,47;0;0;0;0;0;0;0;();(-2000.0, -2000.0);
12:28:49:930;12:28:49:853;1448408688.4;(0.7583890438079834, 0.8030484517415365);92.4474411011;0.982463834326;;;;;;;;;;;;;;0;78,47;0;0;0;0;0;0;0;();(-2000.0, -2000.0);
12:28:49:946;12:28:49:853;1448408688.4;(0.7583890438079834, 0.8030484517415365);92.4474411011;0.982463834326;;;;;;;;;;;;;;0;78,47;0;0;0;0;0;0;0;();(-2000.0, -2000.0);
12:28:49:963;12:28:49:961;1448408688.53;(0.7642791748046875, 0.8057480070326064);95.285446167;0.645060599793;;;;;;;;;;;;;;0;78,47;0;0;0;0;0;0;0;();(-2000.0, -2000.0);
12:28:49:980;12:28:49:961;1448408688.53;(0.7642791748046875, 0.8057480070326064);95.285446167;0.645060599793;;;;;;;;;;;;;;0;78,47;0;0;0;0;0;0;0;();(-2000.0, -2000.0);
12:28:50:013;12:28:49:961;1448408688.53;(0.7642791748046875, 0.8057480070326064);95.285446167;0.645060599793;;;;;;;;;;;;;;0;78,47;0;0;0;0;0;0;0;();(-2000.0, -2000.0);
12:28:50:029;12:28:50:022;1448408688.6;(0.7694409370422364, 0.8016438802083333);95.2366790771;1.0;;;;;;;;;;;;;;0;78,47;0;0;0;0;0;0;0;();(-2000.0, -2000.0);
12:28:50:047;12:28:50:022;1448408688.6;(0.7694409370422364, 0.8016438802083333);95.2366790771;1.0;;;;;;;;;;;;;;0;78,47;0;0;0;0;0;0;0;();(-2000.0, -2000.0);
12:28:50:063;12:28:50:022;1448408688.6;(0.7694409370422364, 0.8016438802083333);95.2366790771;1.0;;;;;;;;;;;;;;0;78,47;0;0;0;0;0;0;0;();(-2000.0, -2000.0);
12:28:50:080;12:28:50:022;1448408688.6;(0.7694409370422364, 0.8016438802083333);95.2366790771;1.0;;;;;;;;;;;;;;0;78,47;0;0;0;0;0;0;0;();(-2000.0, -2000.0);
12:28:50:097;12:28:50:022;1448408688.6;(0.7694409370422364, 0.8016438802083333);95.2366790771;1.0;;;;;;;;;;;;;;0;78,47;0;0;0;0;0;0;0;();(-2000.0, -2000.0);
12:28:50:130;12:28:50:022;1448408688.6;(0.7694409370422364, 0.8016438802083333);95.2366790771;1.0;;;;;;;;;;;;;;0;78,47;0;0;0;0;0;0;0;();(-2000.0, -2000.0);
12:28:50:147;12:28:50:138;1448408688.66;(0.768978500366211, 0.8011530240376791);94.4731750488;0.878057381982;;;;;;;;;;;;;;0;78,47;0;0;0;0;0;0;0;();(-2000.0, -2000.0);
12:28:50:163;12:28:50:155;1448408688.73;(0.7677888870239258, 0.7991717232598199);94.5434265137;0.836897586665;;;;;;;;;;;;;;0;78,47;0;0;0;0;0;0;0;();(-2000.0, -2000.0);
12:28:50:180;12:28:50:155;1448408688.73;(0.7677888870239258, 0.7991717232598199);94.5434265137;0.836897586665;;;;;;;;;;;;;;0;78,47;0;0;0;0;0;0;0;();(-2000.0, -2000.0);
12:28:50:196;12:28:50:155;1448408688.73;(0.7677888870239258, 0.7991717232598199);94.5434265137;0.836897586665;;;;;;;;;;;;;;0;78,47;0;0;0;0;0;0;0;();(-2000.0, -2000.0);
12:28:50:230;12:28:50:223;1448408688.8;(0.7680357456207275, 0.8001685884263781);93.7702636719;0.948570958866;;;;;;;;;;;;;;0;78,47;0;0;0;0;0;0;0;();(-2000.0, -2000.0);
12:28:50:247;12:28:50:223;1448408688.8;(0.7680357456207275, 0.8001685884263781);93.7702636719;0.948570958866;;;;;;;;;;;;;;0;78,47;0;0;0;0;0;0;0;();(-2000.0, -2000.0);
12:28:50:264;12:28:50:223;1448408688.8;(0.7680357456207275, 0.8001685884263781);93.7702636719;0.948570958866;;;;;;;;;;;;;;0;78,47;0;0;0;0;0;0;0;();(-2000.0, -2000.0);
12:28:50:280;12:28:50:223;1448408688.8;(0.7680357456207275, 0.8001685884263781);93.7702636719;0.948570958866;;;;;;;;;;;;;;0;78,47;0;0;0;0;0;0;0;();(-2000.0, -2000.0);
12:28:50:297;12:28:50:291;1448408688.86;(0.7677954196929931, 0.7997262318929037);93.6073379517;1.0;;;;;;;;;;;;;;0;78,47;0;0;0;0;0;0;0;();(-2000.0, -2000.0);
12:28:50:330;12:28:50:291;1448408688.86;(0.7677954196929931, 0.7997262318929037);93.6073379517;1.0;;;;;;;;;;;;;;0;78,47;0;0;0;0;0;0;0;();(-2000.0, -2000.0);
12:28:50:347;12:28:50:291;1448408688.86;(0.7677954196929931, 0.7997262318929037);93.6073379517;1.0;;;;;;;;;;;;;;0;78,47;0;0;0;0;0;0;0;();(-2000.0, -2000.0);
12:28:50:364;12:28:50:291;1448408688.86;(0.7677954196929931, 0.7997262318929037);93.6073379517;1.0;;;;;;;;;;;;;;0;78,47;0;0;0;0;0;0;0;();(-2000.0, -2000.0);
12:28:50:380;12:28:50:291;1448408688.86;(0.7677954196929931, 0.7997262318929037);93.6073379517;1.0;;;;;;;;;;;;;;0;78,47;0;0;0;0;0;0;0;();(-2000.0, -2000.0);
12:28:50:397;12:28:50:291;1448408688.86;(0.7677954196929931, 0.7997262318929037);93.6073379517;1.0;;;;;;;;;;;;;;0;78,47;0;0;0;0;0;0;0;();(-2000.0, -2000.0);
12:28:50:430;12:28:50:428;1448408689.0;(0.892008113861084, 0.6638706843058269);22.9510231018;0.701918424466;;;;;;;;;;;;;;0;78,47;0;0;0;0;0;0;0;();(-2000.0, -2000.0);
12:28:50:447;12:28:50:428;1448408689.0;(0.892008113861084, 0.6638706843058269);22.9510231018;0.701918424466;;;;;;;;;;;;;;0;78,47;0;0;0;0;0;0;0;();(-2000.0, -2000.0);
12:28:50:463;12:28:50:428;1448408689.0;(0.892008113861084, 0.6638706843058269);22.9510231018;0.701918424466;;;;;;;;;;;;;;0;78,47;0;0;0;0;0;0;0;();(-2000.0, -2000.0);
12:28:50:481;12:28:50:428;1448408689.0;(0.892008113861084, 0.6638706843058269);22.9510231018;0.701918424466;;;;;;;;;;;;;;0;78,47;0;0;0;0;0;0;0;();(-2000.0, -2000.0);
12:28:50:497;12:28:50:488;1448408689.03;(0.6620527744293213, 0.8897497706943088);24.8356513977;0.71256126784;;;;;;;;;;;;;;0;78,47;0;0;0;0;0;0;0;();(-2000.0, -2000.0);
12:28:50:530;12:28:50:488;1448408689.03;(0.6620527744293213, 0.8897497706943088);24.8356513977;0.71256126784;;;;;;;;;;;;;;0;78,47;0;0;0;0;0;0;0;();(-2000.0, -2000.0);
12:28:50:547;12:28:50:488;1448408689.03;(0.6620527744293213, 0.8897497706943088);24.8356513977;0.71256126784;;;;;;;;;;;;;;0;78,47;0;0;0;0;0;0;0;();(-2000.0, -2000.0);
12:28:50:564;12:28:50:557;1448408689.13;(0, 0);0;0;;;;;;;;;;;;;;0;78,47;0;0;0;0;0;0;0;();(-2000.0, -2000.0);
12:28:50:581;12:28:50:557;1448408689.13;(0, 0);0;0;;;;;;;;;;;;;;0;78,47;0;0;0;0;0;0;0;();(-2000.0, -2000.0);
12:28:50:597;12:28:50:557;1448408689.13;(0, 0);0;0;;;;;;;;;;;;;;0;78,47;0;0;0;0;0;0;0;();(-2000.0, -2000.0);
12:28:50:631;12:28:50:622;1448408689.2;(0.19001396894454955, 0.9065939638349745);23.4341144562;0.612788334685;;;;;;;;;;;;;;0;78,47;0;0;0;0;0;0;0;();(-2000.0, -2000.0);
12:28:50:648;12:28:50:622;1448408689.2;(0.19001396894454955, 0.9065939638349745);23.4341144562;0.612788334685;;;;;;;;;;;;;;0;78,47;0;0;0;0;0;0;0;();(-2000.0, -2000.0);
12:28:50:664;12:28:50:622;1448408689.2;(0.19001396894454955, 0.9065939638349745);23.4341144562;0.612788334685;;;;;;;;;;;;;;0;78,47;0;0;0;0;0;0;0;();(-2000.0, -2000.0);
12:28:50:680;12:28:50:622;1448408689.2;(0.19001396894454955, 0.9065939638349745);23.4341144562;0.612788334685;;;;;;;;;;;;;;0;78,47;0;0;0;0;0;0;0;();(-2000.0, -2000.0);
12:28:50:697;12:28:50:622;1448408689.2;(0.19001396894454955, 0.9065939638349745);23.4341144562;0.612788334685;;;;;;;;;;;;;;0;78,47;0;0;0;0;0;0;0;();(-2000.0, -2000.0);
12:28:50:731;12:28:50:714;1448408689.26;(0.5887841701507568, 0.8385650210910374);90.7295227051;0.764288038604;;;;;;;;;;;;;;0;78,47;0;0;0;0;0;0;0;();(-2000.0, -2000.0);
12:28:50:747;12:28:50:714;1448408689.26;(0.5887841701507568, 0.8385650210910374);90.7295227051;0.764288038604;;;;;;;;;;;;;;0;78,47;0;0;0;0;0;0;0;();(-2000.0, -2000.0);
12:28:50:764;12:28:50:755;1448408689.33;(0.5973589897155762, 0.8393306414286296);89.7639160156;0.605165946134;;;;;;;;;;;;;;0;78,47;0;0;0;0;0;0;0;();(-2000.0, -2000.0);
12:28:50:780;12:28:50:755;1448408689.33;(0.5973589897155762, 0.8393306414286296);89.7639160156;0.605165946134;;;;;;;;;;;;;;0;78,47;0;0;0;0;0;0;0;();(-2000.0, -2000.0);
12:28:50:797;12:28:50:755;1448408689.33;(0.5973589897155762, 0.8393306414286296);89.7639160156;0.605165946134;;;;;;;;;;;;;;0;78,47;0;0;0;0;0;0;0;();(-2000.0, -2000.0);
12:28:50:830;12:28:50:818;1448408689.4;(0, 0);0;0;;;;;;;;;;;;;;0;78,47;0;0;0;0;0;0;0;();(-2000.0, -2000.0);
12:28:50:847;12:28:50:818;1448408689.4;(0, 0);0;0;;;;;;;;;;;;;;0;78,47;0;0;0;0;0;0;0;();(-2000.0, -2000.0);
12:28:50:864;12:28:50:818;1448408689.4;(0, 0);0;0;;;;;;;;;;;;;;0;78,47;0;0;0;0;0;0;0;();(-2000.0, -2000.0);
12:28:50:880;12:28:50:818;1448408689.4;(0, 0);0;0;;;;;;;;;;;;;;0;78,47;0;0;0;0;0;0;0;();(-2000.0, -2000.0);
12:28:50:897;12:28:50:886;1448408689.43;(0.6006141662597656, 0.8340076446533203);90.0023498535;0.824513060331;;;;;;;;;;;;;;0;78,47;0;0;0;0;0;0;0;();(-2000.0, -2000.0);
12:28:50:931;12:28:50:886;1448408689.43;(0.6006141662597656, 0.8340076446533203);90.0023498535;0.824513060331;;;;;;;;;;;;;;0;78,47;0;0;0;0;0;0;0;();(-2000.0, -2000.0);
12:28:50:948;12:28:50:886;1448408689.43;(0.6006141662597656, 0.8340076446533203);90.0023498535;0.824513060331;;;;;;;;;;;;;;0;78,47;0;0;0;0;0;0;0;();(-2000.0, -2000.0);
12:28:50:964;12:28:50:886;1448408689.43;(0.6006141662597656, 0.8340076446533203);90.0023498535;0.824513060331;;;;;;;;;;;;;;0;78,47;0;0;0;0;0;0;0;();(-2000.0, -2000.0);
12:28:50:981;12:28:50:886;1448408689.43;(0.6006141662597656, 0.8340076446533203);90.0023498535;0.824513060331;;;;;;;;;;;;;;0;78,47;0;0;0;0;0;0;0;();(-2000.0, -2000.0);
12:28:50:997;12:28:50:886;1448408689.43;(0.6006141662597656, 0.8340076446533203);90.0023498535;0.824513060331;;;;;;;;;;;;;;0;78,47;0;0;0;0;0;0;0;();(-2000.0, -2000.0);
12:28:51:030;12:28:51:018;1448408689.56;(0.6013343334197998, 0.8342028194003634);87.6897659302;0.649001250635;;;;;;;;;;;;;;0;78,47;0;0;0;0;0;0;0;();(-2000.0, -2000.0);
12:28:51:048;12:28:51:018;1448408689.56;(0.6013343334197998, 0.8342028194003634);87.6897659302;0.649001250635;;;;;;;;;;;;;;0;78,47;0;0;0;0;0;0;0;();(-2000.0, -2000.0);
12:28:51:064;12:28:51:018;1448408689.56;(0.6013343334197998, 0.8342028194003634);87.6897659302;0.649001250635;;;;;;;;;;;;;;0;78,47;0;0;0;0;0;0;0;();(-2000.0, -2000.0);
12:28:51:081;12:28:51:018;1448408689.56;(0.6013343334197998, 0.8342028194003634);87.6897659302;0.649001250635;;;;;;;;;;;;;;0;78,47;0;0;0;0;0;0;0;();(-2000.0, -2000.0);
12:28:51:097;12:28:51:086;1448408689.63;(0, 0);0;0;;;;;;;;;;;;;;0;78,47;0;0;0;0;0;0;0;();(-2000.0, -2000.0);
12:28:51:131;12:28:51:086;1448408689.63;(0, 0);0;0;;;;;;;;;;;;;;0;78,47;0;0;0;0;0;0;0;();(-2000.0, -2000.0);
12:28:51:147;12:28:51:086;1448408689.63;(0, 0);0;0;;;;;;;;;;;;;;0;78,47;0;0;0;0;0;0;0;();(-2000.0, -2000.0);
12:28:51:164;12:28:51:151;1448408689.7;(0.6089002609252929, 0.8290845765007867);85.341293335;0.695736420953;;;;;;;;;;;;;;0;78,47;0;0;0;0;0;0;0;();(-2000.0, -2000.0);
12:28:51:181;12:28:51:151;1448408689.7;(0.6089002609252929, 0.8290845765007867);85.341293335;0.695736420953;;;;;;;;;;;;;;0;78,47;0;0;0;0;0;0;0;();(-2000.0, -2000.0);
12:28:51:197;12:28:51:151;1448408689.7;(0.6089002609252929, 0.8290845765007867);85.341293335;0.695736420953;;;;;;;;;;;;;;0;78,47;0;0;0;0;0;0;0;();(-2000.0, -2000.0);
12:28:51:231;12:28:51:151;1448408689.7;(0.6089002609252929, 0.8290845765007867);85.341293335;0.695736420953;;;;;;;;;;;;;;0;78,47;0;0;0;0;0;0;0;();(-2000.0, -2000.0);
12:28:51:248;12:28:51:151;1448408689.7;(0.6089002609252929, 0.8290845765007867);85.341293335;0.695736420953;;;;;;;;;;;;;;0;78,47;0;0;0;0;0;0;0;();(-2000.0, -2000.0);
12:28:51:264;12:28:51:151;1448408689.7;(0.6089002609252929, 0.8290845765007867);85.341293335;0.695736420953;;;;;;;;;;;;;;0;78,47;0;0;0;0;0;0;0;();(-2000.0, -2000.0);
12:28:51:281;12:28:51:151;1448408689.7;(0.6089002609252929, 0.8290845765007867);85.341293335;0.695736420953;;;;;;;;;;;;;;0;78,47;0;0;0;0;0;0;0;();(-2000.0, -2000.0);
12:28:51:298;12:28:51:293;1448408689.86;(0.6087829113006592, 0.8185339609781901);85.7147369385;0.792934493825;;;;;;;;;;;;;;0;78,47;0;0;0;0;0;0;0;();(-2000.0, -2000.0);
12:28:51:331;12:28:51:293;1448408689.86;(0.6087829113006592, 0.8185339609781901);85.7147369385;0.792934493825;;;;;;;;;;;;;;0;78,47;0;0;0;0;0;0;0;();(-2000.0, -2000.0);
12:28:51:348;12:28:51:293;1448408689.86;(0.6087829113006592, 0.8185339609781901);85.7147369385;0.792934493825;;;;;;;;;;;;;;0;78,47;0;0;0;0;0;0;0;();(-2000.0, -2000.0);
12:28:51:364;12:28:51:358;1448408689.93;(0.608122730255127, 0.8262769063313802);84.6838684082;0.83195285839;;;;;;;;;;;;;;0;78,47;0;0;0;0;0;0;0;();(-2000.0, -2000.0);
12:28:51:379;12:28:51:358;1448408689.93;(0.608122730255127, 0.8262769063313802);84.6838684082;0.83195285839;;;;;;;;;;;;;;0;78,47;0;0;0;0;0;0;0;();(-2000.0, -2000.0);
12:28:51:398;12:28:51:358;1448408689.93;(0.608122730255127, 0.8262769063313802);84.6838684082;0.83195285839;;;;;;;;;;;;;;0;78,47;0;0;0;0;0;0;0;();(-2000.0, -2000.0);
12:28:51:431;12:28:51:419;1448408690.0;(0.6080567836761475, 0.8257607671949598);84.6341400146;0.931970171587;;;;;;;;;;;;;;0;78,47;0;0;0;0;0;0;0;();(-2000.0, -2000.0);
12:28:51:448;12:28:51:419;1448408690.0;(0.6080567836761475, 0.8257607671949598);84.6341400146;0.931970171587;;;;;;;;;;;;;;0;78,47;0;0;0;0;0;0;0;();(-2000.0, -2000.0);
12:28:51:464;12:28:51:419;1448408690.0;(0.6080567836761475, 0.8257607671949598);84.6341400146;0.931970171587;;;;;;;;;;;;;;0;78,47;0;0;0;0;0;0;0;();(-2000.0, -2000.0);
12:28:51:482;12:28:51:419;1448408690.0;(0.6080567836761475, 0.8257607671949598);84.6341400146;0.931970171587;;;;;;;;;;;;;;0;78,47;0;0;0;0;0;0;0;();(-2000.0, -2000.0);
12:28:51:498;12:28:51:493;1448408690.06;(0.607856273651123, 0.8247514300876193);84.9696350098;0.915798465083;;;;;;;;;;;;;;0;78,47;0;0;0;0;0;0;0;();(-2000.0, -2000.0);
12:28:51:531;12:28:51:493;1448408690.06;(0.607856273651123, 0.8247514300876193);84.9696350098;0.915798465083;;;;;;;;;;;;;;0;78,47;0;0;0;0;0;0;0;();(-2000.0, -2000.0);
12:28:51:548;12:28:51:493;1448408690.06;(0.607856273651123, 0.8247514300876193);84.9696350098;0.915798465083;;;;;;;;;;;;;;0;78,47;0;0;0;0;0;0;0;();(-2000.0, -2000.0);
12:28:51:564;12:28:51:493;1448408690.06;(0.607856273651123, 0.8247514300876193);84.9696350098;0.915798465083;;;;;;;;;;;;;;0;78,47;0;0;0;0;0;0;0;();(-2000.0, -2000.0);
12:28:51:581;12:28:51:493;1448408690.06;(0.607856273651123, 0.8247514300876193);84.9696350098;0.915798465083;;;;;;;;;;;;;;0;78,47;0;0;0;0;0;0;0;();(-2000.0, -2000.0);
12:28:51:597;12:28:51:493;1448408690.06;(0.607856273651123, 0.8247514300876193);84.9696350098;0.915798465083;;;;;;;;;;;;;;0;78,47;0;0;0;0;0;0;0;();(-2000.0, -2000.0);
12:28:51:631;12:28:51:619;1448408690.2;(0, 0);0;0;;;;;;;;;;;;;;0;78,47;0;0;0;0;0;0;0;();(-2000.0, -2000.0);
12:28:51:648;12:28:51:619;1448408690.2;(0, 0);0;0;;;;;;;;;;;;;;0;78,47;0;0;0;0;0;0;0;();(-2000.0, -2000.0);
12:28:51:665;12:28:51:619;1448408690.2;(0, 0);0;0;;;;;;;;;;;;;;0;78,47;0;0;0;0;0;0;0;();(-2000.0, -2000.0);
12:28:51:681;12:28:51:619;1448408690.2;(0, 0);0;0;;;;;;;;;;;;;;0;78,47;0;0;0;0;0;0;0;();(-2000.0, -2000.0);
12:28:51:698;12:28:51:685;1448408690.26;(0.6074390888214112, 0.8241507636176215);86.2346725464;0.770157222483;;;;;;;;;;;;;;0;78,47;0;0;0;0;0;0;0;();(-2000.0, -2000.0);
12:28:51:731;12:28:51:685;1448408690.26;(0.6074390888214112, 0.8241507636176215);86.2346725464;0.770157222483;;;;;;;;;;;;;;0;78,47;0;0;0;0;0;0;0;();(-2000.0, -2000.0);
12:28:51:748;12:28:51:685;1448408690.26;(0.6074390888214112, 0.8241507636176215);86.2346725464;0.770157222483;;;;;;;;;;;;;;0;78,47;0;0;0;0;0;0;0;();(-2000.0, -2000.0);
12:28:51:765;12:28:51:751;1448408690.3;(0.30907750129699707, 0.67113463083903);22.5394153595;0.855540221879;;;;;;;;;;;;;;0;78,47;0;0;0;0;0;0;0;();(-2000.0, -2000.0);
12:28:51:781;12:28:51:751;1448408690.3;(0.30907750129699707, 0.67113463083903);22.5394153595;0.855540221879;;;;;;;;;;;;;;0;78,47;0;0;0;0;0;0;0;();(-2000.0, -2000.0);
12:28:51:798;12:28:51:751;1448408690.3;(0.30907750129699707, 0.67113463083903);22.5394153595;0.855540221879;;;;;;;;;;;;;;0;78,47;0;0;0;0;0;0;0;();(-2000.0, -2000.0);
12:28:51:831;12:28:51:751;1448408690.3;(0.30907750129699707, 0.67113463083903);22.5394153595;0.855540221879;;;;;;;;;;;;;;0;78,47;0;0;0;0;0;0;0;();(-2000.0, -2000.0);
12:28:51:848;12:28:51:751;1448408690.3;(0.30907750129699707, 0.67113463083903);22.5394153595;0.855540221879;;;;;;;;;;;;;;0;78,47;0;0;0;0;0;0;0;();(-2000.0, -2000.0);
12:28:51:865;12:28:51:751;1448408690.3;(0.30907750129699707, 0.67113463083903);22.5394153595;0.855540221879;;;;;;;;;;;;;;0;78,47;0;0;0;0;0;0;0;();(-2000.0, -2000.0);
12:28:51:882;12:28:51:881;1448408690.33;(0.5998568058013916, 0.8345679495069716);85.6158447266;0.700233299388;;;;;;;;;;;;;;0;78,47;0;0;0;0;0;0;0;();(-2000.0, -2000.0);
12:28:51:898;12:28:51:889;1448408690.46;(0.5969519138336181, 0.8369966718885633);85.8260421753;0.838794725566;;;;;;;;;;;;;;0;78,47;0;0;0;0;0;0;0;();(-2000.0, -2000.0);
12:28:51:931;12:28:51:889;1448408690.46;(0.5969519138336181, 0.8369966718885633);85.8260421753;0.838794725566;;;;;;;;;;;;;;0;78,47;0;0;0;0;0;0;0;();(-2000.0, -2000.0);
12:28:51:948;12:28:51:889;1448408690.46;(0.5969519138336181, 0.8369966718885633);85.8260421753;0.838794725566;;;;;;;;;;;;;;0;78,47;0;0;0;0;0;0;0;();(-2000.0, -2000.0);
12:28:51:965;12:28:51:951;1448408690.5;(0, 0);0;0;;;;;;;;;;;;;;0;78,47;0;0;0;0;0;0;0;();(-2000.0, -2000.0);
12:28:51:981;12:28:51:951;1448408690.5;(0, 0);0;0;;;;;;;;;;;;;;0;78,47;0;0;0;0;0;0;0;();(-2000.0, -2000.0);
12:28:51:998;12:28:51:951;1448408690.5;(0, 0);0;0;;;;;;;;;;;;;;0;78,47;0;0;0;0;0;0;0;();(-2000.0, -2000.0);
12:28:52:031;12:28:52:015;1448408690.56;(0, 0);0;0;;;;;;;;;;;;;;0;78,47;0;0;0;0;0;0;0;();(-2000.0, -2000.0);
12:28:52:048;12:28:52:015;1448408690.56;(0, 0);0;0;;;;;;;;;;;;;;0;78,47;0;0;0;0;0;0;0;();(-2000.0, -2000.0);
12:28:52:065;12:28:52:015;1448408690.56;(0, 0);0;0;;;;;;;;;;;;;;0;78,47;0;0;0;0;0;0;0;();(-2000.0, -2000.0);
12:28:52:082;12:28:52:015;1448408690.56;(0, 0);0;0;;;;;;;;;;;;;;0;78,47;0;0;0;0;0;0;0;();(-2000.0, -2000.0);
12:28:52:098;12:28:52:015;1448408690.56;(0, 0);0;0;;;;;;;;;;;;;;0;78,47;0;0;0;0;0;0;0;();(-2000.0, -2000.0);
12:28:52:132;12:28:52:015;1448408690.56;(0, 0);0;0;;;;;;;;;;;;;;0;78,47;0;0;0;0;0;0;0;();(-2000.0, -2000.0);
12:28:52:148;12:28:52:015;1448408690.56;(0, 0);0;0;;;;;;;;;;;;;;0;78,47;0;0;0;0;0;0;0;();(-2000.0, -2000.0);
12:28:52:165;12:28:52:015;1448408690.56;(0, 0);0;0;;;;;;;;;;;;;;0;78,47;0;0;0;0;0;0;0;();(-2000.0, -2000.0);
12:28:52:182;12:28:52:173;1448408690.7;(0.6500454902648926, 0.8280406210157607);85.8218536377;0.782004501967;;;;;;;;;;;;;;0;78,47;0;0;0;0;0;0;0;();(-2000.0, -2000.0);
12:28:52:199;12:28:52:173;1448408690.7;(0.6500454902648926, 0.8280406210157607);85.8218536377;0.782004501967;;;;;;;;;;;;;;0;78,47;0;0;0;0;0;0;0;();(-2000.0, -2000.0);
12:28:52:232;12:28:52:216;1448408690.8;(0.647256326675415, 0.8315626038445367);88.2756881714;0.842112136038;;;;;;;;;;;;;;0;78,47;0;0;0;0;0;0;0;();(-2000.0, -2000.0);
12:28:52:248;12:28:52:216;1448408690.8;(0.647256326675415, 0.8315626038445367);88.2756881714;0.842112136038;;;;;;;;;;;;;;0;78,47;0;0;0;0;0;0;0;();(-2000.0, -2000.0);
12:28:52:265;12:28:52:216;1448408690.8;(0.647256326675415, 0.8315626038445367);88.2756881714;0.842112136038;;;;;;;;;;;;;;0;78,47;0;0;0;0;0;0;0;();(-2000.0, -2000.0);
12:28:52:282;12:28:52:216;1448408690.8;(0.647256326675415, 0.8315626038445367);88.2756881714;0.842112136038;;;;;;;;;;;;;;0;78,47;0;0;0;0;0;0;0;();(-2000.0, -2000.0);
12:28:52:299;12:28:52:295;1448408690.86;(0.6450713634490967, 0.8350945472717285);86.1748886108;0.858426128785;;;;;;;;;;;;;;0;78,47;0;0;0;0;0;0;0;();(-2000.0, -2000.0);
12:28:52:332;12:28:52:295;1448408690.86;(0.6450713634490967, 0.8350945472717285);86.1748886108;0.858426128785;;;;;;;;;;;;;;0;78,47;0;0;0;0;0;0;0;();(-2000.0, -2000.0);
12:28:52:348;12:28:52:345;1448408690.9;(0.6446526050567627, 0.8348508516947428);86.8904800415;0.807930474151;;;;;;;;;;;;;;0;78,47;0;0;0;0;0;0;0;();(-2000.0, -2000.0);
12:28:52:365;12:28:52:345;1448408690.9;(0.6446526050567627, 0.8348508516947428);86.8904800415;0.807930474151;;;;;;;;;;;;;;0;78,47;0;0;0;0;0;0;0;();(-2000.0, -2000.0);
12:28:52:382;12:28:52:345;1448408690.9;(0.6446526050567627, 0.8348508516947428);86.8904800415;0.807930474151;;;;;;;;;;;;;;0;78,47;0;0;0;0;0;0;0;();(-2000.0, -2000.0);
12:28:52:399;12:28:52:345;1448408690.9;(0.6446526050567627, 0.8348508516947428);86.8904800415;0.807930474151;;;;;;;;;;;;;;0;78,47;0;0;0;0;0;0;0;();(-2000.0, -2000.0);
12:28:52:432;12:28:52:345;1448408690.9;(0.6446526050567627, 0.8348508516947428);86.8904800415;0.807930474151;;;;;;;;;;;;;;0;78,47;0;0;0;0;0;0;0;();(-2000.0, -2000.0);
12:28:52:449;12:28:52:345;1448408690.9;(0.6446526050567627, 0.8348508516947428);86.8904800415;0.807930474151;;;;;;;;;;;;;;0;78,47;0;0;0;0;0;0;0;();(-2000.0, -2000.0);
12:28:52:465;12:28:52:458;1448408690.96;(0, 0);0;0;;;;;;;;;;;;;;0;78,47;0;0;0;0;0;0;0;();(-2000.0, -2000.0);
12:28:52:482;12:28:52:479;1448408691.03;(0.6005037307739258, 0.8455358823140462);86.8662490845;0.626001307633;;;;;;;;;;;;;;0;78,47;0;0;0;0;0;0;0;();(-2000.0, -2000.0);
12:28:52:499;12:28:52:479;1448408691.03;(0.6005037307739258, 0.8455358823140462);86.8662490845;0.626001307633;;;;;;;;;;;;;;0;78,47;0;0;0;0;0;0;0;();(-2000.0, -2000.0);
12:28:52:532;12:28:52:479;1448408691.03;(0.6005037307739258, 0.8455358823140462);86.8662490845;0.626001307633;;;;;;;;;;;;;;0;78,47;0;0;0;0;0;0;0;();(-2000.0, -2000.0);
12:28:52:549;12:28:52:547;1448408691.1;(0, 0);0;0;;;;;;;;;;;;;;0;78,47;0;0;0;0;0;0;0;();(-2000.0, -2000.0);
12:28:52:566;12:28:52:547;1448408691.1;(0, 0);0;0;;;;;;;;;;;;;;0;78,47;0;0;0;0;0;0;0;();(-2000.0, -2000.0);
12:28:52:582;12:28:52:547;1448408691.1;(0, 0);0;0;;;;;;;;;;;;;;0;78,47;0;0;0;0;0;0;0;();(-2000.0, -2000.0);
12:28:52:599;12:28:52:547;1448408691.1;(0, 0);0;0;;;;;;;;;;;;;;0;78,47;0;0;0;0;0;0;0;();(-2000.0, -2000.0);
12:28:52:633;12:28:52:614;1448408691.16;(0, 0);0;0;;;;;;;;;;;;;;0;78,47;0;0;0;0;0;0;0;();(-2000.0, -2000.0);
12:28:52:649;12:28:52:614;1448408691.16;(0, 0);0;0;;;;;;;;;;;;;;0;78,47;0;0;0;0;0;0;0;();(-2000.0, -2000.0);
12:28:52:665;12:28:52:614;1448408691.16;(0, 0);0;0;;;;;;;;;;;;;;0;78,47;0;0;0;0;0;0;0;();(-2000.0, -2000.0);
12:28:52:683;12:28:52:614;1448408691.16;(0, 0);0;0;;;;;;;;;;;;;;0;78,47;0;0;0;0;0;0;0;();(-2000.0, -2000.0);
12:28:52:698;12:28:52:614;1448408691.16;(0, 0);0;0;;;;;;;;;;;;;;0;78,47;0;0;0;0;0;0;0;();(-2000.0, -2000.0);
12:28:52:732;12:28:52:614;1448408691.16;(0, 0);0;0;;;;;;;;;;;;;;0;78,47;0;0;0;0;0;0;0;();(-2000.0, -2000.0);
12:28:52:749;12:28:52:614;1448408691.16;(0, 0);0;0;;;;;;;;;;;;;;0;78,47;0;0;0;0;0;0;0;();(-2000.0, -2000.0);
12:28:52:765;12:28:52:614;1448408691.16;(0, 0);0;0;;;;;;;;;;;;;;0;78,47;0;0;0;0;0;0;0;();(-2000.0, -2000.0);
12:28:52:783;12:28:52:614;1448408691.16;(0, 0);0;0;;;;;;;;;;;;;;0;78,47;0;0;0;0;0;0;0;();(-2000.0, -2000.0);
12:28:52:799;12:28:52:797;1448408691.2;(0.6003542423248291, 0.8413386874728732);88.000617981;0.917366577135;;;;;;;;;;;;;;0;78,47;0;0;0;0;0;0;0;();(-2000.0, -2000.0);
12:28:52:832;12:28:52:810;1448408691.36;(0, 0);0;0;;;;;;;;;;;;;;0;78,47;0;0;0;0;0;0;0;();(-2000.0, -2000.0);
12:28:52:849;12:28:52:810;1448408691.36;(0, 0);0;0;;;;;;;;;;;;;;0;78,47;0;0;0;0;0;0;0;();(-2000.0, -2000.0);
12:28:52:866;12:28:52:810;1448408691.36;(0, 0);0;0;;;;;;;;;;;;;;0;78,47;0;0;0;0;0;0;0;();(-2000.0, -2000.0);
12:28:52:882;12:28:52:879;1448408691.43;(0, 0);0;0;;;;;;;;;;;;;;0;78,47;0;0;0;0;0;0;0;();(-2000.0, -2000.0);
12:28:52:899;12:28:52:879;1448408691.43;(0, 0);0;0;;;;;;;;;;;;;;0;78,47;0;0;0;0;0;0;0;();(-2000.0, -2000.0);
12:28:52:932;12:28:52:879;1448408691.43;(0, 0);0;0;;;;;;;;;;;;;;0;78,47;0;0;0;0;0;0;0;();(-2000.0, -2000.0);
12:28:52:949;12:28:52:946;1448408691.46;(0.721558952331543, 0.8304435624016656);84.7544174194;0.765956414353;;;;;;;;;;;;;;0;78,47;0;0;0;0;0;0;0;();(-2000.0, -2000.0);
12:28:52:966;12:28:52:946;1448408691.46;(0.721558952331543, 0.8304435624016656);84.7544174194;0.765956414353;;;;;;;;;;;;;;0;78,47;0;0;0;0;0;0;0;();(-2000.0, -2000.0);
12:28:52:982;12:28:52:946;1448408691.46;(0.721558952331543, 0.8304435624016656);84.7544174194;0.765956414353;;;;;;;;;;;;;;0;78,47;0;0;0;0;0;0;0;();(-2000.0, -2000.0);
12:28:52:999;12:28:52:946;1448408691.46;(0.721558952331543, 0.8304435624016656);84.7544174194;0.765956414353;;;;;;;;;;;;;;0;78,47;0;0;0;0;0;0;0;();(-2000.0, -2000.0);
12:28:53:032;12:28:52:946;1448408691.46;(0.721558952331543, 0.8304435624016656);84.7544174194;0.765956414353;;;;;;;;;;;;;;0;78,47;0;0;0;0;0;0;0;();(-2000.0, -2000.0);
12:28:53:050;12:28:52:946;1448408691.46;(0.721558952331543, 0.8304435624016656);84.7544174194;0.765956414353;;;;;;;;;;;;;;0;78,47;0;0;0;0;0;0;0;();(-2000.0, -2000.0);
12:28:53:066;12:28:52:946;1448408691.46;(0.721558952331543, 0.8304435624016656);84.7544174194;0.765956414353;;;;;;;;;;;;;;0;78,47;0;0;0;0;0;0;0;();(-2000.0, -2000.0);
12:28:53:083;12:28:52:946;1448408691.46;(0.721558952331543, 0.8304435624016656);84.7544174194;0.765956414353;;;;;;;;;;;;;;0;78,47;0;0;0;0;0;0;0;();(-2000.0, -2000.0);
12:28:53:100;12:28:52:946;1448408691.46;(0.721558952331543, 0.8304435624016656);84.7544174194;0.765956414353;;;;;;;;;;;;;;0;78,47;0;0;0;0;0;0;0;();(-2000.0, -2000.0);
12:28:53:133;12:28:52:946;1448408691.46;(0.721558952331543, 0.8304435624016656);84.7544174194;0.765956414353;;;;;;;;;;;;;;0;78,47;0;0;0;0;0;0;0;();(-2000.0, -2000.0);
12:28:53:149;12:28:53:146;1448408691.73;(0.7472115993499756, 0.8176113764444987);91.5029373169;0.678573747694;;;;;;;;;;;;;;0;78,47;0;0;0;0;0;0;0;();(-2000.0, -2000.0);
12:28:53:166;12:28:53:146;1448408691.73;(0.7472115993499756, 0.8176113764444987);91.5029373169;0.678573747694;;;;;;;;;;;;;;0;78,47;0;0;0;0;0;0;0;();(-2000.0, -2000.0);
12:28:53:183;12:28:53:146;1448408691.73;(0.7472115993499756, 0.8176113764444987);91.5029373169;0.678573747694;;;;;;;;;;;;;;0;78,47;0;0;0;0;0;0;0;();(-2000.0, -2000.0);
12:28:53:199;12:28:53:146;1448408691.73;(0.7472115993499756, 0.8176113764444987);91.5029373169;0.678573747694;;;;;;;;;;;;;;0;78,47;0;0;0;0;0;0;0;();(-2000.0, -2000.0);
12:28:53:233;12:28:53:210;1448408691.76;(0.7810388565063476, 0.7898962444729275);89.4434585571;0.733824124883;;;;;;;;;;;;;;0;78,47;0;0;0;0;0;0;0;();(-2000.0, -2000.0);
12:28:53:249;12:28:53:210;1448408691.76;(0.7810388565063476, 0.7898962444729275);89.4434585571;0.733824124883;;;;;;;;;;;;;;0;78,47;0;0;0;0;0;0;0;();(-2000.0, -2000.0);
12:28:53:266;12:28:53:210;1448408691.76;(0.7810388565063476, 0.7898962444729275);89.4434585571;0.733824124883;;;;;;;;;;;;;;0;78,47;0;0;0;0;0;0;0;();(-2000.0, -2000.0);
12:28:53:283;12:28:53:276;1448408691.86;(0, 0);0;0;;;;;;;;;;;;;;0;78,47;0;0;0;0;0;0;0;();(-2000.0, -2000.0);
12:28:53:299;12:28:53:276;1448408691.86;(0, 0);0;0;;;;;;;;;;;;;;0;78,47;0;0;0;0;0;0;0;();(-2000.0, -2000.0);
12:28:53:333;12:28:53:276;1448408691.86;(0, 0);0;0;;;;;;;;;;;;;;0;78,47;0;0;0;0;0;0;0;();(-2000.0, -2000.0);
12:28:53:350;12:28:53:276;1448408691.86;(0, 0);0;0;;;;;;;;;;;;;;0;78,47;0;0;0;0;0;0;0;();(-2000.0, -2000.0);
12:28:53:366;12:28:53:276;1448408691.86;(0, 0);0;0;;;;;;;;;;;;;;0;78,47;0;0;0;0;0;0;0;();(-2000.0, -2000.0);
12:28:53:382;12:28:53:276;1448408691.86;(0, 0);0;0;;;;;;;;;;;;;;0;78,47;0;0;0;0;0;0;0;();(-2000.0, -2000.0);
12:28:53:399;12:28:53:276;1448408691.86;(0, 0);0;0;;;;;;;;;;;;;;0;78,47;0;0;0;0;0;0;0;();(-2000.0, -2000.0);
12:28:53:433;12:28:53:276;1448408691.86;(0, 0);0;0;;;;;;;;;;;;;;0;78,47;0;0;0;0;0;0;0;();(-2000.0, -2000.0);
12:28:53:449;12:28:53:276;1448408691.86;(0, 0);0;0;;;;;;;;;;;;;;0;78,47;0;0;0;0;0;0;0;();(-2000.0, -2000.0);
12:28:53:466;12:28:53:276;1448408691.86;(0, 0);0;0;;;;;;;;;;;;;;0;78,47;0;0;0;0;0;0;0;();(-2000.0, -2000.0);
12:28:53:483;12:28:53:481;1448408691.96;(0.7712911128997803, 0.8021202193366157);89.9802322388;1.0;;;;;;;;;;;;;;0;78,47;0;0;0;0;0;0;0;();(-2000.0, -2000.0);
12:28:53:499;12:28:53:484;1448408692.03;(0.7671928405761719, 0.8075125800238715);89.9931411743;0.941332438148;;;;;;;;;;;;;;0;78,47;0;0;0;0;0;0;0;();(-2000.0, -2000.0);
12:28:53:533;12:28:53:484;1448408692.03;(0.7671928405761719, 0.8075125800238715);89.9931411743;0.941332438148;;;;;;;;;;;;;;0;78,47;0;0;0;0;0;0;0;();(-2000.0, -2000.0);
12:28:53:550;12:28:53:542;1448408692.1;(0, 0);0;0;;;;;;;;;;;;;;0;78,47;0;0;0;0;0;0;0;();(-2000.0, -2000.0);
12:28:53:566;12:28:53:542;1448408692.1;(0, 0);0;0;;;;;;;;;;;;;;0;78,47;0;0;0;0;0;0;0;();(-2000.0, -2000.0);
12:28:53:583;12:28:53:542;1448408692.1;(0, 0);0;0;;;;;;;;;;;;;;0;78,47;0;0;0;0;0;0;0;();(-2000.0, -2000.0);
12:28:53:599;12:28:53:542;1448408692.1;(0, 0);0;0;;;;;;;;;;;;;;0;78,47;0;0;0;0;0;0;0;();(-2000.0, -2000.0);
12:28:53:633;12:28:53:607;1448408692.16;(0, 0);0;0;;;;;;;;;;;;;;0;78,47;0;0;0;0;0;0;0;();(-2000.0, -2000.0);
12:28:53:650;12:28:53:607;1448408692.16;(0, 0);0;0;;;;;;;;;;;;;;0;78,47;0;0;0;0;0;0;0;();(-2000.0, -2000.0);
12:28:53:667;12:28:53:607;1448408692.16;(0, 0);0;0;;;;;;;;;;;;;;0;78,47;0;0;0;0;0;0;0;();(-2000.0, -2000.0);
12:28:53:683;12:28:53:674;1448408692.23;(0.7612106323242187, 0.8135723855760362);81.4329223633;0.64917948773;;;;;;;;;;;;;;0;78,47;0;0;0;0;0;0;0;();(-2000.0, -2000.0);
12:28:53:699;12:28:53:674;1448408692.23;(0.7612106323242187, 0.8135723855760362);81.4329223633;0.64917948773;;;;;;;;;;;;;;0;78,47;0;0;0;0;0;0;0;();(-2000.0, -2000.0);
12:28:53:733;12:28:53:674;1448408692.23;(0.7612106323242187, 0.8135723855760362);81.4329223633;0.64917948773;;;;;;;;;;;;;;0;78,47;0;0;0;0;0;0;0;();(-2000.0, -2000.0);
12:28:53:750;12:28:53:743;1448408692.3;(0.7596965789794922, 0.8222854084438748);90.7019424438;0.919213491032;;;;;;;;;;;;;;0;78,47;0;0;0;0;0;0;0;();(-2000.0, -2000.0);
12:28:53:767;12:28:53:743;1448408692.3;(0.7596965789794922, 0.8222854084438748);90.7019424438;0.919213491032;;;;;;;;;;;;;;0;78,47;0;0;0;0;0;0;0;();(-2000.0, -2000.0);
12:28:53:783;12:28:53:743;1448408692.3;(0.7596965789794922, 0.8222854084438748);90.7019424438;0.919213491032;;;;;;;;;;;;;;0;78,47;0;0;0;0;0;0;0;();(-2000.0, -2000.0);
12:28:53:800;12:28:53:743;1448408692.3;(0.7596965789794922, 0.8222854084438748);90.7019424438;0.919213491032;;;;;;;;;;;;;;0;78,47;0;0;0;0;0;0;0;();(-2000.0, -2000.0);
12:28:53:833;12:28:53:806;1448408692.36;(0.75888032913208, 0.8243156962924534);90.3316116333;0.906667966231;;;;;;;;;;;;;;0;78,47;0;0;0;0;0;0;0;();(-2000.0, -2000.0);
12:28:53:850;12:28:53:806;1448408692.36;(0.75888032913208, 0.8243156962924534);90.3316116333;0.906667966231;;;;;;;;;;;;;;0;78,47;0;0;0;0;0;0;0;();(-2000.0, -2000.0);
12:28:53:866;12:28:53:806;1448408692.36;(0.75888032913208, 0.8243156962924534);90.3316116333;0.906667966231;;;;;;;;;;;;;;0;78,47;0;0;0;0;0;0;0;();(-2000.0, -2000.0);
12:28:53:883;12:28:53:878;1448408692.46;(0.756936502456665, 0.8270166397094727);91.3039932251;0.874846615359;;;;;;;;;;;;;;0;78,47;0;0;0;0;0;0;0;();(-2000.0, -2000.0);
12:28:53:900;12:28:53:878;1448408692.46;(0.756936502456665, 0.8270166397094727);91.3039932251;0.874846615359;;;;;;;;;;;;;;0;78,47;0;0;0;0;0;0;0;();(-2000.0, -2000.0);
12:28:53:933;12:28:53:878;1448408692.46;(0.756936502456665, 0.8270166397094727);91.3039932251;0.874846615359;;;;;;;;;;;;;;0;78,47;0;0;0;0;0;0;0;();(-2000.0, -2000.0);
12:28:53:950;12:28:53:938;1448408692.5;(0.7563681125640869, 0.8269066386752658);91.0422210693;0.895746900531;;;;;;;;;;;;;;0;78,47;0;0;0;0;0;0;0;();(-2000.0, -2000.0);
12:28:53:967;12:28:53:938;1448408692.5;(0.7563681125640869, 0.8269066386752658);91.0422210693;0.895746900531;;;;;;;;;;;;;;0;78,47;0;0;0;0;0;0;0;();(-2000.0, -2000.0);
12:28:53:984;12:28:53:938;1448408692.5;(0.7563681125640869, 0.8269066386752658);91.0422210693;0.895746900531;;;;;;;;;;;;;;0;78,47;0;0;0;0;0;0;0;();(-2000.0, -2000.0);
12:28:54:000;12:28:53:938;1448408692.5;(0.7563681125640869, 0.8269066386752658);91.0422210693;0.895746900531;;;;;;;;;;;;;;0;78,47;0;0;0;0;0;0;0;();(-2000.0, -2000.0);
12:28:54:017;12:28:54:008;1448408692.56;(0.7538223266601562, 0.8284114413791233);91.3382034302;0.779048789692;;;;;;;;;;;;;;0;78,47;0;0;0;0;0;0;0;();(-2000.0, -2000.0);
12:28:54:050;12:28:54:008;1448408692.56;(0.7538223266601562, 0.8284114413791233);91.3382034302;0.779048789692;;;;;;;;;;;;;;0;78,47;0;0;0;0;0;0;0;();(-2000.0, -2000.0);
12:28:54:067;12:28:54:008;1448408692.56;(0.7538223266601562, 0.8284114413791233);91.3382034302;0.779048789692;;;;;;;;;;;;;;0;78,47;0;0;0;0;0;0;0;();(-2000.0, -2000.0);
12:28:54:083;12:28:54:074;1448408692.63;(0.9544277191162109, 0.5650182088216146);55.6212234497;0.749329405232;;;;;;;;;;;;;;0;78,47;0;0;0;0;0;0;0;();(-2000.0, -2000.0);
12:28:54:100;12:28:54:074;1448408692.63;(0.9544277191162109, 0.5650182088216146);55.6212234497;0.749329405232;;;;;;;;;;;;;;0;78,47;0;0;0;0;0;0;0;();(-2000.0, -2000.0);
12:28:54:117;12:28:54:074;1448408692.63;(0.9544277191162109, 0.5650182088216146);55.6212234497;0.749329405232;;;;;;;;;;;;;;0;78,47;0;0;0;0;0;0;0;();(-2000.0, -2000.0);
12:28:54:150;12:28:54:139;1448408692.7;(0, 0);0;0;;;;;;;;;;;;;;0;78,47;0;0;0;0;0;0;0;();(-2000.0, -2000.0);
12:28:54:166;12:28:54:139;1448408692.7;(0, 0);0;0;;;;;;;;;;;;;;0;78,47;0;0;0;0;0;0;0;();(-2000.0, -2000.0);
12:28:54:184;12:28:54:139;1448408692.7;(0, 0);0;0;;;;;;;;;;;;;;0;78,47;0;0;0;0;0;0;0;();(-2000.0, -2000.0);
12:28:54:200;12:28:54:139;1448408692.7;(0, 0);0;0;;;;;;;;;;;;;;0;78,47;0;0;0;0;0;0;0;();(-2000.0, -2000.0);
12:28:54:217;12:28:54:211;1448408692.8;(0.7532522201538085, 0.8288696924845378);92.478302002;0.990061982526;;;;;;;;;;;;;;0;78,47;0;0;0;0;0;0;0;();(-2000.0, -2000.0);
12:28:54:250;12:28:54:211;1448408692.8;(0.7532522201538085, 0.8288696924845378);92.478302002;0.990061982526;;;;;;;;;;;;;;0;78,47;0;0;0;0;0;0;0;();(-2000.0, -2000.0);
12:28:54:267;12:28:54:211;1448408692.8;(0.7532522201538085, 0.8288696924845378);92.478302002;0.990061982526;;;;;;;;;;;;;;0;78,47;0;0;0;0;0;0;0;();(-2000.0, -2000.0);
12:28:54:283;12:28:54:270;1448408692.83;(0.7535248756408691, 0.8278145260281033);92.4825057983;1.0;;;;;;;;;;;;;;0;78,47;0;0;0;0;0;0;0;();(-2000.0, -2000.0);
12:28:54:300;12:28:54:270;1448408692.83;(0.7535248756408691, 0.8278145260281033);92.4825057983;1.0;;;;;;;;;;;;;;0;78,47;0;0;0;0;0;0;0;();(-2000.0, -2000.0);
12:28:54:316;12:28:54:270;1448408692.83;(0.7535248756408691, 0.8278145260281033);92.4825057983;1.0;;;;;;;;;;;;;;0;78,47;0;0;0;0;0;0;0;();(-2000.0, -2000.0);
12:28:54:350;12:28:54:341;1448408692.93;(0.7544365882873535, 0.8265738275316026);93.7052001953;0.984051111038;;;;;;;;;;;;;;0;78,47;0;0;0;0;0;0;0;();(-2000.0, -2000.0);
12:28:54:367;12:28:54:341;1448408692.93;(0.7544365882873535, 0.8265738275316026);93.7052001953;0.984051111038;;;;;;;;;;;;;;0;78,47;0;0;0;0;0;0;0;();(-2000.0, -2000.0);
12:28:54:384;12:28:54:341;1448408692.93;(0.7544365882873535, 0.8265738275316026);93.7052001953;0.984051111038;;;;;;;;;;;;;;0;78,47;0;0;0;0;0;0;0;();(-2000.0, -2000.0);
12:28:54:400;12:28:54:341;1448408692.93;(0.7544365882873535, 0.8265738275316026);93.7052001953;0.984051111038;;;;;;;;;;;;;;0;78,47;0;0;0;0;0;0;0;();(-2000.0, -2000.0);
12:28:54:417;12:28:54:407;1448408693.0;(0.7545501232147217, 0.8250669161478679);93.7661209106;0.881546639423;;;;;;;;;;;;;;0;78,47;0;0;0;0;0;0;0;();(-2000.0, -2000.0);
12:28:54:450;12:28:54:407;1448408693.0;(0.7545501232147217, 0.8250669161478679);93.7661209106;0.881546639423;;;;;;;;;;;;;;0;78,47;0;0;0;0;0;0;0;();(-2000.0, -2000.0);
12:28:54:467;12:28:54:407;1448408693.0;(0.7545501232147217, 0.8250669161478679);93.7661209106;0.881546639423;;;;;;;;;;;;;;0;78,47;0;0;0;0;0;0;0;();(-2000.0, -2000.0);
12:28:54:484;12:28:54:471;1448408693.03;(0.7540995121002197, 0.8244279755486382);94.0481185913;0.907963094263;;;;;;;;;;;;;;0;78,47;0;0;0;0;0;0;0;();(-2000.0, -2000.0);
12:28:54:500;12:28:54:471;1448408693.03;(0.7540995121002197, 0.8244279755486382);94.0481185913;0.907963094263;;;;;;;;;;;;;;0;78,47;0;0;0;0;0;0;0;();(-2000.0, -2000.0);
12:28:54:517;12:28:54:471;1448408693.03;(0.7540995121002197, 0.8244279755486382);94.0481185913;0.907963094263;;;;;;;;;;;;;;0;78,47;0;0;0;0;0;0;0;();(-2000.0, -2000.0);
12:28:54:550;12:28:54:539;1448408693.1;(0.7533549308776856, 0.822887102762858);94.6332550049;0.944541631162;;;;;;;;;;;;;;0;78,47;0;0;0;0;0;0;0;();(-2000.0, -2000.0);
12:28:54:567;12:28:54:539;1448408693.1;(0.7533549308776856, 0.822887102762858);94.6332550049;0.944541631162;;;;;;;;;;;;;;0;78,47;0;0;0;0;0;0;0;();(-2000.0, -2000.0);
12:28:54:584;12:28:54:539;1448408693.1;(0.7533549308776856, 0.822887102762858);94.6332550049;0.944541631162;;;;;;;;;;;;;;0;78,47;0;0;0;0;0;0;0;();(-2000.0, -2000.0);
12:28:54:601;12:28:54:539;1448408693.1;(0.7533549308776856, 0.822887102762858);94.6332550049;0.944541631162;;;;;;;;;;;;;;0;78,47;0;0;0;0;0;0;0;();(-2000.0, -2000.0);
12:28:54:618;12:28:54:605;1448408693.16;(0, 0);0;0;;;;;;;;;;;;;;0;78,47;0;0;0;0;0;0;0;();(-2000.0, -2000.0);
12:28:54:651;12:28:54:605;1448408693.16;(0, 0);0;0;;;;;;;;;;;;;;0;78,47;0;0;0;0;0;0;0;();(-2000.0, -2000.0);
12:28:54:667;12:28:54:605;1448408693.16;(0, 0);0;0;;;;;;;;;;;;;;0;78,47;0;0;0;0;0;0;0;();(-2000.0, -2000.0);
12:28:54:684;12:28:54:671;1448408693.23;(0, 0);0;0;;;;;;;;;;;;;;0;78,47;0;0;0;0;0;0;0;();(-2000.0, -2000.0);
12:28:54:700;12:28:54:671;1448408693.23;(0, 0);0;0;;;;;;;;;;;;;;0;78,47;0;0;0;0;0;0;0;();(-2000.0, -2000.0);
12:28:54:717;12:28:54:671;1448408693.23;(0, 0);0;0;;;;;;;;;;;;;;0;78,47;0;0;0;0;0;0;0;();(-2000.0, -2000.0);
12:28:54:750;12:28:54:671;1448408693.23;(0, 0);0;0;;;;;;;;;;;;;;0;78,47;0;0;0;0;0;0;0;();(-2000.0, -2000.0);
12:28:54:767;12:28:54:757;1448408693.3;(0, 0);0;0;;;;;;;;;;;;;;0;78,47;0;0;0;0;0;0;0;();(-2000.0, -2000.0);
12:28:54:784;12:28:54:757;1448408693.3;(0, 0);0;0;;;;;;;;;;;;;;0;78,47;0;0;0;0;0;0;0;();(-2000.0, -2000.0);
12:28:54:801;12:28:54:757;1448408693.3;(0, 0);0;0;;;;;;;;;;;;;;0;78,47;0;0;0;0;0;0;0;();(-2000.0, -2000.0);
12:28:54:817;12:28:54:804;1448408693.36;(0.6805806636810303, 0.84092042711046);93.8685302734;0.740569014494;;;;;;;;;;;;;;0;78,47;0;0;0;0;0;0;0;();(-2000.0, -2000.0);
12:28:54:851;12:28:54:804;1448408693.36;(0.6805806636810303, 0.84092042711046);93.8685302734;0.740569014494;;;;;;;;;;;;;;0;78,47;0;0;0;0;0;0;0;();(-2000.0, -2000.0);
12:28:54:868;12:28:54:804;1448408693.36;(0.6805806636810303, 0.84092042711046);93.8685302734;0.740569014494;;;;;;;;;;;;;;0;78,47;0;0;0;0;0;0;0;();(-2000.0, -2000.0);
12:28:54:884;12:28:54:874;1448408693.43;(0.951256275177002, 0.4654219309488933);23.2618370056;0.62762969237;;;;;;;;;;;;;;0;78,47;0;0;0;0;0;0;0;();(-2000.0, -2000.0);
12:28:54:901;12:28:54:874;1448408693.43;(0.951256275177002, 0.4654219309488933);23.2618370056;0.62762969237;;;;;;;;;;;;;;0;78,47;0;0;0;0;0;0;0;();(-2000.0, -2000.0);
12:28:54:917;12:28:54:874;1448408693.43;(0.951256275177002, 0.4654219309488933);23.2618370056;0.62762969237;;;;;;;;;;;;;;0;78,47;0;0;0;0;0;0;0;();(-2000.0, -2000.0);
12:28:54:951;12:28:54:935;1448408693.5;(0, 0);0;0;;;;;;;;;;;;;;0;78,47;0;0;0;0;0;0;0;();(-2000.0, -2000.0);
12:28:54:967;12:28:54:935;1448408693.5;(0, 0);0;0;;;;;;;;;;;;;;0;78,47;0;0;0;0;0;0;0;();(-2000.0, -2000.0);
12:28:54:984;12:28:54:935;1448408693.5;(0, 0);0;0;;;;;;;;;;;;;;0;78,47;0;0;0;0;0;0;0;();(-2000.0, -2000.0);
12:28:55:001;12:28:54:935;1448408693.5;(0, 0);0;0;;;;;;;;;;;;;;0;78,47;0;0;0;0;0;0;0;();(-2000.0, -2000.0);
12:28:55:018;12:28:55:005;1448408693.56;(0.9459686279296875, 0.46414099799262154);24.9181537628;0.70157952337;;;;;;;;;;;;;;0;78,47;0;0;0;0;0;0;0;();(-2000.0, -2000.0);
12:28:55:051;12:28:55:005;1448408693.56;(0.9459686279296875, 0.46414099799262154);24.9181537628;0.70157952337;;;;;;;;;;;;;;0;78,47;0;0;0;0;0;0;0;();(-2000.0, -2000.0);
12:28:55:068;12:28:55:005;1448408693.56;(0.9459686279296875, 0.46414099799262154);24.9181537628;0.70157952337;;;;;;;;;;;;;;0;78,47;0;0;0;0;0;0;0;();(-2000.0, -2000.0);
12:28:55:085;12:28:55:072;1448408693.63;(0.7519023895263672, 0.812959967719184);94.777015686;1.0;;;;;;;;;;;;;;0;78,47;0;0;0;0;0;0;0;();(-2000.0, -2000.0);
12:28:55:101;12:28:55:072;1448408693.63;(0.7519023895263672, 0.812959967719184);94.777015686;1.0;;;;;;;;;;;;;;0;78,47;0;0;0;0;0;0;0;();(-2000.0, -2000.0);
12:28:55:117;12:28:55:072;1448408693.63;(0.7519023895263672, 0.812959967719184);94.777015686;1.0;;;;;;;;;;;;;;0;78,47;0;0;0;0;0;0;0;();(-2000.0, -2000.0);
12:28:55:151;12:28:55:135;1448408693.7;(0.7520221710205078, 0.8152801937527127);94.8895721436;0.877838461079;;;;;;;;;;;;;;0;78,47;0;0;0;0;0;0;0;();(-2000.0, -2000.0);
12:28:55:168;12:28:55:135;1448408693.7;(0.7520221710205078, 0.8152801937527127);94.8895721436;0.877838461079;;;;;;;;;;;;;;0;78,47;0;0;0;0;0;0;0;();(-2000.0, -2000.0);
12:28:55:185;12:28:55:135;1448408693.7;(0.7520221710205078, 0.8152801937527127);94.8895721436;0.877838461079;;;;;;;;;;;;;;0;78,47;0;0;0;0;0;0;0;();(-2000.0, -2000.0);
12:28:55:201;12:28:55:135;1448408693.7;(0.7520221710205078, 0.8152801937527127);94.8895721436;0.877838461079;;;;;;;;;;;;;;0;78,47;0;0;0;0;0;0;0;();(-2000.0, -2000.0);
12:28:55:218;12:28:55:205;1448408693.76;(0.751729154586792, 0.8146773444281684);94.5767364502;1.0;;;;;;;;;;;;;;0;78,47;0;0;0;0;0;0;0;();(-2000.0, -2000.0);
12:28:55:251;12:28:55:205;1448408693.76;(0.751729154586792, 0.8146773444281684);94.5767364502;1.0;;;;;;;;;;;;;;0;78,47;0;0;0;0;0;0;0;();(-2000.0, -2000.0);
12:28:55:267;12:28:55:265;1448408693.8;(0.7515595912933349, 0.8144373575846354);94.4035415649;1.0;;;;;;;;;;;;;;0;78,47;0;0;0;0;0;0;0;();(-2000.0, -2000.0);
12:28:55:285;12:28:55:266;1448408693.83;(0.7515092849731445, 0.8150020599365234);93.9006118774;1.0;;;;;;;;;;;;;;0;78,47;0;0;0;0;0;0;0;();(-2000.0, -2000.0);
12:28:55:301;12:28:55:266;1448408693.83;(0.7515092849731445, 0.8150020599365234);93.9006118774;1.0;;;;;;;;;;;;;;0;78,47;0;0;0;0;0;0;0;();(-2000.0, -2000.0);
12:28:55:318;12:28:55:266;1448408693.83;(0.7515092849731445, 0.8150020599365234);93.9006118774;1.0;;;;;;;;;;;;;;0;78,47;0;0;0;0;0;0;0;();(-2000.0, -2000.0);
12:28:55:351;12:28:55:335;1448408693.9;(0.750835657119751, 0.8156322903103299);94.138420105;0.862227848091;;;;;;;;;;;;;;0;78,47;0;0;0;0;0;0;0;();(-2000.0, -2000.0);
12:28:55:368;12:28:55:335;1448408693.9;(0.750835657119751, 0.8156322903103299);94.138420105;0.862227848091;;;;;;;;;;;;;;0;78,47;0;0;0;0;0;0;0;();(-2000.0, -2000.0);
12:28:55:385;12:28:55:335;1448408693.9;(0.750835657119751, 0.8156322903103299);94.138420105;0.862227848091;;;;;;;;;;;;;;0;78,47;0;0;0;0;0;0;0;();(-2000.0, -2000.0);
12:28:55:401;12:28:55:335;1448408693.9;(0.750835657119751, 0.8156322903103299);94.138420105;0.862227848091;;;;;;;;;;;;;;0;78,47;0;0;0;0;0;0;0;();(-2000.0, -2000.0);
12:28:55:418;12:28:55:405;1448408693.96;(0, 0);0;0;;;;;;;;;;;;;;0;78,47;0;0;0;0;0;0;0;();(-2000.0, -2000.0);
12:28:55:451;12:28:55:405;1448408693.96;(0, 0);0;0;;;;;;;;;;;;;;0;78,47;0;0;0;0;0;0;0;();(-2000.0, -2000.0);
12:28:55:468;12:28:55:467;1448408694.0;(0, 0);0;0;;;;;;;;;;;;;;0;78,47;0;0;0;0;0;0;0;();(-2000.0, -2000.0);
12:28:55:484;12:28:55:468;1448408694.03;(0.9421313285827637, 0.5180152045355904);27.7275180817;0.714048619215;;;;;;;;;;;;;;0;78,47;0;0;0;0;0;0;0;();(-2000.0, -2000.0);
12:28:55:501;12:28:55:468;1448408694.03;(0.9421313285827637, 0.5180152045355904);27.7275180817;0.714048619215;;;;;;;;;;;;;;0;78,47;0;0;0;0;0;0;0;();(-2000.0, -2000.0);
12:28:55:518;12:28:55:468;1448408694.03;(0.9421313285827637, 0.5180152045355904);27.7275180817;0.714048619215;;;;;;;;;;;;;;0;78,47;0;0;0;0;0;0;0;();(-2000.0, -2000.0);
12:28:55:551;12:28:55:536;1448408694.1;(0.36616952419281007, 0.6287215550740559);24.3417549133;0.66887415865;;;;;;;;;;;;;;0;78,47;0;0;0;0;0;0;0;();(-2000.0, -2000.0);
12:28:55:568;12:28:55:536;1448408694.1;(0.36616952419281007, 0.6287215550740559);24.3417549133;0.66887415865;;;;;;;;;;;;;;0;78,47;0;0;0;0;0;0;0;();(-2000.0, -2000.0);
12:28:55:584;12:28:55:536;1448408694.1;(0.36616952419281007, 0.6287215550740559);24.3417549133;0.66887415865;;;;;;;;;;;;;;0;78,47;0;0;0;0;0;0;0;();(-2000.0, -2000.0);
12:28:55:601;12:28:55:600;1448408694.16;(0.7290210247039794, 0.4422405666775173);28.8941402435;0.781250178856;;;;;;;;;;;;;;0;78,47;0;0;0;0;0;0;0;();(-2000.0, -2000.0);
12:28:55:618;12:28:55:600;1448408694.16;(0.7290210247039794, 0.4422405666775173);28.8941402435;0.781250178856;;;;;;;;;;;;;;0;78,47;0;0;0;0;0;0;0;();(-2000.0, -2000.0);
12:28:55:652;12:28:55:600;1448408694.16;(0.7290210247039794, 0.4422405666775173);28.8941402435;0.781250178856;;;;;;;;;;;;;;0;78,47;0;0;0;0;0;0;0;();(-2000.0, -2000.0);
12:28:55:668;12:28:55:667;1448408694.23;(0.9390475273132324, 0.4905590057373047);27.5352287292;0.671453399768;;;;;;;;;;;;;;0;78,47;0;0;0;0;0;0;0;();(-2000.0, -2000.0);
12:28:55:685;12:28:55:667;1448408694.23;(0.9390475273132324, 0.4905590057373047);27.5352287292;0.671453399768;;;;;;;;;;;;;;0;78,47;0;0;0;0;0;0;0;();(-2000.0, -2000.0);
12:28:55:701;12:28:55:667;1448408694.23;(0.9390475273132324, 0.4905590057373047);27.5352287292;0.671453399768;;;;;;;;;;;;;;0;78,47;0;0;0;0;0;0;0;();(-2000.0, -2000.0);
12:28:55:719;12:28:55:667;1448408694.23;(0.9390475273132324, 0.4905590057373047);27.5352287292;0.671453399768;;;;;;;;;;;;;;0;78,47;0;0;0;0;0;0;0;();(-2000.0, -2000.0);
12:28:55:752;12:28:55:734;1448408694.3;(0.796522855758667, 0.7261819627549913);20.7215061188;0.610866035247;;;;;;;;;;;;;;0;78,47;0;0;0;0;0;0;0;();(-2000.0, -2000.0);
12:28:55:768;12:28:55:734;1448408694.3;(0.796522855758667, 0.7261819627549913);20.7215061188;0.610866035247;;;;;;;;;;;;;;0;78,47;0;0;0;0;0;0;0;();(-2000.0, -2000.0);
12:28:55:785;12:28:55:734;1448408694.3;(0.796522855758667, 0.7261819627549913);20.7215061188;0.610866035247;;;;;;;;;;;;;;0;78,47;0;0;0;0;0;0;0;();(-2000.0, -2000.0);
12:28:55:801;12:28:55:799;1448408694.36;(0.7108934879302978, 0.7306648678249783);23.4175930023;0.750999218986;;;;;;;;;;;;;;0;78,47;0;0;0;0;0;0;0;();(-2000.0, -2000.0);
12:28:55:818;12:28:55:799;1448408694.36;(0.7108934879302978, 0.7306648678249783);23.4175930023;0.750999218986;;;;;;;;;;;;;;0;78,47;0;0;0;0;0;0;0;();(-2000.0, -2000.0);
12:28:55:851;12:28:55:799;1448408694.36;(0.7108934879302978, 0.7306648678249783);23.4175930023;0.750999218986;;;;;;;;;;;;;;0;78,47;0;0;0;0;0;0;0;();(-2000.0, -2000.0);
12:28:55:868;12:28:55:867;1448408694.43;(0, 0);0;0;;;;;;;;;;;;;;0;78,47;0;0;0;0;0;0;0;();(-2000.0, -2000.0);
12:28:55:885;12:28:55:867;1448408694.43;(0, 0);0;0;;;;;;;;;;;;;;0;78,47;0;0;0;0;0;0;0;();(-2000.0, -2000.0);
12:28:55:901;12:28:55:867;1448408694.43;(0, 0);0;0;;;;;;;;;;;;;;0;78,47;0;0;0;0;0;0;0;();(-2000.0, -2000.0);
12:28:55:918;12:28:55:867;1448408694.43;(0, 0);0;0;;;;;;;;;;;;;;0;78,47;0;0;0;0;0;0;0;();(-2000.0, -2000.0);
12:28:55:952;12:28:55:931;1448408694.5;(0.9383895874023438, 0.4555791642930772);25.0875701904;0.791784746136;;;;;;;;;;;;;;0;78,47;0;0;0;0;0;0;0;();(-2000.0, -2000.0);
12:28:55:971;12:28:55:931;1448408694.5;(0.9383895874023438, 0.4555791642930772);25.0875701904;0.791784746136;;;;;;;;;;;;;;0;78,47,70,40;0;0;0;0;0;0;0;();(-2000.0, -2000.0);
12:28:55:985;12:28:55:931;1448408694.5;(0.9383895874023438, 0.4555791642930772);25.0875701904;0.791784746136;;;;;;;;;;;;;;0;78,47,70,40;0;0;0;0;0;0;0;();(-2000.0, -2000.0);
12:28:56:001;12:28:55:999;1448408694.56;(0.9398059844970703, 0.5569170633951823);25.4173164368;0.694810501306;;;;;;;;;;;;;;0;78,47,70,40;0;0;0;0;0;0;0;();(-2000.0, -2000.0);
12:28:56:019;12:28:55:999;1448408694.56;(0.9398059844970703, 0.5569170633951823);25.4173164368;0.694810501306;;;;;;;;;;;;;;0;78,47,70,40;0;0;0;0;0;0;0;();(-2000.0, -2000.0);
12:28:56:052;12:28:55:999;1448408694.56;(0.9398059844970703, 0.5569170633951823);25.4173164368;0.694810501306;;;;;;;;;;;;;;0;78,47,70,40;0;0;0;0;0;0;0;();(-2000.0, -2000.0);
12:28:56:068;12:28:56:062;1448408694.63;(0.2538539171218872, 0.6929517110188802);23.1791591644;0.648378420147;;;;;;;;;;;;;;0;78,47,70,40;0;0;0;0;0;0;0;();(-2000.0, -2000.0);
12:28:56:085;12:28:56:062;1448408694.63;(0.2538539171218872, 0.6929517110188802);23.1791591644;0.648378420147;;;;;;;;;;;;;;0;78,47,70,40;0;0;0;0;0;0;0;();(-2000.0, -2000.0);
12:28:56:102;12:28:56:062;1448408694.63;(0.2538539171218872, 0.6929517110188802);23.1791591644;0.648378420147;;;;;;;;;;;;;;0;78,47,70,40;0;0;0;0;0;0;0;();(-2000.0, -2000.0);
12:28:56:119;12:28:56:062;1448408694.63;(0.2538539171218872, 0.6929517110188802);23.1791591644;0.648378420147;;;;;;;;;;;;;;0;78,47,70,40;0;0;0;0;0;0;0;();(-2000.0, -2000.0);
12:28:56:152;12:28:56:131;1448408694.7;(0.3882368326187134, 0.8892959329817031);34.3924827576;0.613157823837;;;;;;;;;;;;;;0;78,47,70,40;0;0;0;0;0;0;0;();(-2000.0, -2000.0);
12:28:56:169;12:28:56:131;1448408694.7;(0.3882368326187134, 0.8892959329817031);34.3924827576;0.613157823837;;;;;;;;;;;;;;0;78,47,70,40;0;0;0;0;0;0;0;();(-2000.0, -2000.0);
12:28:56:185;12:28:56:131;1448408694.7;(0.3882368326187134, 0.8892959329817031);34.3924827576;0.613157823837;;;;;;;;;;;;;;0;78,47,70,40;0;0;0;0;0;0;0;();(-2000.0, -2000.0);
12:28:56:202;12:28:56:198;1448408694.73;(0, 0);0;0;;;;;;;;;;;;;;0;78,47,70,40;0;0;0;0;0;0;0;();(-2000.0, -2000.0);
12:28:56:218;12:28:56:198;1448408694.73;(0, 0);0;0;;;;;;;;;;;;;;0;78,47,70,40;0;0;0;0;0;0;0;();(-2000.0, -2000.0);
12:28:56:252;12:28:56:198;1448408694.73;(0, 0);0;0;;;;;;;;;;;;;;0;78,47,70,40;0;0;0;0;0;0;0;();(-2000.0, -2000.0);
12:28:56:269;12:28:56:264;1448408694.83;(0.6654175758361817, 0.8263373798794217);93.4854888916;0.705375451882;;;;;;;;;;;;;;0;78,47,70,40;0;0;0;0;0;0;0;();(-2000.0, -2000.0);
12:28:56:285;12:28:56:264;1448408694.83;(0.6654175758361817, 0.8263373798794217);93.4854888916;0.705375451882;;;;;;;;;;;;;;0;78,47,70,40;0;0;0;0;0;0;0;();(-2000.0, -2000.0);
12:28:56:302;12:28:56:264;1448408694.83;(0.6654175758361817, 0.8263373798794217);93.4854888916;0.705375451882;;;;;;;;;;;;;;0;78,47,70,40;0;0;0;0;0;0;0;();(-2000.0, -2000.0);
12:28:56:319;12:28:56:264;1448408694.83;(0.6654175758361817, 0.8263373798794217);93.4854888916;0.705375451882;;;;;;;;;;;;;;0;78,47,70,40;0;0;0;0;0;0;0;();(-2000.0, -2000.0);
12:28:56:352;12:28:56:331;1448408694.9;(0, 0);0;0;;;;;;;;;;;;;;0;78,47,70,40;0;0;0;0;0;0;0;();(-2000.0, -2000.0);
12:28:56:369;12:28:56:331;1448408694.9;(0, 0);0;0;;;;;;;;;;;;;;0;78,47,70,40;0;0;0;0;0;0;0;();(-2000.0, -2000.0);
12:28:56:385;12:28:56:331;1448408694.9;(0, 0);0;0;;;;;;;;;;;;;;0;78,47,70,40;0;0;0;0;0;0;0;();(-2000.0, -2000.0);
12:28:56:402;12:28:56:395;1448408694.96;(0.6655853271484375, 0.8218570179409451);94.714805603;0.837401087489;;;;;;;;;;;;;;0;78,47,70,40;0;0;0;0;0;0;0;();(-2000.0, -2000.0);
12:28:56:419;12:28:56:395;1448408694.96;(0.6655853271484375, 0.8218570179409451);94.714805603;0.837401087489;;;;;;;;;;;;;;0;78,47,70,40;0;0;0;0;0;0;0;();(-2000.0, -2000.0);
12:28:56:452;12:28:56:395;1448408694.96;(0.6655853271484375, 0.8218570179409451);94.714805603;0.837401087489;;;;;;;;;;;;;;0;78,47,70,40;0;0;0;0;0;0;0;();(-2000.0, -2000.0);
12:28:56:469;12:28:56:463;1448408695.03;(0.3950255632400513, 0.8906062232123481);43.4430427551;0.67398358108;;;;;;;;;;;;;;0;78,47,70,40;0;0;0;0;0;0;0;();(-2000.0, -2000.0);
12:28:56:485;12:28:56:463;1448408695.03;(0.3950255632400513, 0.8906062232123481);43.4430427551;0.67398358108;;;;;;;;;;;;;;0;78,47,70,40;0;0;0;0;0;0;0;();(-2000.0, -2000.0);
12:28:56:502;12:28:56:463;1448408695.03;(0.3950255632400513, 0.8906062232123481);43.4430427551;0.67398358108;;;;;;;;;;;;;;0;78,47,70,40;0;0;0;0;0;0;0;();(-2000.0, -2000.0);
12:28:56:519;12:28:56:463;1448408695.03;(0.3950255632400513, 0.8906062232123481);43.4430427551;0.67398358108;;;;;;;;;;;;;;0;78,47,70,40;0;0;0;0;0;0;0;();(-2000.0, -2000.0);
12:28:56:552;12:28:56:531;1448408695.1;(0, 0);0;0;;;;;;;;;;;;;;0;78,47,70,40;0;0;0;0;0;0;0;();(-2000.0, -2000.0);
12:28:56:569;12:28:56:531;1448408695.1;(0, 0);0;0;;;;;;;;;;;;;;0;78,47,70,40;0;0;0;0;0;0;0;();(-2000.0, -2000.0);
12:28:56:586;12:28:56:531;1448408695.1;(0, 0);0;0;;;;;;;;;;;;;;0;78,47,70,40;0;0;0;0;0;0;0;();(-2000.0, -2000.0);
12:28:56:602;12:28:56:595;1448408695.16;(0, 0);0;0;;;;;;;;;;;;;;0;78,47,70,40;0;0;0;0;0;0;0;();(-2000.0, -2000.0);
12:28:56:619;12:28:56:595;1448408695.16;(0, 0);0;0;;;;;;;;;;;;;;0;78,47,70,40;0;0;0;0;0;0;0;();(-2000.0, -2000.0);
12:28:56:652;12:28:56:595;1448408695.16;(0, 0);0;0;;;;;;;;;;;;;;0;78,47,70,40;0;0;0;0;0;0;0;();(-2000.0, -2000.0);
12:28:56:669;12:28:56:663;1448408695.23;(0.6460320949554443, 0.48011436462402346);22.6236038208;0.794426716886;;;;;;;;;;;;;;0;78,47,70,40;0;0;0;0;0;0;0;();(-2000.0, -2000.0);
12:28:56:686;12:28:56:663;1448408695.23;(0.6460320949554443, 0.48011436462402346);22.6236038208;0.794426716886;;;;;;;;;;;;;;0;78,47,70,40;0;0;0;0;0;0;0;();(-2000.0, -2000.0);
12:28:56:702;12:28:56:663;1448408695.23;(0.6460320949554443, 0.48011436462402346);22.6236038208;0.794426716886;;;;;;;;;;;;;;0;78,47,70,40;0;0;0;0;0;0;0;();(-2000.0, -2000.0);
12:28:56:720;12:28:56:663;1448408695.23;(0.6460320949554443, 0.48011436462402346);22.6236038208;0.794426716886;;;;;;;;;;;;;;0;78,47,70,40;0;0;0;0;0;0;0;();(-2000.0, -2000.0);
12:28:56:753;12:28:56:727;1448408695.3;(0.20888261795043944, 0.7212377336290148);30.6792526245;0.730808668724;;;;;;;;;;;;;;0;78,47,70,40;0;0;0;0;0;0;0;();(-2000.0, -2000.0);
12:28:56:769;12:28:56:727;1448408695.3;(0.20888261795043944, 0.7212377336290148);30.6792526245;0.730808668724;;;;;;;;;;;;;;0;78,47,70,40;0;0;0;0;0;0;0;();(-2000.0, -2000.0);
12:28:56:785;12:28:56:727;1448408695.3;(0.20888261795043944, 0.7212377336290148);30.6792526245;0.730808668724;;;;;;;;;;;;;;0;78,47,70,40;0;0;0;0;0;0;0;();(-2000.0, -2000.0);
12:28:56:802;12:28:56:794;1448408695.33;(0.4133964776992798, 0.8327187114291721);29.8051548004;0.667317646975;;;;;;;;;;;;;;0;78,47,70,40;0;0;0;0;0;0;0;();(-2000.0, -2000.0);
12:28:56:819;12:28:56:794;1448408695.33;(0.4133964776992798, 0.8327187114291721);29.8051548004;0.667317646975;;;;;;;;;;;;;;0;78,47,70,40;0;0;0;0;0;0;0;();(-2000.0, -2000.0);
12:28:56:852;12:28:56:794;1448408695.33;(0.4133964776992798, 0.8327187114291721);29.8051548004;0.667317646975;;;;;;;;;;;;;;0;78,47,70,40;0;0;0;0;0;0;0;();(-2000.0, -2000.0);
12:28:56:869;12:28:56:863;1448408695.41;(0.7291377067565918, 0.8119363784790039);88.6244735718;0.837851203268;;;;;;;;;;;;;;0;78,47,70,40;0;0;0;0;0;0;0;();(-2000.0, -2000.0);
12:28:56:886;12:28:56:863;1448408695.41;(0.7291377067565918, 0.8119363784790039);88.6244735718;0.837851203268;;;;;;;;;;;;;;0;78,47,70,40;0;0;0;0;0;0;0;();(-2000.0, -2000.0);
12:28:56:903;12:28:56:863;1448408695.41;(0.7291377067565918, 0.8119363784790039);88.6244735718;0.837851203268;;;;;;;;;;;;;;0;78,47,70,40;0;0;0;0;0;0;0;();(-2000.0, -2000.0);
12:28:56:919;12:28:56:863;1448408695.41;(0.7291377067565918, 0.8119363784790039);88.6244735718;0.837851203268;;;;;;;;;;;;;;0;78,47,70,40;0;0;0;0;0;0;0;();(-2000.0, -2000.0);
12:28:56:936;12:28:56:927;1448408695.46;(0.7397312164306641, 0.8036703639560275);89.0689849854;0.857440689044;;;;;;;;;;;;;;0;78,47,70,40;0;0;0;0;0;0;0;();(-2000.0, -2000.0);
12:28:56:969;12:28:56:927;1448408695.46;(0.7397312164306641, 0.8036703639560275);89.0689849854;0.857440689044;;;;;;;;;;;;;;0;78,47,70,40;0;0;0;0;0;0;0;();(-2000.0, -2000.0);
12:28:56:986;12:28:56:927;1448408695.46;(0.7397312164306641, 0.8036703639560275);89.0689849854;0.857440689044;;;;;;;;;;;;;;0;78,47,70,40;0;0;0;0;0;0;0;();(-2000.0, -2000.0);
12:28:57:002;12:28:57:001;1448408695.52;(0.7407301425933838, 0.8051063643561469);89.0381622314;0.873456515171;;;;;;;;;;;;;;0;78,47,70,40;0;0;0;0;0;0;0;();(-2000.0, -2000.0);
12:28:57:020;12:28:57:001;1448408695.52;(0.7407301425933838, 0.8051063643561469);89.0381622314;0.873456515171;;;;;;;;;;;;;;0;78,47,70,40;0;0;0;0;0;0;0;();(-2000.0, -2000.0);
12:28:57:053;12:28:57:001;1448408695.52;(0.7407301425933838, 0.8051063643561469);89.0381622314;0.873456515171;;;;;;;;;;;;;;0;78,47,70,40;0;0;0;0;0;0;0;();(-2000.0, -2000.0);
12:28:57:070;12:28:57:060;1448408695.63;(0.7414788722991943, 0.8059063381618924);89.3817214966;1.0;;;;;;;;;;;;;;0;78,47,70,40;0;0;0;0;0;0;0;();(-2000.0, -2000.0);
12:28:57:086;12:28:57:060;1448408695.63;(0.7414788722991943, 0.8059063381618924);89.3817214966;1.0;;;;;;;;;;;;;;0;78,47,70,40;0;0;0;0;0;0;0;();(-2000.0, -2000.0);
12:28:57:102;12:28:57:060;1448408695.63;(0.7414788722991943, 0.8059063381618924);89.3817214966;1.0;;;;;;;;;;;;;;0;78,47,70,40;0;0;0;0;0;0;0;();(-2000.0, -2000.0);
12:28:57:119;12:28:57:060;1448408695.63;(0.7414788722991943, 0.8059063381618924);89.3817214966;1.0;;;;;;;;;;;;;;0;78,47,70,40;0;0;0;0;0;0;0;();(-2000.0, -2000.0);
12:28:57:136;12:28:57:127;1448408695.7;(0.74128737449646, 0.8058937496609158);89.6734924316;1.0;;;;;;;;;;;;;;0;78,47,70,40;0;0;0;0;0;0;0;();(-2000.0, -2000.0);
12:28:57:169;12:28:57:127;1448408695.7;(0.74128737449646, 0.8058937496609158);89.6734924316;1.0;;;;;;;;;;;;;;0;78,47,70,40;0;0;0;0;0;0;0;();(-2000.0, -2000.0);
12:28:57:186;12:28:57:127;1448408695.7;(0.74128737449646, 0.8058937496609158);89.6734924316;1.0;;;;;;;;;;;;;;0;78,47,70,40;0;0;0;0;0;0;0;();(-2000.0, -2000.0);
12:28:57:203;12:28:57:195;1448408695.76;(0.7370104789733887, 0.7992947154574924);90.6505050659;0.773898507121;;;;;;;;;;;;;;0;78,47,70,40;0;0;0;0;0;0;0;();(-2000.0, -2000.0);
12:28:57:220;12:28:57:195;1448408695.76;(0.7370104789733887, 0.7992947154574924);90.6505050659;0.773898507121;;;;;;;;;;;;;;0;78,47,70,40;0;0;0;0;0;0;0;();(-2000.0, -2000.0);
12:28:57:253;12:28:57:195;1448408695.76;(0.7370104789733887, 0.7992947154574924);90.6505050659;0.773898507121;;;;;;;;;;;;;;0;78,47,70,40;0;0;0;0;0;0;0;();(-2000.0, -2000.0);
12:28:57:269;12:28:57:259;1448408695.83;(0.4471410274505615, 0.5509304894341363);21.4221324921;0.653628315836;;;;;;;;;;;;;;0;78,47,70,40;0;0;0;0;0;0;0;();(-2000.0, -2000.0);
12:28:57:286;12:28:57:259;1448408695.83;(0.4471410274505615, 0.5509304894341363);21.4221324921;0.653628315836;;;;;;;;;;;;;;0;78,47,70,40;0;0;0;0;0;0;0;();(-2000.0, -2000.0);
12:28:57:303;12:28:57:259;1448408695.83;(0.4471410274505615, 0.5509304894341363);21.4221324921;0.653628315836;;;;;;;;;;;;;;0;78,47,70,40;0;0;0;0;0;0;0;();(-2000.0, -2000.0);
12:28:57:319;12:28:57:259;1448408695.83;(0.4471410274505615, 0.5509304894341363);21.4221324921;0.653628315836;;;;;;;;;;;;;;0;78,47,70,40;0;0;0;0;0;0;0;();(-2000.0, -2000.0);
12:28:57:336;12:28:57:332;1448408695.9;(0.2820462942123413, 0.5602912055121527);18.772895813;0.918302964167;;;;;;;;;;;;;;0;78,47,70,40;0;0;0;0;0;0;0;();(-2000.0, -2000.0);
12:28:57:369;12:28:57:332;1448408695.9;(0.2820462942123413, 0.5602912055121527);18.772895813;0.918302964167;;;;;;;;;;;;;;0;78,47,70,40;0;0;0;0;0;0;0;();(-2000.0, -2000.0);
12:28:57:386;12:28:57:332;1448408695.9;(0.2820462942123413, 0.5602912055121527);18.772895813;0.918302964167;;;;;;;;;;;;;;0;78,47,70,40;0;0;0;0;0;0;0;();(-2000.0, -2000.0);
12:28:57:403;12:28:57:391;1448408695.96;(0, 0);0;0;;;;;;;;;;;;;;0;78,47,70,40;0;0;0;0;0;0;0;();(-2000.0, -2000.0);
12:28:57:419;12:28:57:391;1448408695.96;(0, 0);0;0;;;;;;;;;;;;;;0;78,47,70,40;0;0;0;0;0;0;0;();(-2000.0, -2000.0);
12:28:57:453;12:28:57:391;1448408695.96;(0, 0);0;0;;;;;;;;;;;;;;0;78,47,70,40;0;0;0;0;0;0;0;();(-2000.0, -2000.0);
12:28:57:469;12:28:57:458;1448408696.03;(0, 0);0;0;;;;;;;;;;;;;;0;78,47,70,40;0;0;0;0;0;0;0;();(-2000.0, -2000.0);
12:28:57:486;12:28:57:458;1448408696.03;(0, 0);0;0;;;;;;;;;;;;;;0;78,47,70,40;0;0;0;0;0;0;0;();(-2000.0, -2000.0);
12:28:57:503;12:28:57:458;1448408696.03;(0, 0);0;0;;;;;;;;;;;;;;0;78,47,70,40;0;0;0;0;0;0;0;();(-2000.0, -2000.0);
12:28:57:520;12:28:57:458;1448408696.03;(0, 0);0;0;;;;;;;;;;;;;;0;78,47,70,40;0;0;0;0;0;0;0;();(-2000.0, -2000.0);
12:28:57:537;12:28:57:531;1448408696.06;(0, 0);0;0;;;;;;;;;;;;;;0;78,47,70,40;0;0;0;0;0;0;0;();(-2000.0, -2000.0);
12:28:57:570;12:28:57:531;1448408696.06;(0, 0);0;0;;;;;;;;;;;;;;0;78,47,70,40;0;0;0;0;0;0;0;();(-2000.0, -2000.0);
12:28:57:586;12:28:57:531;1448408696.06;(0, 0);0;0;;;;;;;;;;;;;;0;78,47,70,40;0;0;0;0;0;0;0;();(-2000.0, -2000.0);
12:28:57:603;12:28:57:589;1448408696.1;(0.7328081607818604, 0.8548038588629828);18.1817111969;0.85183632554;;;;;;;;;;;;;;0;78,47,70,40;0;0;0;0;0;0;0;();(-2000.0, -2000.0);
12:28:57:620;12:28:57:589;1448408696.1;(0.7328081607818604, 0.8548038588629828);18.1817111969;0.85183632554;;;;;;;;;;;;;;0;78,47,70,40;0;0;0;0;0;0;0;();(-2000.0, -2000.0);
12:28:57:637;12:28:57:589;1448408696.1;(0.7328081607818604, 0.8548038588629828);18.1817111969;0.85183632554;;;;;;;;;;;;;;0;78,47,70,40;0;0;0;0;0;0;0;();(-2000.0, -2000.0);
12:28:57:670;12:28:57:658;1448408696.13;(0.807746410369873, 0.7879428439670139);20.538816452;0.748603368803;;;;;;;;;;;;;;0;78,47,70,40;0;0;0;0;0;0;0;();(-2000.0, -2000.0);
12:28:57:686;12:28:57:658;1448408696.13;(0.807746410369873, 0.7879428439670139);20.538816452;0.748603368803;;;;;;;;;;;;;;0;78,47,70,40;0;0;0;0;0;0;0;();(-2000.0, -2000.0);
12:28:57:703;12:28:57:658;1448408696.13;(0.807746410369873, 0.7879428439670139);20.538816452;0.748603368803;;;;;;;;;;;;;;0;78,47,70,40;0;0;0;0;0;0;0;();(-2000.0, -2000.0);
12:28:57:720;12:28:57:658;1448408696.13;(0.807746410369873, 0.7879428439670139);20.538816452;0.748603368803;;;;;;;;;;;;;;0;78,47,70,40;0;0;0;0;0;0;0;();(-2000.0, -2000.0);
12:28:57:753;12:28:57:722;1448408696.2;(0.6951009273529053, 0.897405481338501);21.1719398499;0.96248880267;;;;;;;;;;;;;;0;78,47,70,40;0;0;0;0;0;0;0;();(-2000.0, -2000.0);
12:28:57:770;12:28:57:722;1448408696.2;(0.6951009273529053, 0.897405481338501);21.1719398499;0.96248880267;;;;;;;;;;;;;;0;78,47,70,40;0;0;0;0;0;0;0;();(-2000.0, -2000.0);
12:28:57:786;12:28:57:722;1448408696.2;(0.6951009273529053, 0.897405481338501);21.1719398499;0.96248880267;;;;;;;;;;;;;;0;78,47,70,40;0;0;0;0;0;0;0;();(-2000.0, -2000.0);
12:28:57:803;12:28:57:791;1448408696.34;(0.3626880168914795, 0.8516878022087945);46.9861221313;0.659558014111;;;;;;;;;;;;;;0;78,47,70,40;0;0;0;0;0;0;0;();(-2000.0, -2000.0);
12:28:57:820;12:28:57:791;1448408696.34;(0.3626880168914795, 0.8516878022087945);46.9861221313;0.659558014111;;;;;;;;;;;;;;0;78,47,70,40;0;0;0;0;0;0;0;();(-2000.0, -2000.0);
12:28:57:836;12:28:57:791;1448408696.34;(0.3626880168914795, 0.8516878022087945);46.9861221313;0.659558014111;;;;;;;;;;;;;;0;78,47,70,40;0;0;0;0;0;0;0;();(-2000.0, -2000.0);
12:28:57:870;12:28:57:863;1448408696.43;(0.8935985565185547, 0.7495511796739367);20.4039840698;0.971751057837;;;;;;;;;;;;;;0;78,47,70,40;0;0;0;0;0;0;0;();(-2000.0, -2000.0);
12:28:57:887;12:28:57:863;1448408696.43;(0.8935985565185547, 0.7495511796739367);20.4039840698;0.971751057837;;;;;;;;;;;;;;0;78,47,70,40;0;0;0;0;0;0;0;();(-2000.0, -2000.0);
12:28:57:903;12:28:57:863;1448408696.43;(0.8935985565185547, 0.7495511796739367);20.4039840698;0.971751057837;;;;;;;;;;;;;;0;78,47,70,40;0;0;0;0;0;0;0;();(-2000.0, -2000.0);
12:28:57:920;12:28:57:863;1448408696.43;(0.8935985565185547, 0.7495511796739367);20.4039840698;0.971751057837;;;;;;;;;;;;;;0;78,47,70,40;0;0;0;0;0;0;0;();(-2000.0, -2000.0);
12:28:57:937;12:28:57:922;1448408696.46;(0.8937459945678711, 0.749835565355089);20.4291477203;0.87259278663;;;;;;;;;;;;;;0;78,47,70,40;0;0;0;0;0;0;0;();(-2000.0, -2000.0);
12:28:57:971;12:28:57:922;1448408696.46;(0.8937459945678711, 0.749835565355089);20.4291477203;0.87259278663;;;;;;;;;;;;;;0;78,47,70,40;0;0;0;0;0;0;0;();(-2000.0, -2000.0);
12:28:57:987;12:28:57:922;1448408696.46;(0.8937459945678711, 0.749835565355089);20.4291477203;0.87259278663;;;;;;;;;;;;;;0;78,47,70,40;0;0;0;0;0;0;0;();(-2000.0, -2000.0);
12:28:58:003;12:28:57:992;1448408696.54;(0, 0);0;0;;;;;;;;;;;;;;0;78,47,70,40;0;0;0;0;0;0;0;();(-2000.0, -2000.0);
12:28:58:020;12:28:57:992;1448408696.54;(0, 0);0;0;;;;;;;;;;;;;;0;78,47,70,40;0;0;0;0;0;0;0;();(-2000.0, -2000.0);
12:28:58:037;12:28:57:992;1448408696.54;(0, 0);0;0;;;;;;;;;;;;;;0;78,47,70,40;0;0;0;0;0;0;0;();(-2000.0, -2000.0);
12:28:58:070;12:28:58:055;1448408696.61;(0.6003349304199219, 0.8187106026543511);88.8334732056;0.819237676674;;;;;;;;;;;;;;0;78,47,70,40;0;0;0;0;0;0;0;();(-2000.0, -2000.0);
12:28:58:087;12:28:58:055;1448408696.61;(0.6003349304199219, 0.8187106026543511);88.8334732056;0.819237676674;;;;;;;;;;;;;;0;78,47,70,40;0;0;0;0;0;0;0;();(-2000.0, -2000.0);
12:28:58:103;12:28:58:055;1448408696.61;(0.6003349304199219, 0.8187106026543511);88.8334732056;0.819237676674;;;;;;;;;;;;;;0;78,47,70,40;0;0;0;0;0;0;0;();(-2000.0, -2000.0);
12:28:58:120;12:28:58:055;1448408696.61;(0.6003349304199219, 0.8187106026543511);88.8334732056;0.819237676674;;;;;;;;;;;;;;0;78,47,70,40;0;0;0;0;0;0;0;();(-2000.0, -2000.0);
12:28:58:137;12:28:58:126;1448408696.7;(0.6019377708435059, 0.8179913308885363);89.1207427979;0.720145969055;;;;;;;;;;;;;;0;78,47,70,40;0;0;0;0;0;0;0;();(-2000.0, -2000.0);
12:28:58:170;12:28:58:126;1448408696.7;(0.6019377708435059, 0.8179913308885363);89.1207427979;0.720145969055;;;;;;;;;;;;;;0;78,47,70,40;0;0;0;0;0;0;0;();(-2000.0, -2000.0);
12:28:58:187;12:28:58:126;1448408696.7;(0.6019377708435059, 0.8179913308885363);89.1207427979;0.720145969055;;;;;;;;;;;;;;0;78,47,70,40;0;0;0;0;0;0;0;();(-2000.0, -2000.0);
12:28:58:204;12:28:58:190;1448408696.73;(0, 0);0;0;;;;;;;;;;;;;;0;78,47,70,40;0;0;0;0;0;0;0;();(-2000.0, -2000.0);
12:28:58:221;12:28:58:190;1448408696.73;(0, 0);0;0;;;;;;;;;;;;;;0;78,47,70,40;0;0;0;0;0;0;0;();(-2000.0, -2000.0);
12:28:58:237;12:28:58:190;1448408696.73;(0, 0);0;0;;;;;;;;;;;;;;0;78,47,70,40;0;0;0;0;0;0;0;();(-2000.0, -2000.0);
12:28:58:271;12:28:58:257;1448408696.83;(0.6043060302734375, 0.8229108068678115);87.4934082031;0.864655590607;;;;;;;;;;;;;;0;78,47,70,40;0;0;0;0;0;0;0;();(-2000.0, -2000.0);
12:28:58:287;12:28:58:257;1448408696.83;(0.6043060302734375, 0.8229108068678115);87.4934082031;0.864655590607;;;;;;;;;;;;;;0;78,47,70,40;0;0;0;0;0;0;0;();(-2000.0, -2000.0);
12:28:58:304;12:28:58:257;1448408696.83;(0.6043060302734375, 0.8229108068678115);87.4934082031;0.864655590607;;;;;;;;;;;;;;0;78,47,70,40;0;0;0;0;0;0;0;();(-2000.0, -2000.0);
12:28:58:320;12:28:58:257;1448408696.83;(0.6043060302734375, 0.8229108068678115);87.4934082031;0.864655590607;;;;;;;;;;;;;;0;78,47,70,40;0;0;0;0;0;0;0;();(-2000.0, -2000.0);
12:28:58:337;12:28:58:325;1448408696.9;(0, 0);0;0;;;;;;;;;;;;;;0;78,47,70,40;0;0;0;0;0;0;0;();(-2000.0, -2000.0);
12:28:58:370;12:28:58:325;1448408696.9;(0, 0);0;0;;;;;;;;;;;;;;0;78,47,70,40;0;0;0;0;0;0;0;();(-2000.0, -2000.0);
12:28:58:387;12:28:58:325;1448408696.9;(0, 0);0;0;;;;;;;;;;;;;;0;78,47,70,40;0;0;0;0;0;0;0;();(-2000.0, -2000.0);
12:28:58:404;12:28:58:388;1448408696.96;(0, 0);0;0;;;;;;;;;;;;;;0;78,47,70,40;0;0;0;0;0;0;0;();(-2000.0, -2000.0);
12:28:58:420;12:28:58:388;1448408696.96;(0, 0);0;0;;;;;;;;;;;;;;0;78,47,70,40;0;0;0;0;0;0;0;();(-2000.0, -2000.0);
12:28:58:438;12:28:58:388;1448408696.96;(0, 0);0;0;;;;;;;;;;;;;;0;78,47,70,40;0;0;0;0;0;0;0;();(-2000.0, -2000.0);
12:28:58:471;12:28:58:469;1448408697.0;(0, 0);0;0;;;;;;;;;;;;;;0;78,47,70,40;0;0;0;0;0;0;0;();(-2000.0, -2000.0);
12:28:58:487;12:28:58:469;1448408697.0;(0, 0);0;0;;;;;;;;;;;;;;0;78,47,70,40;0;0;0;0;0;0;0;();(-2000.0, -2000.0);
12:28:58:504;12:28:58:469;1448408697.0;(0, 0);0;0;;;;;;;;;;;;;;0;78,47,70,40;0;0;0;0;0;0;0;();(-2000.0, -2000.0);
12:28:58:521;12:28:58:469;1448408697.0;(0, 0);0;0;;;;;;;;;;;;;;0;78,47,70,40;0;0;0;0;0;0;0;();(-2000.0, -2000.0);
12:28:58:537;12:28:58:523;1448408697.03;(0.9455815315246582, 0.4428448994954427);19.5307941437;0.762920455942;;;;;;;;;;;;;;0;78,47,70,40;0;0;0;0;0;0;0;();(-2000.0, -2000.0);
12:28:58:571;12:28:58:523;1448408697.03;(0.9455815315246582, 0.4428448994954427);19.5307941437;0.762920455942;;;;;;;;;;;;;;0;78,47,70,40;0;0;0;0;0;0;0;();(-2000.0, -2000.0);
12:28:58:587;12:28:58:523;1448408697.03;(0.9455815315246582, 0.4428448994954427);19.5307941437;0.762920455942;;;;;;;;;;;;;;0;78,47,70,40;0;0;0;0;0;0;0;();(-2000.0, -2000.0);
12:28:58:604;12:28:58:595;1448408697.16;(0, 0);0;0;;;;;;;;;;;;;;0;78,47,70,40;0;0;0;0;0;0;0;();(-2000.0, -2000.0);
12:28:58:621;12:28:58:595;1448408697.16;(0, 0);0;0;;;;;;;;;;;;;;0;78,47,70,40;0;0;0;0;0;0;0;();(-2000.0, -2000.0);
12:28:58:638;12:28:58:595;1448408697.16;(0, 0);0;0;;;;;;;;;;;;;;0;78,47,70,40;0;0;0;0;0;0;0;();(-2000.0, -2000.0);
12:28:58:670;12:28:58:655;1448408697.23;(0.9428797721862793, 0.4632701026068793);24.6977119446;0.749480350484;;;;;;;;;;;;;;0;78,47,70,40;0;0;0;0;0;0;0;();(-2000.0, -2000.0);
12:28:58:688;12:28:58:655;1448408697.23;(0.9428797721862793, 0.4632701026068793);24.6977119446;0.749480350484;;;;;;;;;;;;;;0;78,47,70,40;0;0;0;0;0;0;0;();(-2000.0, -2000.0);
12:28:58:704;12:28:58:655;1448408697.23;(0.9428797721862793, 0.4632701026068793);24.6977119446;0.749480350484;;;;;;;;;;;;;;0;78,47,70,40;0;0;0;0;0;0;0;();(-2000.0, -2000.0);
12:28:58:721;12:28:58:719;1448408697.3;(0, 0);0;0;;;;;;;;;;;;;;0;78,47,70,40;0;0;0;0;0;0;0;();(-2000.0, -2000.0);
12:28:58:737;12:28:58:719;1448408697.3;(0, 0);0;0;;;;;;;;;;;;;;0;78,47,70,40;0;0;0;0;0;0;0;();(-2000.0, -2000.0);
