%Timestamp,timestamp_write;timestamp_gotpupil;eyeTrackerTime;normPos;diameter;confidence;timestamp_gotbitdata;CRC;SEQ;AnalogOutp1;AnalogOutp2;AnalogOutp3;AnalogOutp4;AnalogOutp5;AnalogOutp6;DigitalOutp1;DigitalOutp2;DigitalOutp3;DigitalOutp4;nplanes;listofAirplanesonScreen;lastAction;lastActionDetails;lastActionAirplaneNumber;calculatedScore;positiveScore;negativeScore;collidedAirplaneNumbers;targetPositions;collisionPoint
10:42:52:756;10:42:52:743;1448877541.53;(0.32700657844543457, 0.5030550214979383);28.1719474792;0.980659977921;;;;;;;;;;;;;;0;0;0;0;0;0;0;0;0;();(0.0, 0.0);
10:42:52:763;10:42:52:746;1448877541.59;(0.32607767581939695, 0.5043163723415799);27.9610328674;1.0;;;;;;;;;;;;;;0;0;0;0;0;0;0;0;0;();(-2000.0, -2000.0);
10:42:52:768;10:42:52:746;1448877541.59;(0.32607767581939695, 0.5043163723415799);27.9610328674;1.0;;;;;;;;;;;;;;0;0;0;0;0;0;0;0;0;();(-2000.0, -2000.0);
10:42:52:771;10:42:52:746;1448877541.59;(0.32607767581939695, 0.5043163723415799);27.9610328674;1.0;;;;;;;;;;;;;;0;0;0;0;0;0;0;0;0;();(-2000.0, -2000.0);
10:42:52:773;10:42:52:746;1448877541.59;(0.32607767581939695, 0.5043163723415799);27.9610328674;1.0;;;;;;;;;;;;;;0;0;0;0;0;0;0;0;0;();(-2000.0, -2000.0);
10:42:52:775;10:42:52:746;1448877541.59;(0.32607767581939695, 0.5043163723415799);27.9610328674;1.0;;;;;;;;;;;;;;0;0;0;0;0;0;0;0;0;();(-2000.0, -2000.0);
10:42:52:777;10:42:52:746;1448877541.59;(0.32607767581939695, 0.5043163723415799);27.9610328674;1.0;;;;;;;;;;;;;;0;0;0;0;0;0;0;0;0;();(-2000.0, -2000.0);
10:42:52:778;10:42:52:746;1448877541.59;(0.32607767581939695, 0.5043163723415799);27.9610328674;1.0;;;;;;;;;;;;;;0;0;0;0;0;0;0;0;0;();(-2000.0, -2000.0);
10:42:52:780;10:42:52:746;1448877541.59;(0.32607767581939695, 0.5043163723415799);27.9610328674;1.0;;;;;;;;;;;;;;0;0;0;0;0;0;0;0;0;();(-2000.0, -2000.0);
10:42:52:782;10:42:52:746;1448877541.59;(0.32607767581939695, 0.5043163723415799);27.9610328674;1.0;;;;;;;;;;;;;;0;0;0;0;0;0;0;0;0;();(-2000.0, -2000.0);
10:42:52:784;10:42:52:746;1448877541.59;(0.32607767581939695, 0.5043163723415799);27.9610328674;1.0;;;;;;;;;;;;;;0;0;0;0;0;0;0;0;0;();(-2000.0, -2000.0);
10:42:52:786;10:42:52:746;1448877541.59;(0.32607767581939695, 0.5043163723415799);27.9610328674;1.0;;;;;;;;;;;;;;0;0;0;0;0;0;0;0;0;();(-2000.0, -2000.0);
10:42:52:787;10:42:52:746;1448877541.59;(0.32607767581939695, 0.5043163723415799);27.9610328674;1.0;;;;;;;;;;;;;;0;0;0;0;0;0;0;0;0;();(-2000.0, -2000.0);
10:42:52:789;10:42:52:746;1448877541.59;(0.32607767581939695, 0.5043163723415799);27.9610328674;1.0;;;;;;;;;;;;;;0;0;0;0;0;0;0;0;0;();(-2000.0, -2000.0);
10:42:52:791;10:42:52:746;1448877541.59;(0.32607767581939695, 0.5043163723415799);27.9610328674;1.0;;;;;;;;;;;;;;0;0;0;0;0;0;0;0;0;();(-2000.0, -2000.0);
10:42:52:793;10:42:52:746;1448877541.59;(0.32607767581939695, 0.5043163723415799);27.9610328674;1.0;;;;;;;;;;;;;;0;0;0;0;0;0;0;0;0;();(-2000.0, -2000.0);
10:42:52:795;10:42:52:746;1448877541.59;(0.32607767581939695, 0.5043163723415799);27.9610328674;1.0;;;;;;;;;;;;;;0;0;0;0;0;0;0;0;0;();(-2000.0, -2000.0);
10:42:52:796;10:42:52:746;1448877541.59;(0.32607767581939695, 0.5043163723415799);27.9610328674;1.0;;;;;;;;;;;;;;0;0;0;0;0;0;0;0;0;();(-2000.0, -2000.0);
10:42:52:798;10:42:52:746;1448877541.59;(0.32607767581939695, 0.5043163723415799);27.9610328674;1.0;;;;;;;;;;;;;;0;0;0;0;0;0;0;0;0;();(-2000.0, -2000.0);
10:42:52:818;10:42:52:809;1448877541.66;(0.3253049373626709, 0.5049166361490885);27.8990974426;1.0;;;;;;;;;;;;;;0;0;0;0;0;0;0;0;0;();(-2000.0, -2000.0);
10:42:52:834;10:42:52:809;1448877541.66;(0.3253049373626709, 0.5049166361490885);27.8990974426;1.0;;;;;;;;;;;;;;0;0;0;0;0;0;0;0;0;();(-2000.0, -2000.0);
10:42:52:851;10:42:52:809;1448877541.66;(0.3253049373626709, 0.5049166361490885);27.8990974426;1.0;;;;;;;;;;;;;;0;0;0;0;0;0;0;0;0;();(-2000.0, -2000.0);
10:42:52:885;10:42:52:873;1448877541.73;(0.324883246421814, 0.5052820417616102);27.7745323181;1.0;;;;;;;;;;;;;;0;0;0;0;0;0;0;0;0;();(-2000.0, -2000.0);
10:42:52:901;10:42:52:873;1448877541.73;(0.324883246421814, 0.5052820417616102);27.7745323181;1.0;;;;;;;;;;;;;;0;0;0;0;0;0;0;0;0;();(-2000.0, -2000.0);
10:42:58:103;10:42:58:054;1448877546.89;(0.20364487171173096, 0.36450759039984804);38.1011199951;1.0;;;;;;;;;;;;;;2;08,83;0;0;0;0;0;0;0;();(-2000.0, -2000.0);
10:42:58:110;10:42:58:054;1448877546.89;(0.20364487171173096, 0.36450759039984804);38.1011199951;1.0;;;;;;;;;;;;;;2;08,83;0;0;0;0;0;0;0;();(-2000.0, -2000.0);
10:42:58:114;10:42:58:054;1448877546.89;(0.20364487171173096, 0.36450759039984804);38.1011199951;1.0;;;;;;;;;;;;;;2;08,83;0;0;0;0;0;0;0;();(-2000.0, -2000.0);
10:42:58:115;10:42:58:054;1448877546.89;(0.20364487171173096, 0.36450759039984804);38.1011199951;1.0;;;;;;;;;;;;;;2;08,83;0;0;0;0;0;0;0;();(-2000.0, -2000.0);
10:42:58:117;10:42:58:054;1448877546.89;(0.20364487171173096, 0.36450759039984804);38.1011199951;1.0;;;;;;;;;;;;;;2;08,83;0;0;0;0;0;0;0;();(-2000.0, -2000.0);
10:42:58:119;10:42:58:118;1448877546.96;(0.20410207509994507, 0.3657335917154948);38.1202278137;1.0;;;;;;;;;;;;;;2;08,83;0;0;0;0;0;0;0;();(-2000.0, -2000.0);
10:42:58:120;10:42:58:118;1448877546.96;(0.20410207509994507, 0.3657335917154948);38.1202278137;1.0;;;;;;;;;;;;;;2;08,83;0;0;0;0;0;0;0;();(-2000.0, -2000.0);
10:42:58:122;10:42:58:118;1448877546.96;(0.20410207509994507, 0.3657335917154948);38.1202278137;1.0;;;;;;;;;;;;;;2;08,83;0;0;0;0;0;0;0;();(-2000.0, -2000.0);
10:42:58:124;10:42:58:118;1448877546.96;(0.20410207509994507, 0.3657335917154948);38.1202278137;1.0;;;;;;;;;;;;;;2;08,83;0;0;0;0;0;0;0;();(-2000.0, -2000.0);
10:42:58:125;10:42:58:118;1448877546.96;(0.20410207509994507, 0.3657335917154948);38.1202278137;1.0;;;;;;;;;;;;;;2;08,83;0;0;0;0;0;0;0;();(-2000.0, -2000.0);
10:42:58:127;10:42:58:118;1448877546.96;(0.20410207509994507, 0.3657335917154948);38.1202278137;1.0;;;;;;;;;;;;;;2;08,83;0;0;0;0;0;0;0;();(-2000.0, -2000.0);
10:42:58:128;10:42:58:118;1448877546.96;(0.20410207509994507, 0.3657335917154948);38.1202278137;1.0;;;;;;;;;;;;;;2;08,83;0;0;0;0;0;0;0;();(-2000.0, -2000.0);
10:42:58:130;10:42:58:118;1448877546.96;(0.20410207509994507, 0.3657335917154948);38.1202278137;1.0;;;;;;;;;;;;;;2;08,83;0;0;0;0;0;0;0;();(-2000.0, -2000.0);
10:42:58:132;10:42:58:118;1448877546.96;(0.20410207509994507, 0.3657335917154948);38.1202278137;1.0;;;;;;;;;;;;;;2;08,83;0;0;0;0;0;0;0;();(-2000.0, -2000.0);
10:42:58:133;10:42:58:118;1448877546.96;(0.20410207509994507, 0.3657335917154948);38.1202278137;1.0;;;;;;;;;;;;;;2;08,83;0;0;0;0;0;0;0;();(-2000.0, -2000.0);
10:42:58:135;10:42:58:118;1448877546.96;(0.20410207509994507, 0.3657335917154948);38.1202278137;1.0;;;;;;;;;;;;;;2;08,83;0;0;0;0;0;0;0;();(-2000.0, -2000.0);
10:42:58:136;10:42:58:118;1448877546.96;(0.20410207509994507, 0.3657335917154948);38.1202278137;1.0;;;;;;;;;;;;;;2;08,83;0;0;0;0;0;0;0;();(-2000.0, -2000.0);
10:42:58:149;10:42:58:118;1448877546.96;(0.20410207509994507, 0.3657335917154948);38.1202278137;1.0;;;;;;;;;;;;;;2;08,83;0;0;0;0;0;0;0;();(-2000.0, -2000.0);
10:42:58:151;10:42:58:118;1448877546.96;(0.20410207509994507, 0.3657335917154948);38.1202278137;1.0;;;;;;;;;;;;;;2;08,83;0;0;0;0;0;0;0;();(-2000.0, -2000.0);
10:42:58:153;10:42:58:118;1448877546.96;(0.20410207509994507, 0.3657335917154948);38.1202278137;1.0;;;;;;;;;;;;;;2;08,83;0;0;0;0;0;0;0;();(-2000.0, -2000.0);
10:42:58:172;10:42:58:118;1448877546.96;(0.20410207509994507, 0.3657335917154948);38.1202278137;1.0;;;;;;;;;;;;;;2;08,83;0;0;0;0;0;0;0;();(-2000.0, -2000.0);
10:42:58:189;10:42:58:185;1448877547.03;(0.2035180449485779, 0.36483612060546877);38.4615898132;1.0;;;;;;;;;;;;;;2;08,83;0;0;0;0;0;0;0;();(-2000.0, -2000.0);
10:42:58:222;10:42:58:185;1448877547.03;(0.2035180449485779, 0.36483612060546877);38.4615898132;1.0;;;;;;;;;;;;;;2;08,83;0;0;0;0;0;0;0;();(-2000.0, -2000.0);
10:42:58:239;10:42:58:185;1448877547.03;(0.2035180449485779, 0.36483612060546877);38.4615898132;1.0;;;;;;;;;;;;;;2;08,83;0;0;0;0;0;0;0;();(-2000.0, -2000.0);
10:42:58:256;10:42:58:250;1448877547.09;(0.20252840518951415, 0.36314934624565975);38.6504058838;1.0;;;;;;;;;;;;;;2;08,83;0;0;0;0;0;0;0;();(-2000.0, -2000.0);
10:42:58:273;10:42:58:250;1448877547.09;(0.20252840518951415, 0.36314934624565975);38.6504058838;1.0;;;;;;;;;;;;;;2;08,83;0;0;0;0;0;0;0;();(-2000.0, -2000.0);
10:42:58:289;10:42:58:250;1448877547.09;(0.20252840518951415, 0.36314934624565975);38.6504058838;1.0;;;;;;;;;;;;;;2;08,83;0;0;0;0;0;0;0;();(-2000.0, -2000.0);
10:42:58:323;10:42:58:318;1448877547.16;(0.20155632495880127, 0.36433698866102426);38.4274139404;1.0;;;;;;;;;;;;;;2;08,83;0;0;0;0;0;0;0;();(-2000.0, -2000.0);
10:42:58:339;10:42:58:318;1448877547.16;(0.20155632495880127, 0.36433698866102426);38.4274139404;1.0;;;;;;;;;;;;;;2;08,83;0;0;0;0;0;0;0;();(-2000.0, -2000.0);
10:42:58:356;10:42:58:318;1448877547.16;(0.20155632495880127, 0.36433698866102426);38.4274139404;1.0;;;;;;;;;;;;;;2;08,83;0;0;0;0;0;0;0;();(-2000.0, -2000.0);
10:42:58:373;10:42:58:318;1448877547.16;(0.20155632495880127, 0.36433698866102426);38.4274139404;1.0;;;;;;;;;;;;;;2;08,83;0;0;0;0;0;0;0;();(-2000.0, -2000.0);
10:42:58:390;10:42:58:386;1448877547.23;(0.20145443677902222, 0.36566903856065536);38.4652862549;1.0;;;;;;;;;;;;;;2;08,83;0;0;0;0;0;0;0;();(-2000.0, -2000.0);
10:42:58:422;10:42:58:386;1448877547.23;(0.20145443677902222, 0.36566903856065536);38.4652862549;1.0;;;;;;;;;;;;;;2;08,83;0;0;0;0;0;0;0;();(-2000.0, -2000.0);
10:42:58:438;10:42:58:386;1448877547.23;(0.20145443677902222, 0.36566903856065536);38.4652862549;1.0;;;;;;;;;;;;;;2;08,83;0;0;0;0;0;0;0;();(-2000.0, -2000.0);
10:42:58:456;10:42:58:454;1448877547.29;(0.200890851020813, 0.36705780029296875);38.355140686;1.0;;;;;;;;;;;;;;2;08,83;0;0;0;0;0;0;0;();(-2000.0, -2000.0);
10:42:58:473;10:42:58:454;1448877547.29;(0.200890851020813, 0.36705780029296875);38.355140686;1.0;;;;;;;;;;;;;;2;08,83;0;0;0;0;0;0;0;();(-2000.0, -2000.0);
10:42:58:489;10:42:58:454;1448877547.29;(0.200890851020813, 0.36705780029296875);38.355140686;1.0;;;;;;;;;;;;;;2;08,83;0;0;0;0;0;0;0;();(-2000.0, -2000.0);
10:42:58:523;10:42:58:517;1448877547.36;(0.22877843379974366, 0.4383582644992404);36.8108291626;1.0;;;;;;;;;;;;;;2;08,83;0;0;0;0;0;0;0;();(-2000.0, -2000.0);
10:42:58:540;10:42:58:517;1448877547.36;(0.22877843379974366, 0.4383582644992404);36.8108291626;1.0;;;;;;;;;;;;;;2;08,83;0;0;0;0;0;0;0;();(-2000.0, -2000.0);
10:42:58:557;10:42:58:517;1448877547.36;(0.22877843379974366, 0.4383582644992404);36.8108291626;1.0;;;;;;;;;;;;;;2;08,83;0;0;0;0;0;0;0;();(-2000.0, -2000.0);
10:42:58:573;10:42:58:517;1448877547.36;(0.22877843379974366, 0.4383582644992404);36.8108291626;1.0;;;;;;;;;;;;;;2;08,83;0;0;0;0;0;0;0;();(-2000.0, -2000.0);
10:42:58:590;10:42:58:581;1448877547.39;(0.25080170631408694, 0.48364363776312935);38.0160903931;0.897638722547;;;;;;;;;;;;;;2;08,83;0;0;0;0;0;0;0;();(-2000.0, -2000.0);
10:42:58:623;10:42:58:581;1448877547.39;(0.25080170631408694, 0.48364363776312935);38.0160903931;0.897638722547;;;;;;;;;;;;;;2;08,83;0;0;0;0;0;0;0;();(-2000.0, -2000.0);
10:42:58:640;10:42:58:581;1448877547.39;(0.25080170631408694, 0.48364363776312935);38.0160903931;0.897638722547;;;;;;;;;;;;;;2;08,83;0;0;0;0;0;0;0;();(-2000.0, -2000.0);
10:42:58:656;10:42:58:651;1448877547.49;(0.2811221361160278, 0.5049775017632379);36.9896011353;0.99530547574;;;;;;;;;;;;;;2;08,83;0;0;0;0;0;0;0;();(-2000.0, -2000.0);
10:42:58:673;10:42:58:651;1448877547.49;(0.2811221361160278, 0.5049775017632379);36.9896011353;0.99530547574;;;;;;;;;;;;;;2;08,83;0;0;0;0;0;0;0;();(-2000.0, -2000.0);
10:42:58:689;10:42:58:651;1448877547.49;(0.2811221361160278, 0.5049775017632379);36.9896011353;0.99530547574;;;;;;;;;;;;;;2;08,83;0;0;0;0;0;0;0;();(-2000.0, -2000.0);
10:42:58:724;10:42:58:717;1448877547.56;(0.2750361919403076, 0.502756373087565);36.9476394653;1.0;;;;;;;;;;;;;;2;08,83;0;0;0;0;0;0;0;();(-2000.0, -2000.0);
10:42:58:739;10:42:58:717;1448877547.56;(0.2750361919403076, 0.502756373087565);36.9476394653;1.0;;;;;;;;;;;;;;2;08,83;0;0;0;0;0;0;0;();(-2000.0, -2000.0);
10:42:58:756;10:42:58:717;1448877547.56;(0.2750361919403076, 0.502756373087565);36.9476394653;1.0;;;;;;;;;;;;;;2;08,83;0;0;0;0;0;0;0;();(-2000.0, -2000.0);
10:42:58:772;10:42:58:717;1448877547.56;(0.2750361919403076, 0.502756373087565);36.9476394653;1.0;;;;;;;;;;;;;;2;08,83;0;0;0;0;0;0;0;();(-2000.0, -2000.0);
10:42:58:790;10:42:58:782;1448877547.63;(0.24459536075592042, 0.5004668341742622);36.8149795532;0.978159457005;;;;;;;;;;;;;;2;08,83;0;0;0;0;0;0;0;();(-2000.0, -2000.0);
10:42:58:822;10:42:58:782;1448877547.63;(0.24459536075592042, 0.5004668341742622);36.8149795532;0.978159457005;;;;;;;;;;;;;;2;08,83;0;0;0;0;0;0;0;();(-2000.0, -2000.0);
10:42:58:840;10:42:58:782;1448877547.63;(0.24459536075592042, 0.5004668341742622);36.8149795532;0.978159457005;;;;;;;;;;;;;;2;08,83;0;0;0;0;0;0;0;();(-2000.0, -2000.0);
10:42:58:856;10:42:58:850;1448877547.69;(0.24290244579315184, 0.4987687428792318);36.8407669067;1.0;;;;;;;;;;;;;;2;08,83;0;0;0;0;0;0;0;();(-2000.0, -2000.0);
10:42:58:873;10:42:58:850;1448877547.69;(0.24290244579315184, 0.4987687428792318);36.8407669067;1.0;;;;;;;;;;;;;;2;08,83;0;0;0;0;0;0;0;();(-2000.0, -2000.0);
10:42:58:890;10:42:58:850;1448877547.69;(0.24290244579315184, 0.4987687428792318);36.8407669067;1.0;;;;;;;;;;;;;;2;08,83;0;0;0;0;0;0;0;();(-2000.0, -2000.0);
10:42:58:923;10:42:58:914;1448877547.76;(0.24088504314422607, 0.4973467085096571);36.166179657;0.988055874024;;;;;;;;;;;;;;2;08,83;0;0;0;0;0;0;0;();(-2000.0, -2000.0);
10:42:58:940;10:42:58:914;1448877547.76;(0.24088504314422607, 0.4973467085096571);36.166179657;0.988055874024;;;;;;;;;;;;;;2;08,83;0;0;0;0;0;0;0;();(-2000.0, -2000.0);
10:42:58:957;10:42:58:914;1448877547.76;(0.24088504314422607, 0.4973467085096571);36.166179657;0.988055874024;;;;;;;;;;;;;;2;08,83;0;0;0;0;0;0;0;();(-2000.0, -2000.0);
10:42:58:973;10:42:58:914;1448877547.76;(0.24088504314422607, 0.4973467085096571);36.166179657;0.988055874024;;;;;;;;;;;;;;2;08,83;0;0;0;0;0;0;0;();(-2000.0, -2000.0);
10:42:58:989;10:42:58:984;1448877547.83;(0.2396111249923706, 0.4966930813259549);35.1006355286;1.0;;;;;;;;;;;;;;2;08,83;0;0;0;0;0;0;0;();(-2000.0, -2000.0);
10:42:59:024;10:42:58:984;1448877547.83;(0.2396111249923706, 0.4966930813259549);35.1006355286;1.0;;;;;;;;;;;;;;2;08,83;0;0;0;0;0;0;0;();(-2000.0, -2000.0);
10:42:59:040;10:42:58:984;1448877547.83;(0.2396111249923706, 0.4966930813259549);35.1006355286;1.0;;;;;;;;;;;;;;2;08,83;0;0;0;0;0;0;0;();(-2000.0, -2000.0);
10:42:59:057;10:42:59:050;1448877547.89;(0.2431112051010132, 0.49634585910373263);33.5781364441;0.902088514388;;;;;;;;;;;;;;2;08,83;0;0;0;0;0;0;0;();(-2000.0, -2000.0);
10:42:59:073;10:42:59:050;1448877547.89;(0.2431112051010132, 0.49634585910373263);33.5781364441;0.902088514388;;;;;;;;;;;;;;2;08,83;0;0;0;0;0;0;0;();(-2000.0, -2000.0);
10:42:59:090;10:42:59:050;1448877547.89;(0.2431112051010132, 0.49634585910373263);33.5781364441;0.902088514388;;;;;;;;;;;;;;2;08,83;0;0;0;0;0;0;0;();(-2000.0, -2000.0);
10:42:59:123;10:42:59:114;1448877547.96;(0.321378493309021, 0.4565824720594618);31.8386268616;1.0;;;;;;;;;;;;;;2;08,83;0;0;0;0;0;0;0;();(-2000.0, -2000.0);
10:42:59:140;10:42:59:114;1448877547.96;(0.321378493309021, 0.4565824720594618);31.8386268616;1.0;;;;;;;;;;;;;;2;08,83;0;0;0;0;0;0;0;();(-2000.0, -2000.0);
10:42:59:157;10:42:59:114;1448877547.96;(0.321378493309021, 0.4565824720594618);31.8386268616;1.0;;;;;;;;;;;;;;2;08,83;0;0;0;0;0;0;0;();(-2000.0, -2000.0);
10:42:59:173;10:42:59:114;1448877547.96;(0.321378493309021, 0.4565824720594618);31.8386268616;1.0;;;;;;;;;;;;;;2;08,83;0;0;0;0;0;0;0;();(-2000.0, -2000.0);
10:42:59:190;10:42:59:184;1448877548.03;(0.31281893253326415, 0.4597103542751736);31.1577415466;1.0;;;;;;;;;;;;;;2;08,83;0;0;0;0;0;0;0;();(-2000.0, -2000.0);
10:42:59:223;10:42:59:184;1448877548.03;(0.31281893253326415, 0.4597103542751736);31.1577415466;1.0;;;;;;;;;;;;;;2;08,83;0;0;0;0;0;0;0;();(-2000.0, -2000.0);
10:42:59:240;10:42:59:184;1448877548.03;(0.31281893253326415, 0.4597103542751736);31.1577415466;1.0;;;;;;;;;;;;;;2;08,83;0;0;0;0;0;0;0;();(-2000.0, -2000.0);
10:42:59:257;10:42:59:246;1448877548.09;(0.3084913969039917, 0.46277381049262156);31.5912075043;0.838754239738;;;;;;;;;;;;;;2;08,83;0;0;0;0;0;0;0;();(-2000.0, -2000.0);
10:42:59:273;10:42:59:246;1448877548.09;(0.3084913969039917, 0.46277381049262156);31.5912075043;0.838754239738;;;;;;;;;;;;;;2;08,83;0;0;0;0;0;0;0;();(-2000.0, -2000.0);
10:42:59:290;10:42:59:246;1448877548.09;(0.3084913969039917, 0.46277381049262156);31.5912075043;0.838754239738;;;;;;;;;;;;;;2;08,83;0;0;0;0;0;0;0;();(-2000.0, -2000.0);
10:42:59:323;10:42:59:314;1448877548.16;(0.3041929960250854, 0.4652515411376953);31.0016555786;1.0;;;;;;;;;;;;;;2;08,83;0;0;0;0;0;0;0;();(-2000.0, -2000.0);
10:42:59:340;10:42:59:314;1448877548.16;(0.3041929960250854, 0.4652515411376953);31.0016555786;1.0;;;;;;;;;;;;;;2;08,83;0;0;0;0;0;0;0;();(-2000.0, -2000.0);
10:42:59:356;10:42:59:314;1448877548.16;(0.3041929960250854, 0.4652515411376953);31.0016555786;1.0;;;;;;;;;;;;;;2;08,83;0;0;0;0;0;0;0;();(-2000.0, -2000.0);
10:42:59:373;10:42:59:314;1448877548.16;(0.3041929960250854, 0.4652515411376953);31.0016555786;1.0;;;;;;;;;;;;;;2;08,83;0;0;0;0;0;0;0;();(-2000.0, -2000.0);
10:42:59:390;10:42:59:381;1448877548.23;(0.3033143043518066, 0.46753887600368926);30.9555721283;1.0;;;;;;;;;;;;;;2;08,83;0;0;0;0;0;0;0;();(-2000.0, -2000.0);
10:42:59:423;10:42:59:381;1448877548.23;(0.3033143043518066, 0.46753887600368926);30.9555721283;1.0;;;;;;;;;;;;;;2;08,83;0;0;0;0;0;0;0;();(-2000.0, -2000.0);
10:42:59:438;10:42:59:381;1448877548.23;(0.3033143043518066, 0.46753887600368926);30.9555721283;1.0;;;;;;;;;;;;;;2;08,83;0;0;0;0;0;0;0;();(-2000.0, -2000.0);
10:42:59:456;10:42:59:453;1448877548.26;(0.30331437587738036, 0.4688543531629774);30.6925067902;1.0;;;;;;;;;;;;;;2;08,83;0;0;0;0;0;0;0;();(-2000.0, -2000.0);
10:42:59:474;10:42:59:453;1448877548.26;(0.30331437587738036, 0.4688543531629774);30.6925067902;1.0;;;;;;;;;;;;;;2;08,83;0;0;0;0;0;0;0;();(-2000.0, -2000.0);
10:42:59:490;10:42:59:453;1448877548.26;(0.30331437587738036, 0.4688543531629774);30.6925067902;1.0;;;;;;;;;;;;;;2;08,83;0;0;0;0;0;0;0;();(-2000.0, -2000.0);
10:42:59:524;10:42:59:514;1448877548.36;(0.300603985786438, 0.4667755126953125);30.5224075317;1.0;;;;;;;;;;;;;;2;08,83;0;0;0;0;0;0;0;();(-2000.0, -2000.0);
10:42:59:540;10:42:59:514;1448877548.36;(0.300603985786438, 0.4667755126953125);30.5224075317;1.0;;;;;;;;;;;;;;2;08,83;0;0;0;0;0;0;0;();(-2000.0, -2000.0);
10:42:59:557;10:42:59:514;1448877548.36;(0.300603985786438, 0.4667755126953125);30.5224075317;1.0;;;;;;;;;;;;;;2;08,83;0;0;0;0;0;0;0;();(-2000.0, -2000.0);
10:42:59:574;10:42:59:514;1448877548.36;(0.300603985786438, 0.4667755126953125);30.5224075317;1.0;;;;;;;;;;;;;;2;08,83;0;0;0;0;0;0;0;();(-2000.0, -2000.0);
10:42:59:590;10:42:59:581;1448877548.43;(0.2409580707550049, 0.4945379469129775);31.3664989471;1.0;;;;;;;;;;;;;;2;08,83;0;0;0;0;0;0;0;();(-2000.0, -2000.0);
10:42:59:622;10:42:59:581;1448877548.43;(0.2409580707550049, 0.4945379469129775);31.3664989471;1.0;;;;;;;;;;;;;;2;08,83;0;0;0;0;0;0;0;();(-2000.0, -2000.0);
10:42:59:640;10:42:59:581;1448877548.43;(0.2409580707550049, 0.4945379469129775);31.3664989471;1.0;;;;;;;;;;;;;;2;08,83;0;0;0;0;0;0;0;();(-2000.0, -2000.0);
10:42:59:657;10:42:59:647;1448877548.49;(0.22616134881973265, 0.4951431698269314);31.1298408508;0.955488521001;;;;;;;;;;;;;;2;08,83;0;0;0;0;0;0;0;();(-2000.0, -2000.0);
10:42:59:673;10:42:59:647;1448877548.49;(0.22616134881973265, 0.4951431698269314);31.1298408508;0.955488521001;;;;;;;;;;;;;;2;08,83;0;0;0;0;0;0;0;();(-2000.0, -2000.0);
10:42:59:691;10:42:59:647;1448877548.49;(0.22616134881973265, 0.4951431698269314);31.1298408508;0.955488521001;;;;;;;;;;;;;;2;08,83;0;0;0;0;0;0;0;();(-2000.0, -2000.0);
10:42:59:722;10:42:59:714;1448877548.56;(0.22832287549972535, 0.49806543986002605);31.357591629;1.0;;;;;;;;;;;;;;2;08,83;0;0;0;0;0;0;0;();(-2000.0, -2000.0);
10:42:59:740;10:42:59:714;1448877548.56;(0.22832287549972535, 0.49806543986002605);31.357591629;1.0;;;;;;;;;;;;;;2;08,83;0;0;0;0;0;0;0;();(-2000.0, -2000.0);
10:42:59:757;10:42:59:714;1448877548.56;(0.22832287549972535, 0.49806543986002605);31.357591629;1.0;;;;;;;;;;;;;;2;08,83;0;0;0;0;0;0;0;();(-2000.0, -2000.0);
10:42:59:772;10:42:59:714;1448877548.56;(0.22832287549972535, 0.49806543986002605);31.357591629;1.0;;;;;;;;;;;;;;2;08,83;0;0;0;0;0;0;0;();(-2000.0, -2000.0);
10:42:59:791;10:42:59:778;1448877548.63;(0.22913787364959717, 0.4998760223388672);31.963891983;1.0;;;;;;;;;;;;;;2;08,83;0;0;0;0;0;0;0;();(-2000.0, -2000.0);
10:42:59:822;10:42:59:778;1448877548.63;(0.22913787364959717, 0.4998760223388672);31.963891983;1.0;;;;;;;;;;;;;;2;08,83;0;0;0;0;0;0;0;();(-2000.0, -2000.0);
10:42:59:841;10:42:59:778;1448877548.63;(0.22913787364959717, 0.4998760223388672);31.963891983;1.0;;;;;;;;;;;;;;2;08,83;0;0;0;0;0;0;0;();(-2000.0, -2000.0);
10:42:59:858;10:42:59:846;1448877548.69;(0.22974528074264527, 0.5005185869004991);31.6712760925;1.0;;;;;;;;;;;;;;2;08,83;0;0;0;0;0;0;0;();(-2000.0, -2000.0);
10:42:59:874;10:42:59:846;1448877548.69;(0.22974528074264527, 0.5005185869004991);31.6712760925;1.0;;;;;;;;;;;;;;2;08,83;0;0;0;0;0;0;0;();(-2000.0, -2000.0);
10:42:59:890;10:42:59:846;1448877548.69;(0.22974528074264527, 0.5005185869004991);31.6712760925;1.0;;;;;;;;;;;;;;2;08,83;0;0;0;0;0;0;0;();(-2000.0, -2000.0);
10:42:59:924;10:42:59:910;1448877548.76;(0.23061771392822267, 0.5009136199951172);31.9962978363;1.0;;;;;;;;;;;;;;2;08,83;0;0;0;0;0;0;0;();(-2000.0, -2000.0);
10:42:59:941;10:42:59:910;1448877548.76;(0.23061771392822267, 0.5009136199951172);31.9962978363;1.0;;;;;;;;;;;;;;2;08,83;0;0;0;0;0;0;0;();(-2000.0, -2000.0);
10:42:59:957;10:42:59:910;1448877548.76;(0.23061771392822267, 0.5009136199951172);31.9962978363;1.0;;;;;;;;;;;;;;2;08,83;0;0;0;0;0;0;0;();(-2000.0, -2000.0);
10:42:59:974;10:42:59:910;1448877548.76;(0.23061771392822267, 0.5009136199951172);31.9962978363;1.0;;;;;;;;;;;;;;2;08,83;0;0;0;0;0;0;0;();(-2000.0, -2000.0);
10:42:59:990;10:42:59:977;1448877548.83;(0.2354912519454956, 0.5007219102647569);31.3723506927;1.0;;;;;;;;;;;;;;2;08,83;0;0;0;0;0;0;0;();(-2000.0, -2000.0);
10:43:00:024;10:42:59:977;1448877548.83;(0.2354912519454956, 0.5007219102647569);31.3723506927;1.0;;;;;;;;;;;;;;2;08,83;0;0;0;0;0;0;0;();(-2000.0, -2000.0);
10:43:00:041;10:42:59:977;1448877548.83;(0.2354912519454956, 0.5007219102647569);31.3723506927;1.0;;;;;;;;;;;;;;2;08,83;0;0;0;0;0;0;0;();(-2000.0, -2000.0);
10:43:00:057;10:43:00:045;1448877548.86;(0.2840136528015137, 0.4842118581136068);32.5078735352;1.0;;;;;;;;;;;;;;2;08,83;0;0;0;0;0;0;0;();(-2000.0, -2000.0);
10:43:00:074;10:43:00:045;1448877548.86;(0.2840136528015137, 0.4842118581136068);32.5078735352;1.0;;;;;;;;;;;;;;2;08,83;0;0;0;0;0;0;0;();(-2000.0, -2000.0);
10:43:00:091;10:43:00:045;1448877548.86;(0.2840136528015137, 0.4842118581136068);32.5078735352;1.0;;;;;;;;;;;;;;2;08,83;0;0;0;0;0;0;0;();(-2000.0, -2000.0);
10:43:00:124;10:43:00:110;1448877548.96;(0.3151869773864746, 0.4688616434733073);31.5814285278;1.0;;;;;;;;;;;;;;2;08,83;0;0;0;0;0;0;0;();(-2000.0, -2000.0);
10:43:00:141;10:43:00:110;1448877548.96;(0.3151869773864746, 0.4688616434733073);31.5814285278;1.0;;;;;;;;;;;;;;2;08,83;0;0;0;0;0;0;0;();(-2000.0, -2000.0);
10:43:00:158;10:43:00:110;1448877548.96;(0.3151869773864746, 0.4688616434733073);31.5814285278;1.0;;;;;;;;;;;;;;2;08,83;0;0;0;0;0;0;0;();(-2000.0, -2000.0);
10:43:00:174;10:43:00:110;1448877548.96;(0.3151869773864746, 0.4688616434733073);31.5814285278;1.0;;;;;;;;;;;;;;2;08,83;0;0;0;0;0;0;0;();(-2000.0, -2000.0);
10:43:00:190;10:43:00:189;1448877548.99;(0.3142484903335571, 0.4698164621988933);31.2846069336;1.0;;;;;;;;;;;;;;2;08,83;0;0;0;0;0;0;0;();(-2000.0, -2000.0);
10:43:00:224;10:43:00:192;1448877549.03;(0.31370959281921384, 0.47058169047037757);31.0991897583;1.0;;;;;;;;;;;;;;2;08,83;0;0;0;0;0;0;0;();(-2000.0, -2000.0);
10:43:00:240;10:43:00:192;1448877549.03;(0.31370959281921384, 0.47058169047037757);31.0991897583;1.0;;;;;;;;;;;;;;2;08,83;0;0;0;0;0;0;0;();(-2000.0, -2000.0);
10:43:00:258;10:43:00:241;1448877549.06;(0.31330678462982176, 0.4715490129258898);31.4222335815;1.0;;;;;;;;;;;;;;2;08,83;0;0;0;0;0;0;0;();(-2000.0, -2000.0);
10:43:00:274;10:43:00:241;1448877549.06;(0.31330678462982176, 0.4715490129258898);31.4222335815;1.0;;;;;;;;;;;;;;2;08,83;0;0;0;0;0;0;0;();(-2000.0, -2000.0);
10:43:00:291;10:43:00:241;1448877549.06;(0.31330678462982176, 0.4715490129258898);31.4222335815;1.0;;;;;;;;;;;;;;2;08,83;0;0;0;0;0;0;0;();(-2000.0, -2000.0);
10:43:00:324;10:43:00:310;1448877549.16;(0.31178066730499265, 0.4726844363742404);31.3508682251;1.0;;;;;;;;;;;;;;2;08,83;0;0;0;0;0;0;0;();(-2000.0, -2000.0);
10:43:00:340;10:43:00:310;1448877549.16;(0.31178066730499265, 0.4726844363742404);31.3508682251;1.0;;;;;;;;;;;;;;2;08,83;0;0;0;0;0;0;0;();(-2000.0, -2000.0);
10:43:00:358;10:43:00:310;1448877549.16;(0.31178066730499265, 0.4726844363742404);31.3508682251;1.0;;;;;;;;;;;;;;2;08,83;0;0;0;0;0;0;0;();(-2000.0, -2000.0);
10:43:00:374;10:43:00:373;1448877549.19;(0.3169024229049683, 0.4762240091959635);31.5672988892;1.0;;;;;;;;;;;;;;2;08,83;0;0;0;0;0;0;0;();(-2000.0, -2000.0);
10:43:00:391;10:43:00:373;1448877549.19;(0.3169024229049683, 0.4762240091959635);31.5672988892;1.0;;;;;;;;;;;;;;2;08,83;0;0;0;0;0;0;0;();(-2000.0, -2000.0);
10:43:00:424;10:43:00:373;1448877549.19;(0.3169024229049683, 0.4762240091959635);31.5672988892;1.0;;;;;;;;;;;;;;2;08,83;0;0;0;0;0;0;0;();(-2000.0, -2000.0);
10:43:00:443;10:43:00:443;1448877549.29;(0.31772656440734864, 0.4790653228759766);31.3175754547;1.0;;;;;;;;;;;;;;2;08,83;0;0;0;0;0;0;0;();(-2000.0, -2000.0);
10:43:00:458;10:43:00:443;1448877549.29;(0.31772656440734864, 0.4790653228759766);31.3175754547;1.0;;;;;;;;;;;;;;2;08,83;0;0;0;0;0;0;0;();(-2000.0, -2000.0);
10:43:00:475;10:43:00:443;1448877549.29;(0.31772656440734864, 0.4790653228759766);31.3175754547;1.0;;;;;;;;;;;;;;2;08,83;0;0;0;0;0;0;0;();(-2000.0, -2000.0);
10:43:00:491;10:43:00:443;1448877549.29;(0.31772656440734864, 0.4790653228759766);31.3175754547;1.0;;;;;;;;;;;;;;2;08,83;0;0;0;0;0;0;0;();(-2000.0, -2000.0);
10:43:00:524;10:43:00:509;1448877549.36;(0.3169381141662598, 0.4794921027289496);31.8289661407;1.0;;;;;;;;;;;;;;2;08,83;0;0;0;0;0;0;0;();(-2000.0, -2000.0);
10:43:00:541;10:43:00:509;1448877549.36;(0.3169381141662598, 0.4794921027289496);31.8289661407;1.0;;;;;;;;;;;;;;2;08,83;0;0;0;0;0;0;0;();(-2000.0, -2000.0);
10:43:00:558;10:43:00:509;1448877549.36;(0.3169381141662598, 0.4794921027289496);31.8289661407;1.0;;;;;;;;;;;;;;2;08,83;0;0;0;0;0;0;0;();(-2000.0, -2000.0);
10:43:00:575;10:43:00:509;1448877549.36;(0.3169381141662598, 0.4794921027289496);31.8289661407;1.0;;;;;;;;;;;;;;2;08,83;0;0;0;0;0;0;0;();(-2000.0, -2000.0);
10:43:00:591;10:43:00:584;1448877549.43;(0.3488768577575684, 0.49339425828721784);32.1662597656;1.0;;;;;;;;;;;;;;2;08,83;0;0;0;0;0;0;0;();(-2000.0, -2000.0);
10:43:00:625;10:43:00:584;1448877549.43;(0.3488768577575684, 0.49339425828721784);32.1662597656;1.0;;;;;;;;;;;;;;2;08,83;0;0;0;0;0;0;0;();(-2000.0, -2000.0);
10:43:00:641;10:43:00:584;1448877549.43;(0.3488768577575684, 0.49339425828721784);32.1662597656;1.0;;;;;;;;;;;;;;2;08,83;0;0;0;0;0;0;0;();(-2000.0, -2000.0);
10:43:00:658;10:43:00:647;1448877549.49;(0.36024520397186277, 0.49374749925401473);31.9028739929;0.961928110219;;;;;;;;;;;;;;2;08,83;0;0;0;0;0;0;0;();(-2000.0, -2000.0);
10:43:00:675;10:43:00:647;1448877549.49;(0.36024520397186277, 0.49374749925401473);31.9028739929;0.961928110219;;;;;;;;;;;;;;2;08,83;0;0;0;0;0;0;0;();(-2000.0, -2000.0);
10:43:00:692;10:43:00:647;1448877549.49;(0.36024520397186277, 0.49374749925401473);31.9028739929;0.961928110219;;;;;;;;;;;;;;2;08,83;0;0;0;0;0;0;0;();(-2000.0, -2000.0);
10:43:00:725;10:43:00:705;1448877549.53;(0.3586260318756104, 0.49473478529188364);31.6297225952;0.928187031577;;;;;;;;;;;;;;2;08,83;0;0;0;0;0;0;0;();(-2000.0, -2000.0);
10:43:00:741;10:43:00:705;1448877549.53;(0.3586260318756104, 0.49473478529188364);31.6297225952;0.928187031577;;;;;;;;;;;;;;2;08,83;0;0;0;0;0;0;0;();(-2000.0, -2000.0);
10:43:00:757;10:43:00:705;1448877549.53;(0.3586260318756104, 0.49473478529188364);31.6297225952;0.928187031577;;;;;;;;;;;;;;2;08,83;0;0;0;0;0;0;0;();(-2000.0, -2000.0);
10:43:00:775;10:43:00:774;1448877549.63;(0.3557827711105347, 0.49677098592122393);32.143447876;1.0;;;;;;;;;;;;;;2;08,83;0;0;0;0;0;0;0;();(-2000.0, -2000.0);
10:43:00:791;10:43:00:774;1448877549.63;(0.3557827711105347, 0.49677098592122393);32.143447876;1.0;;;;;;;;;;;;;;2;08,83;0;0;0;0;0;0;0;();(-2000.0, -2000.0);
10:43:00:808;10:43:00:774;1448877549.63;(0.3557827711105347, 0.49677098592122393);32.143447876;1.0;;;;;;;;;;;;;;2;08,83;0;0;0;0;0;0;0;();(-2000.0, -2000.0);
10:43:00:842;10:43:00:774;1448877549.63;(0.3557827711105347, 0.49677098592122393);32.143447876;1.0;;;;;;;;;;;;;;2;08,83;0;0;0;0;0;0;0;();(-2000.0, -2000.0);
10:43:00:858;10:43:00:843;1448877549.69;(0.3630228042602539, 0.4949210696750217);32.0736618042;1.0;;;;;;;;;;;;;;2;08,83;0;0;0;0;0;0;0;();(-2000.0, -2000.0);
10:43:00:875;10:43:00:843;1448877549.69;(0.3630228042602539, 0.4949210696750217);32.0736618042;1.0;;;;;;;;;;;;;;2;08,83;0;0;0;0;0;0;0;();(-2000.0, -2000.0);
10:43:00:891;10:43:00:843;1448877549.69;(0.3630228042602539, 0.4949210696750217);32.0736618042;1.0;;;;;;;;;;;;;;2;08,83;0;0;0;0;0;0;0;();(-2000.0, -2000.0);
10:43:00:908;10:43:00:843;1448877549.69;(0.3630228042602539, 0.4949210696750217);32.0736618042;1.0;;;;;;;;;;;;;;2;08,83;0;0;0;0;0;0;0;();(-2000.0, -2000.0);
10:43:00:941;10:43:00:908;1448877549.73;(0.3628729581832886, 0.49483718872070315);32.0859375;1.0;;;;;;;;;;;;;;2;08,83;0;0;0;0;0;0;0;();(-2000.0, -2000.0);
10:43:00:958;10:43:00:908;1448877549.73;(0.3628729581832886, 0.49483718872070315);32.0859375;1.0;;;;;;;;;;;;;;2;08,83;0;0;0;0;0;0;0;();(-2000.0, -2000.0);
10:43:00:975;10:43:00:974;1448877549.79;(0.35929169654846194, 0.49656113518608946);32.1943969727;1.0;;;;;;;;;;;;;;2;08,83;0;0;0;0;0;0;0;();(-2000.0, -2000.0);
10:43:00:991;10:43:00:974;1448877549.79;(0.35929169654846194, 0.49656113518608946);32.1943969727;1.0;;;;;;;;;;;;;;2;08,83;0;0;0;0;0;0;0;();(-2000.0, -2000.0);
10:43:01:025;10:43:00:974;1448877549.79;(0.35929169654846194, 0.49656113518608946);32.1943969727;1.0;;;;;;;;;;;;;;2;08,83;0;0;0;0;0;0;0;();(-2000.0, -2000.0);
10:43:01:041;10:43:01:039;1448877549.86;(0.2721765756607056, 0.5167508867051867);31.6441020966;0.955608076494;;;;;;;;;;;;;;2;08,83;0;0;0;0;0;0;0;();(-2000.0, -2000.0);
10:43:01:058;10:43:01:039;1448877549.86;(0.2721765756607056, 0.5167508867051867);31.6441020966;0.955608076494;;;;;;;;;;;;;;2;08,83;0;0;0;0;0;0;0;();(-2000.0, -2000.0);
10:43:01:075;10:43:01:039;1448877549.86;(0.2721765756607056, 0.5167508867051867);31.6441020966;0.955608076494;;;;;;;;;;;;;;2;08,83;0;0;0;0;0;0;0;();(-2000.0, -2000.0);
10:43:01:091;10:43:01:039;1448877549.86;(0.2721765756607056, 0.5167508867051867);31.6441020966;0.955608076494;;;;;;;;;;;;;;2;08,83;0;0;0;0;0;0;0;();(-2000.0, -2000.0);
10:43:01:125;10:43:01:106;1448877549.93;(0.24697988033294677, 0.5089452107747396);33.2419090271;0.936419223129;;;;;;;;;;;;;;2;08,83;0;0;0;0;0;0;0;();(-2000.0, -2000.0);
10:43:01:142;10:43:01:106;1448877549.93;(0.24697988033294677, 0.5089452107747396);33.2419090271;0.936419223129;;;;;;;;;;;;;;2;08,83;0;0;0;0;0;0;0;();(-2000.0, -2000.0);
10:43:01:158;10:43:01:106;1448877549.93;(0.24697988033294677, 0.5089452107747396);33.2419090271;0.936419223129;;;;;;;;;;;;;;2;08,83;0;0;0;0;0;0;0;();(-2000.0, -2000.0);
10:43:01:175;10:43:01:173;1448877549.99;(0.25143611431121826, 0.510710440741645);33.5078659058;0.860908867423;;;;;;;;;;;;;;2;08,83;0;0;0;0;0;0;0;();(-2000.0, -2000.0);
10:43:01:192;10:43:01:173;1448877549.99;(0.25143611431121826, 0.510710440741645);33.5078659058;0.860908867423;;;;;;;;;;;;;;2;08,83;0;0;0;0;0;0;0;();(-2000.0, -2000.0);
10:43:01:209;10:43:01:173;1448877549.99;(0.25143611431121826, 0.510710440741645);33.5078659058;0.860908867423;;;;;;;;;;;;;;2;08,83;0;0;0;0;0;0;0;();(-2000.0, -2000.0);
10:43:01:242;10:43:01:239;1448877550.06;(0.24001576900482177, 0.50322388543023);33.400177002;1.0;;;;;;;;;;;;;;2;08,83;0;0;0;0;0;0;0;();(-2000.0, -2000.0);
10:43:01:259;10:43:01:239;1448877550.06;(0.24001576900482177, 0.50322388543023);33.400177002;1.0;;;;;;;;;;;;;;2;08,83;0;0;0;0;0;0;0;();(-2000.0, -2000.0);
10:43:01:275;10:43:01:239;1448877550.06;(0.24001576900482177, 0.50322388543023);33.400177002;1.0;;;;;;;;;;;;;;2;08,83;0;0;0;0;0;0;0;();(-2000.0, -2000.0);
10:43:01:292;10:43:01:239;1448877550.06;(0.24001576900482177, 0.50322388543023);33.400177002;1.0;;;;;;;;;;;;;;2;08,83;0;0;0;0;0;0;0;();(-2000.0, -2000.0);
10:43:01:308;10:43:01:305;1448877550.13;(0.23921711444854737, 0.5042555067274306);33.5031204224;1.0;;;;;;;;;;;;;;2;08,83;0;0;0;0;0;0;0;();(-2000.0, -2000.0);
10:43:01:341;10:43:01:305;1448877550.13;(0.23921711444854737, 0.5042555067274306);33.5031204224;1.0;;;;;;;;;;;;;;2;08,83;0;0;0;0;0;0;0;();(-2000.0, -2000.0);
10:43:01:359;10:43:01:305;1448877550.13;(0.23921711444854737, 0.5042555067274306);33.5031204224;1.0;;;;;;;;;;;;;;2;08,83;0;0;0;0;0;0;0;();(-2000.0, -2000.0);
10:43:01:376;10:43:01:371;1448877550.2;(0.2303699731826782, 0.49829822116427946);33.4343910217;1.0;;;;;;;;;;;;;;2;08,83;0;0;0;0;0;0;0;();(-2000.0, -2000.0);
10:43:01:392;10:43:01:371;1448877550.2;(0.2303699731826782, 0.49829822116427946);33.4343910217;1.0;;;;;;;;;;;;;;2;08,83;0;0;0;0;0;0;0;();(-2000.0, -2000.0);
10:43:01:409;10:43:01:371;1448877550.2;(0.2303699731826782, 0.49829822116427946);33.4343910217;1.0;;;;;;;;;;;;;;2;08,83;0;0;0;0;0;0;0;();(-2000.0, -2000.0);
10:43:01:442;10:43:01:439;1448877550.29;(0.23247795104980468, 0.5000624762641059);32.4669342041;1.0;;;;;;;;;;;;;;2;08,83;0;0;0;0;0;0;0;();(-2000.0, -2000.0);
10:43:01:459;10:43:01:439;1448877550.29;(0.23247795104980468, 0.5000624762641059);32.4669342041;1.0;;;;;;;;;;;;;;2;08,83;0;0;0;0;0;0;0;();(-2000.0, -2000.0);
10:43:01:476;10:43:01:439;1448877550.29;(0.23247795104980468, 0.5000624762641059);32.4669342041;1.0;;;;;;;;;;;;;;2;08,83;0;0;0;0;0;0;0;();(-2000.0, -2000.0);
10:43:01:492;10:43:01:439;1448877550.29;(0.23247795104980468, 0.5000624762641059);32.4669342041;1.0;;;;;;;;;;;;;;2;08,83;0;0;0;0;0;0;0;();(-2000.0, -2000.0);
10:43:01:508;10:43:01:507;1448877550.33;(0.23320966958999634, 0.5007953219943576);32.5242195129;1.0;;;;;;;;;;;;;;2;08,83;0;0;0;0;0;0;0;();(-2000.0, -2000.0);
10:43:01:542;10:43:01:507;1448877550.33;(0.23320966958999634, 0.5007953219943576);32.5242195129;1.0;;;;;;;;;;;;;;2;08,83;0;0;0;0;0;0;0;();(-2000.0, -2000.0);
10:43:01:559;10:43:01:507;1448877550.33;(0.23320966958999634, 0.5007953219943576);32.5242195129;1.0;;;;;;;;;;;;;;2;08,83;0;0;0;0;0;0;0;();(-2000.0, -2000.0);
10:43:01:575;10:43:01:572;1448877550.39;(0.2397261381149292, 0.5044504801432292);32.7817611694;1.0;;;;;;;;;;;;;;2;08,83;0;0;0;0;0;0;0;();(-2000.0, -2000.0);
10:43:01:592;10:43:01:572;1448877550.39;(0.2397261381149292, 0.5044504801432292);32.7817611694;1.0;;;;;;;;;;;;;;2;08,83;0;0;0;0;0;0;0;();(-2000.0, -2000.0);
10:43:01:609;10:43:01:572;1448877550.39;(0.2397261381149292, 0.5044504801432292);32.7817611694;1.0;;;;;;;;;;;;;;2;08,83;0;0;0;0;0;0;0;();(-2000.0, -2000.0);
10:43:01:642;10:43:01:638;1448877550.49;(0.23940393924713135, 0.5050508711073134);32.5926628113;1.0;;;;;;;;;;;;;;2;08,83;0;0;0;0;0;0;0;();(-2000.0, -2000.0);
10:43:01:660;10:43:01:638;1448877550.49;(0.23940393924713135, 0.5050508711073134);32.5926628113;1.0;;;;;;;;;;;;;;2;08,83;0;0;0;0;0;0;0;();(-2000.0, -2000.0);
10:43:01:676;10:43:01:638;1448877550.49;(0.23940393924713135, 0.5050508711073134);32.5926628113;1.0;;;;;;;;;;;;;;2;08,83;0;0;0;0;0;0;0;();(-2000.0, -2000.0);
10:43:01:692;10:43:01:638;1448877550.49;(0.23940393924713135, 0.5050508711073134);32.5926628113;1.0;;;;;;;;;;;;;;2;08,83;0;0;0;0;0;0;0;();(-2000.0, -2000.0);
10:43:01:709;10:43:01:703;1448877550.53;(0.2387782573699951, 0.5055370754665799);32.5766181946;1.0;;;;;;;;;;;;;;2;08,83;0;0;0;0;0;0;0;();(-2000.0, -2000.0);
10:43:01:742;10:43:01:703;1448877550.53;(0.2387782573699951, 0.5055370754665799);32.5766181946;1.0;;;;;;;;;;;;;;2;08,83;0;0;0;0;0;0;0;();(-2000.0, -2000.0);
10:43:01:758;10:43:01:703;1448877550.53;(0.2387782573699951, 0.5055370754665799);32.5766181946;1.0;;;;;;;;;;;;;;2;08,83;0;0;0;0;0;0;0;();(-2000.0, -2000.0);
10:43:01:774;10:43:01:772;1448877550.59;(0.2347632884979248, 0.5031736161973741);32.7715988159;0.985734906288;;;;;;;;;;;;;;2;08,83;0;0;0;0;0;0;0;();(-2000.0, -2000.0);
10:43:01:792;10:43:01:772;1448877550.59;(0.2347632884979248, 0.5031736161973741);32.7715988159;0.985734906288;;;;;;;;;;;;;;2;08,83;0;0;0;0;0;0;0;();(-2000.0, -2000.0);
10:43:01:808;10:43:01:772;1448877550.59;(0.2347632884979248, 0.5031736161973741);32.7715988159;0.985734906288;;;;;;;;;;;;;;2;08,83;0;0;0;0;0;0;0;();(-2000.0, -2000.0);
10:43:01:842;10:43:01:840;1448877550.66;(0.2345437526702881, 0.5036890241834853);32.379825592;1.0;;;;;;;;;;;;;;2;08,83;0;0;0;0;0;0;0;();(-2000.0, -2000.0);
10:43:01:859;10:43:01:840;1448877550.66;(0.2345437526702881, 0.5036890241834853);32.379825592;1.0;;;;;;;;;;;;;;2;08,83;0;0;0;0;0;0;0;();(-2000.0, -2000.0);
10:43:01:876;10:43:01:840;1448877550.66;(0.2345437526702881, 0.5036890241834853);32.379825592;1.0;;;;;;;;;;;;;;2;08,83;0;0;0;0;0;0;0;();(-2000.0, -2000.0);
10:43:01:892;10:43:01:840;1448877550.66;(0.2345437526702881, 0.5036890241834853);32.379825592;1.0;;;;;;;;;;;;;;2;08,83;0;0;0;0;0;0;0;();(-2000.0, -2000.0);
10:43:01:909;10:43:01:901;1448877550.73;(0.23472046852111816, 0.5046941545274523);31.8935947418;1.0;;;;;;;;;;;;;;2;08,83;0;0;0;0;0;0;0;();(-2000.0, -2000.0);
10:43:01:942;10:43:01:901;1448877550.73;(0.23472046852111816, 0.5046941545274523);31.8935947418;1.0;;;;;;;;;;;;;;2;08,83;0;0;0;0;0;0;0;();(-2000.0, -2000.0);
10:43:01:959;10:43:01:901;1448877550.73;(0.23472046852111816, 0.5046941545274523);31.8935947418;1.0;;;;;;;;;;;;;;2;08,83;0;0;0;0;0;0;0;();(-2000.0, -2000.0);
10:43:01:976;10:43:01:974;1448877550.79;(0.2348484516143799, 0.5056155310736763);32.0624160767;1.0;;;;;;;;;;;;;;2;08,83;0;0;0;0;0;0;0;();(-2000.0, -2000.0);
10:43:01:992;10:43:01:974;1448877550.79;(0.2348484516143799, 0.5056155310736763);32.0624160767;1.0;;;;;;;;;;;;;;2;08,83;0;0;0;0;0;0;0;();(-2000.0, -2000.0);
10:43:02:009;10:43:01:974;1448877550.79;(0.2348484516143799, 0.5056155310736763);32.0624160767;1.0;;;;;;;;;;;;;;2;08,83;0;0;0;0;0;0;0;();(-2000.0, -2000.0);
10:43:02:043;10:43:02:035;1448877550.86;(0.24199867248535156, 0.5100001017252604);32.18409729;1.0;;;;;;;;;;;;;;2;08,83;0;0;0;0;0;0;0;();(-2000.0, -2000.0);
10:43:02:060;10:43:02:035;1448877550.86;(0.24199867248535156, 0.5100001017252604);32.18409729;1.0;;;;;;;;;;;;;;2;08,83;0;0;0;0;0;0;0;();(-2000.0, -2000.0);
10:43:02:076;10:43:02:035;1448877550.86;(0.24199867248535156, 0.5100001017252604);32.18409729;1.0;;;;;;;;;;;;;;2;08,83;0;0;0;0;0;0;0;();(-2000.0, -2000.0);
10:43:02:092;10:43:02:035;1448877550.86;(0.24199867248535156, 0.5100001017252604);32.18409729;1.0;;;;;;;;;;;;;;2;08,83;0;0;0;0;0;0;0;();(-2000.0, -2000.0);
10:43:02:109;10:43:02:102;1448877550.93;(0.24212820529937745, 0.5102144453260633);32.1880073547;1.0;;;;;;;;;;;;;;2;08,83;0;0;0;0;0;0;0;();(-2000.0, -2000.0);
10:43:02:143;10:43:02:102;1448877550.93;(0.24212820529937745, 0.5102144453260633);32.1880073547;1.0;;;;;;;;;;;;;;2;08,83;0;0;0;0;0;0;0;();(-2000.0, -2000.0);
10:43:02:159;10:43:02:102;1448877550.93;(0.24212820529937745, 0.5102144453260633);32.1880073547;1.0;;;;;;;;;;;;;;2;08,83;0;0;0;0;0;0;0;();(-2000.0, -2000.0);
10:43:02:175;10:43:02:169;1448877550.99;(0.24198496341705322, 0.5106068505181207);32.3728294373;1.0;;;;;;;;;;;;;;2;08,83;0;0;0;0;0;0;0;();(-2000.0, -2000.0);
10:43:02:192;10:43:02:169;1448877550.99;(0.24198496341705322, 0.5106068505181207);32.3728294373;1.0;;;;;;;;;;;;;;2;08,83;0;0;0;0;0;0;0;();(-2000.0, -2000.0);
10:43:02:210;10:43:02:169;1448877550.99;(0.24198496341705322, 0.5106068505181207);32.3728294373;1.0;;;;;;;;;;;;;;2;08,83;0;0;0;0;0;0;0;();(-2000.0, -2000.0);
10:43:02:243;10:43:02:237;1448877551.06;(0.2419269561767578, 0.5104925791422525);32.1681251526;1.0;;;;;;;;;;;;;;2;08,83;0;0;0;0;0;0;0;();(-2000.0, -2000.0);
10:43:02:259;10:43:02:237;1448877551.06;(0.2419269561767578, 0.5104925791422525);32.1681251526;1.0;;;;;;;;;;;;;;2;08,83;0;0;0;0;0;0;0;();(-2000.0, -2000.0);
10:43:02:276;10:43:02:237;1448877551.06;(0.2419269561767578, 0.5104925791422525);32.1681251526;1.0;;;;;;;;;;;;;;2;08,83;0;0;0;0;0;0;0;();(-2000.0, -2000.0);
10:43:02:293;10:43:02:237;1448877551.06;(0.2419269561767578, 0.5104925791422525);32.1681251526;1.0;;;;;;;;;;;;;;2;08,83;0;0;0;0;0;0;0;();(-2000.0, -2000.0);
10:43:02:309;10:43:02:302;1448877551.13;(0.24203295707702638, 0.5112973954942491);32.722743988;1.0;;;;;;;;;;;;;;2;08,83;0;0;0;0;0;0;0;();(-2000.0, -2000.0);
10:43:02:343;10:43:02:302;1448877551.13;(0.24203295707702638, 0.5112973954942491);32.722743988;1.0;;;;;;;;;;;;;;2;08,83;0;0;0;0;0;0;0;();(-2000.0, -2000.0);
10:43:02:359;10:43:02:302;1448877551.13;(0.24203295707702638, 0.5112973954942491);32.722743988;1.0;;;;;;;;;;;;;;2;08,83;0;0;0;0;0;0;0;();(-2000.0, -2000.0);
10:43:02:376;10:43:02:365;1448877551.19;(0.310014009475708, 0.4857092963324653);32.6796569824;1.0;;;;;;;;;;;;;;2;08,83;0;0;0;0;0;0;0;();(-2000.0, -2000.0);
10:43:02:393;10:43:02:365;1448877551.19;(0.310014009475708, 0.4857092963324653);32.6796569824;1.0;;;;;;;;;;;;;;2;08,83;0;0;0;0;0;0;0;();(-2000.0, -2000.0);
10:43:02:409;10:43:02:365;1448877551.19;(0.310014009475708, 0.4857092963324653);32.6796569824;1.0;;;;;;;;;;;;;;2;08,83;0;0;0;0;0;0;0;();(-2000.0, -2000.0);
10:43:02:443;10:43:02:435;1448877551.26;(0.31319663524627683, 0.4846299489339193);32.8931236267;1.0;;;;;;;;;;;;;;2;08,83;0;0;0;0;0;0;0;();(-2000.0, -2000.0);
10:43:02:459;10:43:02:435;1448877551.26;(0.31319663524627683, 0.4846299489339193);32.8931236267;1.0;;;;;;;;;;;;;;2;08,83;0;0;0;0;0;0;0;();(-2000.0, -2000.0);
10:43:02:477;10:43:02:435;1448877551.26;(0.31319663524627683, 0.4846299489339193);32.8931236267;1.0;;;;;;;;;;;;;;2;08,83;0;0;0;0;0;0;0;();(-2000.0, -2000.0);
10:43:02:493;10:43:02:435;1448877551.26;(0.31319663524627683, 0.4846299489339193);32.8931236267;1.0;;;;;;;;;;;;;;2;08,83;0;0;0;0;0;0;0;();(-2000.0, -2000.0);
10:43:02:510;10:43:02:502;1448877551.33;(0.3125302791595459, 0.48600408766004777);32.6450996399;1.0;;;;;;;;;;;;;;2;08,83;0;0;0;0;0;0;0;();(-2000.0, -2000.0);
10:43:02:543;10:43:02:502;1448877551.33;(0.3125302791595459, 0.48600408766004777);32.6450996399;1.0;;;;;;;;;;;;;;2;08,83;0;0;0;0;0;0;0;();(-2000.0, -2000.0);
10:43:02:560;10:43:02:502;1448877551.33;(0.3125302791595459, 0.48600408766004777);32.6450996399;1.0;;;;;;;;;;;;;;2;08,83;0;0;0;0;0;0;0;();(-2000.0, -2000.0);
10:43:02:576;10:43:02:566;1448877551.39;(0.31184978485107423, 0.48697450425889754);32.9415283203;1.0;;;;;;;;;;;;;;2;08,83;0;0;0;0;0;0;0;();(-2000.0, -2000.0);
10:43:02:592;10:43:02:566;1448877551.39;(0.31184978485107423, 0.48697450425889754);32.9415283203;1.0;;;;;;;;;;;;;;2;08,83;0;0;0;0;0;0;0;();(-2000.0, -2000.0);
10:43:02:609;10:43:02:566;1448877551.39;(0.31184978485107423, 0.48697450425889754);32.9415283203;1.0;;;;;;;;;;;;;;2;08,83;0;0;0;0;0;0;0;();(-2000.0, -2000.0);
10:43:02:643;10:43:02:635;1448877551.46;(0.3154804229736328, 0.48906241522894967);32.9917678833;1.0;;;;;;;;;;;;;;2;08,83;0;0;0;0;0;0;0;();(-2000.0, -2000.0);
10:43:02:660;10:43:02:635;1448877551.46;(0.3154804229736328, 0.48906241522894967);32.9917678833;1.0;;;;;;;;;;;;;;2;08,83;0;0;0;0;0;0;0;();(-2000.0, -2000.0);
10:43:02:676;10:43:02:635;1448877551.46;(0.3154804229736328, 0.48906241522894967);32.9917678833;1.0;;;;;;;;;;;;;;2;08,83;0;0;0;0;0;0;0;();(-2000.0, -2000.0);
10:43:02:693;10:43:02:635;1448877551.46;(0.3154804229736328, 0.48906241522894967);32.9917678833;1.0;;;;;;;;;;;;;;2;08,83;0;0;0;0;0;0;0;();(-2000.0, -2000.0);
10:43:02:710;10:43:02:698;1448877551.53;(0.3154500722885132, 0.49017456902398004);32.9657096863;1.0;;;;;;;;;;;;;;2;08,83;0;0;0;0;0;0;0;();(-2000.0, -2000.0);
10:43:02:743;10:43:02:698;1448877551.53;(0.3154500722885132, 0.49017456902398004);32.9657096863;1.0;;;;;;;;;;;;;;2;08,83;0;0;0;0;0;0;0;();(-2000.0, -2000.0);
10:43:02:759;10:43:02:698;1448877551.53;(0.3154500722885132, 0.49017456902398004);32.9657096863;1.0;;;;;;;;;;;;;;2;08,83;0;0;0;0;0;0;0;();(-2000.0, -2000.0);
10:43:02:777;10:43:02:765;1448877551.59;(0.31081578731536863, 0.48624174329969616);33.1183433533;1.0;;;;;;;;;;;;;;2;08,83;0;0;0;0;0;0;0;();(-2000.0, -2000.0);
10:43:02:793;10:43:02:765;1448877551.59;(0.31081578731536863, 0.48624174329969616);33.1183433533;1.0;;;;;;;;;;;;;;2;08,83;0;0;0;0;0;0;0;();(-2000.0, -2000.0);
10:43:02:810;10:43:02:765;1448877551.59;(0.31081578731536863, 0.48624174329969616);33.1183433533;1.0;;;;;;;;;;;;;;2;08,83;0;0;0;0;0;0;0;();(-2000.0, -2000.0);
10:43:02:843;10:43:02:835;1448877551.66;(0.3074485301971436, 0.4859199523925781);34.1826286316;1.0;;;;;;;;;;;;;;2;08,83;0;0;0;0;0;0;0;();(-2000.0, -2000.0);
10:43:02:860;10:43:02:835;1448877551.66;(0.3074485301971436, 0.4859199523925781);34.1826286316;1.0;;;;;;;;;;;;;;2;08,83;0;0;0;0;0;0;0;();(-2000.0, -2000.0);
10:43:02:877;10:43:02:835;1448877551.66;(0.3074485301971436, 0.4859199523925781);34.1826286316;1.0;;;;;;;;;;;;;;2;08,83;0;0;0;0;0;0;0;();(-2000.0, -2000.0);
10:43:02:893;10:43:02:835;1448877551.66;(0.3074485301971436, 0.4859199523925781);34.1826286316;1.0;;;;;;;;;;;;;;2;08,83;0;0;0;0;0;0;0;();(-2000.0, -2000.0);
10:43:02:910;10:43:02:897;1448877551.73;(0.30685203075408934, 0.486391830444336);33.5182762146;1.0;;;;;;;;;;;;;;2;08,83;0;0;0;0;0;0;0;();(-2000.0, -2000.0);
10:43:02:943;10:43:02:897;1448877551.73;(0.30685203075408934, 0.486391830444336);33.5182762146;1.0;;;;;;;;;;;;;;2;08,83;0;0;0;0;0;0;0;();(-2000.0, -2000.0);
10:43:02:960;10:43:02:897;1448877551.73;(0.30685203075408934, 0.486391830444336);33.5182762146;1.0;;;;;;;;;;;;;;2;08,83;0;0;0;0;0;0;0;();(-2000.0, -2000.0);
10:43:02:977;10:43:02:966;1448877551.79;(0.30597968101501466, 0.4867290920681424);33.9787521362;1.0;;;;;;;;;;;;;;2;08,83;0;0;0;0;0;0;0;();(-2000.0, -2000.0);
10:43:02:993;10:43:02:966;1448877551.79;(0.30597968101501466, 0.4867290920681424);33.9787521362;1.0;;;;;;;;;;;;;;2;08,83;0;0;0;0;0;0;0;();(-2000.0, -2000.0);
10:43:03:009;10:43:02:966;1448877551.79;(0.30597968101501466, 0.4867290920681424);33.9787521362;1.0;;;;;;;;;;;;;;2;08,83;0;0;0;0;0;0;0;();(-2000.0, -2000.0);
10:43:03:043;10:43:03:030;1448877551.86;(0.29881060123443604, 0.48535016377766926);34.8507881165;1.0;;;;;;;;;;;;;;2;08,83;0;0;0;0;0;0;0;();(-2000.0, -2000.0);
10:43:03:060;10:43:03:030;1448877551.86;(0.29881060123443604, 0.48535016377766926);34.8507881165;1.0;;;;;;;;;;;;;;2;08,83;0;0;0;0;0;0;0;();(-2000.0, -2000.0);
10:43:03:077;10:43:03:030;1448877551.86;(0.29881060123443604, 0.48535016377766926);34.8507881165;1.0;;;;;;;;;;;;;;2;08,83;0;0;0;0;0;0;0;();(-2000.0, -2000.0);
10:43:03:093;10:43:03:030;1448877551.86;(0.29881060123443604, 0.48535016377766926);34.8507881165;1.0;;;;;;;;;;;;;;2;08,83;0;0;0;0;0;0;0;();(-2000.0, -2000.0);
10:43:03:109;10:43:03:097;1448877551.93;(0.29776387214660643, 0.48614408704969614);34.5181884766;1.0;;;;;;;;;;;;;;2;08,83;0;0;0;0;0;0;0;();(-2000.0, -2000.0);
10:43:03:143;10:43:03:097;1448877551.93;(0.29776387214660643, 0.48614408704969614);34.5181884766;1.0;;;;;;;;;;;;;;2;08,83;0;0;0;0;0;0;0;();(-2000.0, -2000.0);
10:43:03:160;10:43:03:097;1448877551.93;(0.29776387214660643, 0.48614408704969614);34.5181884766;1.0;;;;;;;;;;;;;;2;08,83;0;0;0;0;0;0;0;();(-2000.0, -2000.0);
10:43:03:176;10:43:03:163;1448877551.99;(0.2968916416168213, 0.48586090935601134);34.8593292236;1.0;;;;;;;;;;;;;;2;08,83;0;0;0;0;0;0;0;();(-2000.0, -2000.0);
10:43:03:194;10:43:03:163;1448877551.99;(0.2968916416168213, 0.48586090935601134);34.8593292236;1.0;;;;;;;;;;;;;;2;08,83;0;0;0;0;0;0;0;();(-2000.0, -2000.0);
10:43:03:210;10:43:03:163;1448877551.99;(0.2968916416168213, 0.48586090935601134);34.8593292236;1.0;;;;;;;;;;;;;;2;08,83;0;0;0;0;0;0;0;();(-2000.0, -2000.0);
10:43:03:244;10:43:03:233;1448877552.06;(0.3082299709320068, 0.48843684726291237);35.1346206665;1.0;;;;;;;;;;;;;;2;08,83;0;0;0;0;0;0;0;();(-2000.0, -2000.0);
10:43:03:260;10:43:03:233;1448877552.06;(0.3082299709320068, 0.48843684726291237);35.1346206665;1.0;;;;;;;;;;;;;;2;08,83;0;0;0;0;0;0;0;();(-2000.0, -2000.0);
10:43:03:277;10:43:03:233;1448877552.06;(0.3082299709320068, 0.48843684726291237);35.1346206665;1.0;;;;;;;;;;;;;;2;08,83;0;0;0;0;0;0;0;();(-2000.0, -2000.0);
10:43:03:293;10:43:03:233;1448877552.06;(0.3082299709320068, 0.48843684726291237);35.1346206665;1.0;;;;;;;;;;;;;;2;08,83;0;0;0;0;0;0;0;();(-2000.0, -2000.0);
10:43:03:310;10:43:03:298;1448877552.13;(0.30365254878997805, 0.4879742516411676);35.1073722839;1.0;;;;;;;;;;;;;;2;08,83;0;0;0;0;0;0;0;();(-2000.0, -2000.0);
10:43:03:344;10:43:03:298;1448877552.13;(0.30365254878997805, 0.4879742516411676);35.1073722839;1.0;;;;;;;;;;;;;;2;08,83;0;0;0;0;0;0;0;();(-2000.0, -2000.0);
10:43:03:360;10:43:03:298;1448877552.13;(0.30365254878997805, 0.4879742516411676);35.1073722839;1.0;;;;;;;;;;;;;;2;08,83;0;0;0;0;0;0;0;();(-2000.0, -2000.0);
10:43:03:377;10:43:03:362;1448877552.19;(0.2978628873825073, 0.4870424482557508);35.4783935547;1.0;;;;;;;;;;;;;;2;08,83;0;0;0;0;0;0;0;();(-2000.0, -2000.0);
10:43:03:394;10:43:03:362;1448877552.19;(0.2978628873825073, 0.4870424482557508);35.4783935547;1.0;;;;;;;;;;;;;;2;08,83;0;0;0;0;0;0;0;();(-2000.0, -2000.0);
10:43:03:410;10:43:03:362;1448877552.19;(0.2978628873825073, 0.4870424482557508);35.4783935547;1.0;;;;;;;;;;;;;;2;08,83;0;0;0;0;0;0;0;();(-2000.0, -2000.0);
10:43:03:442;10:43:03:429;1448877552.26;(0.29666478633880616, 0.4882594214545356);35.9885673523;1.0;;;;;;;;;;;;;;2;08,83;0;0;0;0;0;0;0;();(-2000.0, -2000.0);
10:43:03:460;10:43:03:429;1448877552.26;(0.29666478633880616, 0.4882594214545356);35.9885673523;1.0;;;;;;;;;;;;;;2;08,83;0;0;0;0;0;0;0;();(-2000.0, -2000.0);
10:43:03:477;10:43:03:429;1448877552.26;(0.29666478633880616, 0.4882594214545356);35.9885673523;1.0;;;;;;;;;;;;;;2;08,83;0;0;0;0;0;0;0;();(-2000.0, -2000.0);
10:43:03:494;10:43:03:429;1448877552.26;(0.29666478633880616, 0.4882594214545356);35.9885673523;1.0;;;;;;;;;;;;;;2;08,83;0;0;0;0;0;0;0;();(-2000.0, -2000.0);
10:43:03:510;10:43:03:499;1448877552.33;(0.2967972278594971, 0.48795144822862413);35.8731994629;1.0;;;;;;;;;;;;;;2;08,83;0;0;0;0;0;0;0;();(-2000.0, -2000.0);
10:43:03:544;10:43:03:499;1448877552.33;(0.2967972278594971, 0.48795144822862413);35.8731994629;1.0;;;;;;;;;;;;;;2;08,83;0;0;0;0;0;0;0;();(-2000.0, -2000.0);
10:43:03:560;10:43:03:499;1448877552.33;(0.2967972278594971, 0.48795144822862413);35.8731994629;1.0;;;;;;;;;;;;;;2;08,83;0;0;0;0;0;0;0;();(-2000.0, -2000.0);
10:43:03:577;10:43:03:561;1448877552.39;(0.29724528789520266, 0.4881436241997613);36.030254364;1.0;;;;;;;;;;;;;;2;08,83;0;0;0;0;0;0;0;();(-2000.0, -2000.0);
10:43:03:593;10:43:03:561;1448877552.39;(0.29724528789520266, 0.4881436241997613);36.030254364;1.0;;;;;;;;;;;;;;2;08,83;0;0;0;0;0;0;0;();(-2000.0, -2000.0);
10:43:03:610;10:43:03:561;1448877552.39;(0.29724528789520266, 0.4881436241997613);36.030254364;1.0;;;;;;;;;;;;;;2;08,83;0;0;0;0;0;0;0;();(-2000.0, -2000.0);
10:43:03:644;10:43:03:630;1448877552.46;(0.29293735027313234, 0.4851965162489149);37.0603866577;0.961866434855;;;;;;;;;;;;;;2;08,83;0;0;0;0;0;0;0;();(-2000.0, -2000.0);
10:43:03:661;10:43:03:630;1448877552.46;(0.29293735027313234, 0.4851965162489149);37.0603866577;0.961866434855;;;;;;;;;;;;;;2;08,83;0;0;0;0;0;0;0;();(-2000.0, -2000.0);
10:43:03:677;10:43:03:630;1448877552.46;(0.29293735027313234, 0.4851965162489149);37.0603866577;0.961866434855;;;;;;;;;;;;;;2;08,83;0;0;0;0;0;0;0;();(-2000.0, -2000.0);
10:43:03:694;10:43:03:694;1448877552.49;(0.2929694175720215, 0.4858765072292752);36.4872283936;1.0;;;;;;;;;;;;;;2;08,83;0;0;0;0;0;0;0;();(-2000.0, -2000.0);
10:43:03:710;10:43:03:694;1448877552.53;(0.2936027765274048, 0.4873046027289496);36.502986908;1.0;;;;;;;;;;;;;;2;08,83;0;0;0;0;0;0;0;();(-2000.0, -2000.0);
10:43:03:744;10:43:03:694;1448877552.53;(0.2936027765274048, 0.4873046027289496);36.502986908;1.0;;;;;;;;;;;;;;2;08,83;0;0;0;0;0;0;0;();(-2000.0, -2000.0);
10:43:03:761;10:43:03:694;1448877552.53;(0.2936027765274048, 0.4873046027289496);36.502986908;1.0;;;;;;;;;;;;;;2;08,83;0;0;0;0;0;0;0;();(-2000.0, -2000.0);
10:43:03:777;10:43:03:764;1448877552.59;(0.2954877376556396, 0.4883028242323134);36.3597755432;1.0;;;;;;;;;;;;;;2;08,83;0;0;0;0;0;0;0;();(-2000.0, -2000.0);
10:43:03:794;10:43:03:764;1448877552.59;(0.2954877376556396, 0.4883028242323134);36.3597755432;1.0;;;;;;;;;;;;;;2;08,83;0;0;0;0;0;0;0;();(-2000.0, -2000.0);
10:43:03:811;10:43:03:764;1448877552.59;(0.2954877376556396, 0.4883028242323134);36.3597755432;1.0;;;;;;;;;;;;;;2;08,83;0;0;0;0;0;0;0;();(-2000.0, -2000.0);
10:43:03:844;10:43:03:827;1448877552.66;(0.29766461849212644, 0.4890530480278863);36.1288604736;1.0;;;;;;;;;;;;;;2;08,83;0;0;0;0;0;0;0;();(-2000.0, -2000.0);
10:43:03:861;10:43:03:827;1448877552.66;(0.29766461849212644, 0.4890530480278863);36.1288604736;1.0;;;;;;;;;;;;;;2;08,83;0;0;0;0;0;0;0;();(-2000.0, -2000.0);
10:43:03:877;10:43:03:827;1448877552.66;(0.29766461849212644, 0.4890530480278863);36.1288604736;1.0;;;;;;;;;;;;;;2;08,83;0;0;0;0;0;0;0;();(-2000.0, -2000.0);
10:43:03:894;10:43:03:893;1448877552.73;(0.3037842273712158, 0.49207348293728304);36.4078559875;1.0;;;;;;;;;;;;;;2;08,83;0;0;0;0;0;0;0;();(-2000.0, -2000.0);
10:43:03:911;10:43:03:893;1448877552.73;(0.3037842273712158, 0.49207348293728304);36.4078559875;1.0;;;;;;;;;;;;;;2;08,83;0;0;0;0;0;0;0;();(-2000.0, -2000.0);
10:43:03:945;10:43:03:893;1448877552.73;(0.3037842273712158, 0.49207348293728304);36.4078559875;1.0;;;;;;;;;;;;;;2;08,83;0;0;0;0;0;0;0;();(-2000.0, -2000.0);
10:43:03:960;10:43:03:893;1448877552.73;(0.3037842273712158, 0.49207348293728304);36.4078559875;1.0;;;;;;;;;;;;;;2;08,83;0;0;0;0;0;0;0;();(-2000.0, -2000.0);
10:43:03:977;10:43:03:963;1448877552.79;(0.3041724920272827, 0.4933647579616971);36.373714447;1.0;;;;;;;;;;;;;;2;08,83;0;0;0;0;0;0;0;();(-2000.0, -2000.0);
10:43:03:994;10:43:03:963;1448877552.79;(0.3041724920272827, 0.4933647579616971);36.373714447;1.0;;;;;;;;;;;;;;2;08,83;0;0;0;0;0;0;0;();(-2000.0, -2000.0);
10:43:04:010;10:43:03:963;1448877552.79;(0.3041724920272827, 0.4933647579616971);36.373714447;1.0;;;;;;;;;;;;;;2;08,83;0;0;0;0;0;0;0;();(-2000.0, -2000.0);
10:43:04:045;10:43:04:026;1448877552.86;(0.30396180152893065, 0.49594900343153214);36.1433258057;1.0;;;;;;;;;;;;;;2;08,83;0;0;0;0;0;0;0;();(-2000.0, -2000.0);
10:43:04:061;10:43:04:026;1448877552.86;(0.30396180152893065, 0.49594900343153214);36.1433258057;1.0;;;;;;;;;;;;;;2;08,83;0;0;0;0;0;0;0;();(-2000.0, -2000.0);
10:43:04:078;10:43:04:026;1448877552.86;(0.30396180152893065, 0.49594900343153214);36.1433258057;1.0;;;;;;;;;;;;;;2;08,83;0;0;0;0;0;0;0;();(-2000.0, -2000.0);
10:43:04:094;10:43:04:093;1448877552.93;(0.30342161655426025, 0.4966824849446615);36.3686332703;1.0;;;;;;;;;;;;;;2;08,83;0;0;0;0;0;0;0;();(-2000.0, -2000.0);
10:43:04:111;10:43:04:093;1448877552.93;(0.30342161655426025, 0.4966824849446615);36.3686332703;1.0;;;;;;;;;;;;;;2;08,83;0;0;0;0;0;0;0;();(-2000.0, -2000.0);
10:43:04:144;10:43:04:093;1448877552.93;(0.30342161655426025, 0.4966824849446615);36.3686332703;1.0;;;;;;;;;;;;;;2;08,83;0;0;0;0;0;0;0;();(-2000.0, -2000.0);
10:43:04:161;10:43:04:161;1448877552.99;(0.30303914546966554, 0.4979511260986328);36.258441925;1.0;;;;;;;;;;;;;;2;08,83;0;0;0;0;0;0;0;();(-2000.0, -2000.0);
10:43:04:178;10:43:04:161;1448877552.99;(0.30303914546966554, 0.4979511260986328);36.258441925;1.0;;;;;;;;;;;;;;2;08,83;0;0;0;0;0;0;0;();(-2000.0, -2000.0);
10:43:04:194;10:43:04:161;1448877552.99;(0.30303914546966554, 0.4979511260986328);36.258441925;1.0;;;;;;;;;;;;;;2;08,83;0;0;0;0;0;0;0;();(-2000.0, -2000.0);
10:43:04:211;10:43:04:161;1448877552.99;(0.30303914546966554, 0.4979511260986328);36.258441925;1.0;;;;;;;;;;;;;;2;08,83;0;0;0;0;0;0;0;();(-2000.0, -2000.0);
10:43:04:245;10:43:04:226;1448877553.06;(0.29918198585510253, 0.4955777910020617);36.5565986633;1.0;;;;;;;;;;;;;;2;08,83;0;0;0;0;0;0;0;();(-2000.0, -2000.0);
10:43:04:261;10:43:04:226;1448877553.06;(0.29918198585510253, 0.4955777910020617);36.5565986633;1.0;;;;;;;;;;;;;;2;08,83;0;0;0;0;0;0;0;();(-2000.0, -2000.0);
10:43:04:278;10:43:04:226;1448877553.06;(0.29918198585510253, 0.4955777910020617);36.5565986633;1.0;;;;;;;;;;;;;;2;08,83;0;0;0;0;0;0;0;();(-2000.0, -2000.0);
10:43:04:295;10:43:04:295;1448877553.13;(0.2996521472930908, 0.4954815758599176);36.0836715698;1.0;;;;;;;;;;;;;;2;08,83;0;0;0;0;0;0;0;();(-2000.0, -2000.0);
10:43:04:311;10:43:04:295;1448877553.13;(0.2996521472930908, 0.4954815758599176);36.0836715698;1.0;;;;;;;;;;;;;;2;08,83;0;0;0;0;0;0;0;();(-2000.0, -2000.0);
10:43:04:345;10:43:04:295;1448877553.13;(0.2996521472930908, 0.4954815758599176);36.0836715698;1.0;;;;;;;;;;;;;;2;08,83;0;0;0;0;0;0;0;();(-2000.0, -2000.0);
10:43:04:361;10:43:04:358;1448877553.19;(0.2998079776763916, 0.49387185838487413);36.4172439575;1.0;;;;;;;;;;;;;;2;08,83;0;0;0;0;0;0;0;();(-2000.0, -2000.0);
10:43:04:377;10:43:04:358;1448877553.19;(0.2998079776763916, 0.49387185838487413);36.4172439575;1.0;;;;;;;;;;;;;;2;08,83;0;0;0;0;0;0;0;();(-2000.0, -2000.0);
10:43:04:395;10:43:04:358;1448877553.19;(0.2998079776763916, 0.49387185838487413);36.4172439575;1.0;;;;;;;;;;;;;;2;08,83;0;0;0;0;0;0;0;();(-2000.0, -2000.0);
10:43:04:411;10:43:04:358;1448877553.19;(0.2998079776763916, 0.49387185838487413);36.4172439575;1.0;;;;;;;;;;;;;;2;08,83;0;0;0;0;0;0;0;();(-2000.0, -2000.0);
10:43:04:445;10:43:04:426;1448877553.26;(0.2992974281311035, 0.4896810319688585);36.3408126831;1.0;;;;;;;;;;;;;;2;08,83;0;0;0;0;0;0;0;();(-2000.0, -2000.0);
10:43:04:461;10:43:04:426;1448877553.26;(0.2992974281311035, 0.4896810319688585);36.3408126831;1.0;;;;;;;;;;;;;;2;08,83;0;0;0;0;0;0;0;();(-2000.0, -2000.0);
10:43:04:478;10:43:04:426;1448877553.26;(0.2992974281311035, 0.4896810319688585);36.3408126831;1.0;;;;;;;;;;;;;;2;08,83;0;0;0;0;0;0;0;();(-2000.0, -2000.0);
10:43:04:494;10:43:04:426;1448877553.26;(0.2992974281311035, 0.4896810319688585);36.3408126831;1.0;;;;;;;;;;;;;;2;08,83;0;0;0;0;0;0;0;();(-2000.0, -2000.0);
10:43:04:511;10:43:04:507;1448877553.33;(0.30636181831359866, 0.49188749525282116);36.4217567444;1.0;;;;;;;;;;;;;;2;08,83;0;0;0;0;0;0;0;();(-2000.0, -2000.0);
10:43:04:528;10:43:04:507;1448877553.33;(0.30636181831359866, 0.49188749525282116);36.4217567444;1.0;;;;;;;;;;;;;;2;08,83;0;0;0;0;0;0;0;();(-2000.0, -2000.0);
10:43:04:561;10:43:04:557;1448877553.39;(0.30498452186584474, 0.49019855923122835);36.3870506287;1.0;;;;;;;;;;;;;;2;08,83;0;0;0;0;0;0;0;();(-2000.0, -2000.0);
10:43:04:578;10:43:04:557;1448877553.39;(0.30498452186584474, 0.49019855923122835);36.3870506287;1.0;;;;;;;;;;;;;;2;08,83;0;0;0;0;0;0;0;();(-2000.0, -2000.0);
10:43:04:595;10:43:04:557;1448877553.39;(0.30498452186584474, 0.49019855923122835);36.3870506287;1.0;;;;;;;;;;;;;;2;08,83;0;0;0;0;0;0;0;();(-2000.0, -2000.0);
10:43:04:612;10:43:04:557;1448877553.39;(0.30498452186584474, 0.49019855923122835);36.3870506287;1.0;;;;;;;;;;;;;;2;08,83;0;0;0;0;0;0;0;();(-2000.0, -2000.0);
10:43:04:645;10:43:04:627;1448877553.46;(0.30417747497558595, 0.48958146837022565);36.6111831665;1.0;;;;;;;;;;;;;;2;08,83;0;0;0;0;0;0;0;();(-2000.0, -2000.0);
10:43:04:661;10:43:04:627;1448877553.46;(0.30417747497558595, 0.48958146837022565);36.6111831665;1.0;;;;;;;;;;;;;;2;08,83;0;0;0;0;0;0;0;();(-2000.0, -2000.0);
10:43:04:678;10:43:04:627;1448877553.46;(0.30417747497558595, 0.48958146837022565);36.6111831665;1.0;;;;;;;;;;;;;;2;08,83;0;0;0;0;0;0;0;();(-2000.0, -2000.0);
10:43:04:695;10:43:04:689;1448877553.53;(0.3036738634109497, 0.48739746941460504);36.6049346924;1.0;;;;;;;;;;;;;;2;08,83;0;0;0;0;0;0;0;();(-2000.0, -2000.0);
10:43:04:712;10:43:04:689;1448877553.53;(0.3036738634109497, 0.48739746941460504);36.6049346924;1.0;;;;;;;;;;;;;;2;08,83;0;0;0;0;0;0;0;();(-2000.0, -2000.0);
10:43:04:728;10:43:04:689;1448877553.53;(0.3036738634109497, 0.48739746941460504);36.6049346924;1.0;;;;;;;;;;;;;;2;08,83;0;0;0;0;0;0;0;();(-2000.0, -2000.0);
10:43:04:761;10:43:04:758;1448877553.59;(0.305391788482666, 0.4830603281656901);37.4655761719;1.0;;;;;;;;;;;;;;2;08,83;0;0;0;0;0;0;0;();(-2000.0, -2000.0);
10:43:04:778;10:43:04:758;1448877553.59;(0.305391788482666, 0.4830603281656901);37.4655761719;1.0;;;;;;;;;;;;;;2;08,83;0;0;0;0;0;0;0;();(-2000.0, -2000.0);
10:43:04:794;10:43:04:758;1448877553.59;(0.305391788482666, 0.4830603281656901);37.4655761719;1.0;;;;;;;;;;;;;;2;08,83;0;0;0;0;0;0;0;();(-2000.0, -2000.0);
10:43:04:812;10:43:04:758;1448877553.59;(0.305391788482666, 0.4830603281656901);37.4655761719;1.0;;;;;;;;;;;;;;2;08,83;0;0;0;0;0;0;0;();(-2000.0, -2000.0);
10:43:04:829;10:43:04:822;1448877553.66;(0.30508060455322267, 0.48239288330078123);36.8687934875;1.0;;;;;;;;;;;;;;2;08,83;0;0;0;0;0;0;0;();(-2000.0, -2000.0);
10:43:04:862;10:43:04:822;1448877553.66;(0.30508060455322267, 0.48239288330078123);36.8687934875;1.0;;;;;;;;;;;;;;2;08,83;0;0;0;0;0;0;0;();(-2000.0, -2000.0);
10:43:04:878;10:43:04:822;1448877553.66;(0.30508060455322267, 0.48239288330078123);36.8687934875;1.0;;;;;;;;;;;;;;2;08,83;0;0;0;0;0;0;0;();(-2000.0, -2000.0);
10:43:04:895;10:43:04:890;1448877553.73;(0.3048783540725708, 0.4866400824652778);36.4730644226;1.0;;;;;;;;;;;;;;2;08,83;0;0;0;0;0;0;0;();(-2000.0, -2000.0);
10:43:04:912;10:43:04:890;1448877553.73;(0.3048783540725708, 0.4866400824652778);36.4730644226;1.0;;;;;;;;;;;;;;2;08,83;0;0;0;0;0;0;0;();(-2000.0, -2000.0);
10:43:04:928;10:43:04:890;1448877553.73;(0.3048783540725708, 0.4866400824652778);36.4730644226;1.0;;;;;;;;;;;;;;2;08,83;0;0;0;0;0;0;0;();(-2000.0, -2000.0);
10:43:04:962;10:43:04:958;1448877553.79;(0.3053057909011841, 0.4886587778727214);36.6136322021;1.0;;;;;;;;;;;;;;2;08,83;0;0;0;0;0;0;0;();(-2000.0, -2000.0);
10:43:04:978;10:43:04:958;1448877553.79;(0.3053057909011841, 0.4886587778727214);36.6136322021;1.0;;;;;;;;;;;;;;2;08,83;0;0;0;0;0;0;0;();(-2000.0, -2000.0);
10:43:04:995;10:43:04:958;1448877553.79;(0.3053057909011841, 0.4886587778727214);36.6136322021;1.0;;;;;;;;;;;;;;2;08,83;0;0;0;0;0;0;0;();(-2000.0, -2000.0);
10:43:05:012;10:43:04:958;1448877553.79;(0.3053057909011841, 0.4886587778727214);36.6136322021;1.0;;;;;;;;;;;;;;2;08,83;0;0;0;0;0;0;0;();(-2000.0, -2000.0);
10:43:05:029;10:43:05:025;1448877553.86;(0.3054388761520386, 0.4896888732910156);37.0844688416;1.0;;;;;;;;;;;;;;2;08,83;0;0;0;0;0;0;0;();(-2000.0, -2000.0);
10:43:05:062;10:43:05:025;1448877553.86;(0.3054388761520386, 0.4896888732910156);37.0844688416;1.0;;;;;;;;;;;;;;2;08,83;0;0;0;0;0;0;0;();(-2000.0, -2000.0);
10:43:05:079;10:43:05:025;1448877553.86;(0.3054388761520386, 0.4896888732910156);37.0844688416;1.0;;;;;;;;;;;;;;2;08,83;0;0;0;0;0;0;0;();(-2000.0, -2000.0);
10:43:05:096;10:43:05:090;1448877553.93;(0.3056514739990234, 0.5004396650526259);36.633026123;1.0;;;;;;;;;;;;;;2;08,83;0;0;0;0;0;0;0;();(-2000.0, -2000.0);
10:43:05:112;10:43:05:090;1448877553.93;(0.3056514739990234, 0.5004396650526259);36.633026123;1.0;;;;;;;;;;;;;;2;08,83;0;0;0;0;0;0;0;();(-2000.0, -2000.0);
10:43:05:145;10:43:05:090;1448877553.93;(0.3056514739990234, 0.5004396650526259);36.633026123;1.0;;;;;;;;;;;;;;2;08,83;0;0;0;0;0;0;0;();(-2000.0, -2000.0);
10:43:05:162;10:43:05:153;1448877553.99;(0.30480422973632815, 0.4997735765245226);36.8914527893;1.0;;;;;;;;;;;;;;2;08,83;0;0;0;0;0;0;0;();(-2000.0, -2000.0);
10:43:05:178;10:43:05:153;1448877553.99;(0.30480422973632815, 0.4997735765245226);36.8914527893;1.0;;;;;;;;;;;;;;2;08,83;0;0;0;0;0;0;0;();(-2000.0, -2000.0);
10:43:05:194;10:43:05:153;1448877553.99;(0.30480422973632815, 0.4997735765245226);36.8914527893;1.0;;;;;;;;;;;;;;2;08,83;0;0;0;0;0;0;0;();(-2000.0, -2000.0);
10:43:05:212;10:43:05:153;1448877553.99;(0.30480422973632815, 0.4997735765245226);36.8914527893;1.0;;;;;;;;;;;;;;2;08,83;0;0;0;0;0;0;0;();(-2000.0, -2000.0);
10:43:05:230;10:43:05:230;1448877554.06;(0.29836626052856446, 0.5006522284613715);36.5461235046;1.0;;;;;;;;;;;;;;2;08,83;0;0;0;0;0;0;0;();(-2000.0, -2000.0);
10:43:05:262;10:43:05:230;1448877554.06;(0.29836626052856446, 0.5006522284613715);36.5461235046;1.0;;;;;;;;;;;;;;2;08,83;0;0;0;0;0;0;0;();(-2000.0, -2000.0);
10:43:05:279;10:43:05:230;1448877554.06;(0.29836626052856446, 0.5006522284613715);36.5461235046;1.0;;;;;;;;;;;;;;2;08,83;0;0;0;0;0;0;0;();(-2000.0, -2000.0);
10:43:05:296;10:43:05:230;1448877554.06;(0.29836626052856446, 0.5006522284613715);36.5461235046;1.0;;;;;;;;;;;;;;2;08,83;0;0;0;0;0;0;0;();(-2000.0, -2000.0);
10:43:05:311;10:43:05:302;1448877554.13;(0.24557092189788818, 0.497502432929145);36.7367401123;1.0;;;;;;;;;;;;;;2;08,83;0;0;0;0;0;0;0;();(-2000.0, -2000.0);
10:43:05:329;10:43:05:302;1448877554.13;(0.24557092189788818, 0.497502432929145);36.7367401123;1.0;;;;;;;;;;;;;;2;08,83;0;0;0;0;0;0;0;();(-2000.0, -2000.0);
10:43:05:362;10:43:05:302;1448877554.13;(0.24557092189788818, 0.497502432929145);36.7367401123;1.0;;;;;;;;;;;;;;2;08,83;0;0;0;0;0;0;0;();(-2000.0, -2000.0);
10:43:05:378;10:43:05:363;1448877554.19;(0.24580538272857666, 0.4995184580485026);36.8066940308;1.0;;;;;;;;;;;;;;2;08,83;0;0;0;0;0;0;0;();(-2000.0, -2000.0);
10:43:05:396;10:43:05:363;1448877554.19;(0.24580538272857666, 0.4995184580485026);36.8066940308;1.0;;;;;;;;;;;;;;2;08,83;0;0;0;0;0;0;0;();(-2000.0, -2000.0);
10:43:05:412;10:43:05:363;1448877554.19;(0.24580538272857666, 0.4995184580485026);36.8066940308;1.0;;;;;;;;;;;;;;2;08,83;0;0;0;0;0;0;0;();(-2000.0, -2000.0);
10:43:05:429;10:43:05:423;1448877554.26;(0.24666056632995606, 0.500531514485677);36.8803405762;1.0;;;;;;;;;;;;;;2;08,83;0;0;0;0;0;0;0;();(-2000.0, -2000.0);
10:43:05:462;10:43:05:423;1448877554.26;(0.24666056632995606, 0.500531514485677);36.8803405762;1.0;;;;;;;;;;;;;;2;08,83;0;0;0;0;0;0;0;();(-2000.0, -2000.0);
10:43:05:479;10:43:05:423;1448877554.26;(0.24666056632995606, 0.500531514485677);36.8803405762;1.0;;;;;;;;;;;;;;2;08,83;0;0;0;0;0;0;0;();(-2000.0, -2000.0);
10:43:05:496;10:43:05:486;1448877554.33;(0.24701848030090331, 0.5021465725368923);37.2670516968;1.0;;;;;;;;;;;;;;2;08,83;0;0;0;0;0;0;0;();(-2000.0, -2000.0);
10:43:05:512;10:43:05:486;1448877554.33;(0.24701848030090331, 0.5021465725368923);37.2670516968;1.0;;;;;;;;;;;;;;2;08,83;0;0;0;0;0;0;0;();(-2000.0, -2000.0);
10:43:05:529;10:43:05:486;1448877554.33;(0.24701848030090331, 0.5021465725368923);37.2670516968;1.0;;;;;;;;;;;;;;2;08,83;0;0;0;0;0;0;0;();(-2000.0, -2000.0);
10:43:05:562;10:43:05:554;1448877554.39;(0.24733438491821289, 0.5025384691026475);36.9748268127;1.0;;;;;;;;;;;;;;2;08,83;0;0;0;0;0;0;0;();(-2000.0, -2000.0);
10:43:05:579;10:43:05:554;1448877554.39;(0.24733438491821289, 0.5025384691026475);36.9748268127;1.0;;;;;;;;;;;;;;2;08,83;0;0;0;0;0;0;0;();(-2000.0, -2000.0);
10:43:05:596;10:43:05:554;1448877554.39;(0.24733438491821289, 0.5025384691026475);36.9748268127;1.0;;;;;;;;;;;;;;2;08,83;0;0;0;0;0;0;0;();(-2000.0, -2000.0);
10:43:05:612;10:43:05:554;1448877554.39;(0.24733438491821289, 0.5025384691026475);36.9748268127;1.0;;;;;;;;;;;;;;2;08,83;0;0;0;0;0;0;0;();(-2000.0, -2000.0);
10:43:05:629;10:43:05:622;1448877554.46;(0.2478959321975708, 0.5033678266737196);36.7953453064;1.0;;;;;;;;;;;;;;2;08,83;0;0;0;0;0;0;0;();(-2000.0, -2000.0);
10:43:05:663;10:43:05:622;1448877554.46;(0.2478959321975708, 0.5033678266737196);36.7953453064;1.0;;;;;;;;;;;;;;2;08,83;0;0;0;0;0;0;0;();(-2000.0, -2000.0);
10:43:05:679;10:43:05:622;1448877554.46;(0.2478959321975708, 0.5033678266737196);36.7953453064;1.0;;;;;;;;;;;;;;2;08,83;0;0;0;0;0;0;0;();(-2000.0, -2000.0);
10:43:05:696;10:43:05:686;1448877554.53;(0.2663803815841675, 0.501092995537652);39.3978462219;0.988274504025;;;;;;;;;;;;;;2;08,83;0;0;0;0;0;0;0;();(-2000.0, -2000.0);
10:43:05:712;10:43:05:686;1448877554.53;(0.2663803815841675, 0.501092995537652);39.3978462219;0.988274504025;;;;;;;;;;;;;;2;08,83;0;0;0;0;0;0;0;();(-2000.0, -2000.0);
10:43:05:729;10:43:05:686;1448877554.53;(0.2663803815841675, 0.501092995537652);39.3978462219;0.988274504025;;;;;;;;;;;;;;2;08,83;0;0;0;0;0;0;0;();(-2000.0, -2000.0);
10:43:05:763;10:43:05:754;1448877554.59;(0.30071957111358644, 0.496462631225586);37.2502784729;0.957029015599;;;;;;;;;;;;;;2;08,83;0;0;0;0;0;0;0;();(-2000.0, -2000.0);
10:43:05:779;10:43:05:754;1448877554.59;(0.30071957111358644, 0.496462631225586);37.2502784729;0.957029015599;;;;;;;;;;;;;;2;08,83;0;0;0;0;0;0;0;();(-2000.0, -2000.0);
10:43:05:795;10:43:05:754;1448877554.59;(0.30071957111358644, 0.496462631225586);37.2502784729;0.957029015599;;;;;;;;;;;;;;2;08,83;0;0;0;0;0;0;0;();(-2000.0, -2000.0);
10:43:05:813;10:43:05:754;1448877554.59;(0.30071957111358644, 0.496462631225586);37.2502784729;0.957029015599;;;;;;;;;;;;;;2;08,83;0;0;0;0;0;0;0;();(-2000.0, -2000.0);
10:43:05:829;10:43:05:818;1448877554.66;(0.29939565658569334, 0.4973251342773437);36.4996299744;1.0;;;;;;;;;;;;;;2;08,83;0;0;0;0;0;0;0;();(-2000.0, -2000.0);
10:43:05:862;10:43:05:818;1448877554.66;(0.29939565658569334, 0.4973251342773437);36.4996299744;1.0;;;;;;;;;;;;;;2;08,83;0;0;0;0;0;0;0;();(-2000.0, -2000.0);
10:43:05:879;10:43:05:818;1448877554.66;(0.29939565658569334, 0.4973251342773437);36.4996299744;1.0;;;;;;;;;;;;;;2;08,83;0;0;0;0;0;0;0;();(-2000.0, -2000.0);
10:43:05:896;10:43:05:886;1448877554.73;(0.3019061803817749, 0.4964429219563802);36.2246856689;1.0;;;;;;;;;;;;;;2;08,83;0;0;0;0;0;0;0;();(-2000.0, -2000.0);
10:43:05:913;10:43:05:886;1448877554.73;(0.3019061803817749, 0.4964429219563802);36.2246856689;1.0;;;;;;;;;;;;;;2;08,83;0;0;0;0;0;0;0;();(-2000.0, -2000.0);
10:43:05:929;10:43:05:886;1448877554.73;(0.3019061803817749, 0.4964429219563802);36.2246856689;1.0;;;;;;;;;;;;;;2;08,83;0;0;0;0;0;0;0;();(-2000.0, -2000.0);
10:43:05:962;10:43:05:962;1448877554.79;(0.3050636053085327, 0.49433314005533857);36.254108429;1.0;;;;;;;;;;;;;;2;08,83;0;0;0;0;0;0;0;();(-2000.0, -2000.0);
10:43:05:979;10:43:05:962;1448877554.79;(0.3050636053085327, 0.49433314005533857);36.254108429;1.0;;;;;;;;;;;;;;2;08,83;0;0;0;0;0;0;0;();(-2000.0, -2000.0);
10:43:05:996;10:43:05:962;1448877554.79;(0.3050636053085327, 0.49433314005533857);36.254108429;1.0;;;;;;;;;;;;;;2;08,83;0;0;0;0;0;0;0;();(-2000.0, -2000.0);
10:43:06:013;10:43:05:962;1448877554.79;(0.3050636053085327, 0.49433314005533857);36.254108429;1.0;;;;;;;;;;;;;;2;08,83;0;0;0;0;0;0;0;();(-2000.0, -2000.0);
10:43:06:029;10:43:06:019;1448877554.86;(0.3042966604232788, 0.49493993123372393);35.6906433105;1.0;;;;;;;;;;;;;;2;08,83;0;0;0;0;0;0;0;();(-2000.0, -2000.0);
10:43:06:063;10:43:06:019;1448877554.86;(0.3042966604232788, 0.49493993123372393);35.6906433105;1.0;;;;;;;;;;;;;;2;08,83;0;0;0;0;0;0;0;();(-2000.0, -2000.0);
10:43:06:079;10:43:06:019;1448877554.86;(0.3042966604232788, 0.49493993123372393);35.6906433105;1.0;;;;;;;;;;;;;;2;08,83;0;0;0;0;0;0;0;();(-2000.0, -2000.0);
10:43:06:096;10:43:06:086;1448877554.93;(0.3033500909805298, 0.4947750939263238);35.7384338379;1.0;;;;;;;;;;;;;;2;08,83;0;0;0;0;0;0;0;();(-2000.0, -2000.0);
10:43:06:113;10:43:06:086;1448877554.93;(0.3033500909805298, 0.4947750939263238);35.7384338379;1.0;;;;;;;;;;;;;;2;08,83;0;0;0;0;0;0;0;();(-2000.0, -2000.0);
10:43:06:129;10:43:06:086;1448877554.93;(0.3033500909805298, 0.4947750939263238);35.7384338379;1.0;;;;;;;;;;;;;;2;08,83;0;0;0;0;0;0;0;();(-2000.0, -2000.0);
10:43:06:163;10:43:06:151;1448877554.99;(0.3025882482528687, 0.4950014326307509);35.966884613;1.0;;;;;;;;;;;;;;2;08,83;0;0;0;0;0;0;0;();(-2000.0, -2000.0);
10:43:06:179;10:43:06:151;1448877554.99;(0.3025882482528687, 0.4950014326307509);35.966884613;1.0;;;;;;;;;;;;;;2;08,83;0;0;0;0;0;0;0;();(-2000.0, -2000.0);
10:43:06:196;10:43:06:151;1448877554.99;(0.3025882482528687, 0.4950014326307509);35.966884613;1.0;;;;;;;;;;;;;;2;08,83;0;0;0;0;0;0;0;();(-2000.0, -2000.0);
10:43:06:213;10:43:06:151;1448877554.99;(0.3025882482528687, 0.4950014326307509);35.966884613;1.0;;;;;;;;;;;;;;2;08,83;0;0;0;0;0;0;0;();(-2000.0, -2000.0);
10:43:06:229;10:43:06:218;1448877555.06;(0.30240368843078613, 0.4955972459581163);36.444278717;1.0;;;;;;;;;;;;;;2;08,83;0;0;0;0;0;0;0;();(-2000.0, -2000.0);
10:43:06:263;10:43:06:218;1448877555.06;(0.30240368843078613, 0.4955972459581163);36.444278717;1.0;;;;;;;;;;;;;;2;08,83;0;0;0;0;0;0;0;();(-2000.0, -2000.0);
10:43:06:279;10:43:06:218;1448877555.06;(0.30240368843078613, 0.4955972459581163);36.444278717;1.0;;;;;;;;;;;;;;2;08,83;0;0;0;0;0;0;0;();(-2000.0, -2000.0);
10:43:06:296;10:43:06:286;1448877555.13;(0.3021538734436035, 0.4964733971489801);36.8443336487;1.0;;;;;;;;;;;;;;2;08,83;0;0;0;0;0;0;0;();(-2000.0, -2000.0);
10:43:06:313;10:43:06:286;1448877555.13;(0.3021538734436035, 0.4964733971489801);36.8443336487;1.0;;;;;;;;;;;;;;2;08,83;0;0;0;0;0;0;0;();(-2000.0, -2000.0);
10:43:06:329;10:43:06:286;1448877555.13;(0.3021538734436035, 0.4964733971489801);36.8443336487;1.0;;;;;;;;;;;;;;2;08,83;0;0;0;0;0;0;0;();(-2000.0, -2000.0);
10:43:06:363;10:43:06:351;1448877555.19;(0.30203378200531006, 0.4965538024902344);37.0464286804;1.0;;;;;;;;;;;;;;2;08,83;0;0;0;0;0;0;0;();(-2000.0, -2000.0);
10:43:06:379;10:43:06:351;1448877555.19;(0.30203378200531006, 0.4965538024902344);37.0464286804;1.0;;;;;;;;;;;;;;2;08,83;0;0;0;0;0;0;0;();(-2000.0, -2000.0);
10:43:06:396;10:43:06:351;1448877555.19;(0.30203378200531006, 0.4965538024902344);37.0464286804;1.0;;;;;;;;;;;;;;2;08,83;0;0;0;0;0;0;0;();(-2000.0, -2000.0);
10:43:06:413;10:43:06:351;1448877555.19;(0.30203378200531006, 0.4965538024902344);37.0464286804;1.0;;;;;;;;;;;;;;2;08,83;0;0;0;0;0;0;0;();(-2000.0, -2000.0);
10:43:06:430;10:43:06:429;1448877555.26;(0.30208306312561034, 0.49685164557562933);37.0458831787;1.0;;;;;;;;;;;;;;2;08,83;0;0;0;0;0;0;0;();(-2000.0, -2000.0);
10:43:06:463;10:43:06:429;1448877555.26;(0.30208306312561034, 0.49685164557562933);37.0458831787;1.0;;;;;;;;;;;;;;2;08,83;0;0;0;0;0;0;0;();(-2000.0, -2000.0);
10:43:06:479;10:43:06:429;1448877555.26;(0.30208306312561034, 0.49685164557562933);37.0458831787;1.0;;;;;;;;;;;;;;2;08,83;0;0;0;0;0;0;0;();(-2000.0, -2000.0);
10:43:06:496;10:43:06:481;1448877555.33;(0.30224151611328126, 0.4972705841064453);36.9033355713;1.0;;;;;;;;;;;;;;2;08,83;0;0;0;0;0;0;0;();(-2000.0, -2000.0);
10:43:06:513;10:43:06:481;1448877555.33;(0.30224151611328126, 0.4972705841064453);36.9033355713;1.0;;;;;;;;;;;;;;2;08,83;0;0;0;0;0;0;0;();(-2000.0, -2000.0);
10:43:06:530;10:43:06:481;1448877555.33;(0.30224151611328126, 0.4972705841064453);36.9033355713;1.0;;;;;;;;;;;;;;2;08,83;0;0;0;0;0;0;0;();(-2000.0, -2000.0);
10:43:06:562;10:43:06:550;1448877555.39;(0.30176079273223877, 0.4969982571072049);37.2463417053;1.0;;;;;;;;;;;;;;2;08,83;0;0;0;0;0;0;0;();(-2000.0, -2000.0);
10:43:06:579;10:43:06:550;1448877555.39;(0.30176079273223877, 0.4969982571072049);37.2463417053;1.0;;;;;;;;;;;;;;2;08,83;0;0;0;0;0;0;0;();(-2000.0, -2000.0);
10:43:06:596;10:43:06:550;1448877555.39;(0.30176079273223877, 0.4969982571072049);37.2463417053;1.0;;;;;;;;;;;;;;2;08,83;0;0;0;0;0;0;0;();(-2000.0, -2000.0);
10:43:06:614;10:43:06:550;1448877555.39;(0.30176079273223877, 0.4969982571072049);37.2463417053;1.0;;;;;;;;;;;;;;2;08,83;0;0;0;0;0;0;0;();(-2000.0, -2000.0);
10:43:06:630;10:43:06:628;1448877555.46;(0.30166289806365965, 0.4973208957248264);37.3225402832;1.0;;;;;;;;;;;;;;2;08,83;0;0;0;0;0;0;0;();(-2000.0, -2000.0);
10:43:06:663;10:43:06:628;1448877555.46;(0.30166289806365965, 0.4973208957248264);37.3225402832;1.0;;;;;;;;;;;;;;2;08,83;0;0;0;0;0;0;0;();(-2000.0, -2000.0);
10:43:06:680;10:43:06:628;1448877555.46;(0.30166289806365965, 0.4973208957248264);37.3225402832;1.0;;;;;;;;;;;;;;2;08,83;0;0;0;0;0;0;0;();(-2000.0, -2000.0);
10:43:06:696;10:43:06:681;1448877555.53;(0.3018001079559326, 0.49891107347276475);37.3443260193;1.0;;;;;;;;;;;;;;2;08,83;0;0;0;0;0;0;0;();(-2000.0, -2000.0);
10:43:06:714;10:43:06:681;1448877555.53;(0.3018001079559326, 0.49891107347276475);37.3443260193;1.0;;;;;;;;;;;;;;2;08,83;0;0;0;0;0;0;0;();(-2000.0, -2000.0);
10:43:06:730;10:43:06:681;1448877555.53;(0.3018001079559326, 0.49891107347276475);37.3443260193;1.0;;;;;;;;;;;;;;2;08,83;0;0;0;0;0;0;0;();(-2000.0, -2000.0);
10:43:06:763;10:43:06:751;1448877555.59;(0.30164761543273927, 0.49995736016167536);37.4038734436;1.0;;;;;;;;;;;;;;2;08,83;1;3;08;0;0;0;0;();(-2000.0, -2000.0);
10:43:06:780;10:43:06:751;1448877555.59;(0.30164761543273927, 0.49995736016167536);37.4038734436;1.0;;;;;;;;;;;;;;2;08,83;0;0;0;0;0;0;0;();(-2000.0, -2000.0);
10:43:06:796;10:43:06:751;1448877555.59;(0.30164761543273927, 0.49995736016167536);37.4038734436;1.0;;;;;;;;;;;;;;2;08,83;0;0;0;0;0;0;0;();(-2000.0, -2000.0);
10:43:06:813;10:43:06:751;1448877555.59;(0.30164761543273927, 0.49995736016167536);37.4038734436;1.0;;;;;;;;;;;;;;2;08,83;0;0;0;0;0;0;0;();(-2000.0, -2000.0);
10:43:06:829;10:43:06:814;1448877555.66;(0.3014604806900024, 0.49980049133300786);37.1832580566;1.0;;;;;;;;;;;;;;2;08,83;0;0;0;0;0;0;0;();(-2000.0, -2000.0);
10:43:06:863;10:43:06:814;1448877555.66;(0.3014604806900024, 0.49980049133300786);37.1832580566;1.0;;;;;;;;;;;;;;2;08,83;0;0;0;0;0;0;0;();(-2000.0, -2000.0);
10:43:06:880;10:43:06:814;1448877555.66;(0.3014604806900024, 0.49980049133300786);37.1832580566;1.0;;;;;;;;;;;;;;2;08,83;0;0;0;0;0;0;0;();(-2000.0, -2000.0);
10:43:06:897;10:43:06:882;1448877555.73;(0.30104286670684816, 0.4992223103841146);36.8023338318;1.0;;;;;;;;;;;;;;2;08,83;0;0;0;0;0;0;0;();(-2000.0, -2000.0);
10:43:06:913;10:43:06:882;1448877555.73;(0.30104286670684816, 0.4992223103841146);36.8023338318;1.0;;;;;;;;;;;;;;2;08,83;0;0;0;0;0;0;0;();(-2000.0, -2000.0);
10:43:06:930;10:43:06:882;1448877555.73;(0.30104286670684816, 0.4992223103841146);36.8023338318;1.0;;;;;;;;;;;;;;2;08,83;0;0;0;0;0;0;0;();(-2000.0, -2000.0);
10:43:06:963;10:43:06:947;1448877555.79;(0.30085761547088624, 0.49926414489746096);36.7600708008;1.0;;;;;;;;;;;;;;2;08,83;0;0;0;0;0;0;0;();(-2000.0, -2000.0);
10:43:06:980;10:43:06:947;1448877555.79;(0.30085761547088624, 0.49926414489746096);36.7600708008;1.0;;;;;;;;;;;;;;2;08,83;0;0;0;0;0;0;0;();(-2000.0, -2000.0);
10:43:06:997;10:43:06:947;1448877555.79;(0.30085761547088624, 0.49926414489746096);36.7600708008;1.0;;;;;;;;;;;;;;2;08,83;0;0;0;0;0;0;0;();(-2000.0, -2000.0);
10:43:07:014;10:43:06:947;1448877555.79;(0.30085761547088624, 0.49926414489746096);36.7600708008;1.0;;;;;;;;;;;;;;2;08,83;0;0;0;0;0;0;0;();(-2000.0, -2000.0);
10:43:07:030;10:43:07:017;1448877555.86;(0.3004451274871826, 0.49887212117513025);37.0940513611;1.0;;;;;;;;;;;;;;2;08,83;0;0;0;0;0;0;0;();(-2000.0, -2000.0);
10:43:07:063;10:43:07:017;1448877555.86;(0.3004451274871826, 0.49887212117513025);37.0940513611;1.0;;;;;;;;;;;;;;2;08,83;0;0;0;0;0;0;0;();(-2000.0, -2000.0);
10:43:07:080;10:43:07:017;1448877555.86;(0.3004451274871826, 0.49887212117513025);37.0940513611;1.0;;;;;;;;;;;;;;2;08,83;0;0;0;0;0;0;0;();(-2000.0, -2000.0);
10:43:07:097;10:43:07:082;1448877555.93;(0.30031790733337405, 0.498580805460612);37.5556602478;1.0;;;;;;;;;;;;;;2;08,83;0;0;0;0;0;0;0;();(-2000.0, -2000.0);
10:43:07:114;10:43:07:082;1448877555.93;(0.30031790733337405, 0.498580805460612);37.5556602478;1.0;;;;;;;;;;;;;;2;08,83;0;0;0;0;0;0;0;();(-2000.0, -2000.0);
10:43:07:130;10:43:07:082;1448877555.93;(0.30031790733337405, 0.498580805460612);37.5556602478;1.0;;;;;;;;;;;;;;2;08,83;0;0;0;0;0;0;0;();(-2000.0, -2000.0);
10:43:07:164;10:43:07:146;1448877555.99;(0.2999041795730591, 0.49745521545410154);37.5296134949;1.0;;;;;;;;;;;;;;2;08,83;0;0;0;0;0;0;0;();(-2000.0, -2000.0);
10:43:07:180;10:43:07:146;1448877555.99;(0.2999041795730591, 0.49745521545410154);37.5296134949;1.0;;;;;;;;;;;;;;2;08,83;0;0;0;0;0;0;0;();(-2000.0, -2000.0);
10:43:07:197;10:43:07:146;1448877555.99;(0.2999041795730591, 0.49745521545410154);37.5296134949;1.0;;;;;;;;;;;;;;2;08,83;0;0;0;0;0;0;0;();(-2000.0, -2000.0);
10:43:07:215;10:43:07:214;1448877556.06;(0.30054655075073244, 0.49297315809461806);37.6642913818;1.0;;;;;;;;;;;;;;2;08,83;0;0;0;0;0;0;0;();(-2000.0, -2000.0);
10:43:07:230;10:43:07:214;1448877556.06;(0.30054655075073244, 0.49297315809461806);37.6642913818;1.0;;;;;;;;;;;;;;2;08,83;0;0;0;0;0;0;0;();(-2000.0, -2000.0);
10:43:07:264;10:43:07:214;1448877556.06;(0.30054655075073244, 0.49297315809461806);37.6642913818;1.0;;;;;;;;;;;;;;2;08,83;0;0;0;0;0;0;0;();(-2000.0, -2000.0);
10:43:07:281;10:43:07:278;1448877556.13;(0.3006479740142822, 0.4931939866807725);37.6131210327;1.0;;;;;;;;;;;;;;2;08,83;0;0;0;0;0;0;0;();(-2000.0, -2000.0);
10:43:07:297;10:43:07:278;1448877556.13;(0.3006479740142822, 0.4931939866807725);37.6131210327;1.0;;;;;;;;;;;;;;2;08,83;0;0;0;0;0;0;0;();(-2000.0, -2000.0);
10:43:07:314;10:43:07:278;1448877556.13;(0.3006479740142822, 0.4931939866807725);37.6131210327;1.0;;;;;;;;;;;;;;2;08,83;0;0;0;0;0;0;0;();(-2000.0, -2000.0);
10:43:07:330;10:43:07:278;1448877556.13;(0.3006479740142822, 0.4931939866807725);37.6131210327;1.0;;;;;;;;;;;;;;2;08,83;0;0;0;0;0;0;0;();(-2000.0, -2000.0);
10:43:07:364;10:43:07:348;1448877556.19;(0.30046353340148924, 0.4932711283365886);37.7928314209;1.0;;;;;;;;;;;;;;2;08,83;0;0;0;0;0;0;0;();(-2000.0, -2000.0);
10:43:07:380;10:43:07:348;1448877556.19;(0.30046353340148924, 0.4932711283365886);37.7928314209;1.0;;;;;;;;;;;;;;2;08,83;0;0;0;0;0;0;0;();(-2000.0, -2000.0);
10:43:07:397;10:43:07:348;1448877556.19;(0.30046353340148924, 0.4932711283365886);37.7928314209;1.0;;;;;;;;;;;;;;2;08,83;0;0;0;0;0;0;0;();(-2000.0, -2000.0);
10:43:07:414;10:43:07:414;1448877556.26;(0.3004237413406372, 0.4935452355278863);38.1806945801;1.0;;;;;;;;;;;;;;2;08,83;0;0;0;0;0;0;0;();(-2000.0, -2000.0);
10:43:07:430;10:43:07:414;1448877556.26;(0.3004237413406372, 0.4935452355278863);38.1806945801;1.0;;;;;;;;;;;;;;2;08,83;0;0;0;0;0;0;0;();(-2000.0, -2000.0);
10:43:07:463;10:43:07:414;1448877556.26;(0.3004237413406372, 0.4935452355278863);38.1806945801;1.0;;;;;;;;;;;;;;2;08,83;0;0;0;0;0;0;0;();(-2000.0, -2000.0);
10:43:07:481;10:43:07:479;1448877556.33;(0.3006295204162598, 0.49318046569824214);38.3971214294;1.0;;;;;;;;;;;;;;2;08,83;0;0;0;0;0;0;0;();(-2000.0, -2000.0);
10:43:07:497;10:43:07:479;1448877556.33;(0.3006295204162598, 0.49318046569824214);38.3971214294;1.0;;;;;;;;;;;;;;2;08,83;0;0;0;0;0;0;0;();(-2000.0, -2000.0);
10:43:07:514;10:43:07:479;1448877556.33;(0.3006295204162598, 0.49318046569824214);38.3971214294;1.0;;;;;;;;;;;;;;2;08,83;0;0;0;0;0;0;0;();(-2000.0, -2000.0);
10:43:07:530;10:43:07:479;1448877556.33;(0.3006295204162598, 0.49318046569824214);38.3971214294;1.0;;;;;;;;;;;;;;2;08,83;0;0;0;0;0;0;0;();(-2000.0, -2000.0);
10:43:07:564;10:43:07:550;1448877556.39;(0.3010885000228882, 0.49286193847656246);38.5407028198;1.0;;;;;;;;;;;;;;2;08,83;0;0;0;0;0;0;0;();(-2000.0, -2000.0);
10:43:07:581;10:43:07:550;1448877556.39;(0.3010885000228882, 0.49286193847656246);38.5407028198;1.0;;;;;;;;;;;;;;2;08,83;0;0;0;0;0;0;0;();(-2000.0, -2000.0);
10:43:07:597;10:43:07:550;1448877556.39;(0.3010885000228882, 0.49286193847656246);38.5407028198;1.0;;;;;;;;;;;;;;2;08,83;0;0;0;0;0;0;0;();(-2000.0, -2000.0);
10:43:07:614;10:43:07:611;1448877556.46;(0.3012270927429199, 0.4931747860378689);38.5067367554;1.0;;;;;;;;;;;;;;2;08,83;0;0;0;0;0;0;0;();(-2000.0, -2000.0);
10:43:07:630;10:43:07:611;1448877556.46;(0.3012270927429199, 0.4931747860378689);38.5067367554;1.0;;;;;;;;;;;;;;2;08,83;0;0;0;0;0;0;0;();(-2000.0, -2000.0);
10:43:07:663;10:43:07:611;1448877556.46;(0.3012270927429199, 0.4931747860378689);38.5067367554;1.0;;;;;;;;;;;;;;2;08,83;0;0;0;0;0;0;0;();(-2000.0, -2000.0);
10:43:07:680;10:43:07:678;1448877556.53;(0.3016752481460571, 0.49357045491536455);38.7681007385;1.0;;;;;;;;;;;;;;2;08,83;0;0;0;0;0;0;0;();(-2000.0, -2000.0);
10:43:07:697;10:43:07:678;1448877556.53;(0.3016752481460571, 0.49357045491536455);38.7681007385;1.0;;;;;;;;;;;;;;2;08,83;0;0;0;0;0;0;0;();(-2000.0, -2000.0);
10:43:07:714;10:43:07:678;1448877556.53;(0.3016752481460571, 0.49357045491536455);38.7681007385;1.0;;;;;;;;;;;;;;2;08,83;0;0;0;0;0;0;0;();(-2000.0, -2000.0);
10:43:07:731;10:43:07:678;1448877556.53;(0.3016752481460571, 0.49357045491536455);38.7681007385;1.0;;;;;;;;;;;;;;2;08,83;0;0;0;0;0;0;0;();(-2000.0, -2000.0);
10:43:07:764;10:43:07:746;1448877556.59;(0.3020437002182007, 0.49421564737955725);38.7634468079;1.0;;;;;;;;;;;;;;2;08,83;0;0;0;0;0;0;0;();(-2000.0, -2000.0);
10:43:08:185;10:43:08:143;1448877556.99;(0.2937192916870117, 0.4936766306559245);39.905872345;1.0;;;;;;;;;;;;;;2;08,83;0;0;0;0;0;0;0;();(-2000.0, -2000.0);
10:43:08:191;10:43:08:143;1448877556.99;(0.2937192916870117, 0.4936766306559245);39.905872345;1.0;;;;;;;;;;;;;;4;08,83,41,31;0;0;0;0;0;0;0;();(-2000.0, -2000.0);
10:43:08:198;10:43:08:143;1448877556.99;(0.2937192916870117, 0.4936766306559245);39.905872345;1.0;;;;;;;;;;;;;;4;08,83,41,31;0;0;0;0;0;0;0;();(-2000.0, -2000.0);
10:43:08:201;10:43:08:143;1448877556.99;(0.2937192916870117, 0.4936766306559245);39.905872345;1.0;;;;;;;;;;;;;;4;08,83,41,31;0;0;0;0;0;0;0;();(-2000.0, -2000.0);
10:43:08:205;10:43:08:143;1448877556.99;(0.2937192916870117, 0.4936766306559245);39.905872345;1.0;;;;;;;;;;;;;;4;08,83,41,31;0;0;0;0;0;0;0;();(-2000.0, -2000.0);
10:43:08:208;10:43:08:143;1448877556.99;(0.2937192916870117, 0.4936766306559245);39.905872345;1.0;;;;;;;;;;;;;;4;08,83,41,31;0;0;0;0;0;0;0;();(-2000.0, -2000.0);
10:43:08:213;10:43:08:209;1448877557.06;(0.2932018995285034, 0.49446894327799484);39.5459251404;1.0;;;;;;;;;;;;;;4;08,83,41,31;0;0;0;0;0;0;0;();(-2000.0, -2000.0);
10:43:08:217;10:43:08:209;1448877557.06;(0.2932018995285034, 0.49446894327799484);39.5459251404;1.0;;;;;;;;;;;;;;4;08,83,41,31;0;0;0;0;0;0;0;();(-2000.0, -2000.0);
10:43:08:220;10:43:08:209;1448877557.06;(0.2932018995285034, 0.49446894327799484);39.5459251404;1.0;;;;;;;;;;;;;;4;08,83,41,31;0;0;0;0;0;0;0;();(-2000.0, -2000.0);
10:43:08:224;10:43:08:209;1448877557.06;(0.2932018995285034, 0.49446894327799484);39.5459251404;1.0;;;;;;;;;;;;;;4;08,83,41,31;0;0;0;0;0;0;0;();(-2000.0, -2000.0);
10:43:08:227;10:43:08:209;1448877557.06;(0.2932018995285034, 0.49446894327799484);39.5459251404;1.0;;;;;;;;;;;;;;4;08,83,41,31;0;0;0;0;0;0;0;();(-2000.0, -2000.0);
10:43:08:231;10:43:08:209;1448877557.06;(0.2932018995285034, 0.49446894327799484);39.5459251404;1.0;;;;;;;;;;;;;;4;08,83,41,31;0;0;0;0;0;0;0;();(-2000.0, -2000.0);
10:43:08:235;10:43:08:209;1448877557.06;(0.2932018995285034, 0.49446894327799484);39.5459251404;1.0;;;;;;;;;;;;;;4;08,83,41,31;0;0;0;0;0;0;0;();(-2000.0, -2000.0);
10:43:08:238;10:43:08:209;1448877557.06;(0.2932018995285034, 0.49446894327799484);39.5459251404;1.0;;;;;;;;;;;;;;4;08,83,41,31;0;0;0;0;0;0;0;();(-2000.0, -2000.0);
10:43:08:242;10:43:08:209;1448877557.06;(0.2932018995285034, 0.49446894327799484);39.5459251404;1.0;;;;;;;;;;;;;;4;08,83,41,31;0;0;0;0;0;0;0;();(-2000.0, -2000.0);
10:43:08:246;10:43:08:209;1448877557.06;(0.2932018995285034, 0.49446894327799484);39.5459251404;1.0;;;;;;;;;;;;;;4;08,83,41,31;0;0;0;0;0;0;0;();(-2000.0, -2000.0);
10:43:08:249;10:43:08:209;1448877557.06;(0.2932018995285034, 0.49446894327799484);39.5459251404;1.0;;;;;;;;;;;;;;4;08,83,41,31;0;0;0;0;0;0;0;();(-2000.0, -2000.0);
10:43:08:253;10:43:08:209;1448877557.06;(0.2932018995285034, 0.49446894327799484);39.5459251404;1.0;;;;;;;;;;;;;;4;08,83,41,31;0;0;0;0;0;0;0;();(-2000.0, -2000.0);
10:43:08:255;10:43:08:209;1448877557.06;(0.2932018995285034, 0.49446894327799484);39.5459251404;1.0;;;;;;;;;;;;;;4;08,83,41,31;0;0;0;0;0;0;0;();(-2000.0, -2000.0);
10:43:08:256;10:43:08:209;1448877557.06;(0.2932018995285034, 0.49446894327799484);39.5459251404;1.0;;;;;;;;;;;;;;4;08,83,41,31;0;0;0;0;0;0;0;();(-2000.0, -2000.0);
10:43:08:258;10:43:08:209;1448877557.06;(0.2932018995285034, 0.49446894327799484);39.5459251404;1.0;;;;;;;;;;;;;;4;08,83,41,31;0;0;0;0;0;0;0;();(-2000.0, -2000.0);
10:43:08:280;10:43:08:274;1448877557.13;(0.2926276206970215, 0.49487465752495663);39.0824050903;1.0;;;;;;;;;;;;;;4;08,83,41,31;0;0;0;0;0;0;0;();(-2000.0, -2000.0);
10:43:08:298;10:43:08:274;1448877557.13;(0.2926276206970215, 0.49487465752495663);39.0824050903;1.0;;;;;;;;;;;;;;4;08,83,41,31;0;0;0;0;0;0;0;();(-2000.0, -2000.0);
10:43:08:330;10:43:08:274;1448877557.13;(0.2926276206970215, 0.49487465752495663);39.0824050903;1.0;;;;;;;;;;;;;;4;08,83,41,31;0;0;0;0;0;0;0;();(-2000.0, -2000.0);
10:43:08:348;10:43:08:342;1448877557.19;(0.2988032102584839, 0.4992221832275391);39.7987174988;1.0;;;;;;;;;;;;;;4;08,83,41,31;0;0;0;0;0;0;0;();(-2000.0, -2000.0);
10:43:08:364;10:43:08:342;1448877557.19;(0.2988032102584839, 0.4992221832275391);39.7987174988;1.0;;;;;;;;;;;;;;4;08,83,41,31;0;0;0;0;0;0;0;();(-2000.0, -2000.0);
10:43:08:382;10:43:08:342;1448877557.19;(0.2988032102584839, 0.4992221832275391);39.7987174988;1.0;;;;;;;;;;;;;;4;08,83,41,31;0;0;0;0;0;0;0;();(-2000.0, -2000.0);
10:43:08:399;10:43:08:342;1448877557.19;(0.2988032102584839, 0.4992221832275391);39.7987174988;1.0;;;;;;;;;;;;;;4;08,83,41,31;0;0;0;0;0;0;0;();(-2000.0, -2000.0);
10:43:08:431;10:43:08:410;1448877557.26;(0.30006568431854247, 0.4994599236382379);39.4061851501;1.0;;;;;;;;;;;;;;4;08,83,41,31;0;0;0;0;0;0;0;();(-2000.0, -2000.0);
10:43:08:448;10:43:08:410;1448877557.26;(0.30006568431854247, 0.4994599236382379);39.4061851501;1.0;;;;;;;;;;;;;;4;08,83,41,31;0;0;0;0;0;0;0;();(-2000.0, -2000.0);
10:43:08:465;10:43:08:410;1448877557.26;(0.30006568431854247, 0.4994599236382379);39.4061851501;1.0;;;;;;;;;;;;;;4;08,83,41,31;0;0;0;0;0;0;0;();(-2000.0, -2000.0);
10:43:08:482;10:43:08:474;1448877557.29;(0.2997878551483154, 0.49953727722167973);39.7799835205;1.0;;;;;;;;;;;;;;4;08,83,41,31;0;0;0;0;0;0;0;();(-2000.0, -2000.0);
10:43:08:498;10:43:08:474;1448877557.29;(0.2997878551483154, 0.49953727722167973);39.7799835205;1.0;;;;;;;;;;;;;;4;08,83,41,31;0;0;0;0;0;0;0;();(-2000.0, -2000.0);
10:43:08:532;10:43:08:474;1448877557.29;(0.2997878551483154, 0.49953727722167973);39.7799835205;1.0;;;;;;;;;;;;;;4;08,83,41,31;0;0;0;0;0;0;0;();(-2000.0, -2000.0);
10:43:08:549;10:43:08:542;1448877557.39;(0, 0);0;0;;;;;;;;;;;;;;4;08,83,41,31;0;0;0;0;0;0;0;();(-2000.0, -2000.0);
10:43:08:565;10:43:08:542;1448877557.39;(0, 0);0;0;;;;;;;;;;;;;;4;08,83,41,31;0;0;0;0;0;0;0;();(-2000.0, -2000.0);
10:43:08:581;10:43:08:542;1448877557.39;(0, 0);0;0;;;;;;;;;;;;;;4;08,83,41,31;0;0;0;0;0;0;0;();(-2000.0, -2000.0);
10:43:08:598;10:43:08:542;1448877557.39;(0, 0);0;0;;;;;;;;;;;;;;4;08,83,41,31;0;0;0;0;0;0;0;();(-2000.0, -2000.0);
10:43:08:632;10:43:08:606;1448877557.43;(0.30933144092559817, 0.4837709214952257);30.6125488281;0.719754422587;;;;;;;;;;;;;;4;08,83,41,31;0;0;0;0;0;0;0;();(-2000.0, -2000.0);
10:43:08:648;10:43:08:606;1448877557.43;(0.30933144092559817, 0.4837709214952257);30.6125488281;0.719754422587;;;;;;;;;;;;;;4;08,83,41,31;0;0;0;0;0;0;0;();(-2000.0, -2000.0);
10:43:08:664;10:43:08:606;1448877557.43;(0.30933144092559817, 0.4837709214952257);30.6125488281;0.719754422587;;;;;;;;;;;;;;4;08,83,41,31;0;0;0;0;0;0;0;();(-2000.0, -2000.0);
10:43:08:682;10:43:08:674;1448877557.53;(0.30168616771698, 0.5031214396158854);39.4346351624;1.0;;;;;;;;;;;;;;4;08,83,41,31;0;0;0;0;0;0;0;();(-2000.0, -2000.0);
10:43:08:698;10:43:08:674;1448877557.53;(0.30168616771698, 0.5031214396158854);39.4346351624;1.0;;;;;;;;;;;;;;4;08,83,41,31;0;0;0;0;0;0;0;();(-2000.0, -2000.0);
10:43:08:732;10:43:08:674;1448877557.53;(0.30168616771698, 0.5031214396158854);39.4346351624;1.0;;;;;;;;;;;;;;4;08,83,41,31;0;0;0;0;0;0;0;();(-2000.0, -2000.0);
10:43:08:749;10:43:08:745;1448877557.56;(0.3017810106277466, 0.5029661814371744);39.5805206299;1.0;;;;;;;;;;;;;;4;08,83,41,31;0;0;0;0;0;0;0;();(-2000.0, -2000.0);
10:43:08:765;10:43:08:745;1448877557.56;(0.3017810106277466, 0.5029661814371744);39.5805206299;1.0;;;;;;;;;;;;;;4;08,83,41,31;0;0;0;0;0;0;0;();(-2000.0, -2000.0);
10:43:08:782;10:43:08:745;1448877557.56;(0.3017810106277466, 0.5029661814371744);39.5805206299;1.0;;;;;;;;;;;;;;4;08,83,41,31;0;0;0;0;0;0;0;();(-2000.0, -2000.0);
10:43:08:798;10:43:08:745;1448877557.56;(0.3017810106277466, 0.5029661814371744);39.5805206299;1.0;;;;;;;;;;;;;;4;08,83,41,31;0;0;0;0;0;0;0;();(-2000.0, -2000.0);
10:43:08:832;10:43:08:805;1448877557.63;(0.30207417011260984, 0.5027408599853516);39.3953704834;1.0;;;;;;;;;;;;;;4;08,83,41,31;0;0;0;0;0;0;0;();(-2000.0, -2000.0);
10:43:08:848;10:43:08:805;1448877557.63;(0.30207417011260984, 0.5027408599853516);39.3953704834;1.0;;;;;;;;;;;;;;4;08,83,41,31;0;0;0;0;0;0;0;();(-2000.0, -2000.0);
10:43:08:865;10:43:08:805;1448877557.63;(0.30207417011260984, 0.5027408599853516);39.3953704834;1.0;;;;;;;;;;;;;;4;08,83,41,31;0;0;0;0;0;0;0;();(-2000.0, -2000.0);
10:43:08:882;10:43:08:877;1448877557.69;(0.25397891998291017, 0.4537425147162544);39.1712684631;1.0;;;;;;;;;;;;;;4;08,83,41,31;0;0;0;0;0;0;0;();(-2000.0, -2000.0);
10:43:08:899;10:43:08:877;1448877557.69;(0.25397891998291017, 0.4537425147162544);39.1712684631;1.0;;;;;;;;;;;;;;4;08,83,41,31;0;0;0;0;0;0;0;();(-2000.0, -2000.0);
10:43:08:931;10:43:08:877;1448877557.69;(0.25397891998291017, 0.4537425147162544);39.1712684631;1.0;;;;;;;;;;;;;;4;08,83,41,31;0;0;0;0;0;0;0;();(-2000.0, -2000.0);
10:43:08:948;10:43:08:939;1448877557.76;(0.25222580432891845, 0.4562444051106771);39.6577606201;0.902715854334;;;;;;;;;;;;;;4;08,83,41,31;0;0;0;0;0;0;0;();(-2000.0, -2000.0);
10:43:08:965;10:43:08:939;1448877557.76;(0.25222580432891845, 0.4562444051106771);39.6577606201;0.902715854334;;;;;;;;;;;;;;4;08,83,41,31;0;0;0;0;0;0;0;();(-2000.0, -2000.0);
10:43:08:982;10:43:08:939;1448877557.76;(0.25222580432891845, 0.4562444051106771);39.6577606201;0.902715854334;;;;;;;;;;;;;;4;08,83,41,31;0;0;0;0;0;0;0;();(-2000.0, -2000.0);
10:43:08:999;10:43:08:939;1448877557.76;(0.25222580432891845, 0.4562444051106771);39.6577606201;0.902715854334;;;;;;;;;;;;;;4;08,83,41,31;0;0;0;0;0;0;0;();(-2000.0, -2000.0);
10:43:09:032;10:43:09:009;1448877557.83;(0.2536452770233154, 0.46002536349826384);39.433139801;0.847772168613;;;;;;;;;;;;;;4;08,83,41,31;0;0;0;0;0;0;0;();(-2000.0, -2000.0);
10:43:09:048;10:43:09:009;1448877557.83;(0.2536452770233154, 0.46002536349826384);39.433139801;0.847772168613;;;;;;;;;;;;;;4;08,83,41,31;0;0;0;0;0;0;0;();(-2000.0, -2000.0);
10:43:09:065;10:43:09:009;1448877557.83;(0.2536452770233154, 0.46002536349826384);39.433139801;0.847772168613;;;;;;;;;;;;;;4;08,83,41,31;0;0;0;0;0;0;0;();(-2000.0, -2000.0);
10:43:09:082;10:43:09:079;1448877557.89;(0.25506737232208254, 0.46320177714029953);39.4291610718;1.0;;;;;;;;;;;;;;4;08,83,41,31;0;0;0;0;0;0;0;();(-2000.0, -2000.0);
10:43:09:099;10:43:09:079;1448877557.89;(0.25506737232208254, 0.46320177714029953);39.4291610718;1.0;;;;;;;;;;;;;;4;08,83,41,31;0;0;0;0;0;0;0;();(-2000.0, -2000.0);
10:43:09:131;10:43:09:079;1448877557.89;(0.25506737232208254, 0.46320177714029953);39.4291610718;1.0;;;;;;;;;;;;;;4;08,83,41,31;0;0;0;0;0;0;0;();(-2000.0, -2000.0);
10:43:09:149;10:43:09:138;1448877557.96;(0.24808716773986816, 0.4558995988633897);39.7474212646;1.0;;;;;;;;;;;;;;4;08,83,41,31;0;0;0;0;0;0;0;();(-2000.0, -2000.0);
10:43:09:165;10:43:09:138;1448877557.96;(0.24808716773986816, 0.4558995988633897);39.7474212646;1.0;;;;;;;;;;;;;;4;08,83,41,31;0;0;0;0;0;0;0;();(-2000.0, -2000.0);
10:43:09:182;10:43:09:138;1448877557.96;(0.24808716773986816, 0.4558995988633897);39.7474212646;1.0;;;;;;;;;;;;;;4;08,83,41,31;0;0;0;0;0;0;0;();(-2000.0, -2000.0);
10:43:09:199;10:43:09:138;1448877557.96;(0.24808716773986816, 0.4558995988633897);39.7474212646;1.0;;;;;;;;;;;;;;4;08,83,41,31;0;0;0;0;0;0;0;();(-2000.0, -2000.0);
10:43:09:232;10:43:09:209;1448877558.03;(0.24897334575653077, 0.45754500495062933);39.1330375671;1.0;;;;;;;;;;;;;;4;08,83,41,31;0;0;0;0;0;0;0;();(-2000.0, -2000.0);
10:43:09:249;10:43:09:209;1448877558.03;(0.24897334575653077, 0.45754500495062933);39.1330375671;1.0;;;;;;;;;;;;;;4;08,83,41,31;0;0;0;0;0;0;0;();(-2000.0, -2000.0);
10:43:09:265;10:43:09:209;1448877558.03;(0.24897334575653077, 0.45754500495062933);39.1330375671;1.0;;;;;;;;;;;;;;4;08,83,41,31;0;0;0;0;0;0;0;();(-2000.0, -2000.0);
10:43:09:282;10:43:09:270;1448877558.09;(0.24973514080047607, 0.4551414913601346);39.0367584229;1.0;;;;;;;;;;;;;;4;08,83,41,31;0;0;0;0;0;0;0;();(-2000.0, -2000.0);
10:43:09:299;10:43:09:270;1448877558.09;(0.24973514080047607, 0.4551414913601346);39.0367584229;1.0;;;;;;;;;;;;;;4;08,83,41,31;0;0;0;0;0;0;0;();(-2000.0, -2000.0);
10:43:09:332;10:43:09:270;1448877558.09;(0.24973514080047607, 0.4551414913601346);39.0367584229;1.0;;;;;;;;;;;;;;4;08,83,41,31;0;0;0;0;0;0;0;();(-2000.0, -2000.0);
10:43:09:349;10:43:09:338;1448877558.16;(0.25107545852661134, 0.4528656005859375);38.2501754761;1.0;;;;;;;;;;;;;;4;08,83,41,31;0;0;0;0;0;0;0;();(-2000.0, -2000.0);
10:43:09:366;10:43:09:338;1448877558.16;(0.25107545852661134, 0.4528656005859375);38.2501754761;1.0;;;;;;;;;;;;;;4;08,83,41,31;0;0;0;0;0;0;0;();(-2000.0, -2000.0);
10:43:09:382;10:43:09:338;1448877558.16;(0.25107545852661134, 0.4528656005859375);38.2501754761;1.0;;;;;;;;;;;;;;4;08,83,41,31;0;0;0;0;0;0;0;();(-2000.0, -2000.0);
10:43:09:398;10:43:09:338;1448877558.16;(0.25107545852661134, 0.4528656005859375);38.2501754761;1.0;;;;;;;;;;;;;;4;08,83,41,31;0;0;0;0;0;0;0;();(-2000.0, -2000.0);
10:43:09:416;10:43:09:403;1448877558.23;(0.2464686155319214, 0.4535790337456598);38.391582489;1.0;;;;;;;;;;;;;;4;08,83,41,31;0;0;0;0;0;0;0;();(-2000.0, -2000.0);
10:43:09:448;10:43:09:403;1448877558.23;(0.2464686155319214, 0.4535790337456598);38.391582489;1.0;;;;;;;;;;;;;;4;08,83,41,31;0;0;0;0;0;0;0;();(-2000.0, -2000.0);
10:43:09:465;10:43:09:403;1448877558.23;(0.2464686155319214, 0.4535790337456598);38.391582489;1.0;;;;;;;;;;;;;;4;08,83,41,31;0;0;0;0;0;0;0;();(-2000.0, -2000.0);
10:43:09:482;10:43:09:470;1448877558.29;(0.24733436107635498, 0.454125722249349);38.6285629272;1.0;;;;;;;;;;;;;;4;08,83,41,31;0;0;0;0;0;0;0;();(-2000.0, -2000.0);
10:43:09:499;10:43:09:470;1448877558.29;(0.24733436107635498, 0.454125722249349);38.6285629272;1.0;;;;;;;;;;;;;;4;08,83,41,31;0;0;0;0;0;0;0;();(-2000.0, -2000.0);
10:43:09:516;10:43:09:470;1448877558.29;(0.24733436107635498, 0.454125722249349);38.6285629272;1.0;;;;;;;;;;;;;;4;08,83,41,31;0;0;0;0;0;0;0;();(-2000.0, -2000.0);
10:43:09:550;10:43:09:538;1448877558.39;(0.279160213470459, 0.5082046932644314);37.7720375061;1.0;;;;;;;;;;;;;;4;08,83,41,31;0;0;0;0;0;0;0;();(-2000.0, -2000.0);
10:43:09:566;10:43:09:538;1448877558.39;(0.279160213470459, 0.5082046932644314);37.7720375061;1.0;;;;;;;;;;;;;;4;08,83,41,31;0;0;0;0;0;0;0;();(-2000.0, -2000.0);
10:43:09:582;10:43:09:538;1448877558.39;(0.279160213470459, 0.5082046932644314);37.7720375061;1.0;;;;;;;;;;;;;;4;08,83,41,31;0;0;0;0;0;0;0;();(-2000.0, -2000.0);
10:43:09:599;10:43:09:538;1448877558.39;(0.279160213470459, 0.5082046932644314);37.7720375061;1.0;;;;;;;;;;;;;;4;08,83,41,31;0;0;0;0;0;0;0;();(-2000.0, -2000.0);
10:43:09:632;10:43:09:604;1448877558.43;(0.27868876457214353, 0.5079050699869792);37.4206008911;1.0;;;;;;;;;;;;;;4;08,83,41,31;0;0;0;0;0;0;0;();(-2000.0, -2000.0);
10:43:09:649;10:43:09:604;1448877558.43;(0.27868876457214353, 0.5079050699869792);37.4206008911;1.0;;;;;;;;;;;;;;4;08,83,41,31;0;0;0;0;0;0;0;();(-2000.0, -2000.0);
10:43:09:665;10:43:09:604;1448877558.43;(0.27868876457214353, 0.5079050699869792);37.4206008911;1.0;;;;;;;;;;;;;;4;08,83,41,31;0;0;0;0;0;0;0;();(-2000.0, -2000.0);
10:43:09:682;10:43:09:669;1448877558.49;(0.27884526252746583, 0.5073131137424045);36.78698349;1.0;;;;;;;;;;;;;;4;08,83,41,31;0;0;0;0;0;0;0;();(-2000.0, -2000.0);
10:43:09:699;10:43:09:669;1448877558.49;(0.27884526252746583, 0.5073131137424045);36.78698349;1.0;;;;;;;;;;;;;;4;08,83,41,31;0;0;0;0;0;0;0;();(-2000.0, -2000.0);
10:43:09:716;10:43:09:669;1448877558.49;(0.27884526252746583, 0.5073131137424045);36.78698349;1.0;;;;;;;;;;;;;;4;08,83,41,31;0;0;0;0;0;0;0;();(-2000.0, -2000.0);
10:43:09:750;10:43:09:733;1448877558.56;(0.28134491443634035, 0.5067946539984809);36.4789276123;1.0;;;;;;;;;;;;;;4;08,83,41,31;0;0;0;0;0;0;0;();(-2000.0, -2000.0);
10:43:09:766;10:43:09:733;1448877558.56;(0.28134491443634035, 0.5067946539984809);36.4789276123;1.0;;;;;;;;;;;;;;4;08,83,41,31;0;0;0;0;0;0;0;();(-2000.0, -2000.0);
10:43:09:782;10:43:09:733;1448877558.56;(0.28134491443634035, 0.5067946539984809);36.4789276123;1.0;;;;;;;;;;;;;;4;08,83,41,31;0;0;0;0;0;0;0;();(-2000.0, -2000.0);
10:43:09:799;10:43:09:733;1448877558.56;(0.28134491443634035, 0.5067946539984809);36.4789276123;1.0;;;;;;;;;;;;;;4;08,83,41,31;0;0;0;0;0;0;0;();(-2000.0, -2000.0);
10:43:09:816;10:43:09:802;1448877558.63;(0.28132104873657227, 0.5078341166178386);36.0134124756;1.0;;;;;;;;;;;;;;4;08,83,41,31;0;0;0;0;0;0;0;();(-2000.0, -2000.0);
10:43:09:849;10:43:09:802;1448877558.63;(0.28132104873657227, 0.5078341166178386);36.0134124756;1.0;;;;;;;;;;;;;;4;08,83,41,31;0;0;0;0;0;0;0;();(-2000.0, -2000.0);
10:43:09:866;10:43:09:802;1448877558.63;(0.28132104873657227, 0.5078341166178386);36.0134124756;1.0;;;;;;;;;;;;;;4;08,83,41,31;0;0;0;0;0;0;0;();(-2000.0, -2000.0);
10:43:09:883;10:43:09:869;1448877558.69;(0.31463894844055174, 0.4919386545817057);35.8778419495;1.0;;;;;;;;;;;;;;4;08,83,41,31;0;0;0;0;0;0;0;();(-2000.0, -2000.0);
10:43:09:899;10:43:09:869;1448877558.69;(0.31463894844055174, 0.4919386545817057);35.8778419495;1.0;;;;;;;;;;;;;;4;08,83,41,31;0;0;0;0;0;0;0;();(-2000.0, -2000.0);
10:43:09:933;10:43:09:869;1448877558.69;(0.31463894844055174, 0.4919386545817057);35.8778419495;1.0;;;;;;;;;;;;;;4;08,83,41,31;0;0;0;0;0;0;0;();(-2000.0, -2000.0);
10:43:09:949;10:43:09:935;1448877558.76;(0.3173512935638428, 0.4914163377549913);35.817527771;0.984764594674;;;;;;;;;;;;;;4;08,83,41,31;0;0;0;0;0;0;0;();(-2000.0, -2000.0);
10:43:09:966;10:43:09:935;1448877558.76;(0.3173512935638428, 0.4914163377549913);35.817527771;0.984764594674;;;;;;;;;;;;;;4;08,83,41,31;0;0;0;0;0;0;0;();(-2000.0, -2000.0);
10:43:09:983;10:43:09:935;1448877558.76;(0.3173512935638428, 0.4914163377549913);35.817527771;0.984764594674;;;;;;;;;;;;;;4;08,83,41,31;0;0;0;0;0;0;0;();(-2000.0, -2000.0);
10:43:09:999;10:43:09:935;1448877558.76;(0.3173512935638428, 0.4914163377549913);35.817527771;0.984764594674;;;;;;;;;;;;;;4;08,83,41,31;0;0;0;0;0;0;0;();(-2000.0, -2000.0);
10:43:10:016;10:43:10:003;1448877558.83;(0.3161554574966431, 0.49273609585232203);35.9583244324;1.0;;;;;;;;;;;;;;4;08,83,41,31;0;0;0;0;0;0;0;();(-2000.0, -2000.0);
10:43:10:049;10:43:10:003;1448877558.83;(0.3161554574966431, 0.49273609585232203);35.9583244324;1.0;;;;;;;;;;;;;;4;08,83,41,31;0;0;0;0;0;0;0;();(-2000.0, -2000.0);
10:43:10:066;10:43:10:003;1448877558.83;(0.3161554574966431, 0.49273609585232203);35.9583244324;1.0;;;;;;;;;;;;;;4;08,83,41,31;0;0;0;0;0;0;0;();(-2000.0, -2000.0);
10:43:10:083;10:43:10:075;1448877558.89;(0.3156700849533081, 0.4943086412217882);35.5256881714;1.0;;;;;;;;;;;;;;4;08,83,41,31;0;0;0;0;0;0;0;();(-2000.0, -2000.0);
10:43:10:099;10:43:10:075;1448877558.89;(0.3156700849533081, 0.4943086412217882);35.5256881714;1.0;;;;;;;;;;;;;;4;08,83,41,31;0;0;0;0;0;0;0;();(-2000.0, -2000.0);
10:43:10:116;10:43:10:075;1448877558.89;(0.3156700849533081, 0.4943086412217882);35.5256881714;1.0;;;;;;;;;;;;;;4;08,83,41,31;0;0;0;0;0;0;0;();(-2000.0, -2000.0);
10:43:10:149;10:43:10:137;1448877558.96;(0.32439699172973635, 0.49614728291829424);35.7222824097;1.0;;;;;;;;;;;;;;4;08,83,41,31;0;0;0;0;0;0;0;();(-2000.0, -2000.0);
10:43:10:167;10:43:10:137;1448877558.96;(0.32439699172973635, 0.49614728291829424);35.7222824097;1.0;;;;;;;;;;;;;;4;08,83,41,31;0;0;0;0;0;0;0;();(-2000.0, -2000.0);
10:43:10:183;10:43:10:137;1448877558.96;(0.32439699172973635, 0.49614728291829424);35.7222824097;1.0;;;;;;;;;;;;;;4;08,83,41,31;0;0;0;0;0;0;0;();(-2000.0, -2000.0);
10:43:10:199;10:43:10:137;1448877558.96;(0.32439699172973635, 0.49614728291829424);35.7222824097;1.0;;;;;;;;;;;;;;4;08,83,41,31;0;0;0;0;0;0;0;();(-2000.0, -2000.0);
10:43:10:216;10:43:10:204;1448877559.03;(0.32309038639068605, 0.4963422563340929);35.7769050598;1.0;;;;;;;;;;;;;;4;08,83,41,31;0;0;0;0;0;0;0;();(-2000.0, -2000.0);
10:43:10:250;10:43:10:204;1448877559.03;(0.32309038639068605, 0.4963422563340929);35.7769050598;1.0;;;;;;;;;;;;;;4;08,83,41,31;0;0;0;0;0;0;0;();(-2000.0, -2000.0);
10:43:10:266;10:43:10:266;1448877559.09;(0.3214930534362793, 0.4976714240180121);35.8289299011;1.0;;;;;;;;;;;;;;4;08,83,41,31;0;0;0;0;0;0;0;();(-2000.0, -2000.0);
10:43:10:283;10:43:10:266;1448877559.09;(0.3214930534362793, 0.4976714240180121);35.8289299011;1.0;;;;;;;;;;;;;;4;08,83,41,31;0;0;0;0;0;0;0;();(-2000.0, -2000.0);
10:43:10:299;10:43:10:266;1448877559.09;(0.3214930534362793, 0.4976714240180121);35.8289299011;1.0;;;;;;;;;;;;;;4;08,83,41,31;0;0;0;0;0;0;0;();(-2000.0, -2000.0);
10:43:10:316;10:43:10:266;1448877559.09;(0.3214930534362793, 0.4976714240180121);35.8289299011;1.0;;;;;;;;;;;;;;4;08,83,41,31;0;0;0;0;0;0;0;();(-2000.0, -2000.0);
10:43:10:350;10:43:10:336;1448877559.16;(0.3191550254821777, 0.4974713219536675);35.8137207031;0.892164713467;;;;;;;;;;;;;;4;08,83,41,31;0;0;0;0;0;0;0;();(-2000.0, -2000.0);
10:43:10:366;10:43:10:336;1448877559.16;(0.3191550254821777, 0.4974713219536675);35.8137207031;0.892164713467;;;;;;;;;;;;;;4;08,83,41,31;0;0;0;0;0;0;0;();(-2000.0, -2000.0);
10:43:10:383;10:43:10:336;1448877559.16;(0.3191550254821777, 0.4974713219536675);35.8137207031;0.892164713467;;;;;;;;;;;;;;4;08,83,41,31;0;0;0;0;0;0;0;();(-2000.0, -2000.0);
10:43:10:399;10:43:10:398;1448877559.23;(0.31476120948791503, 0.49674869113498266);36.5942687988;0.874907867442;;;;;;;;;;;;;;4;08,83,41,31;0;0;0;0;0;0;0;();(-2000.0, -2000.0);
10:43:10:416;10:43:10:398;1448877559.23;(0.31476120948791503, 0.49674869113498266);36.5942687988;0.874907867442;;;;;;;;;;;;;;4;08,83,41,31;0;0;0;0;0;0;0;();(-2000.0, -2000.0);
10:43:10:450;10:43:10:398;1448877559.23;(0.31476120948791503, 0.49674869113498266);36.5942687988;0.874907867442;;;;;;;;;;;;;;4;08,83,41,31;0;0;0;0;0;0;0;();(-2000.0, -2000.0);
10:43:10:467;10:43:10:466;1448877559.29;(0.3103370189666748, 0.49635908338758683);37.083065033;0.864106565785;;;;;;;;;;;;;;4;08,83,41,31;0;0;0;0;0;0;0;();(-2000.0, -2000.0);
10:43:10:483;10:43:10:466;1448877559.29;(0.3103370189666748, 0.49635908338758683);37.083065033;0.864106565785;;;;;;;;;;;;;;4;08,83,41,31;0;0;0;0;0;0;0;();(-2000.0, -2000.0);
10:43:10:500;10:43:10:466;1448877559.29;(0.3103370189666748, 0.49635908338758683);37.083065033;0.864106565785;;;;;;;;;;;;;;4;08,83,41,31;0;0;0;0;0;0;0;();(-2000.0, -2000.0);
10:43:10:516;10:43:10:466;1448877559.29;(0.3103370189666748, 0.49635908338758683);37.083065033;0.864106565785;;;;;;;;;;;;;;4;08,83,41,31;0;0;0;0;0;0;0;();(-2000.0, -2000.0);
10:43:10:550;10:43:10:538;1448877559.36;(0.32396397590637205, 0.4936170789930555);37.8899841309;0.953690642875;;;;;;;;;;;;;;4;08,83,41,31;0;0;0;0;0;0;0;();(-2000.0, -2000.0);
10:43:10:566;10:43:10:538;1448877559.36;(0.32396397590637205, 0.4936170789930555);37.8899841309;0.953690642875;;;;;;;;;;;;;;4;08,83,41,31;0;0;0;0;0;0;0;();(-2000.0, -2000.0);
10:43:10:583;10:43:10:538;1448877559.36;(0.32396397590637205, 0.4936170789930555);37.8899841309;0.953690642875;;;;;;;;;;;;;;4;08,83,41,31;0;0;0;0;0;0;0;();(-2000.0, -2000.0);
10:43:10:601;10:43:10:599;1448877559.43;(0.36908509731292727, 0.4867513444688585);37.3035850525;1.0;;;;;;;;;;;;;;4;08,83,41,31;0;0;0;0;0;0;0;();(-2000.0, -2000.0);
10:43:10:617;10:43:10:599;1448877559.43;(0.36908509731292727, 0.4867513444688585);37.3035850525;1.0;;;;;;;;;;;;;;4;08,83,41,31;0;0;0;0;0;0;0;();(-2000.0, -2000.0);
10:43:10:650;10:43:10:599;1448877559.43;(0.36908509731292727, 0.4867513444688585);37.3035850525;1.0;;;;;;;;;;;;;;4;08,83,41,31;0;0;0;0;0;0;0;();(-2000.0, -2000.0);
10:43:10:667;10:43:10:666;1448877559.49;(0.3803852558135986, 0.48533287048339846);36.395614624;1.0;;;;;;;;;;;;;;4;08,83,41,31;0;0;0;0;0;0;0;();(-2000.0, -2000.0);
10:43:10:684;10:43:10:666;1448877559.49;(0.3803852558135986, 0.48533287048339846);36.395614624;1.0;;;;;;;;;;;;;;4;08,83,41,31;0;0;0;0;0;0;0;();(-2000.0, -2000.0);
10:43:10:700;10:43:10:666;1448877559.49;(0.3803852558135986, 0.48533287048339846);36.395614624;1.0;;;;;;;;;;;;;;4;08,83,41,31;0;0;0;0;0;0;0;();(-2000.0, -2000.0);
10:43:10:716;10:43:10:666;1448877559.49;(0.3803852558135986, 0.48533287048339846);36.395614624;1.0;;;;;;;;;;;;;;4;08,83,41,31;0;0;0;0;0;0;0;();(-2000.0, -2000.0);
10:43:10:750;10:43:10:730;1448877559.56;(0.3646546363830566, 0.48773778279622393);36.8920478821;1.0;;;;;;;;;;;;;;4;08,83,41,31;0;0;0;0;0;0;0;();(-2000.0, -2000.0);
10:43:10:767;10:43:10:730;1448877559.56;(0.3646546363830566, 0.48773778279622393);36.8920478821;1.0;;;;;;;;;;;;;;4;08,83,41,31;0;0;0;0;0;0;0;();(-2000.0, -2000.0);
10:43:10:783;10:43:10:730;1448877559.56;(0.3646546363830566, 0.48773778279622393);36.8920478821;1.0;;;;;;;;;;;;;;4;08,83,41,31;0;0;0;0;0;0;0;();(-2000.0, -2000.0);
10:43:10:800;10:43:10:797;1448877559.63;(0.351869535446167, 0.4870015038384332);36.2388534546;1.0;;;;;;;;;;;;;;4;08,83,41,31;0;0;0;0;0;0;0;();(-2000.0, -2000.0);
10:43:10:817;10:43:10:797;1448877559.63;(0.351869535446167, 0.4870015038384332);36.2388534546;1.0;;;;;;;;;;;;;;4;08,83,41,31;0;0;0;0;0;0;0;();(-2000.0, -2000.0);
10:43:10:850;10:43:10:797;1448877559.63;(0.351869535446167, 0.4870015038384332);36.2388534546;1.0;;;;;;;;;;;;;;4;08,83,41,31;0;0;0;0;0;0;0;();(-2000.0, -2000.0);
10:43:10:867;10:43:10:867;1448877559.69;(0.3449742794036865, 0.48934360080295136);36.5580825806;0.954043865488;;;;;;;;;;;;;;4;08,83,41,31;0;0;0;0;0;0;0;();(-2000.0, -2000.0);
10:43:10:884;10:43:10:867;1448877559.69;(0.3449742794036865, 0.48934360080295136);36.5580825806;0.954043865488;;;;;;;;;;;;;;4;08,83,41,31;0;0;0;0;0;0;0;();(-2000.0, -2000.0);
10:43:10:900;10:43:10:867;1448877559.69;(0.3449742794036865, 0.48934360080295136);36.5580825806;0.954043865488;;;;;;;;;;;;;;4;08,83,41,31;0;0;0;0;0;0;0;();(-2000.0, -2000.0);
10:43:10:917;10:43:10:867;1448877559.69;(0.3449742794036865, 0.48934360080295136);36.5580825806;0.954043865488;;;;;;;;;;;;;;4;08,83,41,31;0;0;0;0;0;0;0;();(-2000.0, -2000.0);
10:43:10:950;10:43:10:930;1448877559.76;(0.27033514976501466, 0.4861127641465929);37.3864059448;1.0;;;;;;;;;;;;;;4;08,83,41,31;0;0;0;0;0;0;0;();(-2000.0, -2000.0);
10:43:10:967;10:43:10:930;1448877559.76;(0.27033514976501466, 0.4861127641465929);37.3864059448;1.0;;;;;;;;;;;;;;4;08,83,41,31;0;0;0;0;0;0;0;();(-2000.0, -2000.0);
10:43:10:984;10:43:10:930;1448877559.76;(0.27033514976501466, 0.4861127641465929);37.3864059448;1.0;;;;;;;;;;;;;;4;08,83,41,31;0;0;0;0;0;0;0;();(-2000.0, -2000.0);
10:43:11:000;10:43:11:000;1448877559.79;(0.25878522396087644, 0.4844755384657118);37.6255264282;1.0;;;;;;;;;;;;;;4;08,83,41,31;0;0;0;0;0;0;0;();(-2000.0, -2000.0);
10:43:11:017;10:43:11:000;1448877559.83;(0.2625730514526367, 0.4874790191650391);37.4229393005;1.0;;;;;;;;;;;;;;4;08,83,41,31;0;0;0;0;0;0;0;();(-2000.0, -2000.0);
10:43:11:050;10:43:11:000;1448877559.83;(0.2625730514526367, 0.4874790191650391);37.4229393005;1.0;;;;;;;;;;;;;;4;08,83,41,31;0;0;0;0;0;0;0;();(-2000.0, -2000.0);
10:43:11:067;10:43:11:062;1448877559.86;(0.26667678356170654, 0.4899290296766493);37.4084625244;1.0;;;;;;;;;;;;;;4;08,83,41,31;0;0;0;0;0;0;0;();(-2000.0, -2000.0);
10:43:11:084;10:43:11:062;1448877559.86;(0.26667678356170654, 0.4899290296766493);37.4084625244;1.0;;;;;;;;;;;;;;4;08,83,41,31;0;0;0;0;0;0;0;();(-2000.0, -2000.0);
10:43:11:100;10:43:11:062;1448877559.86;(0.26667678356170654, 0.4899290296766493);37.4084625244;1.0;;;;;;;;;;;;;;4;08,83,41,31;0;0;0;0;0;0;0;();(-2000.0, -2000.0);
10:43:11:117;10:43:11:062;1448877559.86;(0.26667678356170654, 0.4899290296766493);37.4084625244;1.0;;;;;;;;;;;;;;4;08,83,41,31;0;0;0;0;0;0;0;();(-2000.0, -2000.0);
10:43:11:150;10:43:11:131;1448877559.96;(0.25489566326141355, 0.5113874223497179);36.965801239;1.0;;;;;;;;;;;;;;4;08,83,41,31;0;0;0;0;0;0;0;();(-2000.0, -2000.0);
10:43:11:167;10:43:11:131;1448877559.96;(0.25489566326141355, 0.5113874223497179);36.965801239;1.0;;;;;;;;;;;;;;4;08,83,41,31;0;0;0;0;0;0;0;();(-2000.0, -2000.0);
10:43:11:183;10:43:11:131;1448877559.96;(0.25489566326141355, 0.5113874223497179);36.965801239;1.0;;;;;;;;;;;;;;4;08,83,41,31;0;0;0;0;0;0;0;();(-2000.0, -2000.0);
10:43:11:200;10:43:11:198;1448877560.03;(0.26088199615478513, 0.5131258222791883);37.4844017029;1.0;;;;;;;;;;;;;;4;08,83,41,31;0;0;0;0;0;0;0;();(-2000.0, -2000.0);
10:43:11:218;10:43:11:198;1448877560.03;(0.26088199615478513, 0.5131258222791883);37.4844017029;1.0;;;;;;;;;;;;;;4;08,83,41,31;0;0;0;0;0;0;0;();(-2000.0, -2000.0);
10:43:11:250;10:43:11:198;1448877560.03;(0.26088199615478513, 0.5131258222791883);37.4844017029;1.0;;;;;;;;;;;;;;4;08,83,41,31;0;0;0;0;0;0;0;();(-2000.0, -2000.0);
10:43:11:267;10:43:11:265;1448877560.06;(0.2649296522140503, 0.5141682518853081);37.4545059204;1.0;;;;;;;;;;;;;;4;08,83,41,31;0;0;0;0;0;0;0;();(-2000.0, -2000.0);
10:43:11:284;10:43:11:269;1448877560.09;(0.27055270671844484, 0.5147935655381944);37.1432952881;1.0;;;;;;;;;;;;;;4;08,83,41,31;0;0;0;0;0;0;0;();(-2000.0, -2000.0);
10:43:11:300;10:43:11:269;1448877560.09;(0.27055270671844484, 0.5147935655381944);37.1432952881;1.0;;;;;;;;;;;;;;4;08,83,41,31;0;0;0;0;0;0;0;();(-2000.0, -2000.0);
10:43:11:317;10:43:11:269;1448877560.09;(0.27055270671844484, 0.5147935655381944);37.1432952881;1.0;;;;;;;;;;;;;;4;08,83,41,31;0;0;0;0;0;0;0;();(-2000.0, -2000.0);
10:43:11:350;10:43:11:340;1448877560.16;(0.27786617279052733, 0.5141414642333985);38.006313324;0.914227746082;;;;;;;;;;;;;;4;08,83,41,31;0;0;0;0;0;0;0;();(-2000.0, -2000.0);
10:43:11:367;10:43:11:340;1448877560.16;(0.27786617279052733, 0.5141414642333985);38.006313324;0.914227746082;;;;;;;;;;;;;;4;08,83,41,31;0;0;0;0;0;0;0;();(-2000.0, -2000.0);
10:43:11:384;10:43:11:340;1448877560.16;(0.27786617279052733, 0.5141414642333985);38.006313324;0.914227746082;;;;;;;;;;;;;;4;08,83,41,31;0;0;0;0;0;0;0;();(-2000.0, -2000.0);
10:43:11:401;10:43:11:397;1448877560.23;(0.28964312076568605, 0.51304931640625);37.9005012512;1.0;;;;;;;;;;;;;;4;08,83,41,31;0;0;0;0;0;0;0;();(-2000.0, -2000.0);
10:43:11:417;10:43:11:397;1448877560.23;(0.28964312076568605, 0.51304931640625);37.9005012512;1.0;;;;;;;;;;;;;;4;08,83,41,31;0;0;0;0;0;0;0;();(-2000.0, -2000.0);
10:43:11:451;10:43:11:397;1448877560.23;(0.28964312076568605, 0.51304931640625);37.9005012512;1.0;;;;;;;;;;;;;;4;08,83,41,31;0;0;0;0;0;0;0;();(-2000.0, -2000.0);
10:43:11:467;10:43:11:462;1448877560.29;(0.2979180335998535, 0.5136978149414062);37.6382675171;1.0;;;;;;;;;;;;;;4;08,83,41,31;0;0;0;0;0;0;0;();(-2000.0, -2000.0);
10:43:11:484;10:43:11:462;1448877560.29;(0.2979180335998535, 0.5136978149414062);37.6382675171;1.0;;;;;;;;;;;;;;4;08,83,41,31;0;0;0;0;0;0;0;();(-2000.0, -2000.0);
10:43:11:501;10:43:11:462;1448877560.29;(0.2979180335998535, 0.5136978149414062);37.6382675171;1.0;;;;;;;;;;;;;;4;08,83,41,31;0;0;0;0;0;0;0;();(-2000.0, -2000.0);
10:43:11:518;10:43:11:462;1448877560.29;(0.2979180335998535, 0.5136978149414062);37.6382675171;1.0;;;;;;;;;;;;;;4;08,83,41,31;0;0;0;0;0;0;0;();(-2000.0, -2000.0);
10:43:11:551;10:43:11:530;1448877560.36;(0.29878673553466795, 0.5133224063449435);37.6203956604;1.0;;;;;;;;;;;;;;4;08,83,41,31;0;0;0;0;0;0;0;();(-2000.0, -2000.0);
10:43:11:567;10:43:11:530;1448877560.36;(0.29878673553466795, 0.5133224063449435);37.6203956604;1.0;;;;;;;;;;;;;;4;08,83,41,31;0;0;0;0;0;0;0;();(-2000.0, -2000.0);
10:43:11:583;10:43:11:530;1448877560.36;(0.29878673553466795, 0.5133224063449435);37.6203956604;1.0;;;;;;;;;;;;;;4;08,83,41,31;0;0;0;0;0;0;0;();(-2000.0, -2000.0);
10:43:11:601;10:43:11:597;1448877560.43;(0.3016462802886963, 0.5134294297960069);37.460308075;0.902264465111;;;;;;;;;;;;;;4;08,83,41,31;0;0;0;0;0;0;0;();(-2000.0, -2000.0);
10:43:11:618;10:43:11:597;1448877560.43;(0.3016462802886963, 0.5134294297960069);37.460308075;0.902264465111;;;;;;;;;;;;;;4;08,83,41,31;0;0;0;0;0;0;0;();(-2000.0, -2000.0);
10:43:11:651;10:43:11:597;1448877560.43;(0.3016462802886963, 0.5134294297960069);37.460308075;0.902264465111;;;;;;;;;;;;;;4;08,83,41,31;0;0;0;0;0;0;0;();(-2000.0, -2000.0);
10:43:11:668;10:43:11:662;1448877560.49;(0.3027113676071167, 0.5117476993136936);37.5402679443;1.0;;;;;;;;;;;;;;4;08,83,41,31;0;0;0;0;0;0;0;();(-2000.0, -2000.0);
10:43:11:684;10:43:11:662;1448877560.49;(0.3027113676071167, 0.5117476993136936);37.5402679443;1.0;;;;;;;;;;;;;;4;08,83,41,31;0;0;0;0;0;0;0;();(-2000.0, -2000.0);
10:43:11:700;10:43:11:662;1448877560.49;(0.3027113676071167, 0.5117476993136936);37.5402679443;1.0;;;;;;;;;;;;;;4;08,83,41,31;0;0;0;0;0;0;0;();(-2000.0, -2000.0);
10:43:11:718;10:43:11:662;1448877560.49;(0.3027113676071167, 0.5117476993136936);37.5402679443;1.0;;;;;;;;;;;;;;4;08,83,41,31;0;0;0;0;0;0;0;();(-2000.0, -2000.0);
10:43:11:751;10:43:11:726;1448877560.56;(0.23262737989425658, 0.48731002807617185);38.156665802;1.0;;;;;;;;;;;;;;4;08,83,41,31;0;0;0;0;0;0;0;();(-2000.0, -2000.0);
10:43:11:768;10:43:11:726;1448877560.56;(0.23262737989425658, 0.48731002807617185);38.156665802;1.0;;;;;;;;;;;;;;4;08,83,41,31;0;0;0;0;0;0;0;();(-2000.0, -2000.0);
10:43:11:785;10:43:11:726;1448877560.56;(0.23262737989425658, 0.48731002807617185);38.156665802;1.0;;;;;;;;;;;;;;4;08,83,41,31;0;0;0;0;0;0;0;();(-2000.0, -2000.0);
10:43:11:802;10:43:11:794;1448877560.63;(0.2224235415458679, 0.4794263203938802);37.5300140381;1.0;;;;;;;;;;;;;;4;08,83,41,31;0;0;0;0;0;0;0;();(-2000.0, -2000.0);
10:43:11:817;10:43:11:794;1448877560.63;(0.2224235415458679, 0.4794263203938802);37.5300140381;1.0;;;;;;;;;;;;;;4;08,83,41,31;0;0;0;0;0;0;0;();(-2000.0, -2000.0);
10:43:11:851;10:43:11:794;1448877560.63;(0.2224235415458679, 0.4794263203938802);37.5300140381;1.0;;;;;;;;;;;;;;4;08,83,41,31;0;0;0;0;0;0;0;();(-2000.0, -2000.0);
10:43:11:868;10:43:11:861;1448877560.69;(0.23514580726623535, 0.48739988538953993);37.5461044312;1.0;;;;;;;;;;;;;;4;08,83,41,31;0;0;0;0;0;0;0;();(-2000.0, -2000.0);
10:43:11:884;10:43:11:861;1448877560.69;(0.23514580726623535, 0.48739988538953993);37.5461044312;1.0;;;;;;;;;;;;;;4;08,83,41,31;0;0;0;0;0;0;0;();(-2000.0, -2000.0);
10:43:11:901;10:43:11:861;1448877560.69;(0.23514580726623535, 0.48739988538953993);37.5461044312;1.0;;;;;;;;;;;;;;4;08,83,41,31;0;0;0;0;0;0;0;();(-2000.0, -2000.0);
10:43:11:918;10:43:11:861;1448877560.69;(0.23514580726623535, 0.48739988538953993);37.5461044312;1.0;;;;;;;;;;;;;;4;08,83,41,31;0;0;0;0;0;0;0;();(-2000.0, -2000.0);
10:43:11:951;10:43:11:932;1448877560.76;(0.23362730741500853, 0.48438966539171);37.291179657;1.0;;;;;;;;;;;;;;4;08,83,41,31;0;0;0;0;0;0;0;();(-2000.0, -2000.0);
10:43:11:968;10:43:11:932;1448877560.76;(0.23362730741500853, 0.48438966539171);37.291179657;1.0;;;;;;;;;;;;;;4;08,83,41,31;0;0;0;0;0;0;0;();(-2000.0, -2000.0);
10:43:11:984;10:43:11:932;1448877560.76;(0.23362730741500853, 0.48438966539171);37.291179657;1.0;;;;;;;;;;;;;;4;08,83,41,31;0;0;0;0;0;0;0;();(-2000.0, -2000.0);
10:43:12:001;10:43:11:994;1448877560.83;(0.23654599189758302, 0.48478359646267366);37.2182540894;1.0;;;;;;;;;;;;;;4;08,83,41,31;0;0;0;0;0;0;0;();(-2000.0, -2000.0);
10:43:12:018;10:43:11:994;1448877560.83;(0.23654599189758302, 0.48478359646267366);37.2182540894;1.0;;;;;;;;;;;;;;4;08,83,41,31;0;0;0;0;0;0;0;();(-2000.0, -2000.0);
10:43:12:051;10:43:11:994;1448877560.83;(0.23654599189758302, 0.48478359646267366);37.2182540894;1.0;;;;;;;;;;;;;;4;08,83,41,31;0;0;0;0;0;0;0;();(-2000.0, -2000.0);
10:43:12:068;10:43:12:058;1448877560.89;(0.2381675958633423, 0.48493414984809025);37.2838592529;1.0;;;;;;;;;;;;;;4;08,83,41,31;0;0;0;0;0;0;0;();(-2000.0, -2000.0);
10:43:12:085;10:43:12:058;1448877560.89;(0.2381675958633423, 0.48493414984809025);37.2838592529;1.0;;;;;;;;;;;;;;4;08,83,41,31;0;0;0;0;0;0;0;();(-2000.0, -2000.0);
10:43:12:101;10:43:12:058;1448877560.89;(0.2381675958633423, 0.48493414984809025);37.2838592529;1.0;;;;;;;;;;;;;;4;08,83,41,31;0;0;0;0;0;0;0;();(-2000.0, -2000.0);
10:43:12:118;10:43:12:058;1448877560.89;(0.2381675958633423, 0.48493414984809025);37.2838592529;1.0;;;;;;;;;;;;;;4;08,83,41,31;0;0;0;0;0;0;0;();(-2000.0, -2000.0);
10:43:12:151;10:43:12:126;1448877560.96;(0.23801825046539307, 0.4849724663628472);37.0958976746;1.0;;;;;;;;;;;;;;4;08,83,41,31;0;0;0;0;0;0;0;();(-2000.0, -2000.0);
10:43:12:167;10:43:12:126;1448877560.96;(0.23801825046539307, 0.4849724663628472);37.0958976746;1.0;;;;;;;;;;;;;;4;08,83,41,31;0;0;0;0;0;0;0;();(-2000.0, -2000.0);
10:43:12:185;10:43:12:126;1448877560.96;(0.23801825046539307, 0.4849724663628472);37.0958976746;1.0;;;;;;;;;;;;;;4;08,83,41,31;0;0;0;0;0;0;0;();(-2000.0, -2000.0);
10:43:12:201;10:43:12:190;1448877561.03;(0.23779101371765138, 0.48493224249945743);36.6009788513;1.0;;;;;;;;;;;;;;4;08,83,41,31;0;0;0;0;0;0;0;();(-2000.0, -2000.0);
10:43:12:218;10:43:12:190;1448877561.03;(0.23779101371765138, 0.48493224249945743);36.6009788513;1.0;;;;;;;;;;;;;;4;08,83,41,31;0;0;0;0;0;0;0;();(-2000.0, -2000.0);
10:43:12:251;10:43:12:190;1448877561.03;(0.23779101371765138, 0.48493224249945743);36.6009788513;1.0;;;;;;;;;;;;;;4;08,83,41,31;0;0;0;0;0;0;0;();(-2000.0, -2000.0);
10:43:12:269;10:43:12:260;1448877561.09;(0.24741168022155763, 0.4904790666368273);36.7009124756;0.941340560114;;;;;;;;;;;;;;4;08,83,41,31;0;0;0;0;0;0;0;();(-2000.0, -2000.0);
