%Timestamp,timestamp_write;timestamp_gotpupil;eyeTrackerTime;normPos;diameter;confidence;timestamp_gotbitdata;CRC;SEQ;AnalogOutp1;AnalogOutp2;AnalogOutp3;AnalogOutp4;AnalogOutp5;AnalogOutp6;DigitalOutp1;DigitalOutp2;DigitalOutp3;DigitalOutp4;nplanes;listofAirplanesonScreen;lastAction;lastActionDetails;lastActionAirplaneNumber;calculatedScore;positiveScore;negativeScore;collidedAirplaneNumbers;targetPositions;collisionPoint
06:50:22:768;06:50:22:756;1448647592.58;(0, 0);0;0;;;;;;;;;;;;;;0;0;0;0;0;0;0;0;0;();(0.0, 0.0);
06:50:22:775;06:50:22:760;1448647592.65;(0, 0);0;0;;;;;;;;;;;;;;0;0;0;0;0;0;0;0;0;();(-2000.0, -2000.0);
06:50:22:779;06:50:22:760;1448647592.65;(0, 0);0;0;;;;;;;;;;;;;;0;0;0;0;0;0;0;0;0;();(-2000.0, -2000.0);
06:50:22:783;06:50:22:760;1448647592.65;(0, 0);0;0;;;;;;;;;;;;;;0;0;0;0;0;0;0;0;0;();(-2000.0, -2000.0);
06:50:22:786;06:50:22:760;1448647592.65;(0, 0);0;0;;;;;;;;;;;;;;0;0;0;0;0;0;0;0;0;();(-2000.0, -2000.0);
06:50:22:789;06:50:22:760;1448647592.65;(0, 0);0;0;;;;;;;;;;;;;;0;0;0;0;0;0;0;0;0;();(-2000.0, -2000.0);
06:50:22:792;06:50:22:760;1448647592.65;(0, 0);0;0;;;;;;;;;;;;;;0;0;0;0;0;0;0;0;0;();(-2000.0, -2000.0);
06:50:22:794;06:50:22:760;1448647592.65;(0, 0);0;0;;;;;;;;;;;;;;0;0;0;0;0;0;0;0;0;();(-2000.0, -2000.0);
06:50:22:796;06:50:22:760;1448647592.65;(0, 0);0;0;;;;;;;;;;;;;;0;0;0;0;0;0;0;0;0;();(-2000.0, -2000.0);
06:50:22:797;06:50:22:760;1448647592.65;(0, 0);0;0;;;;;;;;;;;;;;0;0;0;0;0;0;0;0;0;();(-2000.0, -2000.0);
06:50:22:798;06:50:22:760;1448647592.65;(0, 0);0;0;;;;;;;;;;;;;;0;0;0;0;0;0;0;0;0;();(-2000.0, -2000.0);
06:50:22:800;06:50:22:760;1448647592.65;(0, 0);0;0;;;;;;;;;;;;;;0;0;0;0;0;0;0;0;0;();(-2000.0, -2000.0);
06:50:22:801;06:50:22:760;1448647592.65;(0, 0);0;0;;;;;;;;;;;;;;0;0;0;0;0;0;0;0;0;();(-2000.0, -2000.0);
06:50:22:803;06:50:22:760;1448647592.65;(0, 0);0;0;;;;;;;;;;;;;;0;0;0;0;0;0;0;0;0;();(-2000.0, -2000.0);
06:50:22:804;06:50:22:760;1448647592.65;(0, 0);0;0;;;;;;;;;;;;;;0;0;0;0;0;0;0;0;0;();(-2000.0, -2000.0);
06:50:22:806;06:50:22:760;1448647592.65;(0, 0);0;0;;;;;;;;;;;;;;0;0;0;0;0;0;0;0;0;();(-2000.0, -2000.0);
06:50:22:808;06:50:22:760;1448647592.65;(0, 0);0;0;;;;;;;;;;;;;;0;0;0;0;0;0;0;0;0;();(-2000.0, -2000.0);
06:50:22:809;06:50:22:760;1448647592.65;(0, 0);0;0;;;;;;;;;;;;;;0;0;0;0;0;0;0;0;0;();(-2000.0, -2000.0);
06:50:22:810;06:50:22:760;1448647592.65;(0, 0);0;0;;;;;;;;;;;;;;0;0;0;0;0;0;0;0;0;();(-2000.0, -2000.0);
06:50:22:830;06:50:22:825;1448647592.71;(0, 0);0;0;;;;;;;;;;;;;;0;0;0;0;0;0;0;0;0;();(-2000.0, -2000.0);
06:50:22:846;06:50:22:825;1448647592.71;(0, 0);0;0;;;;;;;;;;;;;;0;0;0;0;0;0;0;0;0;();(-2000.0, -2000.0);
06:50:22:879;06:50:22:825;1448647592.71;(0, 0);0;0;;;;;;;;;;;;;;0;0;0;0;0;0;0;0;0;();(-2000.0, -2000.0);
06:50:22:896;06:50:22:888;1448647592.78;(0, 0);0;0;;;;;;;;;;;;;;0;0;0;0;0;0;0;0;0;();(-2000.0, -2000.0);
06:50:22:912;06:50:22:888;1448647592.78;(0, 0);0;0;;;;;;;;;;;;;;0;0;0;0;0;0;0;0;0;();(-2000.0, -2000.0);
06:50:25:298;06:50:25:281;1448647595.15;(0, 0);0;0;;;;;;;;;;;;;;0;0;0;0;0;0;0;0;0;();(-2000.0, -2000.0);
06:50:25:301;06:50:25:281;1448647595.15;(0, 0);0;0;;;;;;;;;;;;;;0;0;0;0;0;0;0;0;0;();(-2000.0, -2000.0);
06:50:25:304;06:50:25:281;1448647595.15;(0, 0);0;0;;;;;;;;;;;;;;0;0;0;0;0;0;0;0;0;();(-2000.0, -2000.0);
06:50:25:307;06:50:25:281;1448647595.15;(0, 0);0;0;;;;;;;;;;;;;;0;0;0;0;0;0;0;0;0;();(-2000.0, -2000.0);
06:50:25:310;06:50:25:281;1448647595.15;(0, 0);0;0;;;;;;;;;;;;;;0;0;0;0;0;0;0;0;0;();(-2000.0, -2000.0);
06:50:25:313;06:50:25:281;1448647595.15;(0, 0);0;0;;;;;;;;;;;;;;0;0;0;0;0;0;0;0;0;();(-2000.0, -2000.0);
06:50:25:315;06:50:25:281;1448647595.15;(0, 0);0;0;;;;;;;;;;;;;;0;0;0;0;0;0;0;0;0;();(-2000.0, -2000.0);
06:50:25:317;06:50:25:281;1448647595.15;(0, 0);0;0;;;;;;;;;;;;;;0;0;0;0;0;0;0;0;0;();(-2000.0, -2000.0);
06:50:25:318;06:50:25:281;1448647595.15;(0, 0);0;0;;;;;;;;;;;;;;0;0;0;0;0;0;0;0;0;();(-2000.0, -2000.0);
06:50:25:320;06:50:25:281;1448647595.15;(0, 0);0;0;;;;;;;;;;;;;;0;0;0;0;0;0;0;0;0;();(-2000.0, -2000.0);
06:50:25:322;06:50:25:281;1448647595.15;(0, 0);0;0;;;;;;;;;;;;;;0;0;0;0;0;0;0;0;0;();(-2000.0, -2000.0);
06:50:25:324;06:50:25:281;1448647595.15;(0, 0);0;0;;;;;;;;;;;;;;0;0;0;0;0;0;0;0;0;();(-2000.0, -2000.0);
06:50:25:325;06:50:25:281;1448647595.15;(0, 0);0;0;;;;;;;;;;;;;;0;0;0;0;0;0;0;0;0;();(-2000.0, -2000.0);
06:50:25:327;06:50:25:281;1448647595.15;(0, 0);0;0;;;;;;;;;;;;;;0;0;0;0;0;0;0;0;0;();(-2000.0, -2000.0);
06:50:25:329;06:50:25:281;1448647595.15;(0, 0);0;0;;;;;;;;;;;;;;0;0;0;0;0;0;0;0;0;();(-2000.0, -2000.0);
06:50:25:330;06:50:25:281;1448647595.15;(0, 0);0;0;;;;;;;;;;;;;;0;0;0;0;0;0;0;0;0;();(-2000.0, -2000.0);
06:50:25:332;06:50:25:281;1448647595.15;(0, 0);0;0;;;;;;;;;;;;;;0;0;0;0;0;0;0;0;0;();(-2000.0, -2000.0);
06:50:25:334;06:50:25:281;1448647595.15;(0, 0);0;0;;;;;;;;;;;;;;0;0;0;0;0;0;0;0;0;();(-2000.0, -2000.0);
06:50:25:348;06:50:25:281;1448647595.15;(0, 0);0;0;;;;;;;;;;;;;;0;0;0;0;0;0;0;0;0;();(-2000.0, -2000.0);
06:50:25:364;06:50:25:281;1448647595.15;(0, 0);0;0;;;;;;;;;;;;;;0;0;0;0;0;0;0;0;0;();(-2000.0, -2000.0);
06:50:25:381;06:50:25:281;1448647595.15;(0, 0);0;0;;;;;;;;;;;;;;0;0;0;0;0;0;0;0;0;();(-2000.0, -2000.0);
06:50:25:398;06:50:25:382;1448647595.21;(0, 0);0;0;;;;;;;;;;;;;;0;0;0;0;0;0;0;0;0;();(-2000.0, -2000.0);
06:50:25:431;06:50:25:412;1448647595.28;(0, 0);0;0;;;;;;;;;;;;;;0;0;0;0;0;0;0;0;0;();(-2000.0, -2000.0);
06:50:25:449;06:50:25:412;1448647595.28;(0, 0);0;0;;;;;;;;;;;;;;0;0;0;0;0;0;0;0;0;();(-2000.0, -2000.0);
06:50:25:465;06:50:25:412;1448647595.28;(0, 0);0;0;;;;;;;;;;;;;;0;0;0;0;0;0;0;0;0;();(-2000.0, -2000.0);
06:50:25:483;06:50:25:477;1448647595.35;(0, 0);0;0;;;;;;;;;;;;;;0;0;0;0;0;0;0;0;0;();(-2000.0, -2000.0);
06:50:25:499;06:50:25:477;1448647595.35;(0, 0);0;0;;;;;;;;;;;;;;0;0;0;0;0;0;0;0;0;();(-2000.0, -2000.0);
06:50:25:532;06:50:25:477;1448647595.35;(0, 0);0;0;;;;;;;;;;;;;;0;0;0;0;0;0;0;0;0;();(-2000.0, -2000.0);
06:50:25:548;06:50:25:545;1448647595.41;(0, 0);0;0;;;;;;;;;;;;;;0;0;0;0;0;0;0;0;0;();(-2000.0, -2000.0);
06:50:25:566;06:50:25:545;1448647595.41;(0, 0);0;0;;;;;;;;;;;;;;0;0;0;0;0;0;0;0;0;();(-2000.0, -2000.0);
06:50:25:583;06:50:25:545;1448647595.41;(0, 0);0;0;;;;;;;;;;;;;;0;0;0;0;0;0;0;0;0;();(-2000.0, -2000.0);
06:50:25:599;06:50:25:545;1448647595.41;(0, 0);0;0;;;;;;;;;;;;;;0;0;0;0;0;0;0;0;0;();(-2000.0, -2000.0);
06:50:25:631;06:50:25:630;1448647595.48;(0, 0);0;0;;;;;;;;;;;;;;0;0;0;0;0;0;0;0;0;();(-2000.0, -2000.0);
06:50:25:649;06:50:25:630;1448647595.48;(0, 0);0;0;;;;;;;;;;;;;;0;0;0;0;0;0;0;0;0;();(-2000.0, -2000.0);
06:50:25:665;06:50:25:630;1448647595.48;(0, 0);0;0;;;;;;;;;;;;;;0;0;0;0;0;0;0;0;0;();(-2000.0, -2000.0);
06:50:25:683;06:50:25:678;1448647595.55;(0, 0);0;0;;;;;;;;;;;;;;0;0;0;0;0;0;0;0;0;();(-2000.0, -2000.0);
06:50:25:698;06:50:25:678;1448647595.55;(0, 0);0;0;;;;;;;;;;;;;;0;0;0;0;0;0;0;0;0;();(-2000.0, -2000.0);
06:50:25:732;06:50:25:678;1448647595.55;(0, 0);0;0;;;;;;;;;;;;;;0;0;0;0;0;0;0;0;0;();(-2000.0, -2000.0);
06:50:25:749;06:50:25:745;1448647595.61;(0, 0);0;0;;;;;;;;;;;;;;0;0;0;0;0;0;0;0;0;();(-2000.0, -2000.0);
06:50:25:766;06:50:25:745;1448647595.61;(0, 0);0;0;;;;;;;;;;;;;;0;0;0;0;0;0;0;0;0;();(-2000.0, -2000.0);
06:50:25:782;06:50:25:745;1448647595.61;(0, 0);0;0;;;;;;;;;;;;;;0;0;0;0;0;0;0;0;0;();(-2000.0, -2000.0);
06:50:25:799;06:50:25:745;1448647595.61;(0, 0);0;0;;;;;;;;;;;;;;0;0;0;0;0;0;0;0;0;();(-2000.0, -2000.0);
06:50:25:832;06:50:25:809;1448647595.68;(0, 0);0;0;;;;;;;;;;;;;;0;0;0;0;0;0;0;0;0;();(-2000.0, -2000.0);
06:50:25:849;06:50:25:809;1448647595.68;(0, 0);0;0;;;;;;;;;;;;;;0;0;0;0;0;0;0;0;0;();(-2000.0, -2000.0);
06:50:25:866;06:50:25:809;1448647595.68;(0, 0);0;0;;;;;;;;;;;;;;0;0;0;0;0;0;0;0;0;();(-2000.0, -2000.0);
06:50:25:882;06:50:25:878;1448647595.75;(0, 0);0;0;;;;;;;;;;;;;;0;0;0;0;0;0;0;0;0;();(-2000.0, -2000.0);
06:50:25:899;06:50:25:878;1448647595.75;(0, 0);0;0;;;;;;;;;;;;;;0;0;0;0;0;0;0;0;0;();(-2000.0, -2000.0);
06:50:25:933;06:50:25:878;1448647595.75;(0, 0);0;0;;;;;;;;;;;;;;0;0;0;0;0;0;0;0;0;();(-2000.0, -2000.0);
06:50:25:949;06:50:25:878;1448647595.75;(0, 0);0;0;;;;;;;;;;;;;;0;0;0;0;0;0;0;0;0;();(-2000.0, -2000.0);
06:50:25:966;06:50:25:950;1448647595.81;(0, 0);0;0;;;;;;;;;;;;;;0;0;0;0;0;0;0;0;0;();(-2000.0, -2000.0);
06:50:26:507;06:50:26:472;1448647596.35;(0, 0);0;0;06:50:26:505;0;9;-1.5;1;0;0;0;0;1;1;1;1;0;0;0;0;0;0;0;0;0;();(-2000.0, -2000.0);
06:50:26:511;06:50:26:472;1448647596.35;(0, 0);0;0;06:50:26:511;0;9;-1.5;1;0;0;0;0;1;1;1;1;0;0;0;0;0;0;0;0;0;();(-2000.0, -2000.0);
06:50:26:514;06:50:26:472;1448647596.35;(0, 0);0;0;06:50:26:514;0;9;-1.5;1;0;0;0;0;1;1;1;1;0;0;0;0;0;0;0;0;0;();(-2000.0, -2000.0);
06:50:26:518;06:50:26:472;1448647596.35;(0, 0);0;0;06:50:26:518;0;4;-1.5;1;0;0;0;0;1;1;1;1;0;0;0;0;0;0;0;0;0;();(-2000.0, -2000.0);
06:50:26:521;06:50:26:472;1448647596.35;(0, 0);0;0;06:50:26:521;0;4;-1.5;1;0;0;0;0;1;1;1;1;0;0;0;0;0;0;0;0;0;();(-2000.0, -2000.0);
06:50:26:524;06:50:26:472;1448647596.35;(0, 0);0;0;06:50:26:524;0;15;-1.5;1;0;0;0;0;1;1;1;1;0;0;0;0;0;0;0;0;0;();(-2000.0, -2000.0);
06:50:26:527;06:50:26:472;1448647596.35;(0, 0);0;0;06:50:26:527;0;15;-1.5;1;0;0;0;0;1;1;1;1;0;0;0;0;0;0;0;0;0;();(-2000.0, -2000.0);
06:50:26:531;06:50:26:472;1448647596.35;(0, 0);0;0;06:50:26:531;0;15;-1.5;1;0;0;0;0;1;1;1;1;0;0;0;0;0;0;0;0;0;();(-2000.0, -2000.0);
06:50:26:534;06:50:26:472;1448647596.35;(0, 0);0;0;06:50:26:534;0;15;-1.5;1;0;0;0;0;1;1;1;1;0;0;0;0;0;0;0;0;0;();(-2000.0, -2000.0);
06:50:26:538;06:50:26:472;1448647596.35;(0, 0);0;0;06:50:26:538;0;15;-1.5;1;0;0;0;0;1;1;1;1;0;0;0;0;0;0;0;0;0;();(-2000.0, -2000.0);
06:50:26:541;06:50:26:541;1448647596.41;(0, 0);0;0;06:50:26:541;0;9;-1.5;1;0;0;0;0;1;1;1;1;0;0;0;0;0;0;0;0;0;();(-2000.0, -2000.0);
06:50:26:544;06:50:26:541;1448647596.41;(0, 0);0;0;06:50:26:544;0;5;-1.5;1;0;0;0;0;1;1;1;1;0;0;0;0;0;0;0;0;0;();(-2000.0, -2000.0);
06:50:26:545;06:50:26:541;1448647596.41;(0, 0);0;0;06:50:26:545;0;5;-1.5;1;0;0;0;0;1;1;1;1;0;0;0;0;0;0;0;0;0;();(-2000.0, -2000.0);
06:50:26:547;06:50:26:541;1448647596.41;(0, 0);0;0;06:50:26:547;0;5;-1.5;1;0;0;0;0;1;1;1;1;0;0;0;0;0;0;0;0;0;();(-2000.0, -2000.0);
06:50:26:548;06:50:26:541;1448647596.41;(0, 0);0;0;06:50:26:548;0;5;-1.5;1;0;0;0;0;1;1;1;1;0;0;0;0;0;0;0;0;0;();(-2000.0, -2000.0);
06:50:26:550;06:50:26:541;1448647596.41;(0, 0);0;0;06:50:26:550;0;5;-1.5;1;0;0;0;0;1;1;1;1;0;0;0;0;0;0;0;0;0;();(-2000.0, -2000.0);
06:50:26:551;06:50:26:541;1448647596.41;(0, 0);0;0;06:50:26:551;0;5;-1.5;1;0;0;0;0;1;1;1;1;0;0;0;0;0;0;0;0;0;();(-2000.0, -2000.0);
06:50:26:553;06:50:26:541;1448647596.41;(0, 0);0;0;06:50:26:553;0;5;-1.5;1;0;0;0;0;1;1;1;1;0;0;0;0;0;0;0;0;0;();(-2000.0, -2000.0);
06:50:26:555;06:50:26:541;1448647596.41;(0, 0);0;0;06:50:26:555;0;5;-1.5;1;0;0;0;0;1;1;1;1;0;0;0;0;0;0;0;0;0;();(-2000.0, -2000.0);
06:50:26:566;06:50:26:541;1448647596.41;(0, 0);0;0;06:50:26:566;0;15;-1.5;1;0;0;0;0;1;1;1;1;0;0;0;0;0;0;0;0;0;();(-2000.0, -2000.0);
06:50:26:582;06:50:26:541;1448647596.41;(0, 0);0;0;06:50:26:582;0;4;-1.5;1.00589970501475;0;0;0;0;1;1;1;1;0;0;0;0;0;0;0;0;0;();(-2000.0, -2000.0);
06:50:26:617;06:50:26:606;1448647596.48;(0, 0);0;0;06:50:26:617;0;4;-1.5;1.0250501002004;0;0;0;0;1;1;1;1;0;0;0;0;0;0;0;0;0;();(-2000.0, -2000.0);
06:50:26:633;06:50:26:606;1448647596.48;(0, 0);0;0;06:50:26:633;0;4;-1.5;1.0250501002004;0;0;0;0;1;1;1;1;0;0;0;0;0;0;0;0;0;();(-2000.0, -2000.0);
06:50:26:650;06:50:26:606;1448647596.48;(0, 0);0;0;06:50:26:650;0;15;-1.5;1.03021148036254;0;0;0;0;1;1;1;1;0;0;0;0;0;0;0;0;0;();(-2000.0, -2000.0);
06:50:26:666;06:50:26:606;1448647596.48;(0, 0);0;0;06:50:26:666;0;15;-1.5;1.03021148036254;0;0;0;0;1;1;1;1;0;0;0;0;0;0;0;0;0;();(-2000.0, -2000.0);
06:50:26:683;06:50:26:674;1448647596.55;(0, 0);0;0;06:50:26:683;0;4;-1.5;1.03542510121457;0;0;0;0;1;1;1;1;0;0;0;0;0;0;0;0;0;();(-2000.0, -2000.0);
06:50:26:716;06:50:26:674;1448647596.55;(0, 0);0;0;06:50:26:716;0;15;-1.5;1.01387512388503;0;0;0;0;1;1;1;1;0;0;0;0;0;0;0;0;0;();(-2000.0, -2000.0);
06:50:26:734;06:50:26:674;1448647596.55;(0, 0);0;0;06:50:26:734;0;0;-1.5;1.00688976377953;0;0;0;0;1;1;1;1;0;0;0;0;0;0;0;0;0;();(-2000.0, -2000.0);
06:50:26:750;06:50:26:741;1448647596.61;(0, 0);0;0;06:50:26:750;0;7;-1.5;1.00294117647059;0;0;0;0;1;1;1;1;0;0;0;0;0;0;0;0;0;();(-2000.0, -2000.0);
06:50:26:767;06:50:26:741;1448647596.61;(0, 0);0;0;06:50:26:767;0;9;-1.5;1;0;0;0;0;1;1;1;1;0;0;0;0;0;0;0;0;0;();(-2000.0, -2000.0);
06:50:26:784;06:50:26:741;1448647596.61;(0, 0);0;0;06:50:26:784;0;0;-1.5;1;0;0;0;0;1;1;1;1;0;0;0;0;0;0;0;0;0;();(-2000.0, -2000.0);
06:50:26:816;06:50:26:805;1448647596.68;(0, 0);0;0;06:50:26:816;0;15;-1.5;1.00589970501475;0;0;0;0;1;1;1;1;0;0;0;0;0;0;0;0;0;();(-2000.0, -2000.0);
06:50:26:833;06:50:26:805;1448647596.68;(0, 0);0;0;06:50:26:833;0;10;-1.5;1.01387512388503;0;0;0;0;1;1;1;1;0;0;0;0;0;0;0;0;0;();(-2000.0, -2000.0);
06:50:26:850;06:50:26:805;1448647596.68;(0, 0);0;0;06:50:26:850;0;0;-1.5;1.03125;0;0;0;0;1;1;1;1;0;0;0;0;0;0;0;0;0;();(-2000.0, -2000.0);
06:50:26:867;06:50:26:805;1448647596.68;(0, 0);0;0;06:50:26:867;0;9;-1.5;1.03963414634146;0;0;0;0;1;1;1;1;0;0;0;0;0;0;0;0;0;();(-2000.0, -2000.0);
06:50:26:883;06:50:26:873;1448647596.75;(0, 0);0;0;06:50:26:883;0;15;-1.5;1.05246913580247;0;0;0;0;1;1;1;1;0;0;0;0;0;0;0;0;0;();(-2000.0, -2000.0);
06:50:26:917;06:50:26:873;1448647596.75;(0, 0);0;0;06:50:26:917;0;9;-1.5;1.04923076923077;0;0;0;0;1;1;1;1;0;0;0;0;0;0;0;0;0;();(-2000.0, -2000.0);
06:50:26:933;06:50:26:873;1448647596.75;(0, 0);0;0;06:50:26:933;0;4;-1.5;1.04708290685773;0;0;0;0;1;1;1;1;0;0;0;0;0;0;0;0;0;();(-2000.0, -2000.0);
06:50:26:950;06:50:26:936;1448647596.81;(0, 0);0;0;06:50:26:950;0;0;-1.5;1.03963414634146;0;0;0;0;1;1;1;1;0;0;0;0;0;0;0;0;0;();(-2000.0, -2000.0);
06:50:26:967;06:50:26:936;1448647596.81;(0, 0);0;0;06:50:26:967;0;5;-1.5;1.02402402402402;0;0;0;0;1;1;1;1;0;0;0;0;0;0;0;0;0;();(-2000.0, -2000.0);
06:50:26:984;06:50:26:936;1448647596.81;(0, 0);0;0;06:50:26:984;0;15;-1.5;1.01488095238095;0;0;0;0;1;1;1;1;0;0;0;0;0;0;0;0;0;();(-2000.0, -2000.0);
06:50:27:016;06:50:27:005;1448647596.88;(0, 0);0;0;06:50:27:016;0;9;-1.5;1;0;0;0;0;1;1;1;1;0;0;0;0;0;0;0;0;0;();(-2000.0, -2000.0);
06:50:27:034;06:50:27:005;1448647596.88;(0, 0);0;0;06:50:27:034;0;5;-1.5;1;0;0;0;0;1;1;1;1;0;0;0;0;0;0;0;0;0;();(-2000.0, -2000.0);
06:50:27:050;06:50:27:005;1448647596.88;(0, 0);0;0;06:50:27:050;0;10;-1.5;1;0;0;0;0;1;1;1;1;0;0;0;0;0;0;0;0;0;();(-2000.0, -2000.0);
06:50:27:067;06:50:27:005;1448647596.88;(0, 0);0;0;06:50:27:067;0;4;-1.5;1;0;0;0;0;1;1;1;1;0;0;0;0;0;0;0;0;0;();(-2000.0, -2000.0);
06:50:27:083;06:50:27:077;1448647596.95;(0, 0);0;0;06:50:27:083;0;9;-1.5;1;0;0;0;0;1;1;1;1;0;0;0;0;0;0;0;0;0;();(-2000.0, -2000.0);
06:50:27:117;06:50:27:077;1448647596.95;(0, 0);0;0;06:50:27:117;0;10;-1.5;1;0;0;0;0;1;1;1;1;0;0;0;0;0;0;0;0;0;();(-2000.0, -2000.0);
06:50:27:134;06:50:27:077;1448647596.95;(0, 0);0;0;06:50:27:134;0;15;-1.5;1;0;0;0;0;1;1;1;1;0;0;0;0;0;0;0;0;0;();(-2000.0, -2000.0);
06:50:27:150;06:50:27:137;1448647597.01;(0, 0);0;0;06:50:27:150;0;9;-1.5;1;0;0;0;0;1;1;1;1;0;0;0;0;0;0;0;0;0;();(-2000.0, -2000.0);
06:50:27:166;06:50:27:137;1448647597.01;(0, 0);0;0;06:50:27:166;0;15;-1.5;1;0;0;0;0;1;1;1;1;0;0;0;0;0;0;0;0;0;();(-2000.0, -2000.0);
06:50:27:184;06:50:27:137;1448647597.01;(0, 0);0;0;06:50:27:184;0;10;-1.5;1;0;0;0;0;1;1;1;1;0;0;0;0;0;0;0;0;0;();(-2000.0, -2000.0);
06:50:27:217;06:50:27:204;1448647597.08;(0, 0);0;0;06:50:27:217;0;10;-1.5;1;0;0;0;0;1;1;1;1;0;0;0;0;0;0;0;0;0;();(-2000.0, -2000.0);
06:50:27:234;06:50:27:204;1448647597.08;(0, 0);0;0;06:50:27:234;0;15;-1.5;1;0;0;0;0;1;1;1;1;0;0;0;0;0;0;0;0;0;();(-2000.0, -2000.0);
06:50:27:250;06:50:27:204;1448647597.08;(0, 0);0;0;06:50:27:250;0;9;-1.5;1;0;0;0;0;1;1;1;1;0;0;0;0;0;0;0;0;0;();(-2000.0, -2000.0);
06:50:27:266;06:50:27:204;1448647597.08;(0, 0);0;0;06:50:27:266;0;0;-1.5;1;0;0;0;0;1;1;1;1;0;0;0;0;0;0;0;0;0;();(-2000.0, -2000.0);
06:50:27:283;06:50:27:270;1448647597.15;(0, 0);0;0;06:50:27:283;0;5;-1.5;1;0;0;0;0;1;1;1;1;0;0;0;0;0;0;0;0;0;();(-2000.0, -2000.0);
06:50:27:317;06:50:27:270;1448647597.15;(0, 0);0;0;06:50:27:317;0;10;-1.5;1;0;0;0;0;1;1;1;1;0;0;0;0;0;0;0;0;0;();(-2000.0, -2000.0);
06:50:27:334;06:50:27:270;1448647597.15;(0, 0);0;0;06:50:27:334;0;0;-1.5;1;0;0;0;0;1;1;1;1;0;0;0;0;0;0;0;0;0;();(-2000.0, -2000.0);
06:50:27:350;06:50:27:270;1448647597.15;(0, 0);0;0;06:50:27:350;0;5;-1.5;1.00097847358121;0;0;0;0;1;1;1;1;0;0;0;0;0;0;0;0;0;();(-2000.0, -2000.0);
06:50:27:367;06:50:27:270;1448647597.15;(0, 0);0;0;06:50:27:367;0;15;-1.5;1.00294117647059;0;0;0;0;1;1;1;1;0;0;0;0;0;0;0;0;0;();(-2000.0, -2000.0);
06:50:27:384;06:50:27:368;1448647597.21;(0, 0);0;0;06:50:27:384;0;4;-1.5;1.00688976377953;0;0;0;0;1;1;1;1;0;0;0;0;0;0;0;0;0;();(-2000.0, -2000.0);
06:50:27:417;06:50:27:368;1448647597.21;(0, 0);0;0;06:50:27:417;0;5;-1.5;1.00294117647059;0;0;0;0;1;1;1;1;0;0;0;0;0;0;0;0;0;();(-2000.0, -2000.0);
06:50:27:435;06:50:27:423;1448647597.28;(0, 0);0;0;06:50:27:435;0;0;-1.5;1.00097847358121;0;0;0;0;1;1;1;1;0;0;0;0;0;0;0;0;0;();(-2000.0, -2000.0);
06:50:27:451;06:50:27:423;1448647597.28;(0, 0);0;0;06:50:27:451;0;5;-1.5;1;0;0;0;0;1;1;1;1;0;0;0;0;0;0;0;0;0;();(-2000.0, -2000.0);
06:50:27:467;06:50:27:423;1448647597.28;(0, 0);0;0;06:50:27:467;0;10;-1.5;1;0;0;0;0;1;1;1;1;0;0;0;0;0;0;0;0;0;();(-2000.0, -2000.0);
06:50:27:484;06:50:27:469;1448647597.35;(0, 0);0;0;06:50:27:484;0;15;-1.5;1;0;0;0;0;1;1;1;1;0;0;0;0;0;0;0;0;0;();(-2000.0, -2000.0);
06:50:27:517;06:50:27:469;1448647597.35;(0, 0);0;0;06:50:27:517;0;5;-1.5;1;0;0;0;0;1;1;1;1;0;0;0;0;0;0;0;0;0;();(-2000.0, -2000.0);
06:50:27:534;06:50:27:469;1448647597.35;(0, 0);0;0;06:50:27:534;0;10;-1.5;1;0;0;0;0;1;1;1;1;0;0;0;0;0;0;0;0;0;();(-2000.0, -2000.0);
06:50:27:550;06:50:27:536;1448647597.41;(0, 0);0;0;06:50:27:550;0;15;-1.5;1;0;0;0;0;1;1;1;1;0;0;0;0;0;0;0;0;0;();(-2000.0, -2000.0);
06:50:27:568;06:50:27:536;1448647597.41;(0, 0);0;0;06:50:27:568;0;4;-1.5;1;0;0;0;0;1;1;1;1;0;0;0;0;0;0;0;0;0;();(-2000.0, -2000.0);
06:50:27:584;06:50:27:536;1448647597.41;(0, 0);0;0;06:50:27:584;0;4;-1.5;1;0;0;0;0;1;1;1;1;0;0;0;0;0;0;0;0;0;();(-2000.0, -2000.0);
06:50:27:618;06:50:27:601;1448647597.48;(0, 0);0;0;06:50:27:618;0;15;-1.5;1;0;0;0;0;1;1;1;1;0;0;0;0;0;0;0;0;0;();(-2000.0, -2000.0);
06:50:27:634;06:50:27:601;1448647597.48;(0, 0);0;0;06:50:27:634;0;4;-1.5;1.00589970501475;0;0;0;0;1;1;1;1;0;0;0;0;0;0;0;0;0;();(-2000.0, -2000.0);
06:50:27:650;06:50:27:601;1448647597.48;(0, 0);0;0;06:50:27:650;0;0;-1.5;1.01387512388503;0;0;0;0;1;1;1;1;0;0;0;0;0;0;0;0;0;();(-2000.0, -2000.0);
06:50:27:668;06:50:27:601;1448647597.48;(0, 0);0;0;06:50:27:668;0;5;-1.5;1.02402402402402;0;0;0;0;1;1;1;1;0;0;0;0;0;0;0;0;0;();(-2000.0, -2000.0);
06:50:27:684;06:50:27:669;1448647597.55;(0, 0);0;0;06:50:27:684;0;10;-1.5;1.03125;0;0;0;0;1;1;1;1;0;0;0;0;0;0;0;0;0;();(-2000.0, -2000.0);
06:50:27:717;06:50:27:669;1448647597.55;(0, 0);0;0;06:50:27:717;0;9;-1.5;1.03963414634146;0;0;0;0;1;1;1;1;0;0;0;0;0;0;0;0;0;();(-2000.0, -2000.0);
06:50:27:734;06:50:27:669;1448647597.55;(0, 0);0;0;06:50:27:734;0;5;-1.5;1.03963414634146;0;0;0;0;1;1;1;1;0;0;0;0;0;0;0;0;0;();(-2000.0, -2000.0);
06:50:27:751;06:50:27:737;1448647597.61;(0, 0);0;0;06:50:27:751;0;10;-1.5;1.02814070351759;0;0;0;0;1;1;1;1;0;0;0;0;0;0;0;0;0;();(-2000.0, -2000.0);
06:50:27:768;06:50:27:737;1448647597.61;(0, 0);0;0;06:50:27:768;0;4;-1.5;1.01892430278884;0;0;0;0;1;1;1;1;0;0;0;0;0;0;0;0;0;();(-2000.0, -2000.0);
06:50:27:784;06:50:27:737;1448647597.61;(0, 0);0;0;06:50:27:784;0;15;-1.5;1.01488095238095;0;0;0;0;1;1;1;1;0;0;0;0;0;0;0;0;0;();(-2000.0, -2000.0);
06:50:27:819;06:50:27:801;1448647597.68;(0, 0);0;0;06:50:27:819;0;8;-1.5;1;0;0;0;0;1;1;1;1;0;0;0;0;0;0;0;0;0;();(-2000.0, -2000.0);
06:50:27:834;06:50:27:801;1448647597.68;(0, 0);0;0;06:50:27:834;0;5;-1.5;1;0;0;0;0;1;1;1;1;0;0;0;0;0;0;0;0;0;();(-2000.0, -2000.0);
06:50:27:851;06:50:27:801;1448647597.68;(0, 0);0;0;06:50:27:851;0;10;-1.5;1;0;0;0;0;1;1;1;1;0;0;0;0;0;0;0;0;0;();(-2000.0, -2000.0);
06:50:27:867;06:50:27:801;1448647597.68;(0, 0);0;0;06:50:27:867;0;15;-1.5;1.00097847358121;0;0;0;0;1;1;1;1;0;0;0;0;0;0;0;0;0;();(-2000.0, -2000.0);
06:50:27:884;06:50:27:868;1448647597.75;(0, 0);0;0;06:50:27:884;0;9;-1.5;1.00688976377953;0;0;0;0;1;1;1;1;0;0;0;0;0;0;0;0;0;();(-2000.0, -2000.0);
06:50:27:917;06:50:27:868;1448647597.75;(0, 0);0;0;06:50:27:917;0;4;-1.5;1.01387512388503;0;0;0;0;1;1;1;1;0;0;0;0;0;0;0;0;0;();(-2000.0, -2000.0);
06:50:27:934;06:50:27:933;1448647597.81;(0, 0);0;0;06:50:27:934;0;0;-1.5;1.0168986083499;0;0;0;0;1;1;1;1;0;0;0;0;0;0;0;0;0;();(-2000.0, -2000.0);
06:50:27:951;06:50:27:933;1448647597.81;(0, 0);0;0;06:50:27:951;0;10;-1.5;1.02402402402402;0;0;0;0;1;1;1;1;0;0;0;0;0;0;0;0;0;();(-2000.0, -2000.0);
06:50:27:968;06:50:27:933;1448647597.81;(0, 0);0;0;06:50:27:968;0;0;-1.5;1.0250501002004;0;0;0;0;1;1;1;1;0;0;0;0;0;0;0;0;0;();(-2000.0, -2000.0);
06:50:27:984;06:50:27:933;1448647597.81;(0, 0);0;0;06:50:27:984;0;10;-1.5;1.01994017946162;0;0;0;0;1;1;1;1;0;0;0;0;0;0;0;0;0;();(-2000.0, -2000.0);
06:50:28:018;06:50:28:001;1448647597.88;(0, 0);0;0;06:50:28:018;0;9;-1.5;1.00688976377953;0;0;0;0;1;1;1;1;0;0;0;0;0;0;0;0;0;();(-2000.0, -2000.0);
06:50:28:034;06:50:28:001;1448647597.88;(0, 0);0;0;06:50:28:034;0;15;-1.5;1.00097847358121;0;0;0;0;1;1;1;1;0;0;0;0;0;0;0;0;0;();(-2000.0, -2000.0);
06:50:28:236;06:50:28:201;1448647598.08;(0, 0);0;0;06:50:28:236;0;10;-1.5;1.01488095238095;0;0;0;0;1;1;1;1;0;0;0;0;0;0;0;0;0;();(-2000.0, -2000.0);
06:50:28:239;06:50:28:201;1448647598.08;(0, 0);0;0;06:50:28:239;0;10;-1.5;1.01488095238095;0;0;0;0;1;1;1;1;0;0;0;0;0;0;0;0;0;();(-2000.0, -2000.0);
06:50:28:243;06:50:28:201;1448647598.08;(0, 0);0;0;06:50:28:243;0;10;-1.5;1.01488095238095;0;0;0;0;1;1;1;1;0;0;0;0;0;0;0;0;0;();(-2000.0, -2000.0);
06:50:28:246;06:50:28:201;1448647598.08;(0, 0);0;0;06:50:28:246;0;5;-1.5;1.01186943620178;0;0;0;0;1;1;1;1;0;0;0;0;0;0;0;0;0;();(-2000.0, -2000.0);
06:50:28:250;06:50:28:201;1448647598.08;(0, 0);0;0;06:50:28:250;0;15;-1.5;1.00688976377953;0;0;0;0;1;1;1;1;0;0;0;0;0;0;0;0;0;();(-2000.0, -2000.0);
06:50:28:254;06:50:28:201;1448647598.08;(0, 0);0;0;06:50:28:254;0;15;-1.5;1.00688976377953;0;0;0;0;1;1;1;1;0;0;0;0;0;0;0;0;0;();(-2000.0, -2000.0);
06:50:28:255;06:50:28:201;1448647598.08;(0, 0);0;0;06:50:28:255;0;15;-1.5;1.00688976377953;0;0;0;0;1;1;1;1;0;0;0;0;0;0;0;0;0;();(-2000.0, -2000.0);
06:50:28:257;06:50:28:201;1448647598.08;(0, 0);0;0;06:50:28:257;0;15;-1.5;1.00688976377953;0;0;0;0;1;1;1;1;0;0;0;0;0;0;0;0;0;();(-2000.0, -2000.0);
06:50:28:259;06:50:28:201;1448647598.08;(0, 0);0;0;06:50:28:259;0;15;-1.5;1.00688976377953;0;0;0;0;1;1;1;1;0;0;0;0;0;0;0;0;0;();(-2000.0, -2000.0);
06:50:28:261;06:50:28:201;1448647598.08;(0, 0);0;0;06:50:28:261;0;15;-1.5;1.00688976377953;0;0;0;0;1;1;1;1;0;0;0;0;0;0;0;0;0;();(-2000.0, -2000.0);
06:50:28:263;06:50:28:201;1448647598.08;(0, 0);0;0;06:50:28:263;0;10;-1.5;1.00294117647059;0;0;0;0;1;1;1;1;0;0;0;0;0;0;0;0;0;();(-2000.0, -2000.0);
06:50:28:264;06:50:28:201;1448647598.08;(0, 0);0;0;06:50:28:264;0;10;-1.5;1.00294117647059;0;0;0;0;1;1;1;1;0;0;0;0;0;0;0;0;0;();(-2000.0, -2000.0);
06:50:28:285;06:50:28:265;1448647598.15;(0, 0);0;0;06:50:28:285;0;15;-1.5;1;0;0;0;0;1;1;1;1;0;0;0;0;0;0;0;0;0;();(-2000.0, -2000.0);
06:50:28:317;06:50:28:265;1448647598.15;(0, 0);0;0;06:50:28:317;0;15;-1.5;1;0;0;0;0;1;1;1;1;0;0;0;0;0;0;0;0;0;();(-2000.0, -2000.0);
06:50:28:334;06:50:28:333;1448647598.21;(0, 0);0;0;06:50:28:334;0;10;-1.5;1;0;0;0;0;1;1;1;1;0;0;0;0;0;0;0;0;0;();(-2000.0, -2000.0);
06:50:28:351;06:50:28:333;1448647598.21;(0, 0);0;0;06:50:28:351;0;4;-1.5;1;0;0;0;0;1;1;1;1;0;0;0;0;0;0;0;0;0;();(-2000.0, -2000.0);
06:50:28:367;06:50:28:333;1448647598.21;(0, 0);0;0;06:50:28:367;0;10;-1.5;1;0;0;0;0;1;1;1;1;0;0;0;0;0;0;0;0;0;();(-2000.0, -2000.0);
06:50:28:384;06:50:28:333;1448647598.21;(0, 0);0;0;06:50:28:384;0;15;-1.5;1;0;0;0;0;1;1;1;1;0;0;0;0;0;0;0;0;0;();(-2000.0, -2000.0);
06:50:28:401;06:50:28:400;1448647598.28;(0, 0);0;0;06:50:28:401;0;4;-1.5;1;0;0;0;0;1;1;1;1;0;0;0;0;0;0;0;0;0;();(-2000.0, -2000.0);
06:50:28:434;06:50:28:400;1448647598.28;(0, 0);0;0;06:50:28:434;0;10;-1.5;1;0;0;0;0;1;1;1;1;0;0;0;0;0;0;0;0;0;();(-2000.0, -2000.0);
06:50:28:451;06:50:28:400;1448647598.28;(0, 0);0;0;06:50:28:451;0;0;-1.5;1;0;0;0;0;1;1;1;1;0;0;0;0;0;0;0;0;0;();(-2000.0, -2000.0);
06:50:28:468;06:50:28:465;1448647598.35;(0, 0);0;0;06:50:28:468;0;4;-1.5;1;0;0;0;0;1;1;1;1;0;0;0;0;0;0;0;0;0;();(-2000.0, -2000.0);
06:50:28:485;06:50:28:465;1448647598.35;(0, 0);0;0;06:50:28:485;0;15;-1.5;1;0;0;0;0;1;1;1;1;0;0;0;0;0;0;0;0;0;();(-2000.0, -2000.0);
06:50:28:501;06:50:28:465;1448647598.35;(0, 0);0;0;06:50:28:501;0;4;-1.5;1;0;0;0;0;1;1;1;1;0;0;0;0;0;0;0;0;0;();(-2000.0, -2000.0);
06:50:28:534;06:50:28:532;1448647598.41;(0, 0);0;0;06:50:28:534;0;5;-1.5;1;0;0;0;0;1;1;1;1;0;0;0;0;0;0;0;0;0;();(-2000.0, -2000.0);
06:50:28:551;06:50:28:532;1448647598.41;(0, 0);0;0;06:50:28:551;0;10;-1.5;1;0;0;0;0;1;1;1;1;0;0;0;0;0;0;0;0;0;();(-2000.0, -2000.0);
06:50:28:568;06:50:28:532;1448647598.41;(0, 0);0;0;06:50:28:568;0;5;-1.5;1;0;0;0;0;1;1;1;1;0;0;0;0;0;0;0;0;0;();(-2000.0, -2000.0);
06:50:28:584;06:50:28:532;1448647598.41;(0, 0);0;0;06:50:28:584;0;5;-1.5;1;0;0;0;0;1;1;1;1;0;0;0;0;0;0;0;0;0;();(-2000.0, -2000.0);
06:50:28:619;06:50:28:597;1448647598.48;(0, 0);0;0;06:50:28:619;0;9;-1.5;1;0;0;0;0;1;1;1;1;0;0;0;0;0;0;0;0;0;();(-2000.0, -2000.0);
06:50:28:635;06:50:28:597;1448647598.48;(0, 0);0;0;06:50:28:635;0;5;-1.5;1;0;0;0;0;1;1;1;1;0;0;0;0;0;0;0;0;0;();(-2000.0, -2000.0);
06:50:28:651;06:50:28:597;1448647598.48;(0, 0);0;0;06:50:28:651;0;10;-1.5;1;0;0;0;0;1;1;1;1;0;0;0;0;0;0;0;0;0;();(-2000.0, -2000.0);
06:50:28:668;06:50:28:665;1448647598.55;(0, 0);0;0;06:50:28:668;0;4;-1.5;1.00097847358121;0;0;0;0;1;1;1;1;0;0;0;0;0;0;0;0;0;();(-2000.0, -2000.0);
06:50:28:684;06:50:28:665;1448647598.55;(0, 0);0;0;06:50:28:684;0;9;-1.5;1.00294117647059;0;0;0;0;1;1;1;1;0;0;0;0;0;0;0;0;0;();(-2000.0, -2000.0);
06:50:28:701;06:50:28:665;1448647598.55;(0, 0);0;0;06:50:28:701;0;15;-1.5;1.00294117647059;0;0;0;0;1;1;1;1;0;0;0;0;0;0;0;0;0;();(-2000.0, -2000.0);
06:50:28:735;06:50:28:732;1448647598.61;(0, 0);0;0;06:50:28:735;0;15;-1.5;1;0;0;0;0;1;1;1;1;0;0;0;0;0;0;0;0;0;();(-2000.0, -2000.0);
06:50:28:752;06:50:28:732;1448647598.61;(0, 0);0;0;06:50:28:752;0;4;-1.5;1;0;0;0;0;1;1;1;1;0;0;0;0;0;0;0;0;0;();(-2000.0, -2000.0);
06:50:28:768;06:50:28:732;1448647598.61;(0, 0);0;0;06:50:28:768;0;0;-1.5;1;0;0;0;0;1;1;1;1;0;0;0;0;0;0;0;0;0;();(-2000.0, -2000.0);
06:50:28:785;06:50:28:732;1448647598.61;(0, 0);0;0;06:50:28:785;0;9;-1.5;1;0;0;0;0;1;1;1;1;0;0;0;0;0;0;0;0;0;();(-2000.0, -2000.0);
06:50:28:801;06:50:28:797;1448647598.68;(0, 0);0;0;06:50:28:801;0;15;-1.5;1.00097847358121;0;0;0;0;1;1;1;1;0;0;0;0;0;0;0;0;0;();(-2000.0, -2000.0);
06:50:28:834;06:50:28:797;1448647598.68;(0, 0);0;0;06:50:28:834;0;15;-1.5;1.00294117647059;0;0;0;0;1;1;1;1;0;0;0;0;0;0;0;0;0;();(-2000.0, -2000.0);
06:50:28:851;06:50:28:797;1448647598.68;(0, 0);0;0;06:50:28:851;0;4;-1.5;1.00097847358121;0;0;0;0;1;1;1;1;0;0;0;0;0;0;0;0;0;();(-2000.0, -2000.0);
06:50:28:868;06:50:28:865;1448647598.75;(0, 0);0;0;06:50:28:868;0;0;-1.5;1;0;0;0;0;1;1;1;1;0;0;0;0;0;0;0;0;0;();(-2000.0, -2000.0);
06:50:28:884;06:50:28:865;1448647598.75;(0, 0);0;0;06:50:28:884;0;5;-1.5;1;0;0;0;0;1;1;1;1;0;0;0;0;0;0;0;0;0;();(-2000.0, -2000.0);
06:50:28:901;06:50:28:865;1448647598.75;(0, 0);0;0;06:50:28:901;0;0;-1.5;1;0;0;0;0;1;1;1;1;0;0;0;0;0;0;0;0;0;();(-2000.0, -2000.0);
06:50:28:935;06:50:28:929;1448647598.81;(0, 0);0;0;06:50:28:935;0;10;-1.5;1;0;0;0;0;1;1;1;1;0;0;0;0;0;0;0;0;0;();(-2000.0, -2000.0);
06:50:28:951;06:50:28:929;1448647598.81;(0, 0);0;0;06:50:28:951;0;5;-1.5;1;0;0;0;0;1;1;1;1;0;0;0;0;0;0;0;0;0;();(-2000.0, -2000.0);
06:50:28:968;06:50:28:929;1448647598.81;(0, 0);0;0;06:50:28:968;0;15;-1.5;1;0;0;0;0;1;1;1;1;0;0;0;0;0;0;0;0;0;();(-2000.0, -2000.0);
06:50:28:984;06:50:28:929;1448647598.81;(0, 0);0;0;06:50:28:984;0;4;-1.5;1;0;0;0;0;1;1;1;1;0;0;0;0;0;0;0;0;0;();(-2000.0, -2000.0);
06:50:29:002;06:50:28:996;1448647598.88;(0, 0);0;0;06:50:29:002;0;9;-1.5;1;0;0;0;0;1;1;1;1;0;0;0;0;0;0;0;0;0;();(-2000.0, -2000.0);
06:50:29:035;06:50:28:996;1448647598.88;(0, 0);0;0;06:50:29:035;0;10;-1.5;1;0;0;0;0;1;1;1;1;0;0;0;0;0;0;0;0;0;();(-2000.0, -2000.0);
06:50:29:051;06:50:28:996;1448647598.88;(0, 0);0;0;06:50:29:051;0;15;-1.5;1;0;0;0;0;1;1;1;1;0;0;0;0;0;0;0;0;0;();(-2000.0, -2000.0);
06:50:29:073;06:50:29:064;1448647598.95;(0, 0);0;0;06:50:29:073;0;10;-1.5;1;0;0;0;0;1;1;1;1;2;01,42;0;0;0;0;0;0;0;();(-2000.0, -2000.0);
06:50:29:095;06:50:29:064;1448647598.95;(0, 0);0;0;06:50:29:095;0;15;-1.5;1;0;0;0;0;1;1;1;1;2;01,42;0;0;0;0;0;0;0;();(-2000.0, -2000.0);
06:50:29:119;06:50:29:064;1448647598.95;(0, 0);0;0;06:50:29:119;0;15;-1.5;1;0;0;0;0;1;1;1;1;2;01,42;0;0;0;0;0;0;0;();(-2000.0, -2000.0);
06:50:29:135;06:50:29:129;1448647599.01;(0, 0);0;0;06:50:29:135;0;10;-1.5;1;0;0;0;0;1;1;1;1;2;01,42;0;0;0;0;0;0;0;();(-2000.0, -2000.0);
06:50:29:152;06:50:29:129;1448647599.01;(0, 0);0;0;06:50:29:152;0;4;-1.5;1;0;0;0;0;1;1;1;1;2;01,42;0;0;0;0;0;0;0;();(-2000.0, -2000.0);
06:50:29:169;06:50:29:129;1448647599.01;(0, 0);0;0;06:50:29:169;0;9;-1.5;1;0;0;0;0;1;1;1;1;2;01,42;0;0;0;0;0;0;0;();(-2000.0, -2000.0);
06:50:29:185;06:50:29:129;1448647599.01;(0, 0);0;0;06:50:29:185;0;5;-1.5;1;0;0;0;0;1;1;1;1;2;01,42;0;0;0;0;0;0;0;();(-2000.0, -2000.0);
06:50:29:202;06:50:29:199;1448647599.08;(0.7610835552215576, 0.7350829654269748);22.2675571442;0.709970214507;06:50:29:202;0;5;-1.5;1;0;0;0;0;1;1;1;1;2;01,42;0;0;0;0;0;0;0;();(-2000.0, -2000.0);
06:50:29:235;06:50:29:199;1448647599.08;(0.7610835552215576, 0.7350829654269748);22.2675571442;0.709970214507;06:50:29:235;0;10;-1.5;1.00294117647059;0;0;0;0;1;1;1;1;2;01,42;0;0;0;0;0;0;0;();(-2000.0, -2000.0);
06:50:29:252;06:50:29:199;1448647599.08;(0.7610835552215576, 0.7350829654269748);22.2675571442;0.709970214507;06:50:29:252;0;0;-1.5;1.02402402402402;0;0;0;0;1;1;1;1;2;01,42;0;0;0;0;0;0;0;();(-2000.0, -2000.0);
06:50:29:268;06:50:29:261;1448647599.15;(0, 0);0;0;06:50:29:268;0;5;-1.5;1.03542510121457;0;0;0;0;1;1;1;1;2;01,42;0;0;0;0;0;0;0;();(-2000.0, -2000.0);
06:50:29:285;06:50:29:261;1448647599.15;(0, 0);0;0;06:50:29:285;0;15;-1.5;1.03963414634146;0;0;0;0;1;1;1;1;2;01,42;0;0;0;0;0;0;0;();(-2000.0, -2000.0);
06:50:29:302;06:50:29:261;1448647599.15;(0, 0);0;0;06:50:29:302;0;4;-1.5;1.03542510121457;0;0;0;0;1;1;1;1;2;01,42;0;0;0;0;0;0;0;();(-2000.0, -2000.0);
06:50:29:335;06:50:29:332;1448647599.21;(0, 0);0;0;06:50:29:335;0;5;-1.5;1.0168986083499;0;0;0;0;1;1;1;1;2;01,42;0;0;0;0;0;0;0;();(-2000.0, -2000.0);
06:50:29:352;06:50:29:332;1448647599.21;(0, 0);0;0;06:50:29:351;0;10;-1.5;1.00688976377953;0;0;0;0;1;1;1;1;2;01,42;0;0;0;0;0;0;0;();(-2000.0, -2000.0);
06:50:29:368;06:50:29:332;1448647599.21;(0, 0);0;0;06:50:29:368;0;5;-1.5;1.00294117647059;0;0;0;0;1;1;1;1;2;01,42;0;0;0;0;0;0;0;();(-2000.0, -2000.0);
06:50:29:385;06:50:29:332;1448647599.21;(0, 0);0;0;06:50:29:385;0;10;-1.5;1;0;0;0;0;1;1;1;1;2;01,42;0;0;0;0;0;0;0;();(-2000.0, -2000.0);
06:50:29:402;06:50:29:401;1448647599.28;(0, 0);0;0;06:50:29:402;0;15;-1.5;1;0;0;0;0;1;1;1;1;2;01,42;0;0;0;0;0;0;0;();(-2000.0, -2000.0);
06:50:29:435;06:50:29:401;1448647599.28;(0, 0);0;0;06:50:29:435;0;5;-1.5;1;0;0;0;0;1;1;1;1;2;01,42;0;0;0;0;0;0;0;();(-2000.0, -2000.0);
06:50:29:452;06:50:29:401;1448647599.28;(0, 0);0;0;06:50:29:452;0;10;-1.5;1;0;0;0;0;1;1;1;1;2;01,42;0;0;0;0;0;0;0;();(-2000.0, -2000.0);
06:50:29:468;06:50:29:461;1448647599.35;(0, 0);0;0;06:50:29:468;0;15;-1.5;1;0;0;0;0;1;1;1;1;2;01,42;0;0;0;0;0;0;0;();(-2000.0, -2000.0);
06:50:29:485;06:50:29:461;1448647599.35;(0, 0);0;0;06:50:29:485;0;9;-1.5;1.00294117647059;0;0;0;0;1;1;1;1;2;01,42;0;0;0;0;0;0;0;();(-2000.0, -2000.0);
06:50:29:502;06:50:29:461;1448647599.35;(0, 0);0;0;06:50:29:502;0;5;-1.5;1.00688976377953;0;0;0;0;1;1;1;1;2;01,42;0;0;0;0;0;0;0;();(-2000.0, -2000.0);
06:50:29:535;06:50:29:529;1448647599.41;(0, 0);0;0;06:50:29:535;0;15;-1.5;1.01892430278884;0;0;0;0;1;1;1;1;2;01,42;0;0;0;0;0;0;0;();(-2000.0, -2000.0);
06:50:29:552;06:50:29:529;1448647599.41;(0, 0);0;0;06:50:29:552;0;10;-1.5;1.02402402402402;0;0;0;0;1;1;1;1;2;01,42;0;0;0;0;0;0;0;();(-2000.0, -2000.0);
06:50:29:570;06:50:29:529;1448647599.41;(0, 0);0;0;06:50:29:570;0;15;-1.5;1.03542510121457;0.0977517106549365;0;0;0;1;1;1;1;2;01,42;0;0;0;0;0;0;0;();(-2000.0, -2000.0);
06:50:29:585;06:50:29:529;1448647599.41;(0, 0);0;0;06:50:29:585;0;5;-1.5;1.03542510121457;0;0;0;0;1;1;1;1;2;01,42;0;0;0;0;0;0;0;();(-2000.0, -2000.0);
06:50:29:602;06:50:29:593;1448647599.48;(0, 0);0;0;06:50:29:602;0;15;-1.5;1.03021148036254;0;0;0;0;1;1;1;1;2;01,42;0;0;0;0;0;0;0;();(-2000.0, -2000.0);
06:50:29:636;06:50:29:593;1448647599.48;(0, 0);0;0;06:50:29:636;0;15;-1.5;1.01186943620178;0;0;0;0;1;1;1;1;2;01,42;0;0;0;0;0;0;0;();(-2000.0, -2000.0);
06:50:29:652;06:50:29:593;1448647599.48;(0, 0);0;0;06:50:29:652;0;9;-1.5;1.00688976377953;0;0;0;0;1;1;1;1;2;01,42;0;0;0;0;0;0;0;();(-2000.0, -2000.0);
06:50:29:669;06:50:29:663;1448647599.55;(0, 0);0;0;06:50:29:669;0;0;-1.5;1;0;0;0;0;1;1;1;1;2;01,42;0;0;0;0;0;0;0;();(-2000.0, -2000.0);
06:50:29:685;06:50:29:663;1448647599.55;(0, 0);0;0;06:50:29:685;0;5;-1.5;1;0;0;0;0;1;1;1;1;2;01,42;0;0;0;0;0;0;0;();(-2000.0, -2000.0);
06:50:29:702;06:50:29:663;1448647599.55;(0, 0);0;0;06:50:29:702;0;15;-1.5;1;0;0;0;0;1;1;1;1;2;01,42;0;0;0;0;0;0;0;();(-2000.0, -2000.0);
06:50:29:735;06:50:29:725;1448647599.61;(0, 0);0;0;06:50:29:735;0;10;-1.5;1;0;0;0;0;1;1;1;1;2;01,42;0;0;0;0;0;0;0;();(-2000.0, -2000.0);
06:50:29:752;06:50:29:725;1448647599.61;(0, 0);0;0;06:50:29:752;0;5;-1.5;1;0;0;0;0;1;1;1;1;2;01,42;0;0;0;0;0;0;0;();(-2000.0, -2000.0);
06:50:29:769;06:50:29:725;1448647599.61;(0, 0);0;0;06:50:29:769;0;10;-1.5;1.00097847358121;0;0;0;0;1;1;1;1;2;01,42;0;0;0;0;0;0;0;();(-2000.0, -2000.0);
06:50:29:785;06:50:29:725;1448647599.61;(0, 0);0;0;06:50:29:785;0;4;-1.5;1.00294117647059;0;0;0;0;1;1;1;1;2;01,42;0;0;0;0;0;0;0;();(-2000.0, -2000.0);
06:50:29:802;06:50:29:792;1448647599.68;(0, 0);0;0;06:50:29:802;0;9;-1.5;1.00392541707556;0;0;0;0;1;1;1;1;2;01,42;0;0;0;0;0;0;0;();(-2000.0, -2000.0);
06:50:29:835;06:50:29:792;1448647599.68;(0, 0);0;0;06:50:29:835;0;10;-1.5;1.00294117647059;0;0;0;0;1;1;1;1;2;01,42;0;0;0;0;0;0;0;();(-2000.0, -2000.0);
06:50:29:852;06:50:29:792;1448647599.68;(0, 0);0;0;06:50:29:852;0;10;-1.5;1.00294117647059;0;0;0;0;1;1;1;1;2;01,42;0;0;0;0;0;0;0;();(-2000.0, -2000.0);
06:50:29:869;06:50:29:861;1448647599.75;(0, 0);0;0;06:50:29:869;0;15;-1.5;1;0;0;0;0;1;1;1;1;2;01,42;0;0;0;0;0;0;0;();(-2000.0, -2000.0);
06:50:29:886;06:50:29:861;1448647599.75;(0, 0);0;0;06:50:29:886;0;0;-1.5;1;0;0;0;0;1;1;1;1;2;01,42;0;0;0;0;0;0;0;();(-2000.0, -2000.0);
06:50:29:902;06:50:29:861;1448647599.75;(0, 0);0;0;06:50:29:902;0;9;-1.5;1;0;0;0;0;1;1;1;1;2;01,42;0;0;0;0;0;0;0;();(-2000.0, -2000.0);
06:50:29:936;06:50:29:928;1448647599.81;(0, 0);0;0;06:50:29:936;0;10;-1.5;1;0;0;0;0;1;1;1;1;2;01,42;0;0;0;0;0;0;0;();(-2000.0, -2000.0);
06:50:29:953;06:50:29:928;1448647599.81;(0, 0);0;0;06:50:29:953;0;14;-1.5;1;0;0;0;0;1;1;1;1;2;01,42;0;0;0;0;0;0;0;();(-2000.0, -2000.0);
06:50:29:969;06:50:29:928;1448647599.81;(0, 0);0;0;06:50:29:969;0;9;-1.5;1;0;0;0;0;1;1;1;1;2;01,42;0;0;0;0;0;0;0;();(-2000.0, -2000.0);
06:50:29:986;06:50:29:928;1448647599.81;(0, 0);0;0;06:50:29:986;0;0;-1.5;1;0;0;0;0;1;1;1;1;2;01,42;0;0;0;0;0;0;0;();(-2000.0, -2000.0);
06:50:30:003;06:50:29:993;1448647599.88;(0, 0);0;0;06:50:30:003;0;10;-1.5;1;0;0;0;0;1;1;1;1;2;01,42;0;0;0;0;0;0;0;();(-2000.0, -2000.0);
06:50:30:036;06:50:29:993;1448647599.88;(0, 0);0;0;06:50:30:036;0;4;-1.5;1.00688976377953;0;0;0;0;1;1;1;1;2;01,42;0;0;0;0;0;0;0;();(-2000.0, -2000.0);
06:50:30:052;06:50:29:993;1448647599.88;(0, 0);0;0;06:50:30:052;0;9;-1.5;1.00688976377953;0;0;0;0;1;1;1;1;2;01,42;0;0;0;0;0;0;0;();(-2000.0, -2000.0);
06:50:30:069;06:50:30:057;1448647599.91;(0, 0);0;0;06:50:30:069;0;5;-1.5;1.00688976377953;0;0;0;0;1;1;1;1;2;01,42;0;0;0;0;0;0;0;();(-2000.0, -2000.0);
06:50:30:086;06:50:30:057;1448647599.91;(0, 0);0;0;06:50:30:086;0;10;-1.5;1.00294117647059;0;0;0;0;1;1;1;1;2;01,42;0;0;0;0;0;0;0;();(-2000.0, -2000.0);
06:50:30:103;06:50:30:057;1448647599.91;(0, 0);0;0;06:50:30:103;0;4;-1.5;1.00097847358121;0;0;0;0;1;1;1;1;2;01,42;0;0;0;0;0;0;0;();(-2000.0, -2000.0);
06:50:30:136;06:50:30:125;1448647600.01;(0, 0);0;0;06:50:30:136;0;4;-1.5;1;0;0;0;0;1;1;1;1;2;01,42;0;0;0;0;0;0;0;();(-2000.0, -2000.0);
06:50:30:152;06:50:30:125;1448647600.01;(0, 0);0;0;06:50:30:152;0;10;-1.5;1;0;0;0;0;1;1;1;1;2;01,42;0;0;0;0;0;0;0;();(-2000.0, -2000.0);
06:50:30:170;06:50:30:125;1448647600.01;(0, 0);0;0;06:50:30:170;0;4;-1.5;1;0;0;0;0;1;1;1;1;2;01,42;0;0;0;0;0;0;0;();(-2000.0, -2000.0);
06:50:30:186;06:50:30:125;1448647600.01;(0, 0);0;0;06:50:30:186;0;9;-1.5;1;0;0;0;0;1;1;1;1;2;01,42;0;0;0;0;0;0;0;();(-2000.0, -2000.0);
06:50:30:203;06:50:30:193;1448647600.08;(0, 0);0;0;06:50:30:203;0;4;-1.5;1;0;0;0;0;1;1;1;1;2;01,42;0;0;0;0;0;0;0;();(-2000.0, -2000.0);
06:50:30:236;06:50:30:193;1448647600.08;(0, 0);0;0;06:50:30:236;0;5;-1.5;1;0;0;0;0;1;1;1;1;2;01,42;0;0;0;0;0;0;0;();(-2000.0, -2000.0);
06:50:30:252;06:50:30:193;1448647600.08;(0, 0);0;0;06:50:30:252;0;10;-1.5;1.00097847358121;0;0;0;0;1;1;1;1;2;01,42;0;0;0;0;0;0;0;();(-2000.0, -2000.0);
06:50:30:268;06:50:30:257;1448647600.15;(0, 0);0;0;06:50:30:268;0;4;-1.5;1.00097847358121;0;0;0;0;1;1;1;1;2;01,42;0;0;0;0;0;0;0;();(-2000.0, -2000.0);
06:50:30:286;06:50:30:257;1448647600.15;(0, 0);0;0;06:50:30:286;0;9;-1.5;1;0;0;0;0;1;1;1;1;2;01,42;0;0;0;0;0;0;0;();(-2000.0, -2000.0);
06:50:30:303;06:50:30:257;1448647600.15;(0, 0);0;0;06:50:30:303;0;4;-1.5;1;0;0;0;0;1;1;1;1;2;01,42;0;0;0;0;0;0;0;();(-2000.0, -2000.0);
06:50:30:337;06:50:30:324;1448647600.21;(0, 0);0;0;06:50:30:337;0;15;-1.5;1;0;0;0;0;1;1;1;1;2;01,42;0;0;0;0;0;0;0;();(-2000.0, -2000.0);
06:50:30:353;06:50:30:324;1448647600.21;(0, 0);0;0;06:50:30:352;0;10;-1.5;1;0;0;0;0;1;1;1;1;2;01,42;0;0;0;0;0;0;0;();(-2000.0, -2000.0);
06:50:30:370;06:50:30:324;1448647600.21;(0, 0);0;0;06:50:30:370;0;15;-1.5;1;0;0;0;0;1;1;1;1;2;01,42;0;0;0;0;0;0;0;();(-2000.0, -2000.0);
06:50:30:387;06:50:30:324;1448647600.21;(0, 0);0;0;06:50:30:387;0;4;-1.5;1;0;0;0;0;1;1;1;1;2;01,42;0;0;0;0;0;0;0;();(-2000.0, -2000.0);
06:50:30:403;06:50:30:389;1448647600.28;(0, 0);0;0;06:50:30:403;0;0;-1.5;1;0;0;0;0;1;1;1;1;2;01,42;0;0;0;0;0;0;0;();(-2000.0, -2000.0);
06:50:30:435;06:50:30:389;1448647600.28;(0, 0);0;0;06:50:30:435;0;15;-1.5;1;0;0;0;0;1;1;1;1;2;01,42;0;0;0;0;0;0;0;();(-2000.0, -2000.0);
06:50:30:453;06:50:30:389;1448647600.28;(0, 0);0;0;06:50:30:453;0;9;-1.5;1;0;0;0;0;1;1;1;1;2;01,42;0;0;0;0;0;0;0;();(-2000.0, -2000.0);
06:50:30:470;06:50:30:457;1448647600.35;(0.797404146194458, 0.6872959984673395);18.4732475281;0.8720322292;06:50:30:470;0;0;-1.5;1;0;0;0;0;1;1;1;1;2;01,42;0;0;0;0;0;0;0;();(-2000.0, -2000.0);
06:50:30:487;06:50:30:457;1448647600.35;(0.797404146194458, 0.6872959984673395);18.4732475281;0.8720322292;06:50:30:487;0;10;-1.5;1;0;0;0;0;1;1;1;1;2;01,42;0;0;0;0;0;0;0;();(-2000.0, -2000.0);
06:50:30:503;06:50:30:457;1448647600.35;(0.797404146194458, 0.6872959984673395);18.4732475281;0.8720322292;06:50:30:503;0;10;-1.5;1;0;0;0;0;1;1;1;1;2;01,42;0;0;0;0;0;0;0;();(-2000.0, -2000.0);
06:50:30:537;06:50:30:528;1448647600.41;(0, 0);0;0;06:50:30:537;0;9;-1.5;1;0;0;0;0;1;1;1;1;2;01,42;0;0;0;0;0;0;0;();(-2000.0, -2000.0);
06:50:30:553;06:50:30:528;1448647600.41;(0, 0);0;0;06:50:30:553;0;5;-1.5;1;0;0;0;0;1;1;1;1;2;01,42;0;0;0;0;0;0;0;();(-2000.0, -2000.0);
06:50:30:570;06:50:30:528;1448647600.41;(0, 0);0;0;06:50:30:570;0;10;-1.5;1;0;0;0;0;1;1;1;1;2;01,42;0;0;0;0;0;0;0;();(-2000.0, -2000.0);
06:50:30:587;06:50:30:528;1448647600.41;(0, 0);0;0;06:50:30:587;0;4;-1.5;1;0;0;0;0;1;1;1;1;2;01,42;0;0;0;0;0;0;0;();(-2000.0, -2000.0);
06:50:30:603;06:50:30:589;1448647600.48;(0, 0);0;0;06:50:30:603;0;9;-1.5;1;0;0;0;0;1;1;1;1;2;01,42;0;0;0;0;0;0;0;();(-2000.0, -2000.0);
06:50:30:637;06:50:30:589;1448647600.48;(0, 0);0;0;06:50:30:637;0;10;-1.5;1;0;0;0;0;1;1;1;1;2;01,42;0;0;0;0;0;0;0;();(-2000.0, -2000.0);
06:50:30:653;06:50:30:589;1448647600.48;(0, 0);0;0;06:50:30:653;0;15;-1.5;1;0;0;0;0;1;1;1;1;2;01,42;0;0;0;0;0;0;0;();(-2000.0, -2000.0);
06:50:30:670;06:50:30:658;1448647600.51;(0, 0);0;0;06:50:30:670;0;10;-1.5;1;0;0;0;0;1;1;1;1;2;01,42;0;0;0;0;0;0;0;();(-2000.0, -2000.0);
06:50:30:686;06:50:30:658;1448647600.51;(0, 0);0;0;06:50:30:686;0;15;-1.5;1;0;0;0;0;1;1;1;1;2;01,42;0;0;0;0;0;0;0;();(-2000.0, -2000.0);
06:50:30:703;06:50:30:658;1448647600.51;(0, 0);0;0;06:50:30:703;0;5;-1.5;1;0;0;0;0;1;1;1;1;2;01,42;0;0;0;0;0;0;0;();(-2000.0, -2000.0);
06:50:30:736;06:50:30:721;1448647600.61;(0, 0);0;0;06:50:30:736;0;10;-1.5;1;0;0;0;0;1;1;1;1;2;01,42;0;0;0;0;0;0;0;();(-2000.0, -2000.0);
06:50:30:753;06:50:30:721;1448647600.61;(0, 0);0;0;06:50:30:753;0;15;-1.5;1;0;0;0;0;1;1;1;1;2;01,42;0;0;0;0;0;0;0;();(-2000.0, -2000.0);
06:50:30:769;06:50:30:721;1448647600.61;(0, 0);0;0;06:50:30:769;0;9;-1.5;1;0;0;0;0;1;1;1;1;2;01,42;0;0;0;0;0;0;0;();(-2000.0, -2000.0);
06:50:30:786;06:50:30:721;1448647600.61;(0, 0);0;0;06:50:30:786;0;0;-1.5;1;0;0;0;0;1;1;1;1;2;01,42;0;0;0;0;0;0;0;();(-2000.0, -2000.0);
06:50:30:803;06:50:30:788;1448647600.65;(0, 0);0;0;06:50:30:803;0;4;-1.5;1.00097847358121;0;0;0;0;1;1;1;1;2;01,42;0;0;0;0;0;0;0;();(-2000.0, -2000.0);
06:50:30:836;06:50:30:788;1448647600.65;(0, 0);0;0;06:50:30:836;0;4;-1.5;1.02197802197802;0;0;0;0;1;1;1;1;2;01,42;0;0;0;0;0;0;0;();(-2000.0, -2000.0);
06:50:30:854;06:50:30:788;1448647600.65;(0, 0);0;0;06:50:30:854;0;9;-1.5;1.02402402402402;0;0;0;0;1;1;1;1;2;01,42;0;0;0;0;0;0;0;();(-2000.0, -2000.0);
06:50:30:870;06:50:30:859;1448647600.75;(0, 0);0;0;06:50:30:870;0;5;-1.5;1.02402402402402;0;0;0;0;1;1;1;1;2;01,42;0;0;0;0;0;0;0;();(-2000.0, -2000.0);
06:50:30:887;06:50:30:859;1448647600.75;(0, 0);0;0;06:50:30:887;0;10;-1.5;1.0168986083499;0;0;0;0;1;1;1;1;2;01,42;0;0;0;0;0;0;0;();(-2000.0, -2000.0);
06:50:30:904;06:50:30:859;1448647600.75;(0, 0);0;0;06:50:30:904;0;5;-1.5;1.01387512388503;0;0;0;0;1;1;1;1;2;01,42;0;0;0;0;0;0;0;();(-2000.0, -2000.0);
06:50:30:936;06:50:30:921;1448647600.78;(0, 0);0;0;06:50:30:936;0;5;-1.5;1.00294117647059;0;0;0;0;1;1;1;1;2;01,42;0;0;0;0;0;0;0;();(-2000.0, -2000.0);
06:50:30:953;06:50:30:921;1448647600.78;(0, 0);0;0;06:50:30:953;0;10;-1.5;1;0;0;0;0;1;1;1;1;2;01,42;0;0;0;0;0;0;0;();(-2000.0, -2000.0);
06:50:30:970;06:50:30:921;1448647600.78;(0, 0);0;0;06:50:30:970;0;4;-1.5;1;0;0;0;0;1;1;1;1;2;01,42;0;0;0;0;0;0;0;();(-2000.0, -2000.0);
06:50:30:987;06:50:30:921;1448647600.78;(0, 0);0;0;06:50:30:987;0;10;-1.5;1;0;0;0;0;1;1;1;1;2;01,42;0;0;0;0;0;0;0;();(-2000.0, -2000.0);
06:50:31:004;06:50:31:003;1448647600.88;(0, 0);0;0;06:50:31:004;0;4;-1.5;1;0;0;0;0;1;1;1;1;2;01,42;0;0;0;0;0;0;0;();(-2000.0, -2000.0);
06:50:31:037;06:50:31:003;1448647600.88;(0, 0);0;0;06:50:31:037;0;5;-1.5;1.00294117647059;0;0;0;0;1;1;1;1;2;01,42;0;0;0;0;0;0;0;();(-2000.0, -2000.0);
06:50:31:053;06:50:31:052;1448647600.91;(0, 0);0;0;06:50:31:053;0;10;-1.5;1.00688976377953;0;0;0;0;1;1;1;1;2;01,42;0;0;0;0;0;0;0;();(-2000.0, -2000.0);
06:50:31:070;06:50:31:052;1448647600.91;(0, 0);0;0;06:50:31:070;0;4;-1.5;1.00688976377953;0;0;0;0;1;1;1;1;2;01,42;0;0;0;0;0;0;0;();(-2000.0, -2000.0);
06:50:31:086;06:50:31:052;1448647600.91;(0, 0);0;0;06:50:31:086;0;9;-1.5;1.00688976377953;0;0;0;0;1;1;1;1;2;01,42;0;0;0;0;0;0;0;();(-2000.0, -2000.0);
06:50:31:103;06:50:31:052;1448647600.91;(0, 0);0;0;06:50:31:103;0;0;-1.5;1.00887573964497;0;0;0;0;1;1;1;1;2;01,42;0;0;0;0;0;0;0;();(-2000.0, -2000.0);
06:50:31:137;06:50:31:120;1448647601.01;(0, 0);0;0;06:50:31:137;0;5;-1.5;1.01488095238095;0;0;0;0;1;1;1;1;2;01,42;0;0;0;0;0;0;0;();(-2000.0, -2000.0);
06:50:31:153;06:50:31:120;1448647601.01;(0, 0);0;0;06:50:31:153;0;15;-1.5;1.0168986083499;0;0;0;0;1;1;1;1;2;01,42;0;0;0;0;0;0;0;();(-2000.0, -2000.0);
06:50:31:170;06:50:31:120;1448647601.01;(0, 0);0;0;06:50:31:170;0;0;-1.5;1.01186943620178;0;0;0;0;1;1;1;1;2;01,42;0;0;0;0;0;0;0;();(-2000.0, -2000.0);
06:50:31:187;06:50:31:120;1448647601.01;(0, 0);0;0;06:50:31:187;0;5;-1.5;1.00589970501475;0;0;0;0;1;1;1;1;2;01,42;0;0;0;0;0;0;0;();(-2000.0, -2000.0);
06:50:31:204;06:50:31:189;1448647601.08;(0, 0);0;0;06:50:31:204;0;10;-1.5;1;0;0;0;0;1;1;1;1;2;01,42;0;0;0;0;0;0;0;();(-2000.0, -2000.0);
06:50:31:237;06:50:31:189;1448647601.08;(0, 0);0;0;06:50:31:237;0;9;-1.5;1;0;0;0;0;1;1;1;1;2;01,42;0;0;0;0;0;0;0;();(-2000.0, -2000.0);
06:50:31:253;06:50:31:252;1448647601.15;(0, 0);0;0;06:50:31:253;0;9;-1.5;1;0;0;0;0;1;1;1;1;2;01,42;0;0;0;0;0;0;0;();(-2000.0, -2000.0);
06:50:31:270;06:50:31:252;1448647601.15;(0, 0);0;0;06:50:31:270;0;0;-1.5;1;0;0;0;0;1;1;1;1;2;01,42;0;0;0;0;0;0;0;();(-2000.0, -2000.0);
06:50:31:287;06:50:31:252;1448647601.15;(0, 0);0;0;06:50:31:287;0;5;-1.5;1;0;0;0;0;1;1;1;1;2;01,42;0;0;0;0;0;0;0;();(-2000.0, -2000.0);
06:50:31:303;06:50:31:252;1448647601.15;(0, 0);0;0;06:50:31:303;0;15;-1.5;1;0;0;0;0;1;1;1;1;2;01,42;0;0;0;0;0;0;0;();(-2000.0, -2000.0);
06:50:31:337;06:50:31:320;1448647601.18;(0, 0);0;0;06:50:31:337;0;9;-1.5;1.00294117647059;0;0;0;0;1;1;1;1;2;01,42;0;0;0;0;0;0;0;();(-2000.0, -2000.0);
06:50:31:353;06:50:31:320;1448647601.18;(0, 0);0;0;06:50:31:353;0;5;-1.5;1.00392541707556;0;0;0;0;1;1;1;1;2;01,42;0;0;0;0;0;0;0;();(-2000.0, -2000.0);
06:50:31:370;06:50:31:320;1448647601.18;(0, 0);0;0;06:50:31:370;0;10;-1.5;1.00589970501475;0;0;0;0;1;1;1;1;2;01,42;0;0;0;0;0;0;0;();(-2000.0, -2000.0);
06:50:31:387;06:50:31:385;1448647601.28;(0, 0);0;0;06:50:31:387;0;4;-1.5;1.00392541707556;0;0;0;0;1;1;1;1;2;01,42;0;0;0;0;0;0;0;();(-2000.0, -2000.0);
06:50:31:403;06:50:31:385;1448647601.28;(0, 0);0;0;06:50:31:403;0;10;-1.5;1.00294117647059;0;0;0;0;1;1;1;1;2;01,42;0;0;0;0;0;0;0;();(-2000.0, -2000.0);
06:50:31:437;06:50:31:385;1448647601.28;(0, 0);0;0;06:50:31:437;0;10;-1.5;1.00097847358121;0;0;0;0;1;1;1;1;2;01,42;0;0;0;0;0;0;0;();(-2000.0, -2000.0);
06:50:31:454;06:50:31:453;1448647601.35;(0, 0);0;0;06:50:31:454;0;10;-1.5;1.00097847358121;0;0;0;0;1;1;1;1;2;01,42;0;0;0;0;0;0;0;();(-2000.0, -2000.0);
06:50:31:471;06:50:31:453;1448647601.35;(0, 0);0;0;06:50:31:471;0;10;-1.5;1.00294117647059;0;0;0;0;1;1;1;1;2;01,42;0;0;0;0;0;0;0;();(-2000.0, -2000.0);
06:50:31:487;06:50:31:453;1448647601.35;(0, 0);0;0;06:50:31:487;0;15;-1.5;1.01186943620178;0;0;0;0;1;1;1;1;2;01,42;0;0;0;0;0;0;0;();(-2000.0, -2000.0);
06:50:31:504;06:50:31:453;1448647601.35;(0, 0);0;0;06:50:31:504;0;9;-1.5;1.01488095238095;0;0;0;0;1;1;1;1;2;01,42;0;0;0;0;0;0;0;();(-2000.0, -2000.0);
06:50:31:537;06:50:31:521;1448647601.38;(0, 0);0;0;06:50:31:537;0;10;-1.5;1.03963414634146;0;0;0;0;1;1;1;1;2;01,42;0;0;0;0;0;0;0;();(-2000.0, -2000.0);
06:50:31:554;06:50:31:521;1448647601.38;(0, 0);0;0;06:50:31:554;0;15;-1.5;1.05030800821355;0;0;0;0;1;1;1;1;2;01,42;0;0;0;0;0;0;0;();(-2000.0, -2000.0);
06:50:31:570;06:50:31:521;1448647601.38;(0, 0);0;0;06:50:31:570;0;9;-1.5;1.05791106514995;0;0;0;0;1;1;1;1;2;01,42;0;0;0;0;0;0;0;();(-2000.0, -2000.0);
06:50:31:588;06:50:31:586;1448647601.48;(0, 0);0;0;06:50:31:588;0;15;-1.5;1.06230529595016;0;0;0;0;1;1;1;1;2;01,42;0;0;0;0;0;0;0;();(-2000.0, -2000.0);
06:50:31:604;06:50:31:586;1448647601.48;(0, 0);0;0;06:50:31:604;0;15;-1.5;1.06230529595016;0;0;0;0;1;1;1;1;2;01,42;0;0;0;0;0;0;0;();(-2000.0, -2000.0);
06:50:31:637;06:50:31:586;1448647601.48;(0, 0);0;0;06:50:31:637;0;6;-1.5;1.065625;0;0;0;0;1;1;1;1;2;01,42;0;0;0;0;0;0;0;();(-2000.0, -2000.0);
06:50:31:654;06:50:31:586;1448647601.48;(0, 0);0;0;06:50:31:654;0;15;-1.5;1.065625;0;0;0;0;1;1;1;1;2;01,42;0;0;0;0;0;0;0;();(-2000.0, -2000.0);
06:50:31:671;06:50:31:656;1448647601.55;(0, 0);0;0;06:50:31:671;0;5;-1.5;1.05791106514995;0;0;0;0;1;1;1;1;2;01,42;0;0;0;0;0;0;0;();(-2000.0, -2000.0);
06:50:31:687;06:50:31:656;1448647601.55;(0, 0);0;0;06:50:31:687;0;10;-1.5;1.04175152749491;0;0;0;0;1;1;1;1;2;01,42;0;0;0;0;0;0;0;();(-2000.0, -2000.0);
06:50:31:704;06:50:31:656;1448647601.55;(0, 0);0;0;06:50:31:704;0;4;-1.5;1.065625;0;0;0;0;1;1;1;1;2;01,42;0;0;0;0;0;0;0;();(-2000.0, -2000.0);
06:50:31:737;06:50:31:717;1448647601.61;(0, 0);0;0;06:50:31:737;0;5;-1.5;1.00688976377953;0;0;0;0;1;1;1;1;2;01,42;0;0;0;0;0;0;0;();(-2000.0, -2000.0);
06:50:31:754;06:50:31:717;1448647601.61;(0, 0);0;0;06:50:31:754;0;0;-1.5;1.00294117647059;0;0;0;0;1;1;1;1;2;01,42;0;0;0;0;0;0;0;();(-2000.0, -2000.0);
06:50:31:770;06:50:31:717;1448647601.61;(0, 0);0;0;06:50:31:770;0;5;-1.5;1;0;0;0;0;1;1;1;1;2;01,42;0;0;0;0;0;0;0;();(-2000.0, -2000.0);
06:50:31:787;06:50:31:784;1448647601.65;(0, 0);0;0;06:50:31:787;0;5;-1.5;1;0;0;0;0;1;1;1;1;2;01,42;0;0;0;0;0;0;0;();(-2000.0, -2000.0);
06:50:31:804;06:50:31:784;1448647601.65;(0, 0);0;0;06:50:31:804;0;4;-1.5;1;0;0;0;0;1;1;1;1;2;01,42;0;0;0;0;0;0;0;();(-2000.0, -2000.0);
06:50:31:837;06:50:31:784;1448647601.65;(0, 0);0;0;06:50:31:837;0;15;-1.5;1;0;0;0;0;1;1;1;1;2;01,42;0;0;0;0;0;0;0;();(-2000.0, -2000.0);
06:50:31:854;06:50:31:784;1448647601.65;(0, 0);0;0;06:50:31:854;0;10;-1.5;1;0;0;0;0;1;1;1;1;2;01,42;0;0;0;0;0;0;0;();(-2000.0, -2000.0);
06:50:31:870;06:50:31:858;1448647601.71;(0.7781665802001954, 0.709734280904134);22.0544967651;0.695013676693;06:50:31:870;0;15;-1.5;1;0;0;0;0;1;1;1;1;2;01,42;0;0;0;0;0;0;0;();(-2000.0, -2000.0);
06:50:31:887;06:50:31:858;1448647601.71;(0.7781665802001954, 0.709734280904134);22.0544967651;0.695013676693;06:50:31:887;0;11;-1.5;1;0;0;0;0;1;1;1;1;2;01,42;0;0;0;0;0;0;0;();(-2000.0, -2000.0);
06:50:31:904;06:50:31:858;1448647601.71;(0.7781665802001954, 0.709734280904134);22.0544967651;0.695013676693;06:50:31:904;0;0;-1.5;1;0;0;0;0;1;1;1;1;2;01,42;0;0;0;0;0;0;0;();(-2000.0, -2000.0);
06:50:31:937;06:50:31:917;1448647601.78;(0, 0);0;0;06:50:31:937;0;15;-1.5;1;0;0;0;0;1;1;1;1;2;01,42;0;0;0;0;0;0;0;();(-2000.0, -2000.0);
06:50:31:954;06:50:31:917;1448647601.78;(0, 0);0;0;06:50:31:954;0;9;-1.5;1;0;0;0;0;1;1;1;1;2;01,42;0;0;0;0;0;0;0;();(-2000.0, -2000.0);
06:50:31:972;06:50:31:917;1448647601.78;(0, 0);0;0;06:50:31:972;0;15;-1.5;1;0;0;0;0;1;1;1;1;2;01,42;0;0;0;0;0;0;0;();(-2000.0, -2000.0);
06:50:31:988;06:50:31:985;1448647601.85;(0, 0);0;0;06:50:31:988;0;5;-1.5;1;0;0;0;0;1;1;1;1;2;01,42;0;0;0;0;0;0;0;();(-2000.0, -2000.0);
06:50:32:005;06:50:31:985;1448647601.85;(0, 0);0;0;06:50:32:005;0;10;-1.5;1.00392541707556;0;0;0;0;1;1;1;1;2;01,42;0;0;0;0;0;0;0;();(-2000.0, -2000.0);
06:50:32:021;06:50:31:985;1448647601.85;(0, 0);0;0;06:50:32:021;0;10;-1.5;1.00392541707556;0;0;0;0;1;1;1;1;2;01,42;0;0;0;0;0;0;0;();(-2000.0, -2000.0);
06:50:32:054;06:50:32:052;1448647601.91;(0, 0);0;0;06:50:32:054;0;4;-1.5;1.00887573964497;0;0;0;0;1;1;1;1;2;01,42;0;0;0;0;0;0;0;();(-2000.0, -2000.0);
06:50:32:071;06:50:32:052;1448647601.91;(0, 0);0;0;06:50:32:071;0;10;-1.5;1.00688976377953;0;0;0;0;1;1;1;1;2;01,42;0;0;0;0;0;0;0;();(-2000.0, -2000.0);
06:50:32:087;06:50:32:052;1448647601.91;(0, 0);0;0;06:50:32:087;0;5;-1.5;1.00294117647059;0;0;0;0;1;1;1;1;2;01,42;0;0;0;0;0;0;0;();(-2000.0, -2000.0);
06:50:32:104;06:50:32:052;1448647601.91;(0, 0);0;0;06:50:32:104;0;9;-1.5;1;0;0;0;0;1;1;1;1;2;01,42;0;0;0;0;0;0;0;();(-2000.0, -2000.0);
06:50:32:121;06:50:32:121;1448647601.98;(0, 0);0;0;06:50:32:121;0;9;-1.5;1;0;0;0;0;1;1;1;1;2;01,42;0;0;0;0;0;0;0;();(-2000.0, -2000.0);
06:50:32:155;06:50:32:121;1448647601.98;(0, 0);0;0;06:50:32:155;0;5;-1.5;1;0;0;0;0;1;1;1;1;2;01,42;0;0;0;0;0;0;0;();(-2000.0, -2000.0);
06:50:32:171;06:50:32:121;1448647601.98;(0, 0);0;0;06:50:32:171;0;10;-1.5;1;0;0;0;0;1;1;1;1;2;01,42;0;0;0;0;0;0;0;();(-2000.0, -2000.0);
06:50:32:188;06:50:32:185;1448647602.08;(0, 0);0;0;06:50:32:188;0;4;-1.5;1;0;0;0;0;1;1;1;1;2;01,42;0;0;0;0;0;0;0;();(-2000.0, -2000.0);
06:50:32:205;06:50:32:185;1448647602.08;(0, 0);0;0;06:50:32:205;0;9;-1.5;1;0;0;0;0;1;1;1;1;2;01,42;0;0;0;0;0;0;0;();(-2000.0, -2000.0);
06:50:32:222;06:50:32:185;1448647602.08;(0, 0);0;0;06:50:32:222;0;5;-1.5;1;0;0;0;0;1;1;1;1;2;01,42;0;0;0;0;0;0;0;();(-2000.0, -2000.0);
06:50:32:255;06:50:32:248;1448647602.15;(0, 0);0;0;06:50:32:255;0;15;-1.5;1;0;0;0;0;1;1;1;1;2;01,42;0;0;0;0;0;0;0;();(-2000.0, -2000.0);
06:50:32:272;06:50:32:248;1448647602.15;(0, 0);0;0;06:50:32:272;0;4;-1.5;1;0;0;0;0;1;1;1;1;2;01,42;0;0;0;0;0;0;0;();(-2000.0, -2000.0);
06:50:32:286;06:50:32:248;1448647602.15;(0, 0);0;0;06:50:32:286;0;0;-1.5;1;0;0;0;0;1;1;1;1;2;01,42;0;0;0;0;0;0;0;();(-2000.0, -2000.0);
06:50:32:305;06:50:32:248;1448647602.15;(0, 0);0;0;06:50:32:305;0;9;-1.5;1;0;0;0;0;1;1;1;1;2;01,42;0;0;0;0;0;0;0;();(-2000.0, -2000.0);
06:50:32:322;06:50:32:317;1448647602.21;(0, 0);0;0;06:50:32:322;0;15;-1.5;1;0;0;0;0;1;1;1;1;2;01,42;0;0;0;0;0;0;0;();(-2000.0, -2000.0);
06:50:32:355;06:50:32:317;1448647602.21;(0, 0);0;0;06:50:32:355;0;15;-1.5;1;0;0;0;0;1;1;1;1;2;01,42;0;0;0;0;0;0;0;();(-2000.0, -2000.0);
06:50:32:371;06:50:32:317;1448647602.21;(0, 0);0;0;06:50:32:371;0;5;-1.5;1;0;0;0;0;1;1;1;1;2;01,42;0;0;0;0;0;0;0;();(-2000.0, -2000.0);
06:50:32:388;06:50:32:381;1448647602.25;(0, 0);0;0;06:50:32:388;0;5;-1.5;1;0;0;0;0;1;1;1;1;2;01,42;0;0;0;0;0;0;0;();(-2000.0, -2000.0);
06:50:32:405;06:50:32:381;1448647602.25;(0, 0);0;0;06:50:32:405;0;5;-1.5;1;0;0;0;0;1;1;1;1;2;01,42;0;0;0;0;0;0;0;();(-2000.0, -2000.0);
06:50:32:421;06:50:32:381;1448647602.25;(0, 0);0;0;06:50:32:421;0;5;-1.5;1;0;0;0;0;1;1;1;1;2;01,42;0;0;0;0;0;0;0;();(-2000.0, -2000.0);
06:50:32:455;06:50:32:450;1448647602.31;(0, 0);0;0;06:50:32:455;0;0;-1.5;1;0;0;0;0;1;1;1;1;2;01,42;0;0;0;0;0;0;0;();(-2000.0, -2000.0);
06:50:32:470;06:50:32:450;1448647602.31;(0, 0);0;0;06:50:32:470;0;4;-1.5;1;0;0;0;0;1;1;1;1;2;01,42;0;0;0;0;0;0;0;();(-2000.0, -2000.0);
06:50:32:489;06:50:32:450;1448647602.31;(0, 0);0;0;06:50:32:489;0;15;-1.5;1;0;0;0;0;1;1;1;1;2;01,42;0;0;0;0;0;0;0;();(-2000.0, -2000.0);
06:50:32:505;06:50:32:450;1448647602.31;(0, 0);0;0;06:50:32:505;0;4;-1.5;1;0;0;0;0;1;1;1;1;2;01,42;0;0;0;0;0;0;0;();(-2000.0, -2000.0);
06:50:32:522;06:50:32:513;1448647602.38;(0, 0);0;0;06:50:32:522;0;9;-1.5;1;0;0;0;0;1;1;1;1;2;01,42;0;0;0;0;0;0;0;();(-2000.0, -2000.0);
06:50:32:555;06:50:32:513;1448647602.38;(0, 0);0;0;06:50:32:555;0;10;-1.5;1;0;0;0;0;1;1;1;1;2;01,42;0;0;0;0;0;0;0;();(-2000.0, -2000.0);
06:50:32:572;06:50:32:513;1448647602.38;(0, 0);0;0;06:50:32:572;0;15;-1.5;1;0;0;0;0;1;1;1;1;2;01,42;0;0;0;0;0;0;0;();(-2000.0, -2000.0);
06:50:32:588;06:50:32:582;1448647602.45;(0, 0);0;0;06:50:32:588;0;9;-1.5;1;0;0;0;0;1;1;1;1;2;01,42;0;0;0;0;0;0;0;();(-2000.0, -2000.0);
06:50:32:605;06:50:32:582;1448647602.45;(0, 0);0;0;06:50:32:605;0;4;-1.5;1;0;0;0;0;1;1;1;1;2;01,42;0;0;0;0;0;0;0;();(-2000.0, -2000.0);
06:50:32:639;06:50:32:582;1448647602.45;(0, 0);0;0;06:50:32:639;0;15;-1.5;1;0;0;0;0;1;1;1;1;2;01,42;0;0;0;0;0;0;0;();(-2000.0, -2000.0);
06:50:32:655;06:50:32:649;1448647602.55;(0, 0);0;0;06:50:32:655;0;10;-1.5;1;0;0;0;0;1;1;1;1;2;01,42;0;0;0;0;0;0;0;();(-2000.0, -2000.0);
06:50:32:672;06:50:32:649;1448647602.55;(0, 0);0;0;06:50:32:672;0;8;-1.5;1;0;0;0;0;1;1;1;1;2;01,42;0;0;0;0;0;0;0;();(-2000.0, -2000.0);
06:50:32:688;06:50:32:649;1448647602.55;(0, 0);0;0;06:50:32:688;0;9;-1.5;1;0;0;0;0;1;1;1;1;2;01,42;0;0;0;0;0;0;0;();(-2000.0, -2000.0);
06:50:32:704;06:50:32:649;1448647602.55;(0, 0);0;0;06:50:32:704;0;0;-1.5;1;0;0;0;0;1;1;1;1;2;01,42;0;0;0;0;0;0;0;();(-2000.0, -2000.0);
06:50:32:722;06:50:32:712;1448647602.61;(0, 0);0;0;06:50:32:722;0;5;-1.5;1;0;0;0;0;1;1;1;1;2;01,42;0;0;0;0;0;0;0;();(-2000.0, -2000.0);
06:50:32:754;06:50:32:712;1448647602.61;(0, 0);0;0;06:50:32:754;0;4;-1.5;1;0;0;0;0;1;1;1;1;2;01,42;0;0;0;0;0;0;0;();(-2000.0, -2000.0);
06:50:32:772;06:50:32:712;1448647602.61;(0, 0);0;0;06:50:32:772;0;9;-1.5;1;0;0;0;0;1;1;1;1;2;01,42;0;0;0;0;0;0;0;();(-2000.0, -2000.0);
06:50:32:789;06:50:32:781;1448647602.65;(0, 0);0;0;06:50:32:788;0;5;-1.5;1;0;0;0;0;1;1;1;1;2;01,42;0;0;0;0;0;0;0;();(-2000.0, -2000.0);
06:50:32:805;06:50:32:781;1448647602.65;(0, 0);0;0;06:50:32:805;0;10;-1.5;1;0;0;0;0;1;1;1;1;2;01,42;0;0;0;0;0;0;0;();(-2000.0, -2000.0);
06:50:32:822;06:50:32:781;1448647602.65;(0, 0);0;0;06:50:32:822;0;4;-1.5;1;0;0;0;0;1;1;1;1;2;01,42;0;0;0;0;0;0;0;();(-2000.0, -2000.0);
06:50:32:855;06:50:32:845;1448647602.71;(0, 0);0;0;06:50:32:855;0;5;-1.5;1;0;0;0;0;1;1;1;1;2;01,42;0;0;0;0;0;0;0;();(-2000.0, -2000.0);
06:50:32:871;06:50:32:845;1448647602.71;(0, 0);0;0;06:50:32:871;0;10;-1.5;1;0;0;0;0;1;1;1;1;2;01,42;0;0;0;0;0;0;0;();(-2000.0, -2000.0);
06:50:32:888;06:50:32:845;1448647602.71;(0, 0);0;0;06:50:32:888;0;5;-1.5;1;0;0;0;0;1;1;1;1;2;01,42;0;0;0;0;0;0;0;();(-2000.0, -2000.0);
06:50:32:905;06:50:32:845;1448647602.71;(0, 0);0;0;06:50:32:905;0;9;-1.5;1;0;0;0;0;1;1;1;1;2;01,42;0;0;0;0;0;0;0;();(-2000.0, -2000.0);
06:50:32:921;06:50:32:912;1448647602.78;(0, 0);0;0;06:50:32:921;0;4;-1.5;1;0;0;0;0;1;1;1;1;2;01,42;0;0;0;0;0;0;0;();(-2000.0, -2000.0);
06:50:32:955;06:50:32:912;1448647602.78;(0, 0);0;0;06:50:32:955;0;5;-1.5;1;0;0;0;0;1;1;1;1;2;01,42;0;0;0;0;0;0;0;();(-2000.0, -2000.0);
06:50:32:971;06:50:32:912;1448647602.78;(0, 0);0;0;06:50:32:971;0;10;-1.5;1;0;0;0;0;1;1;1;1;2;01,42;0;0;0;0;0;0;0;();(-2000.0, -2000.0);
06:50:32:988;06:50:32:984;1448647602.85;(0.131085205078125, 0.7041060977511936);20.0412502289;0.747581617446;06:50:32:988;0;15;-1.5;1;0;0;0;0;1;1;1;1;2;01,42;0;0;0;0;0;0;0;();(-2000.0, -2000.0);
06:50:33:005;06:50:32:984;1448647602.85;(0.131085205078125, 0.7041060977511936);20.0412502289;0.747581617446;06:50:33:005;0;10;-1.5;1;0;0;0;0;1;1;1;1;2;01,42;0;0;0;0;0;0;0;();(-2000.0, -2000.0);
06:50:33:021;06:50:32:984;1448647602.85;(0.131085205078125, 0.7041060977511936);20.0412502289;0.747581617446;06:50:33:021;0;0;-1.5;1;0;0;0;0;1;1;1;1;2;01,42;0;0;0;0;0;0;0;();(-2000.0, -2000.0);
06:50:33:055;06:50:33:045;1448647602.91;(0, 0);0;0;06:50:33:055;0;15;-1.5;1;0;0;0;0;1;1;1;1;2;01,42;0;0;0;0;0;0;0;();(-2000.0, -2000.0);
06:50:33:071;06:50:33:045;1448647602.91;(0, 0);0;0;06:50:33:071;0;15;-1.5;1;0;0;0;0;1;1;1;1;2;01,42;0;0;0;0;0;0;0;();(-2000.0, -2000.0);
06:50:33:088;06:50:33:045;1448647602.91;(0, 0);0;0;06:50:33:088;0;0;-1.5;1;0;0;0;0;1;1;1;1;2;01,42;0;0;0;0;0;0;0;();(-2000.0, -2000.0);
06:50:33:105;06:50:33:045;1448647602.91;(0, 0);0;0;06:50:33:105;0;5;-1.5;1;0;0;0;0;1;1;1;1;2;01,42;0;0;0;0;0;0;0;();(-2000.0, -2000.0);
06:50:33:122;06:50:33:117;1448647603.01;(0, 0);0;0;06:50:33:122;0;15;-1.5;1;0;0;0;0;1;1;1;1;2;01,42;0;0;0;0;0;0;0;();(-2000.0, -2000.0);
06:50:33:155;06:50:33:117;1448647603.01;(0, 0);0;0;06:50:33:155;0;10;-1.5;1;0;0;0;0;1;1;1;1;2;01,42;0;0;0;0;0;0;0;();(-2000.0, -2000.0);
06:50:33:172;06:50:33:117;1448647603.01;(0, 0);0;0;06:50:33:172;0;5;-1.5;1;0;0;0;0;1;1;1;1;2;01,42;0;0;0;0;0;0;0;();(-2000.0, -2000.0);
06:50:33:189;06:50:33:177;1448647603.05;(0, 0);0;0;06:50:33:189;0;15;-1.5;1;0;0;0;0;1;1;1;1;2;01,42;0;0;0;0;0;0;0;();(-2000.0, -2000.0);
06:50:33:206;06:50:33:177;1448647603.05;(0, 0);0;0;06:50:33:206;0;9;-1.5;1;0;0;0;0;1;1;1;1;2;01,42;0;0;0;0;0;0;0;();(-2000.0, -2000.0);
06:50:33:222;06:50:33:177;1448647603.05;(0, 0);0;0;06:50:33:222;0;10;-1.5;1;0;0;0;0;1;1;1;1;2;01,42;0;0;0;0;0;0;0;();(-2000.0, -2000.0);
06:50:33:255;06:50:33:246;1448647603.11;(0, 0);0;0;06:50:33:255;0;0;-1.5;1;0;0;0;0;1;1;1;1;2;01,42;0;0;0;0;0;0;0;();(-2000.0, -2000.0);
06:50:33:273;06:50:33:246;1448647603.11;(0, 0);0;0;06:50:33:273;0;5;-1.5;1;0;0;0;0;1;1;1;1;2;01,42;0;0;0;0;0;0;0;();(-2000.0, -2000.0);
06:50:33:288;06:50:33:246;1448647603.11;(0, 0);0;0;06:50:33:288;0;10;-1.5;1;0;0;0;0;1;1;1;1;2;01,42;0;0;0;0;0;0;0;();(-2000.0, -2000.0);
06:50:33:305;06:50:33:246;1448647603.11;(0, 0);0;0;06:50:33:305;0;4;-1.5;1;0;0;0;0;1;1;1;1;2;01,42;0;0;0;0;0;0;0;();(-2000.0, -2000.0);
06:50:33:339;06:50:33:313;1448647603.18;(0, 0);0;0;06:50:33:339;0;5;-1.5;1;0;0;0;0;1;1;1;1;2;01,42;0;0;0;0;0;0;0;();(-2000.0, -2000.0);
06:50:33:357;06:50:33:313;1448647603.18;(0, 0);0;0;06:50:33:357;0;10;-1.5;1;0;0;0;0;1;1;1;1;2;01,42;0;0;0;0;0;0;0;();(-2000.0, -2000.0);
06:50:33:372;06:50:33:313;1448647603.18;(0, 0);0;0;06:50:33:372;0;5;-1.5;1;0;0;0;0;1;1;1;1;2;01,42;0;0;0;0;0;0;0;();(-2000.0, -2000.0);
06:50:33:389;06:50:33:376;1448647603.25;(0, 0);0;0;06:50:33:389;0;10;-1.5;1;0;0;0;0;1;1;1;1;2;01,42;0;0;0;0;0;0;0;();(-2000.0, -2000.0);
06:50:33:405;06:50:33:376;1448647603.25;(0, 0);0;0;06:50:33:405;0;4;-1.5;1;0;0;0;0;1;1;1;1;2;01,42;0;0;0;0;0;0;0;();(-2000.0, -2000.0);
06:50:33:422;06:50:33:376;1448647603.25;(0, 0);0;0;06:50:33:422;0;9;-1.5;1;0;0;0;0;1;1;1;1;2;01,42;0;0;0;0;0;0;0;();(-2000.0, -2000.0);
06:50:33:456;06:50:33:453;1448647603.31;(0.9400888442993164, 0.39577882554796007);43.9415473938;0.615321155767;06:50:33:456;0;9;-1.5;1;0;0;0;0;1;1;1;1;2;01,42;0;0;0;0;0;0;0;();(-2000.0, -2000.0);
06:50:33:472;06:50:33:453;1448647603.31;(0.9400888442993164, 0.39577882554796007);43.9415473938;0.615321155767;06:50:33:472;0;15;-1.5;1;0;0;0;0;1;1;1;1;2;01,42;0;0;0;0;0;0;0;();(-2000.0, -2000.0);
06:50:33:489;06:50:33:453;1448647603.31;(0.9400888442993164, 0.39577882554796007);43.9415473938;0.615321155767;06:50:33:489;0;5;-1.5;1;0;0;0;0;1;1;1;1;2;01,42;0;0;0;0;0;0;0;();(-2000.0, -2000.0);
06:50:33:506;06:50:33:453;1448647603.31;(0.9400888442993164, 0.39577882554796007);43.9415473938;0.615321155767;06:50:33:506;0;0;-1.5;1;0;0;0;0;1;1;1;1;2;01,42;0;0;0;0;0;0;0;();(-2000.0, -2000.0);
06:50:33:523;06:50:33:508;1448647603.38;(0, 0);0;0;06:50:33:522;0;4;-1.5;1;0;0;0;0;1;1;1;1;2;01,42;0;0;0;0;0;0;0;();(-2000.0, -2000.0);
06:50:33:556;06:50:33:508;1448647603.38;(0, 0);0;0;06:50:33:556;0;4;-1.5;1;0;0;0;0;1;1;1;1;2;01,42;0;0;0;0;0;0;0;();(-2000.0, -2000.0);
06:50:33:572;06:50:33:508;1448647603.38;(0, 0);0;0;06:50:33:572;0;0;-1.5;1;0;0;0;0;1;1;1;1;2;01,42;0;0;0;0;0;0;0;();(-2000.0, -2000.0);
06:50:33:589;06:50:33:577;1448647603.45;(0, 0);0;0;06:50:33:589;0;5;-1.5;1;0;0;0;0;1;1;1;1;2;01,42;0;0;0;0;0;0;0;();(-2000.0, -2000.0);
06:50:33:606;06:50:33:577;1448647603.45;(0, 0);0;0;06:50:33:606;0;7;-1.5;1;0;0;0;0;1;1;1;1;2;01,42;0;0;0;0;0;0;0;();(-2000.0, -2000.0);
06:50:33:622;06:50:33:577;1448647603.45;(0, 0);0;0;06:50:33:622;0;5;-1.5;1;0;0;0;0;1;1;1;1;2;01,42;0;0;0;0;0;0;0;();(-2000.0, -2000.0);
06:50:33:656;06:50:33:644;1448647603.51;(0, 0);0;0;06:50:33:656;0;5;-1.5;1;0;0;0;0;1;1;1;1;2;01,42;0;0;0;0;0;0;0;();(-2000.0, -2000.0);
06:50:33:672;06:50:33:644;1448647603.51;(0, 0);0;0;06:50:33:672;0;10;-1.5;1;0;0;0;0;1;1;1;1;2;01,42;0;0;0;0;0;0;0;();(-2000.0, -2000.0);
06:50:33:689;06:50:33:644;1448647603.51;(0, 0);0;0;06:50:33:689;0;4;-1.5;1;0;0;0;0;1;1;1;1;2;01,42;0;0;0;0;0;0;0;();(-2000.0, -2000.0);
06:50:33:707;06:50:33:644;1448647603.51;(0, 0);0;0;06:50:33:707;0;4;-1.5;1;0;0;0;0;1;1;1;1;2;01,42;0;0;0;0;0;0;0;();(-2000.0, -2000.0);
06:50:33:723;06:50:33:709;1448647603.58;(0, 0);0;0;06:50:33:723;0;15;-1.5;1;0;0;0;0;1;1;1;1;2;01,42;0;0;0;0;0;0;0;();(-2000.0, -2000.0);
06:50:33:756;06:50:33:709;1448647603.58;(0, 0);0;0;06:50:33:756;0;5;-1.5;1;0;0;0;0;1;1;1;1;2;01,42;0;0;0;0;0;0;0;();(-2000.0, -2000.0);
06:50:33:772;06:50:33:709;1448647603.58;(0, 0);0;0;06:50:33:772;0;10;-1.5;1;0;0;0;0;1;1;1;1;2;01,42;0;0;0;0;0;0;0;();(-2000.0, -2000.0);
06:50:33:789;06:50:33:777;1448647603.65;(0, 0);0;0;06:50:33:789;0;15;-1.5;1;0;0;0;0;1;1;1;1;2;01,42;0;0;0;0;0;0;0;();(-2000.0, -2000.0);
06:50:33:806;06:50:33:777;1448647603.65;(0, 0);0;0;06:50:33:806;0;0;-1.5;1;0;0;0;0;1;1;1;1;2;01,42;0;0;0;0;0;0;0;();(-2000.0, -2000.0);
06:50:33:823;06:50:33:777;1448647603.65;(0, 0);0;0;06:50:33:823;0;5;-1.5;1;0;0;0;0;1;1;1;1;2;01,42;0;0;0;0;0;0;0;();(-2000.0, -2000.0);
06:50:33:856;06:50:33:841;1448647603.71;(0, 0);0;0;06:50:33:856;0;4;-1.5;1;0;0;0;0;1;1;1;1;2;01,42;0;0;0;0;0;0;0;();(-2000.0, -2000.0);
06:50:33:873;06:50:33:841;1448647603.71;(0, 0);0;0;06:50:33:873;0;10;-1.5;1;0;0;0;0;1;1;1;1;2;01,42;0;0;0;0;0;0;0;();(-2000.0, -2000.0);
06:50:33:890;06:50:33:841;1448647603.71;(0, 0);0;0;06:50:33:890;0;15;-1.5;1;0;0;0;0;1;1;1;1;2;01,42;0;0;0;0;0;0;0;();(-2000.0, -2000.0);
06:50:33:906;06:50:33:841;1448647603.71;(0, 0);0;0;06:50:33:906;0;5;-1.5;1;0.0977517106549365;0;0;0;1;1;1;1;2;01,42;0;0;0;0;0;0;0;();(-2000.0, -2000.0);
06:50:33:923;06:50:33:909;1448647603.78;(0, 0);0;0;06:50:33:923;0;5;-1.5;1;0.0977517106549365;0;0;0;1;1;1;1;2;01,42;0;0;0;0;0;0;0;();(-2000.0, -2000.0);
06:50:33:957;06:50:33:909;1448647603.78;(0, 0);0;0;06:50:33:957;0;10;-1.5;1;0;0;0;0;1;1;1;1;2;01,42;0;0;0;0;0;0;0;();(-2000.0, -2000.0);
06:50:33:973;06:50:33:909;1448647603.78;(0, 0);0;0;06:50:33:973;0;4;-1.5;1;0;0;0;0;1;1;1;1;2;01,42;0;0;0;0;0;0;0;();(-2000.0, -2000.0);
06:50:33:990;06:50:33:977;1448647603.85;(0, 0);0;0;06:50:33:990;0;0;-1.5;1;0;0;0;0;1;1;1;1;2;01,42;0;0;0;0;0;0;0;();(-2000.0, -2000.0);
06:50:34:006;06:50:33:977;1448647603.85;(0, 0);0;0;06:50:34:006;0;5;-1.5;1;0;0;0;0;1;1;1;1;2;01,42;0;0;0;0;0;0;0;();(-2000.0, -2000.0);
06:50:34:023;06:50:33:977;1448647603.85;(0, 0);0;0;06:50:34:022;0;15;-1.5;1;0;0;0;0;1;1;1;1;2;01,42;0;0;0;0;0;0;0;();(-2000.0, -2000.0);
06:50:34:056;06:50:34:041;1448647603.91;(0, 0);0;0;06:50:34:056;0;15;-1.5;1;0;0;0;0;1;1;1;1;2;01,42;0;0;0;0;0;0;0;();(-2000.0, -2000.0);
06:50:34:072;06:50:34:041;1448647603.91;(0, 0);0;0;06:50:34:072;0;10;-1.5;1;0;0;0;0;1;1;1;1;2;01,42;0;0;0;0;0;0;0;();(-2000.0, -2000.0);
06:50:34:089;06:50:34:041;1448647603.91;(0, 0);0;0;06:50:34:089;0;15;-1.5;1;0;0;0;0;1;1;1;1;2;01,42;0;0;0;0;0;0;0;();(-2000.0, -2000.0);
06:50:34:106;06:50:34:041;1448647603.91;(0, 0);0;0;06:50:34:106;0;4;-1.5;1;0;0;0;0;1;1;1;1;2;01,42;0;0;0;0;0;0;0;();(-2000.0, -2000.0);
06:50:34:122;06:50:34:111;1448647603.98;(0, 0);0;0;06:50:34:122;0;4;-1.5;1;0.0977517106549365;0;0;0;1;1;1;1;2;01,42;0;0;0;0;0;0;0;();(-2000.0, -2000.0);
06:50:34:156;06:50:34:111;1448647603.98;(0, 0);0;0;06:50:34:156;0;10;-1.5;1;0;0;0;0;1;1;1;1;2;01,42;0;0;0;0;0;0;0;();(-2000.0, -2000.0);
06:50:34:172;06:50:34:111;1448647603.98;(0, 0);0;0;06:50:34:172;0;15;-1.5;1;0;0;0;0;1;1;1;1;2;01,42;0;0;0;0;0;0;0;();(-2000.0, -2000.0);
06:50:34:189;06:50:34:172;1448647604.05;(0, 0);0;0;06:50:34:189;0;15;-1.5;1;0;0;0;0;1;1;1;1;2;01,42;0;0;0;0;0;0;0;();(-2000.0, -2000.0);
06:50:34:206;06:50:34:172;1448647604.05;(0, 0);0;0;06:50:34:206;0;14;-1.5;1;0;0;0;0;1;1;1;1;2;01,42;0;0;0;0;0;0;0;();(-2000.0, -2000.0);
06:50:34:223;06:50:34:172;1448647604.05;(0, 0);0;0;06:50:34:223;0;9;-1.5;1;0;0;0;0;1;1;1;1;2;01,42;0;0;0;0;0;0;0;();(-2000.0, -2000.0);
06:50:34:256;06:50:34:242;1448647604.11;(0, 0);0;0;06:50:34:256;0;10;-1.5;1;0;0;0;0;1;1;1;1;2;01,42;0;0;0;0;0;0;0;();(-2000.0, -2000.0);
06:50:34:272;06:50:34:242;1448647604.11;(0, 0);0;0;06:50:34:272;0;15;-1.5;1;0;0;0;0;1;1;1;1;2;01,42;0;0;0;0;0;0;0;();(-2000.0, -2000.0);
06:50:34:289;06:50:34:242;1448647604.11;(0, 0);0;0;06:50:34:289;0;4;-1.5;1;0;0;0;0;1;1;1;1;2;01,42;0;0;0;0;0;0;0;();(-2000.0, -2000.0);
06:50:34:307;06:50:34:242;1448647604.11;(0, 0);0;0;06:50:34:307;0;4;-1.5;1;0;0;0;0;1;1;1;1;2;01,42;0;0;0;0;0;0;0;();(-2000.0, -2000.0);
06:50:34:321;06:50:34:309;1448647604.18;(0, 0);0;0;06:50:34:321;0;0;-1.5;1;0;0;0;0;1;1;1;1;2;01,42;0;0;0;0;0;0;0;();(-2000.0, -2000.0);
06:50:34:356;06:50:34:309;1448647604.18;(0, 0);0;0;06:50:34:356;0;0;-1.5;1;0;0;0;0;1;1;1;1;2;01,42;0;0;0;0;0;0;0;();(-2000.0, -2000.0);
06:50:34:371;06:50:34:309;1448647604.18;(0, 0);0;0;06:50:34:371;0;0;-1.5;1;0;0;0;0;1;1;1;1;2;01,42;0;0;0;0;0;0;0;();(-2000.0, -2000.0);
06:50:34:390;06:50:34:373;1448647604.25;(0, 0);0;0;06:50:34:390;0;5;-1.5;1;0;0;0;0;1;1;1;1;2;01,42;0;0;0;0;0;0;0;();(-2000.0, -2000.0);
06:50:34:406;06:50:34:373;1448647604.25;(0, 0);0;0;06:50:34:406;0;15;-1.5;1;0.0977517106549365;0;0;0;1;1;1;1;2;01,42;0;0;0;0;0;0;0;();(-2000.0, -2000.0);
06:50:34:423;06:50:34:373;1448647604.25;(0, 0);0;0;06:50:34:423;0;4;-1.5;1;0;0;0;0;1;1;1;1;2;01,42;0;0;0;0;0;0;0;();(-2000.0, -2000.0);
06:50:34:457;06:50:34:443;1448647604.31;(0, 0);0;0;06:50:34:457;0;5;-1.5;1;0;0;0;0;1;1;1;1;2;01,42;0;0;0;0;0;0;0;();(-2000.0, -2000.0);
06:50:34:473;06:50:34:443;1448647604.31;(0, 0);0;0;06:50:34:473;0;10;-1.5;1;0;0;0;0;1;1;1;1;2;01,42;0;0;0;0;0;0;0;();(-2000.0, -2000.0);
06:50:34:490;06:50:34:443;1448647604.31;(0, 0);0;0;06:50:34:490;0;5;-1.5;1;0;0;0;0;1;1;1;1;2;01,42;0;0;0;0;0;0;0;();(-2000.0, -2000.0);
06:50:34:507;06:50:34:505;1448647604.38;(0, 0);0;0;06:50:34:507;0;9;-1.5;1;0;0;0;0;1;1;1;1;2;01,42;0;0;0;0;0;0;0;();(-2000.0, -2000.0);
06:50:34:523;06:50:34:505;1448647604.38;(0, 0);0;0;06:50:34:523;0;4;-1.5;1;0;0;0;0;1;1;1;1;2;01,42;0;0;0;0;0;0;0;();(-2000.0, -2000.0);
06:50:34:557;06:50:34:505;1448647604.38;(0, 0);0;0;06:50:34:557;0;5;-1.5;1;0;0;0;0;1;1;1;1;2;01,42;0;0;0;0;0;0;0;();(-2000.0, -2000.0);
06:50:34:573;06:50:34:573;1448647604.45;(0, 0);0;0;06:50:34:573;0;10;-1.5;1;0;0;0;0;1;1;1;1;2;01,42;0;0;0;0;0;0;0;();(-2000.0, -2000.0);
06:50:34:590;06:50:34:573;1448647604.45;(0, 0);0;0;06:50:34:590;0;14;-1.5;1;0;0;0;0;1;1;1;1;2;01,42;0;0;0;0;0;0;0;();(-2000.0, -2000.0);
06:50:34:607;06:50:34:573;1448647604.45;(0, 0);0;0;06:50:34:607;0;10;-1.5;1;0;0;0;0;1;1;1;1;2;01,42;0;0;0;0;0;0;0;();(-2000.0, -2000.0);
06:50:34:623;06:50:34:573;1448647604.45;(0, 0);0;0;06:50:34:623;0;15;-1.5;1;0;0;0;0;1;1;1;1;2;01,42;0;0;0;0;0;0;0;();(-2000.0, -2000.0);
06:50:34:655;06:50:34:640;1448647604.51;(0, 0);0;0;06:50:34:655;0;15;-1.5;1;0;0;0;0;1;1;1;1;2;01,42;0;0;0;0;0;0;0;();(-2000.0, -2000.0);
06:50:34:674;06:50:34:640;1448647604.51;(0, 0);0;0;06:50:34:674;0;4;-1.5;1;0;0;0;0;1;1;1;1;2;01,42;0;0;0;0;0;0;0;();(-2000.0, -2000.0);
06:50:34:690;06:50:34:640;1448647604.51;(0, 0);0;0;06:50:34:690;0;0;-1.5;1;0;0;0;0;1;1;1;1;2;01,42;0;0;0;0;0;0;0;();(-2000.0, -2000.0);
06:50:34:707;06:50:34:705;1448647604.58;(0, 0);0;0;06:50:34:707;0;5;-1.5;1;0;0;0;0;1;1;1;1;2;01,42;0;0;0;0;0;0;0;();(-2000.0, -2000.0);
06:50:34:723;06:50:34:705;1448647604.58;(0, 0);0;0;06:50:34:723;0;15;-1.5;1;0;0;0;0;1;1;1;1;2;01,42;0;0;0;0;0;0;0;();(-2000.0, -2000.0);
06:50:34:757;06:50:34:705;1448647604.58;(0, 0);0;0;06:50:34:757;0;15;-1.5;1;0;0;0;0;1;1;1;1;2;01,42;0;0;0;0;0;0;0;();(-2000.0, -2000.0);
06:50:34:773;06:50:34:705;1448647604.58;(0, 0);0;0;06:50:34:773;0;5;-1.5;1;0;0;0;0;1;1;1;1;2;01,42;0;0;0;0;0;0;0;();(-2000.0, -2000.0);
06:50:34:790;06:50:34:775;1448647604.65;(0, 0);0;0;06:50:34:790;0;0;-1.5;1;0;0;0;0;1;1;1;1;2;01,42;0;0;0;0;0;0;0;();(-2000.0, -2000.0);
06:50:34:807;06:50:34:775;1448647604.65;(0, 0);0;0;06:50:34:807;0;5;-1.5;1;0;0;0;0;1;1;1;1;2;01,42;0;0;0;0;0;0;0;();(-2000.0, -2000.0);
06:50:34:823;06:50:34:775;1448647604.65;(0, 0);0;0;06:50:34:823;0;9;-1.5;1;0;0;0;0;1;1;1;1;2;01,42;0;0;0;0;0;0;0;();(-2000.0, -2000.0);
06:50:34:841;06:50:34:775;1448647604.65;(0, 0);0;0;06:50:34:841;0;4;-1.5;1;0;0;0;0;1;1;1;1;2;01,42;0;0;0;0;0;0;0;();(-2000.0, -2000.0);
06:50:34:874;06:50:34:842;1448647604.71;(0, 0);0;0;06:50:34:874;0;5;-1.5;1;0;0;0;0;1;1;1;1;2;01,42;0;0;0;0;0;0;0;();(-2000.0, -2000.0);
06:50:34:890;06:50:34:842;1448647604.71;(0, 0);0;0;06:50:34:890;0;10;-1.5;1;0;0;0;0;1;1;1;1;2;01,42;0;0;0;0;0;0;0;();(-2000.0, -2000.0);
06:50:34:907;06:50:34:905;1448647604.78;(0, 0);0;0;06:50:34:907;0;4;-1.5;1;0;0;0;0;1;1;1;1;2;01,42;0;0;0;0;0;0;0;();(-2000.0, -2000.0);
06:50:34:923;06:50:34:905;1448647604.78;(0, 0);0;0;06:50:34:923;0;10;-1.5;1;0;0;0;0;1;1;1;1;2;01,42;0;0;0;0;0;0;0;();(-2000.0, -2000.0);
06:50:34:957;06:50:34:905;1448647604.78;(0, 0);0;0;06:50:34:957;0;10;-1.5;1;0;0;0;0;1;1;1;1;2;01,42;0;0;0;0;0;0;0;();(-2000.0, -2000.0);
06:50:34:973;06:50:34:972;1448647604.85;(0, 0);0;0;06:50:34:973;0;4;-1.5;1;0;0;0;0;1;1;1;1;2;01,42;0;0;0;0;0;0;0;();(-2000.0, -2000.0);
06:50:34:991;06:50:34:972;1448647604.85;(0, 0);0;0;06:50:34:991;0;4;-1.5;1;0;0;0;0;1;1;1;1;2;01,42;0;0;0;0;0;0;0;();(-2000.0, -2000.0);
06:50:35:009;06:50:34:972;1448647604.85;(0, 0);0;0;06:50:35:008;0;11;-1.5;1;0;0;0;0;1;1;1;1;2;01,42;0;0;0;0;0;0;0;();(-2000.0, -2000.0);
06:50:35:024;06:50:34:972;1448647604.85;(0, 0);0;0;06:50:35:024;0;10;-1.5;1;0;0;0;0;1;1;1;1;2;01,42;0;0;0;0;0;0;0;();(-2000.0, -2000.0);
06:50:35:058;06:50:35:037;1448647604.91;(0, 0);0;0;06:50:35:058;0;10;-1.5;1;0;0;0;0;1;1;1;1;2;01,42;0;0;0;0;0;0;0;();(-2000.0, -2000.0);
06:50:35:074;06:50:35:037;1448647604.91;(0, 0);0;0;06:50:35:074;0;15;-1.5;1;0;0;0;0;1;1;1;1;2;01,42;0;0;0;0;0;0;0;();(-2000.0, -2000.0);
06:50:35:090;06:50:35:037;1448647604.91;(0, 0);0;0;06:50:35:090;0;10;-1.5;1;0;0;0;0;1;1;1;1;2;01,42;0;0;0;0;0;0;0;();(-2000.0, -2000.0);
06:50:35:107;06:50:35:106;1448647604.98;(0, 0);0;0;06:50:35:107;0;0;-1.5;1;0;0;0;0;1;1;1;1;2;01,42;0;0;0;0;0;0;0;();(-2000.0, -2000.0);
06:50:35:124;06:50:35:106;1448647604.98;(0, 0);0;0;06:50:35:124;0;10;-1.5;1;0;0;0;0;1;1;1;1;2;01,42;0;0;0;0;0;0;0;();(-2000.0, -2000.0);
06:50:35:141;06:50:35:106;1448647604.98;(0, 0);0;0;06:50:35:141;0;15;-1.5;1;0;0;0;0;1;1;1;1;2;01,42;0;0;0;0;0;0;0;();(-2000.0, -2000.0);
06:50:35:173;06:50:35:106;1448647604.98;(0, 0);0;0;06:50:35:173;0;9;-1.5;1;0;0;0;0;1;1;1;1;2;01,42;0;0;0;0;0;0;0;();(-2000.0, -2000.0);
06:50:35:191;06:50:35:180;1448647605.05;(0, 0);0;0;06:50:35:191;0;5;-1.5;1;0;0;0;0;1;1;1;1;2;01,42;0;0;0;0;0;0;0;();(-2000.0, -2000.0);
06:50:35:208;06:50:35:180;1448647605.05;(0, 0);0;0;06:50:35:208;0;10;-1.5;1;0;0;0;0;1;1;1;1;2;01,42;0;0;0;0;0;0;0;();(-2000.0, -2000.0);
06:50:35:224;06:50:35:180;1448647605.05;(0, 0);0;0;06:50:35:224;0;5;-1.5;1;0;0;0;0;1;1;1;1;2;01,42;0;0;0;0;0;0;0;();(-2000.0, -2000.0);
06:50:35:257;06:50:35:238;1448647605.11;(0, 0);0;0;06:50:35:257;0;10;-1.5;1;0;0;0;0;1;1;1;1;2;01,42;0;0;0;0;0;0;0;();(-2000.0, -2000.0);
06:50:35:273;06:50:35:238;1448647605.11;(0, 0);0;0;06:50:35:273;0;0;-1.5;1;0;0;0;0;1;1;1;1;2;01,42;0;0;0;0;0;0;0;();(-2000.0, -2000.0);
06:50:35:291;06:50:35:238;1448647605.11;(0, 0);0;0;06:50:35:291;0;5;-1.5;1;0;0;0;0;1;1;1;1;2;01,42;0;0;0;0;0;0;0;();(-2000.0, -2000.0);
06:50:35:308;06:50:35:301;1448647605.18;(0, 0);0;0;06:50:35:308;0;9;-1.5;1;0;0;0;0;1;1;1;1;2;01,42;0;0;0;0;0;0;0;();(-2000.0, -2000.0);
06:50:35:324;06:50:35:301;1448647605.18;(0, 0);0;0;06:50:35:324;0;8;-1.5;1;0;0;0;0;1;1;1;1;2;01,42;0;0;0;0;0;0;0;();(-2000.0, -2000.0);
06:50:35:341;06:50:35:301;1448647605.18;(0, 0);0;0;06:50:35:341;0;10;-1.5;1;0;0;0;0;1;1;1;1;2;01,42;0;0;0;0;0;0;0;();(-2000.0, -2000.0);
06:50:35:374;06:50:35:369;1448647605.25;(0, 0);0;0;06:50:35:374;0;9;-1.5;1;0;0;0;0;1;1;1;1;2;01,42;0;0;0;0;0;0;0;();(-2000.0, -2000.0);
06:50:35:391;06:50:35:369;1448647605.25;(0, 0);0;0;06:50:35:391;0;15;-1.5;1;0;0;0;0;1;1;1;1;2;01,42;0;0;0;0;0;0;0;();(-2000.0, -2000.0);
06:50:35:407;06:50:35:369;1448647605.25;(0, 0);0;0;06:50:35:407;0;15;-1.5;1;0;0;0;0;1;1;1;1;2;01,42;0;0;0;0;0;0;0;();(-2000.0, -2000.0);
06:50:35:424;06:50:35:369;1448647605.25;(0, 0);0;0;06:50:35:424;0;0;-1.5;1;0;0;0;0;1;1;1;1;2;01,42;0;0;0;0;0;0;0;();(-2000.0, -2000.0);
06:50:35:458;06:50:35:437;1448647605.31;(0, 0);0;0;06:50:35:458;0;15;-1.5;1;0;0;0;0;1;1;1;1;2;01,42;0;0;0;0;0;0;0;();(-2000.0, -2000.0);
06:50:35:474;06:50:35:437;1448647605.31;(0, 0);0;0;06:50:35:474;0;15;-1.5;1;0;0;0;0;1;1;1;1;2;01,42;0;0;0;0;0;0;0;();(-2000.0, -2000.0);
06:50:35:490;06:50:35:437;1448647605.31;(0, 0);0;0;06:50:35:490;0;15;-1.5;1;0;0;0;0;1;1;1;1;2;01,42;0;0;0;0;0;0;0;();(-2000.0, -2000.0);
06:50:35:508;06:50:35:501;1448647605.38;(0, 0);0;0;06:50:35:508;0;15;-1.5;1;0;0;0;0;1;1;1;1;2;01,42;0;0;0;0;0;0;0;();(-2000.0, -2000.0);
06:50:35:524;06:50:35:501;1448647605.38;(0, 0);0;0;06:50:35:524;0;15;-1.5;1;0;0;0;0;1;1;1;1;2;01,42;0;0;0;0;0;0;0;();(-2000.0, -2000.0);
06:50:35:541;06:50:35:501;1448647605.38;(0, 0);0;0;06:50:35:541;0;11;-1.5;1;0;0;0;0;1;1;1;1;2;01,42;0;0;0;0;0;0;0;();(-2000.0, -2000.0);
06:50:35:575;06:50:35:569;1448647605.45;(0, 0);0;0;06:50:35:575;0;10;-1.5;1;0;0;0;0;1;1;1;1;2;01,42;0;0;0;0;0;0;0;();(-2000.0, -2000.0);
06:50:35:591;06:50:35:569;1448647605.45;(0, 0);0;0;06:50:35:591;0;5;-1.5;1;0;0;0;0;1;1;1;1;2;01,42;0;0;0;0;0;0;0;();(-2000.0, -2000.0);
06:50:35:607;06:50:35:569;1448647605.45;(0, 0);0;0;06:50:35:607;0;6;-1.5;1;0;0;0;0;1;1;1;1;2;01,42;0;0;0;0;0;0;0;();(-2000.0, -2000.0);
06:50:35:624;06:50:35:569;1448647605.45;(0, 0);0;0;06:50:35:624;0;10;-1.5;1;0;0;0;0;1;1;1;1;2;01,42;0;0;0;0;0;0;0;();(-2000.0, -2000.0);
06:50:35:641;06:50:35:632;1448647605.51;(0, 0);0;0;06:50:35:641;0;5;-1.5;1;0;0;0;0;1;1;1;1;2;01,42;0;0;0;0;0;0;0;();(-2000.0, -2000.0);
06:50:35:674;06:50:35:632;1448647605.51;(0, 0);0;0;06:50:35:674;0;5;-1.5;1;0;0;0;0;1;1;1;1;2;01,42;0;0;0;0;0;0;0;();(-2000.0, -2000.0);
06:50:35:692;06:50:35:632;1448647605.51;(0, 0);0;0;06:50:35:692;0;15;-1.5;1;0;0;0;0;1;1;1;1;2;01,42;0;0;0;0;0;0;0;();(-2000.0, -2000.0);
06:50:35:708;06:50:35:701;1448647605.58;(0, 0);0;0;06:50:35:708;0;4;-1.5;1;0;0;0;0;1;1;1;1;2;01,42;0;0;0;0;0;0;0;();(-2000.0, -2000.0);
06:50:35:725;06:50:35:701;1448647605.58;(0, 0);0;0;06:50:35:725;0;9;-1.5;1;0;0;0;0;1;1;1;1;2;01,42;0;0;0;0;0;0;0;();(-2000.0, -2000.0);
06:50:35:741;06:50:35:701;1448647605.58;(0, 0);0;0;06:50:35:741;0;15;-1.5;1;0;0;0;0;1;1;1;1;2;01,42;0;0;0;0;0;0;0;();(-2000.0, -2000.0);
06:50:35:775;06:50:35:769;1448647605.65;(0, 0);0;0;06:50:35:775;0;5;-1.5;1;0;0;0;0;1;1;1;1;2;01,42;0;0;0;0;0;0;0;();(-2000.0, -2000.0);
06:50:35:791;06:50:35:769;1448647605.65;(0, 0);0;0;06:50:35:791;0;10;-1.5;1;0;0;0;0;1;1;1;1;2;01,42;0;0;0;0;0;0;0;();(-2000.0, -2000.0);
06:50:35:808;06:50:35:769;1448647605.65;(0, 0);0;0;06:50:35:808;0;15;-1.5;1;0;0;0;0;1;1;1;1;2;01,42;0;0;0;0;0;0;0;();(-2000.0, -2000.0);
06:50:35:825;06:50:35:769;1448647605.65;(0, 0);0;0;06:50:35:825;0;10;-1.5;1;0;0;0;0;1;1;1;1;2;01,42;0;0;0;0;0;0;0;();(-2000.0, -2000.0);
06:50:35:841;06:50:35:833;1448647605.71;(0, 0);0;0;06:50:35:841;0;15;-1.5;1;0;0;0;0;1;1;1;1;2;01,42;0;0;0;0;0;0;0;();(-2000.0, -2000.0);
06:50:35:874;06:50:35:833;1448647605.71;(0, 0);0;0;06:50:35:874;0;15;-1.5;1;0;0;0;0;1;1;1;1;2;01,42;0;0;0;0;0;0;0;();(-2000.0, -2000.0);
06:50:35:891;06:50:35:833;1448647605.71;(0, 0);0;0;06:50:35:891;0;10;-1.5;1;0;0;0;0;1;1;1;1;2;01,42;0;0;0;0;0;0;0;();(-2000.0, -2000.0);
06:50:35:909;06:50:35:901;1448647605.78;(0, 0);0;0;06:50:35:908;0;15;-1.5;1;0;0;0;0;1;1;1;1;2;01,42;0;0;0;0;0;0;0;();(-2000.0, -2000.0);
06:50:35:924;06:50:35:901;1448647605.78;(0, 0);0;0;06:50:35:924;0;5;-1.5;1;0;0;0;0;1;1;1;1;2;01,42;0;0;0;0;0;0;0;();(-2000.0, -2000.0);
06:50:35:941;06:50:35:901;1448647605.78;(0, 0);0;0;06:50:35:941;0;15;-1.5;1;0;0;0;0;1;1;1;1;2;01,42;0;0;0;0;0;0;0;();(-2000.0, -2000.0);
06:50:35:975;06:50:35:965;1448647605.85;(0, 0);0;0;06:50:35:975;0;10;-1.5;1;0;0;0;0;1;1;1;1;2;01,42;0;0;0;0;0;0;0;();(-2000.0, -2000.0);
06:50:35:992;06:50:35:965;1448647605.85;(0, 0);0;0;06:50:35:992;0;5;-1.5;1;0;0;0;0;1;1;1;1;2;01,42;0;0;0;0;0;0;0;();(-2000.0, -2000.0);
06:50:36:008;06:50:35:965;1448647605.85;(0, 0);0;0;06:50:36:008;0;10;-1.5;1;0;0;0;0;1;1;1;1;2;01,42;0;0;0;0;0;0;0;();(-2000.0, -2000.0);
06:50:36:025;06:50:35:965;1448647605.85;(0, 0);0;0;06:50:36:025;0;4;-1.5;1;0;0;0;0;1;1;1;1;2;01,42;2;1;01;0;0;0;0;();(-2000.0, -2000.0);
06:50:36:042;06:50:36:033;1448647605.91;(0, 0);0;0;06:50:36:042;0;10;-1.5;1;0;0;0;0;1;1;1;1;2;01,42;0;0;0;0;0;0;0;();(-2000.0, -2000.0);
06:50:36:075;06:50:36:033;1448647605.91;(0, 0);0;0;06:50:36:075;0;10;-1.5;1;0;0;0;0;1;1;1;1;2;01,42;0;0;0;0;0;0;0;();(-2000.0, -2000.0);
06:50:36:091;06:50:36:033;1448647605.91;(0, 0);0;0;06:50:36:091;0;4;-1.5;1;0;0;0;0;1;1;1;1;2;01,42;0;0;0;0;0;0;0;();(-2000.0, -2000.0);
06:50:36:108;06:50:36:101;1448647605.98;(0, 0);0;0;06:50:36:108;0;9;-1.5;1;0;0;0;0;1;1;1;1;2;01,42;0;0;0;0;0;0;0;();(-2000.0, -2000.0);
06:50:36:124;06:50:36:101;1448647605.98;(0, 0);0;0;06:50:36:124;0;4;-1.5;1;0;0;0;0;1;1;1;1;2;01,42;0;0;0;0;0;0;0;();(-2000.0, -2000.0);
06:50:36:142;06:50:36:101;1448647605.98;(0, 0);0;0;06:50:36:142;0;10;-1.5;1;0;0;0;0;1;1;1;1;2;01,42;0;0;0;0;0;0;0;();(-2000.0, -2000.0);
06:50:36:175;06:50:36:165;1448647606.05;(0, 0);0;0;06:50:36:175;0;4;-1.5;1;0;0;0;0;1;1;1;1;2;01,42;0;0;0;0;0;0;0;();(-2000.0, -2000.0);
06:50:36:191;06:50:36:165;1448647606.05;(0, 0);0;0;06:50:36:191;0;15;-1.5;1;0;0;0;0;1;1;1;1;2;01,42;0;0;0;0;0;0;0;();(-2000.0, -2000.0);
06:50:36:208;06:50:36:165;1448647606.05;(0, 0);0;0;06:50:36:208;0;10;-1.5;1;0;0;0;0;1;1;1;1;2;01,42;0;0;0;0;0;0;0;();(-2000.0, -2000.0);
06:50:36:225;06:50:36:165;1448647606.05;(0, 0);0;0;06:50:36:225;0;5;-1.5;1;0;0;0;0;1;1;1;1;2;01,42;0;0;0;0;0;0;0;();(-2000.0, -2000.0);
06:50:36:241;06:50:36:233;1448647606.11;(0, 0);0;0;06:50:36:241;0;5;-1.5;1;0;0;0;0;1;1;1;1;2;01,42;0;0;0;0;0;0;0;();(-2000.0, -2000.0);
06:50:36:274;06:50:36:233;1448647606.11;(0, 0);0;0;06:50:36:274;0;15;-1.5;1;0;0;0;0;1;1;1;1;2;01,42;0;0;0;0;0;0;0;();(-2000.0, -2000.0);
06:50:36:291;06:50:36:233;1448647606.11;(0, 0);0;0;06:50:36:291;0;0;-1.5;1;0;0;0;0;1;1;1;1;2;01,42;0;0;0;0;0;0;0;();(-2000.0, -2000.0);
06:50:36:309;06:50:36:296;1448647606.18;(0, 0);0;0;06:50:36:309;0;5;-1.5;1;0;0;0;0;1;1;1;1;2;01,42;0;0;0;0;0;0;0;();(-2000.0, -2000.0);
06:50:36:325;06:50:36:296;1448647606.18;(0, 0);0;0;06:50:36:325;0;15;-1.5;1;0;0;0;0;1;1;1;1;2;01,42;0;0;0;0;0;0;0;();(-2000.0, -2000.0);
06:50:36:342;06:50:36:296;1448647606.18;(0, 0);0;0;06:50:36:342;0;4;-1.5;1;0;0;0;0;1;1;1;1;2;01,42;0;0;0;0;0;0;0;();(-2000.0, -2000.0);
06:50:36:375;06:50:36:365;1448647606.25;(0, 0);0;0;06:50:36:375;0;4;-1.5;1;0;0;0;0;1;1;1;1;2;01,42;0;0;0;0;0;0;0;();(-2000.0, -2000.0);
06:50:36:392;06:50:36:365;1448647606.25;(0, 0);0;0;06:50:36:392;0;10;-1.5;1;0;0;0;0;1;1;1;1;2;01,42;0;0;0;0;0;0;0;();(-2000.0, -2000.0);
06:50:36:408;06:50:36:365;1448647606.25;(0, 0);0;0;06:50:36:408;0;10;-1.5;1;0;0;0;0;1;1;1;1;2;01,42;0;0;0;0;0;0;0;();(-2000.0, -2000.0);
06:50:36:425;06:50:36:365;1448647606.25;(0, 0);0;0;06:50:36:425;0;9;-1.5;1;0;0;0;0;1;1;1;1;2;01,42;0;0;0;0;0;0;0;();(-2000.0, -2000.0);
06:50:36:441;06:50:36:433;1448647606.31;(0, 0);0;0;06:50:36:441;0;11;-1.5;1;0;0;0;0;1;1;1;1;2;01,42;0;0;0;0;0;0;0;();(-2000.0, -2000.0);
06:50:36:475;06:50:36:433;1448647606.31;(0, 0);0;0;06:50:36:475;0;15;-1.5;1;0;0;0;0;1;1;1;1;2;01,42;0;0;0;0;0;0;0;();(-2000.0, -2000.0);
06:50:36:491;06:50:36:433;1448647606.31;(0, 0);0;0;06:50:36:491;0;10;-1.5;1;0;0;0;0;1;1;1;1;2;01,42;0;0;0;0;0;0;0;();(-2000.0, -2000.0);
06:50:36:508;06:50:36:499;1448647606.38;(0, 0);0;0;06:50:36:508;0;15;-1.5;1;0;0;0;0;1;1;1;1;2;01,42;0;0;0;0;0;0;0;();(-2000.0, -2000.0);
06:50:36:525;06:50:36:499;1448647606.38;(0, 0);0;0;06:50:36:525;0;10;-1.5;1;0;0;0;0;1;1;1;1;2;01,42;0;0;0;0;0;0;0;();(-2000.0, -2000.0);
06:50:36:541;06:50:36:499;1448647606.38;(0, 0);0;0;06:50:36:541;0;4;-1.5;1;0;0;0;0;1;1;1;1;2;01,42;0;0;0;0;0;0;0;();(-2000.0, -2000.0);
06:50:36:575;06:50:36:565;1448647606.45;(0, 0);0;0;06:50:36:575;0;15;-1.5;1;0;0;0;0;1;1;1;1;2;01,42;0;0;0;0;0;0;0;();(-2000.0, -2000.0);
06:50:36:591;06:50:36:565;1448647606.45;(0, 0);0;0;06:50:36:591;0;9;-1.5;1;0;0;0;0;1;1;1;1;2;01,42;0;0;0;0;0;0;0;();(-2000.0, -2000.0);
06:50:36:608;06:50:36:565;1448647606.45;(0, 0);0;0;06:50:36:608;0;4;-1.5;1;0;0;0;0;1;1;1;1;2;01,42;0;0;0;0;0;0;0;();(-2000.0, -2000.0);
06:50:36:625;06:50:36:565;1448647606.45;(0, 0);0;0;06:50:36:625;0;9;-1.5;1;0;0;0;0;1;1;1;1;2;01,42;0;0;0;0;0;0;0;();(-2000.0, -2000.0);
06:50:36:642;06:50:36:629;1448647606.51;(0, 0);0;0;06:50:36:642;0;5;-1.5;1;0;0;0;0;1;1;1;1;2;01,42;0;0;0;0;0;0;0;();(-2000.0, -2000.0);
06:50:36:675;06:50:36:629;1448647606.51;(0, 0);0;0;06:50:36:675;0;15;-1.5;1;0;0;0;0;1;1;1;1;2;01,42;0;0;0;0;0;0;0;();(-2000.0, -2000.0);
06:50:36:692;06:50:36:629;1448647606.51;(0, 0);0;0;06:50:36:692;0;5;-1.5;1;0;0;0;0;1;1;1;1;2;01,42;0;0;0;0;0;0;0;();(-2000.0, -2000.0);
06:50:36:709;06:50:36:697;1448647606.58;(0, 0);0;0;06:50:36:709;0;15;-1.5;1;0;0;0;0;1;1;1;1;2;01,42;0;0;0;0;0;0;0;();(-2000.0, -2000.0);
06:50:36:725;06:50:36:697;1448647606.58;(0, 0);0;0;06:50:36:725;0;10;-1.5;1;0;0;0;0;1;1;1;1;2;01,42;0;0;0;0;0;0;0;();(-2000.0, -2000.0);
06:50:36:742;06:50:36:697;1448647606.58;(0, 0);0;0;06:50:36:742;0;15;-1.5;1;0;0;0;0;1;1;1;1;2;01,42;0;0;0;0;0;0;0;();(-2000.0, -2000.0);
06:50:36:775;06:50:36:765;1448647606.65;(0, 0);0;0;06:50:36:775;0;0;-1.5;1;0;0;0;0;1;1;1;1;2;01,42;0;0;0;0;0;0;0;();(-2000.0, -2000.0);
06:50:36:792;06:50:36:765;1448647606.65;(0, 0);0;0;06:50:36:792;0;5;-1.5;1;0;0;0;0;1;1;1;1;2;01,42;0;0;0;0;0;0;0;();(-2000.0, -2000.0);
06:50:36:808;06:50:36:765;1448647606.65;(0, 0);0;0;06:50:36:808;0;9;-1.5;1;0;0;0;0;1;1;1;1;2;01,42;0;0;0;0;0;0;0;();(-2000.0, -2000.0);
06:50:36:825;06:50:36:765;1448647606.65;(0, 0);0;0;06:50:36:825;0;4;-1.5;1;0;0;0;0;1;1;1;1;2;01,42;0;0;0;0;0;0;0;();(-2000.0, -2000.0);
06:50:36:842;06:50:36:830;1448647606.71;(0, 0);0;0;06:50:36:842;0;10;-1.5;1;0;0;0;0;1;1;1;1;2;01,42;0;0;0;0;0;0;0;();(-2000.0, -2000.0);
06:50:36:876;06:50:36:830;1448647606.71;(0, 0);0;0;06:50:36:876;0;0;-1.5;1;0;0;0;0;1;1;1;1;2;01,42;0;0;0;0;0;0;0;();(-2000.0, -2000.0);
06:50:36:892;06:50:36:830;1448647606.71;(0, 0);0;0;06:50:36:892;0;5;-1.5;1;0;0;0;0;1;1;1;1;2;01,42;0;0;0;0;0;0;0;();(-2000.0, -2000.0);
06:50:36:908;06:50:36:900;1448647606.78;(0, 0);0;0;06:50:36:908;0;5;-1.5;1;0;0;0;0;1;1;1;1;2;01,42;0;0;0;0;0;0;0;();(-2000.0, -2000.0);
06:50:36:925;06:50:36:900;1448647606.78;(0, 0);0;0;06:50:36:925;0;0;-1.5;1;0;0;0;0;1;1;1;1;2;01,42;0;0;0;0;0;0;0;();(-2000.0, -2000.0);
06:50:36:942;06:50:36:900;1448647606.78;(0, 0);0;0;06:50:36:942;0;10;-1.5;1;0;0;0;0;1;1;1;1;2;01,42;0;0;0;0;0;0;0;();(-2000.0, -2000.0);
06:50:36:976;06:50:36:961;1448647606.85;(0, 0);0;0;06:50:36:976;0;10;-1.5;1;0;0;0;0;1;1;1;1;2;01,42;0;0;0;0;0;0;0;();(-2000.0, -2000.0);
06:50:36:992;06:50:36:961;1448647606.85;(0, 0);0;0;06:50:36:992;0;4;-1.5;1;0;0;0;0;1;1;1;1;2;01,42;0;0;0;0;0;0;0;();(-2000.0, -2000.0);
06:50:37:009;06:50:36:961;1448647606.85;(0, 0);0;0;06:50:37:009;0;10;-1.5;1;0;0;0;0;1;1;1;1;2;01,42;0;0;0;0;0;0;0;();(-2000.0, -2000.0);
06:50:37:026;06:50:36:961;1448647606.85;(0, 0);0;0;06:50:37:026;0;15;-1.5;1;0;0;0;0;1;1;1;1;2;01,42;0;0;0;0;0;0;0;();(-2000.0, -2000.0);
06:50:37:042;06:50:37:030;1448647606.91;(0, 0);0;0;06:50:37:042;0;5;-1.5;1;0;0;0;0;1;1;1;1;2;01,42;0;0;0;0;0;0;0;();(-2000.0, -2000.0);
06:50:37:075;06:50:37:030;1448647606.91;(0, 0);0;0;06:50:37:075;0;4;-1.5;1;0;0;0;0;1;1;1;1;2;01,42;0;0;0;0;0;0;0;();(-2000.0, -2000.0);
06:50:37:093;06:50:37:030;1448647606.91;(0, 0);0;0;06:50:37:093;0;0;-1.5;1;0;0;0;0;1;1;1;1;2;01,42;0;0;0;0;0;0;0;();(-2000.0, -2000.0);
06:50:37:109;06:50:37:098;1448647606.98;(0, 0);0;0;06:50:37:109;0;5;-1.5;1;0.0977517106549365;0;0;0;1;1;1;1;2;01,42;0;0;0;0;0;0;0;();(-2000.0, -2000.0);
06:50:37:126;06:50:37:098;1448647606.98;(0, 0);0;0;06:50:37:126;0;15;-1.5;1;0;0;0;0;1;1;1;1;2;01,42;0;0;0;0;0;0;0;();(-2000.0, -2000.0);
06:50:37:142;06:50:37:098;1448647606.98;(0, 0);0;0;06:50:37:142;0;4;-1.5;1;0;0;0;0;1;1;1;1;2;01,42;0;0;0;0;0;0;0;();(-2000.0, -2000.0);
06:50:37:176;06:50:37:166;1448647607.05;(0, 0);0;0;06:50:37:176;0;5;-1.5;1;0;0;0;0;1;1;1;1;2;01,42;0;0;0;0;0;0;0;();(-2000.0, -2000.0);
06:50:37:192;06:50:37:166;1448647607.05;(0, 0);0;0;06:50:37:192;0;0;-1.5;1;0;0;0;0;1;1;1;1;2;01,42;0;0;0;0;0;0;0;();(-2000.0, -2000.0);
06:50:37:209;06:50:37:166;1448647607.05;(0, 0);0;0;06:50:37:209;0;5;-1.5;1;0;0;0;0;1;1;1;1;2;01,42;0;0;0;0;0;0;0;();(-2000.0, -2000.0);
06:50:37:226;06:50:37:166;1448647607.05;(0, 0);0;0;06:50:37:226;0;10;-1.5;1;0;0;0;0;1;1;1;1;2;01,42;0;0;0;0;0;0;0;();(-2000.0, -2000.0);
06:50:37:242;06:50:37:229;1448647607.11;(0, 0);0;0;06:50:37:242;0;4;-1.5;1;0;0;0;0;1;1;1;1;2;01,42;0;0;0;0;0;0;0;();(-2000.0, -2000.0);
06:50:37:276;06:50:37:229;1448647607.11;(0, 0);0;0;06:50:37:276;0;15;-1.5;1;0;0;0;0;1;1;1;1;2;01,42;0;0;0;0;0;0;0;();(-2000.0, -2000.0);
06:50:37:293;06:50:37:229;1448647607.11;(0, 0);0;0;06:50:37:293;0;10;-1.5;1;0;0;0;0;1;1;1;1;2;01,42;0;0;0;0;0;0;0;();(-2000.0, -2000.0);
06:50:37:309;06:50:37:293;1448647607.18;(0, 0);0;0;06:50:37:309;0;11;-1.5;1;0;0;0;0;1;1;1;1;2;01,42;0;0;0;0;0;0;0;();(-2000.0, -2000.0);
06:50:37:326;06:50:37:293;1448647607.18;(0, 0);0;0;06:50:37:326;0;10;-1.5;1;0;0;0;0;1;1;1;1;2;01,42;0;0;0;0;0;0;0;();(-2000.0, -2000.0);
06:50:37:343;06:50:37:293;1448647607.18;(0, 0);0;0;06:50:37:343;0;0;-1.5;1;0;0;0;0;1;1;1;1;2;01,42;0;0;0;0;0;0;0;();(-2000.0, -2000.0);
06:50:37:376;06:50:37:361;1448647607.25;(0, 0);0;0;06:50:37:376;0;5;-1.5;1;0;0;0;0;1;1;1;1;2;01,42;0;0;0;0;0;0;0;();(-2000.0, -2000.0);
06:50:37:394;06:50:37:361;1448647607.25;(0, 0);0;0;06:50:37:394;0;10;-1.5;1;0;0;0;0;1;1;1;1;2;01,42;0;0;0;0;0;0;0;();(-2000.0, -2000.0);
06:50:37:409;06:50:37:361;1448647607.25;(0, 0);0;0;06:50:37:409;0;15;-1.5;1;0;0;0;0;1;1;1;1;2;01,42;0;0;0;0;0;0;0;();(-2000.0, -2000.0);
06:50:37:426;06:50:37:361;1448647607.25;(0, 0);0;0;06:50:37:426;0;1;-1.5;1;0;0;0;0;1;1;1;1;2;01,42;0;0;0;0;0;0;0;();(-2000.0, -2000.0);
06:50:37:443;06:50:37:429;1448647607.31;(0, 0);0;0;06:50:37:443;0;15;-1.5;1;0;0;0;0;1;1;1;1;2;01,42;0;0;0;0;0;0;0;();(-2000.0, -2000.0);
06:50:37:475;06:50:37:429;1448647607.31;(0, 0);0;0;06:50:37:475;0;15;-1.5;1;0;0;0;0;1;1;1;1;2;01,42;0;0;0;0;0;0;0;();(-2000.0, -2000.0);
06:50:37:493;06:50:37:429;1448647607.31;(0, 0);0;0;06:50:37:493;0;4;-1.5;1;0;0;0;0;1;1;1;1;2;01,42;0;0;0;0;0;0;0;();(-2000.0, -2000.0);
06:50:37:509;06:50:37:493;1448647607.38;(0, 0);0;0;06:50:37:509;0;0;-1.5;1;0;0;0;0;1;1;1;1;2;01,42;0;0;0;0;0;0;0;();(-2000.0, -2000.0);
06:50:37:526;06:50:37:493;1448647607.38;(0, 0);0;0;06:50:37:526;0;5;-1.5;1;0;0;0;0;1;1;1;1;2;01,42;0;0;0;0;0;0;0;();(-2000.0, -2000.0);
06:50:37:542;06:50:37:493;1448647607.38;(0, 0);0;0;06:50:37:542;0;5;-1.5;1;0;0;0;0;1;1;1;1;2;01,42;0;0;0;0;0;0;0;();(-2000.0, -2000.0);
06:50:37:576;06:50:37:560;1448647607.45;(0, 0);0;0;06:50:37:576;0;10;-1.5;1;0;0;0;0;1;1;1;1;2;01,42;0;0;0;0;0;0;0;();(-2000.0, -2000.0);
06:50:37:592;06:50:37:560;1448647607.45;(0, 0);0;0;06:50:37:592;0;5;-1.5;1;0;0;0;0;1;1;1;1;2;01,42;0;0;0;0;0;0;0;();(-2000.0, -2000.0);
06:50:37:610;06:50:37:560;1448647607.45;(0, 0);0;0;06:50:37:610;0;10;-1.5;1;0;0;0;0;1;1;1;1;2;01,42;0;0;0;0;0;0;0;();(-2000.0, -2000.0);
06:50:37:627;06:50:37:625;1448647607.51;(0.7565748214721679, 0.7309517754448784);23.0012454987;0.76695493876;06:50:37:627;0;4;-1.5;1;0;0;0;0;1;1;1;1;2;01,42;0;0;0;0;0;0;0;();(-2000.0, -2000.0);
06:50:37:643;06:50:37:625;1448647607.51;(0.7565748214721679, 0.7309517754448784);23.0012454987;0.76695493876;06:50:37:643;0;10;-1.5;1;0;0;0;0;1;1;1;1;2;01,42;0;0;0;0;0;0;0;();(-2000.0, -2000.0);
06:50:37:676;06:50:37:625;1448647607.51;(0.7565748214721679, 0.7309517754448784);23.0012454987;0.76695493876;06:50:37:676;0;10;-1.5;1;0;0;0;0;1;1;1;1;2;01,42;0;0;0;0;0;0;0;();(-2000.0, -2000.0);
06:50:37:693;06:50:37:625;1448647607.51;(0.7565748214721679, 0.7309517754448784);23.0012454987;0.76695493876;06:50:37:693;0;15;-1.5;1;0;0;0;0;1;1;1;1;2;01,42;0;0;0;0;0;0;0;();(-2000.0, -2000.0);
06:50:37:709;06:50:37:695;1448647607.58;(0, 0);0;0;06:50:37:709;0;9;-1.5;1;0;0;0;0;1;1;1;1;2;01,42;0;0;0;0;0;0;0;();(-2000.0, -2000.0);
06:50:37:726;06:50:37:695;1448647607.58;(0, 0);0;0;06:50:37:726;0;11;-1.5;1;0;0;0;0;1;1;1;1;2;01,42;0;0;0;0;0;0;0;();(-2000.0, -2000.0);
06:50:37:743;06:50:37:695;1448647607.58;(0, 0);0;0;06:50:37:743;0;9;-1.5;1;0;0;0;0;1;1;1;1;2;01,42;0;0;0;0;0;0;0;();(-2000.0, -2000.0);
06:50:37:776;06:50:37:761;1448647607.65;(0, 0);0;0;06:50:37:776;0;10;-1.5;1;0;0;0;0;1;1;1;1;2;01,42;0;0;0;0;0;0;0;();(-2000.0, -2000.0);
06:50:37:792;06:50:37:761;1448647607.65;(0, 0);0;0;06:50:37:792;0;4;-1.5;1;0;0;0;0;1;1;1;1;2;01,42;0;0;0;0;0;0;0;();(-2000.0, -2000.0);
06:50:37:809;06:50:37:761;1448647607.65;(0, 0);0;0;06:50:37:809;0;10;-1.5;1;0;0;0;0;1;1;1;1;2;01,42;0;0;0;0;0;0;0;();(-2000.0, -2000.0);
06:50:37:826;06:50:37:761;1448647607.65;(0, 0);0;0;06:50:37:826;0;0;-1.5;1;0;0;0;0;1;1;1;1;2;01,42;0;0;0;0;0;0;0;();(-2000.0, -2000.0);
06:50:37:843;06:50:37:830;1448647607.71;(0, 0);0;0;06:50:37:843;0;10;-1.5;1;0;0;0;0;1;1;1;1;2;01,42;0;0;0;0;0;0;0;();(-2000.0, -2000.0);
06:50:37:876;06:50:37:830;1448647607.71;(0, 0);0;0;06:50:37:876;0;4;-1.5;1;0;0;0;0;1;1;1;1;2;01,42;0;0;0;0;0;0;0;();(-2000.0, -2000.0);
06:50:37:892;06:50:37:830;1448647607.71;(0, 0);0;0;06:50:37:892;0;0;-1.5;1;0;0;0;0;1;1;1;1;2;01,42;0;0;0;0;0;0;0;();(-2000.0, -2000.0);
06:50:37:909;06:50:37:892;1448647607.78;(0.7668571949005127, 0.7205963134765625);19.2315711975;0.716046407982;06:50:37:909;0;5;-1.5;1;0;0;0;0;1;1;1;1;2;01,42;0;0;0;0;0;0;0;();(-2000.0, -2000.0);
06:50:37:927;06:50:37:892;1448647607.78;(0.7668571949005127, 0.7205963134765625);19.2315711975;0.716046407982;06:50:37:927;0;15;-1.5;1;0;0;0;0;1;1;1;1;2;01,42;0;0;0;0;0;0;0;();(-2000.0, -2000.0);
06:50:37:943;06:50:37:892;1448647607.78;(0.7668571949005127, 0.7205963134765625);19.2315711975;0.716046407982;06:50:37:943;0;4;-1.5;1;0;0;0;0;1;1;1;1;2;01,42;0;0;0;0;0;0;0;();(-2000.0, -2000.0);
06:50:37:976;06:50:37:958;1448647607.85;(0, 0);0;0;06:50:37:976;0;5;-1.5;1;0;0;0;0;1;1;1;1;2;01,42;0;0;0;0;0;0;0;();(-2000.0, -2000.0);
06:50:37:993;06:50:37:958;1448647607.85;(0, 0);0;0;06:50:37:993;0;0;-1.5;1;0;0;0;0;1;1;1;1;2;01,42;0;0;0;0;0;0;0;();(-2000.0, -2000.0);
06:50:38:009;06:50:37:958;1448647607.85;(0, 0);0;0;06:50:38:009;0;15;-1.5;1;0;0;0;0;1;1;1;1;2;01,42;0;0;0;0;0;0;0;();(-2000.0, -2000.0);
06:50:38:026;06:50:37:958;1448647607.85;(0, 0);0;0;06:50:38:026;0;10;-1.5;1;0;0;0;0;1;1;1;1;2;01,42;0;0;0;0;0;0;0;();(-2000.0, -2000.0);
06:50:38:043;06:50:38:027;1448647607.91;(0, 0);0;0;06:50:38:043;0;4;-1.5;1;0;0;0;0;1;1;1;1;2;01,42;0;0;0;0;0;0;0;();(-2000.0, -2000.0);
06:50:38:076;06:50:38:027;1448647607.91;(0, 0);0;0;06:50:38:076;0;15;-1.5;1;0;0;0;0;1;1;1;1;2;01,42;0;0;0;0;0;0;0;();(-2000.0, -2000.0);
06:50:38:093;06:50:38:027;1448647607.91;(0, 0);0;0;06:50:38:093;0;10;-1.5;1;0;0;0;0;1;1;1;1;2;01,42;0;0;0;0;0;0;0;();(-2000.0, -2000.0);
06:50:38:110;06:50:38:094;1448647607.98;(0, 0);0;0;06:50:38:110;0;4;-1.5;1;0;0;0;0;1;1;1;1;2;01,42;0;0;0;0;0;0;0;();(-2000.0, -2000.0);
06:50:38:127;06:50:38:094;1448647607.98;(0, 0);0;0;06:50:38:127;0;10;-1.5;1;0.0977517106549365;0;0;0;1;1;1;1;2;01,42;0;0;0;0;0;0;0;();(-2000.0, -2000.0);
06:50:38:143;06:50:38:094;1448647607.98;(0, 0);0;0;06:50:38:143;0;0;-1.5;1;0;0;0;0;1;1;1;1;2;01,42;0;0;0;0;0;0;0;();(-2000.0, -2000.0);
06:50:38:177;06:50:38:156;1448647608.01;(0, 0);0;0;06:50:38:177;0;0;-1.5;1;0;0;0;0;1;1;1;1;2;01,42;0;0;0;0;0;0;0;();(-2000.0, -2000.0);
06:50:38:193;06:50:38:156;1448647608.01;(0, 0);0;0;06:50:38:193;0;14;-1.5;1;0;0;0;0;1;1;1;1;2;01,42;0;0;0;0;0;0;0;();(-2000.0, -2000.0);
06:50:38:210;06:50:38:156;1448647608.01;(0, 0);0;0;06:50:38:210;0;0;-1.5;1;0;0;0;0;1;1;1;1;2;01,42;0;0;0;0;0;0;0;();(-2000.0, -2000.0);
06:50:38:227;06:50:38:226;1448647608.11;(0, 0);0;0;06:50:38:227;0;10;-1.5;1;0;0;0;0;1;1;1;1;2;01,42;0;0;0;0;0;0;0;();(-2000.0, -2000.0);
06:50:38:244;06:50:38:226;1448647608.11;(0, 0);0;0;06:50:38:244;0;11;-1.5;1;0;0;0;0;1;1;1;1;2;01,42;0;0;0;0;0;0;0;();(-2000.0, -2000.0);
06:50:38:277;06:50:38:226;1448647608.11;(0, 0);0;0;06:50:38:277;0;15;-1.5;1;0;0;0;0;1;1;1;1;2;01,42;0;0;0;0;0;0;0;();(-2000.0, -2000.0);
06:50:38:292;06:50:38:289;1448647608.18;(0, 0);0;0;06:50:38:292;0;5;-1.5;1;0;0;0;0;1;1;1;1;2;01,42;0;0;0;0;0;0;0;();(-2000.0, -2000.0);
06:50:38:310;06:50:38:289;1448647608.18;(0, 0);0;0;06:50:38:309;0;10;-1.5;1;0;0;0;0;1;1;1;1;2;01,42;0;0;0;0;0;0;0;();(-2000.0, -2000.0);
06:50:38:327;06:50:38:289;1448647608.18;(0, 0);0;0;06:50:38:327;0;5;-1.5;1;0;0;0;0;1;1;1;1;2;01,42;0;0;0;0;0;0;0;();(-2000.0, -2000.0);
06:50:38:343;06:50:38:289;1448647608.18;(0, 0);0;0;06:50:38:343;0;9;-1.5;1;0;0;0;0;1;1;1;1;2;01,42;0;0;0;0;0;0;0;();(-2000.0, -2000.0);
06:50:38:377;06:50:38:356;1448647608.25;(0, 0);0;0;06:50:38:377;0;10;-1.5;1;0;0;0;0;1;1;1;1;2;01,42;0;0;0;0;0;0;0;();(-2000.0, -2000.0);
06:50:38:393;06:50:38:356;1448647608.25;(0, 0);0;0;06:50:38:393;0;5;-1.5;1;0;0;0;0;1;1;1;1;2;01,42;0;0;0;0;0;0;0;();(-2000.0, -2000.0);
06:50:38:409;06:50:38:356;1448647608.25;(0, 0);0;0;06:50:38:409;0;10;-1.5;1;0;0;0;0;1;1;1;1;2;01,42;0;0;0;0;0;0;0;();(-2000.0, -2000.0);
06:50:38:427;06:50:38:421;1448647608.28;(0, 0);0;0;06:50:38:427;0;15;-1.5;1;0;0;0;0;1;1;1;1;2;01,42;0;0;0;0;0;0;0;();(-2000.0, -2000.0);
06:50:38:443;06:50:38:421;1448647608.28;(0, 0);0;0;06:50:38:443;0;10;-1.5;1;0;0;0;0;1;1;1;1;2;01,42;0;0;0;0;0;0;0;();(-2000.0, -2000.0);
06:50:38:477;06:50:38:421;1448647608.28;(0, 0);0;0;06:50:38:477;0;10;-1.5;1;0;0;0;0;1;1;1;1;2;01,42;0;0;0;0;0;0;0;();(-2000.0, -2000.0);
06:50:38:495;06:50:38:489;1448647608.38;(0, 0);0;0;06:50:38:495;0;5;-1.5;1;0;0;0;0;1;1;1;1;2;01,42;0;0;0;0;0;0;0;();(-2000.0, -2000.0);
06:50:38:510;06:50:38:489;1448647608.38;(0, 0);0;0;06:50:38:510;0;9;-1.5;1;0;0;0;0;1;1;1;1;2;01,42;0;0;0;0;0;0;0;();(-2000.0, -2000.0);
06:50:38:526;06:50:38:489;1448647608.38;(0, 0);0;0;06:50:38:526;0;4;-1.5;1;0;0;0;0;1;1;1;1;2;01,42;0;0;0;0;0;0;0;();(-2000.0, -2000.0);
06:50:38:544;06:50:38:489;1448647608.38;(0, 0);0;0;06:50:38:544;0;0;-1.5;1;0;0;0;0;1;1;1;1;2;01,42;0;0;0;0;0;0;0;();(-2000.0, -2000.0);
06:50:38:577;06:50:38:558;1448647608.45;(0.793643856048584, 0.6841061909993489);27.1719360352;0.672864480125;06:50:38:577;0;4;-1.5;1;0;0;0;0;1;1;1;1;2;01,42;0;0;0;0;0;0;0;();(-2000.0, -2000.0);
06:50:38:593;06:50:38:558;1448647608.45;(0.793643856048584, 0.6841061909993489);27.1719360352;0.672864480125;06:50:38:593;0;15;-1.5;1;0;0;0;0;1;1;1;1;2;01,42;0;0;0;0;0;0;0;();(-2000.0, -2000.0);
06:50:38:611;06:50:38:558;1448647608.45;(0.793643856048584, 0.6841061909993489);27.1719360352;0.672864480125;06:50:38:611;0;4;-1.5;1;0;0;0;0;1;1;1;1;2;01,42;0;0;0;0;0;0;0;();(-2000.0, -2000.0);
06:50:38:627;06:50:38:621;1448647608.51;(0, 0);0;0;06:50:38:627;0;0;-1.5;1;0;0;0;0;1;1;1;1;2;01,42;0;0;0;0;0;0;0;();(-2000.0, -2000.0);
06:50:38:643;06:50:38:621;1448647608.51;(0, 0);0;0;06:50:38:643;0;5;-1.5;1;0;0;0;0;1;1;1;1;2;01,42;0;0;0;0;0;0;0;();(-2000.0, -2000.0);
06:50:38:677;06:50:38:621;1448647608.51;(0, 0);0;0;06:50:38:677;0;4;-1.5;1;0;0;0;0;1;1;1;1;2;01,42;0;0;0;0;0;0;0;();(-2000.0, -2000.0);
06:50:38:693;06:50:38:688;1448647608.58;(0, 0);0;0;06:50:38:693;0;0;-1.5;1;0;0;0;0;1;1;1;1;2;01,42;0;0;0;0;0;0;0;();(-2000.0, -2000.0);
06:50:38:710;06:50:38:688;1448647608.58;(0, 0);0;0;06:50:38:710;0;5;-1.5;1;0;0;0;0;1;1;1;1;2;01,42;0;0;0;0;0;0;0;();(-2000.0, -2000.0);
06:50:38:727;06:50:38:688;1448647608.58;(0, 0);0;0;06:50:38:727;0;10;-1.5;1;0;0;0;0;1;1;1;1;2;01,42;0;0;0;0;0;0;0;();(-2000.0, -2000.0);
06:50:38:743;06:50:38:688;1448647608.58;(0, 0);0;0;06:50:38:743;0;4;-1.5;1;0;0;0;0;1;1;1;1;2;01,42;0;0;0;0;0;0;0;();(-2000.0, -2000.0);
06:50:38:777;06:50:38:755;1448647608.65;(0, 0);0;0;06:50:38:777;0;5;-1.5;1;0;0;0;0;1;1;1;1;2;01,42;0;0;0;0;0;0;0;();(-2000.0, -2000.0);
06:50:38:793;06:50:38:755;1448647608.65;(0, 0);0;0;06:50:38:793;0;10;-1.5;1;0;0;0;0;1;1;1;1;2;01,42;0;0;0;0;0;0;0;();(-2000.0, -2000.0);
06:50:38:810;06:50:38:755;1448647608.65;(0, 0);0;0;06:50:38:810;0;5;-1.5;1;0;0;0;0;1;1;1;1;2;01,42;0;0;0;0;0;0;0;();(-2000.0, -2000.0);
06:50:38:828;06:50:38:822;1448647608.71;(0, 0);0;0;06:50:38:828;0;5;-1.5;1;0;0;0;0;1;1;1;1;2;01,42;0;0;0;0;0;0;0;();(-2000.0, -2000.0);
06:50:38:844;06:50:38:822;1448647608.71;(0, 0);0;0;06:50:38:844;0;4;-1.5;1;0;0;0;0;1;1;1;1;2;01,42;0;0;0;0;0;0;0;();(-2000.0, -2000.0);
06:50:38:877;06:50:38:822;1448647608.71;(0, 0);0;0;06:50:38:877;0;15;-1.5;1;0;0;0;0;1;1;1;1;2;01,42;0;0;0;0;0;0;0;();(-2000.0, -2000.0);
06:50:38:894;06:50:38:889;1448647608.78;(0, 0);0;0;06:50:38:894;0;10;-1.5;1;0;0;0;0;1;1;1;1;2;01,42;0;0;0;0;0;0;0;();(-2000.0, -2000.0);
06:50:38:911;06:50:38:889;1448647608.78;(0, 0);0;0;06:50:38:911;0;4;-1.5;1;0;0;0;0;1;1;1;1;2;01,42;0;0;0;0;0;0;0;();(-2000.0, -2000.0);
06:50:38:927;06:50:38:889;1448647608.78;(0, 0);0;0;06:50:38:927;0;10;-1.5;1;0;0;0;0;1;1;1;1;2;01,42;0;0;0;0;0;0;0;();(-2000.0, -2000.0);
06:50:38:944;06:50:38:889;1448647608.78;(0, 0);0;0;06:50:38:944;0;0;-1.5;1;0;0;0;0;1;1;1;1;2;01,42;0;0;0;0;0;0;0;();(-2000.0, -2000.0);
06:50:38:977;06:50:38:952;1448647608.85;(0, 0);0;0;06:50:38:977;0;15;-1.5;1;0;0;0;0;1;1;1;1;2;01,42;0;0;0;0;0;0;0;();(-2000.0, -2000.0);
06:50:38:994;06:50:38:952;1448647608.85;(0, 0);0;0;06:50:38:994;0;9;-1.5;1;0;0;0;0;1;1;1;1;2;01,42;0;0;0;0;0;0;0;();(-2000.0, -2000.0);
06:50:39:011;06:50:38:952;1448647608.85;(0, 0);0;0;06:50:39:011;0;9;-1.5;1;0;0;0;0;1;1;1;1;2;01,42;0;0;0;0;0;0;0;();(-2000.0, -2000.0);
06:50:39:029;06:50:39:021;1448647608.88;(0, 0);0;0;06:50:39:028;0;5;-1.5;1;0;0;0;0;1;1;1;1;2;01,42;0;0;0;0;0;0;0;();(-2000.0, -2000.0);
06:50:39:044;06:50:39:021;1448647608.88;(0, 0);0;0;06:50:39:044;0;5;-1.5;1;0;0;0;0;1;1;1;1;2;01,42;0;0;0;0;0;0;0;();(-2000.0, -2000.0);
06:50:39:080;06:50:39:021;1448647608.88;(0, 0);0;0;06:50:39:080;0;15;-1.5;1;0.0977517106549365;0;0;0;1;1;1;1;4;01,42,35,27;0;0;0;0;0;0;0;();(-2000.0, -2000.0);
06:50:39:094;06:50:39:087;1448647608.98;(0, 0);0;0;06:50:39:094;0;5;-1.5;1;0;0;0;0;1;1;1;1;4;01,42,35,27;0;0;0;0;0;0;0;();(-2000.0, -2000.0);
06:50:39:111;06:50:39:087;1448647608.98;(0, 0);0;0;06:50:39:111;0;15;-1.5;1;0;0;0;0;1;1;1;1;4;01,42,35,27;0;0;0;0;0;0;0;();(-2000.0, -2000.0);
06:50:39:127;06:50:39:087;1448647608.98;(0, 0);0;0;06:50:39:127;0;5;-1.5;1;0;0;0;0;1;1;1;1;4;01,42,35,27;0;0;0;0;0;0;0;();(-2000.0, -2000.0);
06:50:39:144;06:50:39:087;1448647608.98;(0, 0);0;0;06:50:39:144;0;15;-1.5;1;0;0;0;0;1;1;1;1;4;01,42,35,27;0;0;0;0;0;0;0;();(-2000.0, -2000.0);
06:50:39:161;06:50:39:154;1448647609.01;(0, 0);0;0;06:50:39:161;0;4;-1.5;1;0;0;0;0;1;1;1;1;4;01,42,35,27;0;0;0;0;0;0;0;();(-2000.0, -2000.0);
06:50:39:194;06:50:39:154;1448647609.01;(0, 0);0;0;06:50:39:194;0;5;-1.5;1;0;0;0;0;1;1;1;1;4;01,42,35,27;0;0;0;0;0;0;0;();(-2000.0, -2000.0);
06:50:39:210;06:50:39:154;1448647609.01;(0, 0);0;0;06:50:39:210;0;10;-1.5;1;0;0;0;0;1;1;1;1;4;01,42,35,27;0;0;0;0;0;0;0;();(-2000.0, -2000.0);
06:50:39:227;06:50:39:221;1448647609.11;(0, 0);0;0;06:50:39:227;0;4;-1.5;1;0;0;0;0;1;1;1;1;4;01,42,35,27;0;0;0;0;0;0;0;();(-2000.0, -2000.0);
06:50:39:244;06:50:39:221;1448647609.11;(0, 0);0;0;06:50:39:244;0;15;-1.5;1;0;0;0;0;1;1;1;1;4;01,42,35,27;0;0;0;0;0;0;0;();(-2000.0, -2000.0);
06:50:39:277;06:50:39:221;1448647609.11;(0, 0);0;0;06:50:39:277;0;10;-1.5;1;0;0;0;0;1;1;1;1;4;01,42,35,27;0;0;0;0;0;0;0;();(-2000.0, -2000.0);
06:50:39:294;06:50:39:284;1448647609.15;(0, 0);0;0;06:50:39:294;0;15;-1.5;1;0;0;0;0;1;1;1;1;4;01,42,35,27;0;0;0;0;0;0;0;();(-2000.0, -2000.0);
06:50:39:311;06:50:39:284;1448647609.15;(0, 0);0;0;06:50:39:311;0;4;-1.5;1;0.293255131964809;0;0;0;1;1;1;1;4;01,42,35,27;0;0;0;0;0;0;0;();(-2000.0, -2000.0);
06:50:39:327;06:50:39:284;1448647609.15;(0, 0);0;0;06:50:39:327;0;4;-1.5;1;0.293255131964809;0;0;0;1;1;1;1;4;01,42,35,27;0;0;0;0;0;0;0;();(-2000.0, -2000.0);
06:50:39:344;06:50:39:284;1448647609.15;(0, 0);0;0;06:50:39:344;0;9;-1.5;1;0;0;0;0;1;1;1;1;4;01,42,35,27;0;0;0;0;0;0;0;();(-2000.0, -2000.0);
06:50:39:361;06:50:39:353;1448647609.21;(0, 0);0;0;06:50:39:361;0;5;-1.5;1;0;0;0;0;1;1;1;1;4;01,42,35,27;0;0;0;0;0;0;0;();(-2000.0, -2000.0);
06:50:39:394;06:50:39:353;1448647609.21;(0, 0);0;0;06:50:39:394;0;15;-1.5;1;0;0;0;0;1;1;1;1;4;01,42,35,27;0;0;0;0;0;0;0;();(-2000.0, -2000.0);
06:50:39:411;06:50:39:353;1448647609.21;(0, 0);0;0;06:50:39:411;0;5;-1.5;1;0;0;0;0;1;1;1;1;4;01,42,35,27;0;0;0;0;0;0;0;();(-2000.0, -2000.0);
06:50:39:428;06:50:39:417;1448647609.28;(0, 0);0;0;06:50:39:428;0;5;-1.5;1;0;0;0;0;1;1;1;1;4;01,42,35,27;0;0;0;0;0;0;0;();(-2000.0, -2000.0);
06:50:39:444;06:50:39:417;1448647609.28;(0, 0);0;0;06:50:39:444;0;5;-1.5;1;0;0;0;0;1;1;1;1;4;01,42,35,27;0;0;0;0;0;0;0;();(-2000.0, -2000.0);
06:50:39:461;06:50:39:417;1448647609.28;(0, 0);0;0;06:50:39:461;0;5;-1.5;1;0;0;0;0;1;1;1;1;4;01,42,35,27;0;0;0;0;0;0;0;();(-2000.0, -2000.0);
06:50:39:494;06:50:39:485;1448647609.38;(0, 0);0;0;06:50:39:494;0;15;-1.5;1;0;0;0;0;1;1;1;1;4;01,42,35,27;0;0;0;0;0;0;0;();(-2000.0, -2000.0);
06:50:39:511;06:50:39:485;1448647609.38;(0, 0);0;0;06:50:39:511;0;5;-1.5;1;0;0;0;0;1;1;1;1;4;01,42,35,27;0;0;0;0;0;0;0;();(-2000.0, -2000.0);
06:50:39:528;06:50:39:485;1448647609.38;(0, 0);0;0;06:50:39:528;0;9;-1.5;1;0;0;0;0;1;1;1;1;4;01,42,35,27;0;0;0;0;0;0;0;();(-2000.0, -2000.0);
06:50:39:544;06:50:39:485;1448647609.38;(0, 0);0;0;06:50:39:544;0;4;-1.5;1;0;0;0;0;1;1;1;1;4;01,42,35,27;0;0;0;0;0;0;0;();(-2000.0, -2000.0);
06:50:39:561;06:50:39:553;1448647609.45;(0, 0);0;0;06:50:39:561;0;10;-1.5;1;0;0;0;0;1;1;1;1;4;01,42,35,27;0;0;0;0;0;0;0;();(-2000.0, -2000.0);
06:50:39:594;06:50:39:553;1448647609.45;(0, 0);0;0;06:50:39:594;0;10;-1.5;1;0;0;0;0;1;1;1;1;4;01,42,35,27;0;0;0;0;0;0;0;();(-2000.0, -2000.0);
06:50:39:611;06:50:39:553;1448647609.45;(0, 0);0;0;06:50:39:611;0;12;-1.5;1;0;0;0;0;1;1;1;1;4;01,42,35,27;0;0;0;0;0;0;0;();(-2000.0, -2000.0);
06:50:39:628;06:50:39:617;1448647609.48;(0, 0);0;0;06:50:39:628;0;9;-1.5;1;0;0;0;0;1;1;1;1;4;01,42,35,27;0;0;0;0;0;0;0;();(-2000.0, -2000.0);
06:50:39:644;06:50:39:617;1448647609.48;(0, 0);0;0;06:50:39:644;0;4;-1.5;1;0;0;0;0;1;1;1;1;4;01,42,35,27;0;0;0;0;0;0;0;();(-2000.0, -2000.0);
06:50:39:661;06:50:39:617;1448647609.48;(0, 0);0;0;06:50:39:661;0;10;-1.5;1;0;0;0;0;1;1;1;1;4;01,42,35,27;0;0;0;0;0;0;0;();(-2000.0, -2000.0);
06:50:39:695;06:50:39:685;1448647609.58;(0, 0);0;0;06:50:39:695;0;10;-1.5;1;0;0;0;0;1;1;1;1;4;01,42,35,27;0;0;0;0;0;0;0;();(-2000.0, -2000.0);
06:50:39:711;06:50:39:685;1448647609.58;(0, 0);0;0;06:50:39:711;0;4;-1.5;1;0;0;0;0;1;1;1;1;4;01,42,35,27;0;0;0;0;0;0;0;();(-2000.0, -2000.0);
06:50:39:728;06:50:39:685;1448647609.58;(0, 0);0;0;06:50:39:728;0;10;-1.5;1;0;0;0;0;1;1;1;1;4;01,42,35,27;0;0;0;0;0;0;0;();(-2000.0, -2000.0);
06:50:39:744;06:50:39:685;1448647609.58;(0, 0);0;0;06:50:39:744;0;15;-1.5;1;0;0;0;0;1;1;1;1;4;01,42,35,27;0;0;0;0;0;0;0;();(-2000.0, -2000.0);
06:50:39:761;06:50:39:755;1448647609.65;(0, 0);0;0;06:50:39:761;0;10;-1.5;1;0;0;0;0;1;1;1;1;4;01,42,35,27;0;0;0;0;0;0;0;();(-2000.0, -2000.0);
06:50:39:794;06:50:39:755;1448647609.65;(0, 0);0;0;06:50:39:794;0;4;-1.5;1;0;0;0;0;1;1;1;1;4;01,42,35,27;0;0;0;0;0;0;0;();(-2000.0, -2000.0);
06:50:39:811;06:50:39:755;1448647609.65;(0, 0);0;0;06:50:39:811;0;15;-1.5;1;0;0;0;0;1;1;1;1;4;01,42,35,27;0;0;0;0;0;0;0;();(-2000.0, -2000.0);
06:50:39:828;06:50:39:817;1448647609.68;(0, 0);0;0;06:50:39:828;0;5;-1.5;1;0;0;0;0;1;1;1;1;4;01,42,35,27;0;0;0;0;0;0;0;();(-2000.0, -2000.0);
06:50:39:844;06:50:39:817;1448647609.68;(0, 0);0;0;06:50:39:844;0;15;-1.5;1;0;0;0;0;1;1;1;1;4;01,42,35,27;0;0;0;0;0;0;0;();(-2000.0, -2000.0);
06:50:39:862;06:50:39:817;1448647609.68;(0, 0);0;0;06:50:39:862;0;4;-1.5;1;0;0;0;0;1;1;1;1;4;01,42,35,27;0;0;0;0;0;0;0;();(-2000.0, -2000.0);
06:50:39:895;06:50:39:885;1448647609.75;(0, 0);0;0;06:50:39:895;0;4;-1.5;1;0;0;0;0;1;1;1;1;4;01,42,35,27;0;0;0;0;0;0;0;();(-2000.0, -2000.0);
06:50:39:911;06:50:39:885;1448647609.75;(0, 0);0;0;06:50:39:911;0;10;-1.5;1;0;0;0;0;1;1;1;1;4;01,42,35,27;0;0;0;0;0;0;0;();(-2000.0, -2000.0);
06:50:39:927;06:50:39:885;1448647609.75;(0, 0);0;0;06:50:39:927;0;5;-1.5;1;0;0;0;0;1;1;1;1;4;01,42,35,27;0;0;0;0;0;0;0;();(-2000.0, -2000.0);
06:50:39:944;06:50:39:885;1448647609.75;(0, 0);0;0;06:50:39:944;0;9;-1.5;1;0;0;0;0;1;1;1;1;4;01,42,35,27;0;0;0;0;0;0;0;();(-2000.0, -2000.0);
06:50:39:961;06:50:39:950;1448647609.81;(0, 0);0;0;06:50:39:961;0;9;-1.5;1;0;0;0;0;1;1;1;1;4;01,42,35,27;0;0;0;0;0;0;0;();(-2000.0, -2000.0);
06:50:39:995;06:50:39:950;1448647609.81;(0, 0);0;0;06:50:39:995;0;15;-1.5;1;0;0;0;0;1;1;1;1;4;01,42,35,27;0;0;0;0;0;0;0;();(-2000.0, -2000.0);
06:50:40:011;06:50:39:950;1448647609.81;(0, 0);0;0;06:50:40:011;0;10;-1.5;1;0;0;0;0;1;1;1;1;4;01,42,35,27;0;0;0;0;0;0;0;();(-2000.0, -2000.0);
06:50:40:028;06:50:40:017;1448647609.88;(0, 0);0;0;06:50:40:028;0;4;-1.5;1;0;0;0;0;1;1;1;1;4;01,42,35,27;0;0;0;0;0;0;0;();(-2000.0, -2000.0);
06:50:40:045;06:50:40:017;1448647609.88;(0, 0);0;0;06:50:40:045;0;10;-1.5;1;0;0;0;0;1;1;1;1;4;01,42,35,27;0;0;0;0;0;0;0;();(-2000.0, -2000.0);
06:50:40:061;06:50:40:017;1448647609.88;(0, 0);0;0;06:50:40:061;0;4;-1.5;1;0;0;0;0;1;1;1;1;4;01,42,35,27;0;0;0;0;0;0;0;();(-2000.0, -2000.0);
06:50:40:095;06:50:40:084;1448647609.95;(0, 0);0;0;06:50:40:095;0;5;-1.5;1;0;0;0;0;1;1;1;1;4;01,42,35,27;0;0;0;0;0;0;0;();(-2000.0, -2000.0);
06:50:40:112;06:50:40:084;1448647609.95;(0, 0);0;0;06:50:40:112;0;10;-1.5;1;0;0;0;0;1;1;1;1;4;01,42,35,27;0;0;0;0;0;0;0;();(-2000.0, -2000.0);
06:50:40:128;06:50:40:084;1448647609.95;(0, 0);0;0;06:50:40:128;0;15;-1.5;1;0;0;0;0;1;1;1;1;4;01,42,35,27;0;0;0;0;0;0;0;();(-2000.0, -2000.0);
06:50:40:145;06:50:40:084;1448647609.95;(0, 0);0;0;06:50:40:145;0;9;-1.5;1;0;0;0;0;1;1;1;1;4;01,42,35,27;0;0;0;0;0;0;0;();(-2000.0, -2000.0);
06:50:40:162;06:50:40:152;1448647610.05;(0, 0);0;0;06:50:40:162;0;15;-1.5;1;0;0;0;0;1;1;1;1;4;01,42,35,27;0;0;0;0;0;0;0;();(-2000.0, -2000.0);
06:50:40:195;06:50:40:152;1448647610.05;(0, 0);0;0;06:50:40:195;0;15;-1.5;1;0;0;0;0;1;1;1;1;4;01,42,35,27;0;0;0;0;0;0;0;();(-2000.0, -2000.0);
06:50:40:211;06:50:40:152;1448647610.05;(0, 0);0;0;06:50:40:211;0;5;-1.5;1;0;0;0;0;1;1;1;1;4;01,42,35,27;0;0;0;0;0;0;0;();(-2000.0, -2000.0);
06:50:40:228;06:50:40:217;1448647610.08;(0, 0);0;0;06:50:40:228;0;0;-1.5;1;0;0;0;0;1;1;1;1;4;01,42,35,27;0;0;0;0;0;0;0;();(-2000.0, -2000.0);
06:50:40:245;06:50:40:217;1448647610.08;(0, 0);0;0;06:50:40:245;0;4;-1.5;1;0;0;0;0;1;1;1;1;4;01,42,35,27;0;0;0;0;0;0;0;();(-2000.0, -2000.0);
06:50:40:261;06:50:40:217;1448647610.08;(0, 0);0;0;06:50:40:261;0;0;-1.5;1;0;0;0;0;1;1;1;1;4;01,42,35,27;0;0;0;0;0;0;0;();(-2000.0, -2000.0);
06:50:40:295;06:50:40:280;1448647610.15;(0, 0);0;0;06:50:40:295;0;0;-1.5;1;0;0;0;0;1;1;1;1;4;01,42,35,27;0;0;0;0;0;0;0;();(-2000.0, -2000.0);
06:50:40:311;06:50:40:280;1448647610.15;(0, 0);0;0;06:50:40:311;0;5;-1.5;1;0;0;0;0;1;1;1;1;4;01,42,35,27;0;0;0;0;0;0;0;();(-2000.0, -2000.0);
06:50:40:328;06:50:40:280;1448647610.15;(0, 0);0;0;06:50:40:328;0;10;-1.5;1;0;0;0;0;1;1;1;1;4;01,42,35,27;0;0;0;0;0;0;0;();(-2000.0, -2000.0);
06:50:40:345;06:50:40:280;1448647610.15;(0, 0);0;0;06:50:40:345;0;4;-1.5;1;0;0;0;0;1;1;1;1;4;01,42,35,27;0;0;0;0;0;0;0;();(-2000.0, -2000.0);
06:50:40:362;06:50:40:349;1448647610.21;(0, 0);0;0;06:50:40:362;0;9;-1.5;1;0;0;0;0;1;1;1;1;4;01,42,35,27;0;0;0;0;0;0;0;();(-2000.0, -2000.0);
06:50:40:395;06:50:40:349;1448647610.21;(0, 0);0;0;06:50:40:395;0;10;-1.5;1;0;0;0;0;1;1;1;1;4;01,42,35,27;0;0;0;0;0;0;0;();(-2000.0, -2000.0);
06:50:40:412;06:50:40:349;1448647610.21;(0, 0);0;0;06:50:40:412;0;15;-1.5;1;0;0;0;0;1;1;1;1;4;01,42,35,27;0;0;0;0;0;0;0;();(-2000.0, -2000.0);
06:50:40:428;06:50:40:414;1448647610.28;(0, 0);0;0;06:50:40:428;0;9;-1.5;1;0;0;0;0;1;1;1;1;4;01,42,35,27;0;0;0;0;0;0;0;();(-2000.0, -2000.0);
06:50:40:445;06:50:40:414;1448647610.28;(0, 0);0;0;06:50:40:445;0;13;-1.5;1;0;0;0;0;1;1;1;1;4;01,42,35,27;0;0;0;0;0;0;0;();(-2000.0, -2000.0);
06:50:40:462;06:50:40:414;1448647610.28;(0, 0);0;0;06:50:40:462;0;10;-1.5;1;0;0;0;0;1;1;1;1;4;01,42,35,27;0;0;0;0;0;0;0;();(-2000.0, -2000.0);
06:50:40:495;06:50:40:483;1448647610.35;(0, 0);0;0;06:50:40:495;0;10;-1.5;1;0;0;0;0;1;1;1;1;4;01,42,35,27;0;0;0;0;0;0;0;();(-2000.0, -2000.0);
06:50:40:512;06:50:40:483;1448647610.35;(0, 0);0;0;06:50:40:512;0;4;-1.5;1;0;0;0;0;1;1;1;1;4;01,42,35,27;0;0;0;0;0;0;0;();(-2000.0, -2000.0);
06:50:40:529;06:50:40:483;1448647610.35;(0, 0);0;0;06:50:40:529;0;10;-1.5;1;0.0977517106549365;0;0;0;1;1;1;1;4;01,42,35,27;0;0;0;0;0;0;0;();(-2000.0, -2000.0);
06:50:40:545;06:50:40:483;1448647610.35;(0, 0);0;0;06:50:40:545;0;0;-1.5;1;0;0;0;0;1;1;1;1;4;01,42,35,27;0;0;0;0;0;0;0;();(-2000.0, -2000.0);
06:50:40:562;06:50:40:549;1448647610.41;(0, 0);0;0;06:50:40:562;0;10;-1.5;1;0;0;0;0;1;1;1;1;4;01,42,35,27;0;0;0;0;0;0;0;();(-2000.0, -2000.0);
06:50:40:597;06:50:40:549;1448647610.41;(0, 0);0;0;06:50:40:597;0;4;-1.5;1;0;0;0;0;1;1;1;1;4;01,42,35,27;0;0;0;0;0;0;0;();(-2000.0, -2000.0);
06:50:40:612;06:50:40:549;1448647610.41;(0, 0);0;0;06:50:40:612;0;0;-1.5;1;0;0;0;0;1;1;1;1;4;01,42,35,27;0;0;0;0;0;0;0;();(-2000.0, -2000.0);
06:50:40:629;06:50:40:613;1448647610.51;(0, 0);0;0;06:50:40:629;0;5;-1.5;1;0;0;0;0;1;1;1;1;4;01,42,35,27;0;0;0;0;0;0;0;();(-2000.0, -2000.0);
06:50:40:646;06:50:40:613;1448647610.51;(0, 0);0;0;06:50:40:646;0;15;-1.5;1;0;0;0;0;1;1;1;1;4;01,42,35,27;0;0;0;0;0;0;0;();(-2000.0, -2000.0);
06:50:40:662;06:50:40:613;1448647610.51;(0, 0);0;0;06:50:40:662;0;4;-1.5;1;0;0;0;0;1;1;1;1;4;01,42,35,27;0;0;0;0;0;0;0;();(-2000.0, -2000.0);
06:50:40:696;06:50:40:681;1448647610.58;(0, 0);0;0;06:50:40:696;0;5;-1.5;1;0;0;0;0;1;1;1;1;4;01,42,35,27;0;0;0;0;0;0;0;();(-2000.0, -2000.0);
06:50:40:712;06:50:40:681;1448647610.58;(0, 0);0;0;06:50:40:712;0;5;-1.5;1;0;0;0;0;1;1;1;1;4;01,42,35,27;1;3;01;0;0;0;0;();(-2000.0, -2000.0);
06:50:40:728;06:50:40:681;1448647610.58;(0, 0);0;0;06:50:40:728;0;10;-1.5;1;0;0;0;0;1;1;1;1;4;01,42,35,27;0;0;0;0;0;0;0;();(-2000.0, -2000.0);
06:50:40:746;06:50:40:744;1448647610.61;(0, 0);0;0;06:50:40:745;0;10;-1.5;1;0;0;0;0;1;1;1;1;4;01,42,35,27;0;0;0;0;0;0;0;();(-2000.0, -2000.0);
06:50:40:762;06:50:40:744;1448647610.61;(0, 0);0;0;06:50:40:762;0;9;-1.5;1;0;0;0;0;1;1;1;1;4;01,42,35,27;0;0;0;0;0;0;0;();(-2000.0, -2000.0);
06:50:40:796;06:50:40:744;1448647610.61;(0, 0);0;0;06:50:40:796;0;5;-1.5;1;0;0;0;0;1;1;1;1;4;01,42,35,27;0;0;0;0;0;0;0;();(-2000.0, -2000.0);
06:50:40:813;06:50:40:744;1448647610.61;(0, 0);0;0;06:50:40:813;0;10;-1.5;1;0;0;0;0;1;1;1;1;4;01,42,35,27;0;0;0;0;0;0;0;();(-2000.0, -2000.0);
06:50:40:829;06:50:40:814;1448647610.68;(0, 0);0;0;06:50:40:829;0;4;-1.5;1;0;0;0;0;1;1;1;1;4;01,42,35,27;0;0;0;0;0;0;0;();(-2000.0, -2000.0);
06:50:40:845;06:50:40:814;1448647610.68;(0, 0);0;0;06:50:40:845;0;10;-1.5;1;0;0;0;0;1;1;1;1;4;01,42,35,27;0;0;0;0;0;0;0;();(-2000.0, -2000.0);
06:50:40:862;06:50:40:814;1448647610.68;(0, 0);0;0;06:50:40:862;0;0;-1.5;1;0;0;0;0;1;1;1;1;4;01,42,35,27;0;0;0;0;0;0;0;();(-2000.0, -2000.0);
06:50:40:895;06:50:40:881;1448647610.78;(0, 0);0;0;06:50:40:895;0;15;-1.5;1;0;0;0;0;1;1;1;1;4;01,42,35,27;0;0;0;0;0;0;0;();(-2000.0, -2000.0);
06:50:40:912;06:50:40:881;1448647610.78;(0, 0);0;0;06:50:40:912;0;4;-1.5;1;0;0;0;0;1;1;1;1;4;01,42,35,27;0;0;0;0;0;0;0;();(-2000.0, -2000.0);
06:50:40:929;06:50:40:881;1448647610.78;(0, 0);0;0;06:50:40:929;0;15;-1.5;1;0;0;0;0;1;1;1;1;4;01,42,35,27;0;0;0;0;0;0;0;();(-2000.0, -2000.0);
06:50:40:946;06:50:40:945;1448647610.81;(0, 0);0;0;06:50:40:946;0;4;-1.5;1;0;0;0;0;1;1;1;1;4;01,42,35,27;0;0;0;0;0;0;0;();(-2000.0, -2000.0);
06:50:40:962;06:50:40:945;1448647610.81;(0, 0);0;0;06:50:40:962;0;0;-1.5;1;0;0;0;0;1;1;1;1;4;01,42,35,27;0;0;0;0;0;0;0;();(-2000.0, -2000.0);
06:50:40:995;06:50:40:945;1448647610.81;(0, 0);0;0;06:50:40:995;0;15;-1.5;1;0;0;0;0;1;1;1;1;4;01,42,35,27;0;0;0;0;0;0;0;();(-2000.0, -2000.0);
06:50:41:013;06:50:41:013;1448647610.91;(0, 0);0;0;06:50:41:013;0;5;-1.5;1;0;0;0;0;1;1;1;1;4;01,42,35,27;0;0;0;0;0;0;0;();(-2000.0, -2000.0);
06:50:41:029;06:50:41:013;1448647610.91;(0, 0);0;0;06:50:41:029;0;10;-1.5;1;0;0;0;0;1;1;1;1;4;01,42,35,27;0;0;0;0;0;0;0;();(-2000.0, -2000.0);
06:50:41:046;06:50:41:013;1448647610.91;(0, 0);0;0;06:50:41:046;0;10;-1.5;1;0;0;0;0;1;1;1;1;4;01,42,35,27;0;0;0;0;0;0;0;();(-2000.0, -2000.0);
06:50:41:062;06:50:41:013;1448647610.91;(0, 0);0;0;06:50:41:062;0;15;-1.5;1;0;0;0;0;1;1;1;1;4;01,42,35,27;0;0;0;0;0;0;0;();(-2000.0, -2000.0);
06:50:41:095;06:50:41:076;1448647610.95;(0, 0);0;0;06:50:41:095;0;10;-1.5;1;0;0;0;0;1;1;1;1;4;01,42,35,27;0;0;0;0;0;0;0;();(-2000.0, -2000.0);
06:50:41:112;06:50:41:076;1448647610.95;(0, 0);0;0;06:50:41:112;0;5;-1.5;1;0;0;0;0;1;1;1;1;4;01,42,35,27;0;0;0;0;0;0;0;();(-2000.0, -2000.0);
06:50:41:129;06:50:41:076;1448647610.95;(0, 0);0;0;06:50:41:129;0;10;-1.5;1;0;0;0;0;1;1;1;1;4;01,42,35,27;0;0;0;0;0;0;0;();(-2000.0, -2000.0);
06:50:41:146;06:50:41:144;1448647611.01;(0.7622670650482177, 0.7199522230360242);24.4114208221;0.645660010267;06:50:41:146;0;5;-1.5;1;0;0;0;0;1;1;1;1;4;01,42,35,27;0;0;0;0;0;0;0;();(-2000.0, -2000.0);
06:50:41:162;06:50:41:144;1448647611.01;(0.7622670650482177, 0.7199522230360242);24.4114208221;0.645660010267;06:50:41:162;0;10;-1.5;1;0;0;0;0;1;1;1;1;4;01,42,35,27;0;0;0;0;0;0;0;();(-2000.0, -2000.0);
06:50:41:195;06:50:41:144;1448647611.01;(0.7622670650482177, 0.7199522230360242);24.4114208221;0.645660010267;06:50:41:195;0;10;-1.5;1;0;0;0;0;1;1;1;1;4;01,42,35,27;0;0;0;0;0;0;0;();(-2000.0, -2000.0);
06:50:41:212;06:50:41:209;1448647611.08;(0, 0);0;0;06:50:41:212;0;15;-1.5;1;0;0;0;0;1;1;1;1;4;01,42,35,27;0;0;0;0;0;0;0;();(-2000.0, -2000.0);
06:50:41:228;06:50:41:209;1448647611.08;(0, 0);0;0;06:50:41:228;0;9;-1.5;1;0;0;0;0;1;1;1;1;4;01,42,35,27;0;0;0;0;0;0;0;();(-2000.0, -2000.0);
06:50:41:245;06:50:41:209;1448647611.08;(0, 0);0;0;06:50:41:245;0;0;-1.5;1;0;0;0;0;1;1;1;1;4;01,42,35,27;0;0;0;0;0;0;0;();(-2000.0, -2000.0);
06:50:41:263;06:50:41:209;1448647611.08;(0, 0);0;0;06:50:41:263;0;10;-1.5;1;0;0;0;0;1;1;1;1;4;01,42,35,27;0;0;0;0;0;0;0;();(-2000.0, -2000.0);
06:50:41:296;06:50:41:281;1448647611.15;(0, 0);0;0;06:50:41:296;0;10;-1.5;1;0;0;0;0;1;1;1;1;4;01,42,35,27;0;0;0;0;0;0;0;();(-2000.0, -2000.0);
06:50:41:313;06:50:41:281;1448647611.15;(0, 0);0;0;06:50:41:313;0;14;-1.5;1;0;0;0;0;1;1;1;1;4;01,42,35,27;0;0;0;0;0;0;0;();(-2000.0, -2000.0);
06:50:41:329;06:50:41:281;1448647611.15;(0, 0);0;0;06:50:41:329;0;9;-1.5;1;0;0;0;0;1;1;1;1;4;01,42,35,27;0;0;0;0;0;0;0;();(-2000.0, -2000.0);
06:50:41:346;06:50:41:345;1448647611.21;(0, 0);0;0;06:50:41:346;0;0;-1.5;1;0;0;0;0;1;1;1;1;4;01,42,35,27;0;0;0;0;0;0;0;();(-2000.0, -2000.0);
06:50:41:363;06:50:41:345;1448647611.21;(0, 0);0;0;06:50:41:363;0;2;-1.5;1;0;0;0;0;1;1;1;1;4;01,42,35,27;0;0;0;0;0;0;0;();(-2000.0, -2000.0);
06:50:41:396;06:50:41:345;1448647611.21;(0, 0);0;0;06:50:41:396;0;9;-1.5;1;0;0;0;0;1;1;1;1;4;01,42,35,27;0;0;0;0;0;0;0;();(-2000.0, -2000.0);
06:50:41:413;06:50:41:345;1448647611.21;(0, 0);0;0;06:50:41:413;0;0;-1.5;1;0;0;0;0;1;1;1;1;4;01,42,35,27;0;0;0;0;0;0;0;();(-2000.0, -2000.0);
06:50:41:430;06:50:41:421;1448647611.28;(0, 0);0;0;06:50:41:430;0;9;-1.5;1;0;0;0;0;1;1;1;1;4;01,42,35,27;0;0;0;0;0;0;0;();(-2000.0, -2000.0);
06:50:41:863;06:50:41:809;1448647611.68;(0, 0);0;0;06:50:41:863;0;9;-1.5;1;0;0;0;0;1;1;1;1;4;01,42,35,27;0;0;0;0;0;0;0;();(-2000.0, -2000.0);
06:50:41:866;06:50:41:809;1448647611.68;(0, 0);0;0;06:50:41:866;0;9;-1.5;1;0;0;0;0;1;1;1;1;4;01,42,35,27;0;0;0;0;0;0;0;();(-2000.0, -2000.0);
06:50:41:870;06:50:41:809;1448647611.68;(0, 0);0;0;06:50:41:870;0;9;-1.5;1;0;0;0;0;1;1;1;1;4;01,42,35,27;0;0;0;0;0;0;0;();(-2000.0, -2000.0);
06:50:41:873;06:50:41:873;1448647611.75;(0, 0);0;0;06:50:41:873;0;4;-1.5;1;0;0;0;0;1;1;1;1;4;01,42,35,27;0;0;0;0;0;0;0;();(-2000.0, -2000.0);
06:50:41:877;06:50:41:873;1448647611.75;(0, 0);0;0;06:50:41:877;0;4;-1.5;1;0;0;0;0;1;1;1;1;4;01,42,35,27;0;0;0;0;0;0;0;();(-2000.0, -2000.0);
06:50:41:880;06:50:41:873;1448647611.75;(0, 0);0;0;06:50:41:880;0;4;-1.5;1;0;0;0;0;1;1;1;1;4;01,42,35,27;0;0;0;0;0;0;0;();(-2000.0, -2000.0);
06:50:41:884;06:50:41:873;1448647611.75;(0, 0);0;0;06:50:41:884;0;4;-1.5;1;0;0;0;0;1;1;1;1;4;01,42,35,27;0;0;0;0;0;0;0;();(-2000.0, -2000.0);
06:50:41:887;06:50:41:873;1448647611.75;(0, 0);0;0;06:50:41:887;0;0;-1.5;1;0;0;0;0;1;1;1;1;4;01,42,35,27;0;0;0;0;0;0;0;();(-2000.0, -2000.0);
06:50:41:891;06:50:41:873;1448647611.75;(0, 0);0;0;06:50:41:891;0;0;-1.5;1;0;0;0;0;1;1;1;1;4;01,42,35,27;0;0;0;0;0;0;0;();(-2000.0, -2000.0);
06:50:41:894;06:50:41:873;1448647611.75;(0, 0);0;0;06:50:41:894;0;10;-1.5;1;0;0;0;0;1;1;1;1;4;01,42,35,27;0;0;0;0;0;0;0;();(-2000.0, -2000.0);
06:50:41:898;06:50:41:873;1448647611.75;(0, 0);0;0;06:50:41:897;0;10;-1.5;1;0;0;0;0;1;1;1;1;4;01,42,35,27;0;0;0;0;0;0;0;();(-2000.0, -2000.0);
06:50:41:901;06:50:41:873;1448647611.75;(0, 0);0;0;06:50:41:901;0;10;-1.5;1;0;0;0;0;1;1;1;1;4;01,42,35,27;0;0;0;0;0;0;0;();(-2000.0, -2000.0);
06:50:41:904;06:50:41:873;1448647611.75;(0, 0);0;0;06:50:41:904;0;10;-1.5;1;0;0;0;0;1;1;1;1;4;01,42,35,27;0;0;0;0;0;0;0;();(-2000.0, -2000.0);
06:50:41:906;06:50:41:873;1448647611.75;(0, 0);0;0;06:50:41:906;0;10;-1.5;1;0;0;0;0;1;1;1;1;4;01,42,35,27;0;0;0;0;0;0;0;();(-2000.0, -2000.0);
06:50:41:907;06:50:41:873;1448647611.75;(0, 0);0;0;06:50:41:907;0;5;-1.5;1;0;0;0;0;1;1;1;1;4;01,42,35,27;0;0;0;0;0;0;0;();(-2000.0, -2000.0);
06:50:41:909;06:50:41:873;1448647611.75;(0, 0);0;0;06:50:41:909;0;5;-1.5;1;0;0;0;0;1;1;1;1;4;01,42,35,27;0;0;0;0;0;0;0;();(-2000.0, -2000.0);
06:50:41:910;06:50:41:873;1448647611.75;(0, 0);0;0;06:50:41:910;0;5;-1.5;1;0;0;0;0;1;1;1;1;4;01,42,35,27;0;0;0;0;0;0;0;();(-2000.0, -2000.0);
06:50:41:912;06:50:41:873;1448647611.75;(0, 0);0;0;06:50:41:912;0;5;-1.5;1;0;0;0;0;1;1;1;1;4;01,42,35,27;0;0;0;0;0;0;0;();(-2000.0, -2000.0);
06:50:41:914;06:50:41:873;1448647611.75;(0, 0);0;0;06:50:41:914;0;5;-1.5;1;0;0;0;0;1;1;1;1;4;01,42,35,27;0;0;0;0;0;0;0;();(-2000.0, -2000.0);
06:50:41:929;06:50:41:873;1448647611.75;(0, 0);0;0;06:50:41:929;0;10;-1.5;1;0;0;0;0;1;1;1;1;4;01,42,35,27;0;0;0;0;0;0;0;();(-2000.0, -2000.0);
06:50:41:946;06:50:41:940;1448647611.81;(0, 0);0;0;06:50:41:946;0;11;-1.5;1;0;0;0;0;1;1;1;1;4;01,42,35,27;0;0;0;0;0;0;0;();(-2000.0, -2000.0);
06:50:41:963;06:50:41:940;1448647611.81;(0, 0);0;0;06:50:41:963;0;10;-1.5;1;0;0;0;0;1;1;1;1;4;01,42,35,27;0;0;0;0;0;0;0;();(-2000.0, -2000.0);
06:50:41:996;06:50:41:940;1448647611.81;(0, 0);0;0;06:50:41:996;0;0;-1.5;1;0;0;0;0;1;1;1;1;4;01,42,35,27;0;0;0;0;0;0;0;();(-2000.0, -2000.0);
06:50:42:013;06:50:41:940;1448647611.81;(0, 0);0;0;06:50:42:013;0;5;-1.5;1;0;0;0;0;1;1;1;1;4;01,42,35,27;0;0;0;0;0;0;0;();(-2000.0, -2000.0);
06:50:42:029;06:50:41:940;1448647611.81;(0, 0);0;0;06:50:42:029;0;5;-1.5;1;0;0;0;0;1;1;1;1;4;01,42,35,27;0;0;0;0;0;0;0;();(-2000.0, -2000.0);
06:50:42:046;06:50:42:037;1448647611.88;(0, 0);0;0;06:50:42:046;0;0;-1.5;1;0;0;0;0;1;1;1;1;4;01,42,35,27;0;0;0;0;0;0;0;();(-2000.0, -2000.0);
