%Timestamp,timestamp_write;timestamp_gotpupil;eyeTrackerTime;normPos;diameter;confidence;timestamp_gotbitdata;CRC;SEQ;AnalogOutp1;AnalogOutp2;AnalogOutp3;AnalogOutp4;AnalogOutp5;AnalogOutp6;DigitalOutp1;DigitalOutp2;DigitalOutp3;DigitalOutp4;nplanes;listofAirplanesonScreen;lastAction;lastActionDetails;lastActionAirplaneNumber;calculatedScore;positiveScore;negativeScore;collidedAirplaneNumbers;targetPositions;collisionPoint
10:48:44:949;10:48:44:936;1448877893.74;(0.417849063873291, 0.4929526858859592);53.7961502075;1.0;;;;;;;;;;;;;;0;0;0;0;0;0;0;0;0;();(0.0, 0.0);
10:48:44:954;10:48:44:939;1448877893.78;(0.4182043790817261, 0.4932034386528863);53.6794433594;1.0;;;;;;;;;;;;;;0;0;0;0;0;0;0;0;0;();(-2000.0, -2000.0);
10:48:44:955;10:48:44:939;1448877893.78;(0.4182043790817261, 0.4932034386528863);53.6794433594;1.0;;;;;;;;;;;;;;0;0;0;0;0;0;0;0;0;();(-2000.0, -2000.0);
10:48:44:955;10:48:44:939;1448877893.78;(0.4182043790817261, 0.4932034386528863);53.6794433594;1.0;;;;;;;;;;;;;;0;0;0;0;0;0;0;0;0;();(-2000.0, -2000.0);
10:48:44:955;10:48:44:939;1448877893.78;(0.4182043790817261, 0.4932034386528863);53.6794433594;1.0;;;;;;;;;;;;;;0;0;0;0;0;0;0;0;0;();(-2000.0, -2000.0);
10:48:44:956;10:48:44:939;1448877893.78;(0.4182043790817261, 0.4932034386528863);53.6794433594;1.0;;;;;;;;;;;;;;0;0;0;0;0;0;0;0;0;();(-2000.0, -2000.0);
10:48:44:956;10:48:44:939;1448877893.78;(0.4182043790817261, 0.4932034386528863);53.6794433594;1.0;;;;;;;;;;;;;;0;0;0;0;0;0;0;0;0;();(-2000.0, -2000.0);
10:48:44:956;10:48:44:939;1448877893.78;(0.4182043790817261, 0.4932034386528863);53.6794433594;1.0;;;;;;;;;;;;;;0;0;0;0;0;0;0;0;0;();(-2000.0, -2000.0);
10:48:44:956;10:48:44:939;1448877893.78;(0.4182043790817261, 0.4932034386528863);53.6794433594;1.0;;;;;;;;;;;;;;0;0;0;0;0;0;0;0;0;();(-2000.0, -2000.0);
10:48:44:956;10:48:44:939;1448877893.78;(0.4182043790817261, 0.4932034386528863);53.6794433594;1.0;;;;;;;;;;;;;;0;0;0;0;0;0;0;0;0;();(-2000.0, -2000.0);
10:48:44:957;10:48:44:939;1448877893.78;(0.4182043790817261, 0.4932034386528863);53.6794433594;1.0;;;;;;;;;;;;;;0;0;0;0;0;0;0;0;0;();(-2000.0, -2000.0);
10:48:44:957;10:48:44:939;1448877893.78;(0.4182043790817261, 0.4932034386528863);53.6794433594;1.0;;;;;;;;;;;;;;0;0;0;0;0;0;0;0;0;();(-2000.0, -2000.0);
10:48:44:957;10:48:44:939;1448877893.78;(0.4182043790817261, 0.4932034386528863);53.6794433594;1.0;;;;;;;;;;;;;;0;0;0;0;0;0;0;0;0;();(-2000.0, -2000.0);
10:48:44:957;10:48:44:939;1448877893.78;(0.4182043790817261, 0.4932034386528863);53.6794433594;1.0;;;;;;;;;;;;;;0;0;0;0;0;0;0;0;0;();(-2000.0, -2000.0);
10:48:44:957;10:48:44:939;1448877893.78;(0.4182043790817261, 0.4932034386528863);53.6794433594;1.0;;;;;;;;;;;;;;0;0;0;0;0;0;0;0;0;();(-2000.0, -2000.0);
10:48:44:958;10:48:44:939;1448877893.78;(0.4182043790817261, 0.4932034386528863);53.6794433594;1.0;;;;;;;;;;;;;;0;0;0;0;0;0;0;0;0;();(-2000.0, -2000.0);
10:48:44:958;10:48:44:939;1448877893.78;(0.4182043790817261, 0.4932034386528863);53.6794433594;1.0;;;;;;;;;;;;;;0;0;0;0;0;0;0;0;0;();(-2000.0, -2000.0);
10:48:44:971;10:48:44:939;1448877893.78;(0.4182043790817261, 0.4932034386528863);53.6794433594;1.0;;;;;;;;;;;;;;0;0;0;0;0;0;0;0;0;();(-2000.0, -2000.0);
10:48:44:987;10:48:44:939;1448877893.78;(0.4182043790817261, 0.4932034386528863);53.6794433594;1.0;;;;;;;;;;;;;;0;0;0;0;0;0;0;0;0;();(-2000.0, -2000.0);
10:48:45:020;10:48:45:003;1448877893.81;(0.41756861209869384, 0.4928200191921658);52.6078147888;1.0;;;;;;;;;;;;;;0;0;0;0;0;0;0;0;0;();(-2000.0, -2000.0);
10:48:45:037;10:48:45:003;1448877893.81;(0.41756861209869384, 0.4928200191921658);52.6078147888;1.0;;;;;;;;;;;;;;0;0;0;0;0;0;0;0;0;();(-2000.0, -2000.0);
10:48:45:054;10:48:45:003;1448877893.81;(0.41756861209869384, 0.4928200191921658);52.6078147888;1.0;;;;;;;;;;;;;;0;0;0;0;0;0;0;0;0;();(-2000.0, -2000.0);
10:48:45:071;10:48:45:003;1448877893.81;(0.41756861209869384, 0.4928200191921658);52.6078147888;1.0;;;;;;;;;;;;;;0;0;0;0;0;0;0;0;0;();(-2000.0, -2000.0);
10:48:45:087;10:48:45:003;1448877893.81;(0.41756861209869384, 0.4928200191921658);52.6078147888;1.0;;;;;;;;;;;;;;0;0;0;0;0;0;0;0;0;();(-2000.0, -2000.0);
10:48:50:275;10:48:50:249;1448877899.08;(0.3840202808380127, 0.3962200588650173);50.3455543518;1.0;;;;;;;;;;;;;;0;0;0;0;0;0;0;0;0;();(-2000.0, -2000.0);
10:48:50:276;10:48:50:249;1448877899.08;(0.3840202808380127, 0.3962200588650173);50.3455543518;1.0;;;;;;;;;;;;;;0;0;0;0;0;0;0;0;0;();(-2000.0, -2000.0);
10:48:50:276;10:48:50:249;1448877899.08;(0.3840202808380127, 0.3962200588650173);50.3455543518;1.0;;;;;;;;;;;;;;0;0;0;0;0;0;0;0;0;();(-2000.0, -2000.0);
10:48:50:276;10:48:50:249;1448877899.08;(0.3840202808380127, 0.3962200588650173);50.3455543518;1.0;;;;;;;;;;;;;;0;0;0;0;0;0;0;0;0;();(-2000.0, -2000.0);
10:48:50:276;10:48:50:249;1448877899.08;(0.3840202808380127, 0.3962200588650173);50.3455543518;1.0;;;;;;;;;;;;;;0;0;0;0;0;0;0;0;0;();(-2000.0, -2000.0);
10:48:50:277;10:48:50:249;1448877899.08;(0.3840202808380127, 0.3962200588650173);50.3455543518;1.0;;;;;;;;;;;;;;0;0;0;0;0;0;0;0;0;();(-2000.0, -2000.0);
10:48:50:277;10:48:50:249;1448877899.08;(0.3840202808380127, 0.3962200588650173);50.3455543518;1.0;;;;;;;;;;;;;;0;0;0;0;0;0;0;0;0;();(-2000.0, -2000.0);
10:48:50:277;10:48:50:249;1448877899.08;(0.3840202808380127, 0.3962200588650173);50.3455543518;1.0;;;;;;;;;;;;;;0;0;0;0;0;0;0;0;0;();(-2000.0, -2000.0);
10:48:50:277;10:48:50:249;1448877899.08;(0.3840202808380127, 0.3962200588650173);50.3455543518;1.0;;;;;;;;;;;;;;0;0;0;0;0;0;0;0;0;();(-2000.0, -2000.0);
10:48:50:277;10:48:50:249;1448877899.08;(0.3840202808380127, 0.3962200588650173);50.3455543518;1.0;;;;;;;;;;;;;;0;0;0;0;0;0;0;0;0;();(-2000.0, -2000.0);
10:48:50:278;10:48:50:249;1448877899.08;(0.3840202808380127, 0.3962200588650173);50.3455543518;1.0;;;;;;;;;;;;;;0;0;0;0;0;0;0;0;0;();(-2000.0, -2000.0);
10:48:50:278;10:48:50:249;1448877899.08;(0.3840202808380127, 0.3962200588650173);50.3455543518;1.0;;;;;;;;;;;;;;0;0;0;0;0;0;0;0;0;();(-2000.0, -2000.0);
10:48:50:278;10:48:50:249;1448877899.08;(0.3840202808380127, 0.3962200588650173);50.3455543518;1.0;;;;;;;;;;;;;;0;0;0;0;0;0;0;0;0;();(-2000.0, -2000.0);
10:48:50:278;10:48:50:249;1448877899.08;(0.3840202808380127, 0.3962200588650173);50.3455543518;1.0;;;;;;;;;;;;;;0;0;0;0;0;0;0;0;0;();(-2000.0, -2000.0);
10:48:50:278;10:48:50:249;1448877899.08;(0.3840202808380127, 0.3962200588650173);50.3455543518;1.0;;;;;;;;;;;;;;0;0;0;0;0;0;0;0;0;();(-2000.0, -2000.0);
10:48:50:279;10:48:50:249;1448877899.08;(0.3840202808380127, 0.3962200588650173);50.3455543518;1.0;;;;;;;;;;;;;;0;0;0;0;0;0;0;0;0;();(-2000.0, -2000.0);
10:48:50:292;10:48:50:249;1448877899.08;(0.3840202808380127, 0.3962200588650173);50.3455543518;1.0;;;;;;;;;;;;;;0;0;0;0;0;0;0;0;0;();(-2000.0, -2000.0);
10:48:50:309;10:48:50:249;1448877899.08;(0.3840202808380127, 0.3962200588650173);50.3455543518;1.0;;;;;;;;;;;;;;0;0;0;0;0;0;0;0;0;();(-2000.0, -2000.0);
10:48:50:325;10:48:50:316;1448877899.14;(0.38327033519744874, 0.39682769775390625);51.0401649475;1.0;;;;;;;;;;;;;;0;0;0;0;0;0;0;0;0;();(-2000.0, -2000.0);
10:48:50:342;10:48:50:316;1448877899.14;(0.38327033519744874, 0.39682769775390625);51.0401649475;1.0;;;;;;;;;;;;;;0;0;0;0;0;0;0;0;0;();(-2000.0, -2000.0);
10:48:50:360;10:48:50:316;1448877899.14;(0.38327033519744874, 0.39682769775390625);51.0401649475;1.0;;;;;;;;;;;;;;0;0;0;0;0;0;0;0;0;();(-2000.0, -2000.0);
10:48:50:392;10:48:50:381;1448877899.21;(0, 0);0;0;;;;;;;;;;;;;;0;0;0;0;0;0;0;0;0;();(-2000.0, -2000.0);
10:48:50:407;10:48:50:381;1448877899.21;(0, 0);0;0;;;;;;;;;;;;;;0;0;0;0;0;0;0;0;0;();(-2000.0, -2000.0);
10:48:50:425;10:48:50:381;1448877899.21;(0, 0);0;0;;;;;;;;;;;;;;0;0;0;0;0;0;0;0;0;();(-2000.0, -2000.0);
10:48:50:442;10:48:50:381;1448877899.21;(0, 0);0;0;;;;;;;;;;;;;;0;0;0;0;0;0;0;0;0;();(-2000.0, -2000.0);
10:48:50:475;10:48:50:448;1448877899.28;(0.41858127117156985, 0.37787462870279953);36.7187461853;0.71430768472;;;;;;;;;;;;;;0;0;0;0;0;0;0;0;0;();(-2000.0, -2000.0);
10:48:50:492;10:48:50:448;1448877899.28;(0.41858127117156985, 0.37787462870279953);36.7187461853;0.71430768472;;;;;;;;;;;;;;0;0;0;0;0;0;0;0;0;();(-2000.0, -2000.0);
10:48:50:509;10:48:50:448;1448877899.28;(0.41858127117156985, 0.37787462870279953);36.7187461853;0.71430768472;;;;;;;;;;;;;;0;0;0;0;0;0;0;0;0;();(-2000.0, -2000.0);
10:48:50:525;10:48:50:513;1448877899.34;(0.4498429775238037, 0.41494195726182725);50.8689804077;1.0;;;;;;;;;;;;;;0;0;0;0;0;0;0;0;0;();(-2000.0, -2000.0);
10:48:50:542;10:48:50:513;1448877899.34;(0.4498429775238037, 0.41494195726182725);50.8689804077;1.0;;;;;;;;;;;;;;0;0;0;0;0;0;0;0;0;();(-2000.0, -2000.0);
10:48:50:574;10:48:50:513;1448877899.34;(0.4498429775238037, 0.41494195726182725);50.8689804077;1.0;;;;;;;;;;;;;;0;0;0;0;0;0;0;0;0;();(-2000.0, -2000.0);
10:48:50:592;10:48:50:582;1448877899.41;(0.4583646297454834, 0.4214544932047526);50.5355834961;1.0;;;;;;;;;;;;;;0;0;0;0;0;0;0;0;0;();(-2000.0, -2000.0);
10:48:50:609;10:48:50:582;1448877899.41;(0.4583646297454834, 0.4214544932047526);50.5355834961;1.0;;;;;;;;;;;;;;0;0;0;0;0;0;0;0;0;();(-2000.0, -2000.0);
10:48:50:625;10:48:50:582;1448877899.41;(0.4583646297454834, 0.4214544932047526);50.5355834961;1.0;;;;;;;;;;;;;;0;0;0;0;0;0;0;0;0;();(-2000.0, -2000.0);
10:48:50:642;10:48:50:582;1448877899.41;(0.4583646297454834, 0.4214544932047526);50.5355834961;1.0;;;;;;;;;;;;;;0;0;0;0;0;0;0;0;0;();(-2000.0, -2000.0);
10:48:50:675;10:48:50:648;1448877899.48;(0.4417004108428955, 0.4344334496392144);51.4928665161;1.0;;;;;;;;;;;;;;0;0;0;0;0;0;0;0;0;();(-2000.0, -2000.0);
10:48:50:693;10:48:50:648;1448877899.48;(0.4417004108428955, 0.4344334496392144);51.4928665161;1.0;;;;;;;;;;;;;;0;0;0;0;0;0;0;0;0;();(-2000.0, -2000.0);
10:48:50:708;10:48:50:648;1448877899.48;(0.4417004108428955, 0.4344334496392144);51.4928665161;1.0;;;;;;;;;;;;;;0;0;0;0;0;0;0;0;0;();(-2000.0, -2000.0);
10:48:50:726;10:48:50:714;1448877899.54;(0.4755083084106445, 0.4425763024224175);51.0890045166;1.0;;;;;;;;;;;;;;0;0;0;0;0;0;0;0;0;();(-2000.0, -2000.0);
10:48:50:742;10:48:50:714;1448877899.54;(0.4755083084106445, 0.4425763024224175);51.0890045166;1.0;;;;;;;;;;;;;;0;0;0;0;0;0;0;0;0;();(-2000.0, -2000.0);
10:48:50:776;10:48:50:714;1448877899.54;(0.4755083084106445, 0.4425763024224175);51.0890045166;1.0;;;;;;;;;;;;;;0;0;0;0;0;0;0;0;0;();(-2000.0, -2000.0);
10:48:50:792;10:48:50:780;1448877899.61;(0.46434335708618163, 0.45282974243164065);51.4591407776;1.0;;;;;;;;;;;;;;0;0;0;0;0;0;0;0;0;();(-2000.0, -2000.0);
10:48:50:809;10:48:50:780;1448877899.61;(0.46434335708618163, 0.45282974243164065);51.4591407776;1.0;;;;;;;;;;;;;;0;0;0;0;0;0;0;0;0;();(-2000.0, -2000.0);
10:48:50:825;10:48:50:780;1448877899.61;(0.46434335708618163, 0.45282974243164065);51.4591407776;1.0;;;;;;;;;;;;;;0;0;0;0;0;0;0;0;0;();(-2000.0, -2000.0);
10:48:50:842;10:48:50:780;1448877899.61;(0.46434335708618163, 0.45282974243164065);51.4591407776;1.0;;;;;;;;;;;;;;0;0;0;0;0;0;0;0;0;();(-2000.0, -2000.0);
10:48:50:875;10:48:50:848;1448877899.68;(0.3551357269287109, 0.6623205820719401);20.9327278137;0.80896868755;;;;;;;;;;;;;;0;0;0;0;0;0;0;0;0;();(-2000.0, -2000.0);
10:48:50:892;10:48:50:848;1448877899.68;(0.3551357269287109, 0.6623205820719401);20.9327278137;0.80896868755;;;;;;;;;;;;;;0;0;0;0;0;0;0;0;0;();(-2000.0, -2000.0);
10:48:50:909;10:48:50:848;1448877899.68;(0.3551357269287109, 0.6623205820719401);20.9327278137;0.80896868755;;;;;;;;;;;;;;0;0;0;0;0;0;0;0;0;();(-2000.0, -2000.0);
10:48:50:924;10:48:50:915;1448877899.74;(0.44803628921508787, 0.45461722479926214);51.8109092712;1.0;;;;;;;;;;;;;;0;0;0;0;0;0;0;0;0;();(-2000.0, -2000.0);
10:48:50:943;10:48:50:915;1448877899.74;(0.44803628921508787, 0.45461722479926214);51.8109092712;1.0;;;;;;;;;;;;;;0;0;0;0;0;0;0;0;0;();(-2000.0, -2000.0);
10:48:50:976;10:48:50:915;1448877899.74;(0.44803628921508787, 0.45461722479926214);51.8109092712;1.0;;;;;;;;;;;;;;0;0;0;0;0;0;0;0;0;();(-2000.0, -2000.0);
10:48:50:992;10:48:50:982;1448877899.81;(0.44384012222290037, 0.4513414594862196);52.018951416;1.0;;;;;;;;;;;;;;0;0;0;0;0;0;0;0;0;();(-2000.0, -2000.0);
10:48:51:009;10:48:50:982;1448877899.81;(0.44384012222290037, 0.4513414594862196);52.018951416;1.0;;;;;;;;;;;;;;0;0;0;0;0;0;0;0;0;();(-2000.0, -2000.0);
10:48:51:025;10:48:50:982;1448877899.81;(0.44384012222290037, 0.4513414594862196);52.018951416;1.0;;;;;;;;;;;;;;0;0;0;0;0;0;0;0;0;();(-2000.0, -2000.0);
10:48:51:042;10:48:50:982;1448877899.81;(0.44384012222290037, 0.4513414594862196);52.018951416;1.0;;;;;;;;;;;;;;0;0;0;0;0;0;0;0;0;();(-2000.0, -2000.0);
10:48:51:076;10:48:51:044;1448877899.88;(0.44110660552978515, 0.45090035332573786);52.5463562012;1.0;;;;;;;;;;;;;;0;0;0;0;0;0;0;0;0;();(-2000.0, -2000.0);
10:48:51:093;10:48:51:044;1448877899.88;(0.44110660552978515, 0.45090035332573786);52.5463562012;1.0;;;;;;;;;;;;;;0;0;0;0;0;0;0;0;0;();(-2000.0, -2000.0);
10:48:51:109;10:48:51:044;1448877899.88;(0.44110660552978515, 0.45090035332573786);52.5463562012;1.0;;;;;;;;;;;;;;0;0;0;0;0;0;0;0;0;();(-2000.0, -2000.0);
10:48:51:126;10:48:51:111;1448877899.95;(0.43996729850769045, 0.4433422936333551);52.5549316406;1.0;;;;;;;;;;;;;;0;0;0;0;0;0;0;0;0;();(-2000.0, -2000.0);
10:48:51:143;10:48:51:111;1448877899.95;(0.43996729850769045, 0.4433422936333551);52.5549316406;1.0;;;;;;;;;;;;;;0;0;0;0;0;0;0;0;0;();(-2000.0, -2000.0);
10:48:51:175;10:48:51:111;1448877899.95;(0.43996729850769045, 0.4433422936333551);52.5549316406;1.0;;;;;;;;;;;;;;0;0;0;0;0;0;0;0;0;();(-2000.0, -2000.0);
10:48:51:192;10:48:51:176;1448877900.01;(0, 0);0;0;;;;;;;;;;;;;;0;0;0;0;0;0;0;0;0;();(-2000.0, -2000.0);
10:48:51:209;10:48:51:176;1448877900.01;(0, 0);0;0;;;;;;;;;;;;;;0;0;0;0;0;0;0;0;0;();(-2000.0, -2000.0);
10:48:51:226;10:48:51:176;1448877900.01;(0, 0);0;0;;;;;;;;;;;;;;0;0;0;0;0;0;0;0;0;();(-2000.0, -2000.0);
10:48:51:243;10:48:51:176;1448877900.01;(0, 0);0;0;;;;;;;;;;;;;;0;0;0;0;0;0;0;0;0;();(-2000.0, -2000.0);
10:48:51:287;10:48:51:249;1448877900.08;(0.3217468738555908, 0.35895974900987415);58.6568641663;0.781069511282;;;;;;;;;;;;;;2;24,33;0;0;0;0;0;0;0;();(-2000.0, -2000.0);
10:48:51:308;10:48:51:249;1448877900.08;(0.3217468738555908, 0.35895974900987415);58.6568641663;0.781069511282;;;;;;;;;;;;;;2;24,33;0;0;0;0;0;0;0;();(-2000.0, -2000.0);
10:48:51:309;10:48:51:249;1448877900.08;(0.3217468738555908, 0.35895974900987415);58.6568641663;0.781069511282;;;;;;;;;;;;;;2;24,33;0;0;0;0;0;0;0;();(-2000.0, -2000.0);
10:48:51:325;10:48:51:312;1448877900.11;(0.30464682579040525, 0.3316433376736111);59.1739082336;1.0;;;;;;;;;;;;;;2;24,33;0;0;0;0;0;0;0;();(-2000.0, -2000.0);
10:48:51:342;10:48:51:312;1448877900.11;(0.30464682579040525, 0.3316433376736111);59.1739082336;1.0;;;;;;;;;;;;;;2;24,33;0;0;0;0;0;0;0;();(-2000.0, -2000.0);
10:48:51:376;10:48:51:376;1448877900.22;(0.3206921100616455, 0.35122756958007817);58.8504867554;1.0;;;;;;;;;;;;;;2;24,33;0;0;0;0;0;0;0;();(-2000.0, -2000.0);
10:48:51:392;10:48:51:376;1448877900.22;(0.3206921100616455, 0.35122756958007817);58.8504867554;1.0;;;;;;;;;;;;;;2;24,33;0;0;0;0;0;0;0;();(-2000.0, -2000.0);
10:48:51:410;10:48:51:376;1448877900.22;(0.3206921100616455, 0.35122756958007817);58.8504867554;1.0;;;;;;;;;;;;;;2;24,33;0;0;0;0;0;0;0;();(-2000.0, -2000.0);
10:48:51:426;10:48:51:376;1448877900.22;(0.3206921100616455, 0.35122756958007817);58.8504867554;1.0;;;;;;;;;;;;;;2;24,33;0;0;0;0;0;0;0;();(-2000.0, -2000.0);
10:48:51:443;10:48:51:376;1448877900.22;(0.3206921100616455, 0.35122756958007817);58.8504867554;1.0;;;;;;;;;;;;;;2;24,33;0;0;0;0;0;0;0;();(-2000.0, -2000.0);
10:48:51:476;10:48:51:444;1448877900.28;(0.32616171836853025, 0.3591130150689019);58.682346344;1.0;;;;;;;;;;;;;;2;24,33;0;0;0;0;0;0;0;();(-2000.0, -2000.0);
10:48:51:493;10:48:51:444;1448877900.28;(0.32616171836853025, 0.3591130150689019);58.682346344;1.0;;;;;;;;;;;;;;2;24,33;0;0;0;0;0;0;0;();(-2000.0, -2000.0);
10:48:51:510;10:48:51:444;1448877900.28;(0.32616171836853025, 0.3591130150689019);58.682346344;1.0;;;;;;;;;;;;;;2;24,33;0;0;0;0;0;0;0;();(-2000.0, -2000.0);
10:48:51:526;10:48:51:510;1448877900.34;(0.32858307361602784, 0.36012140909830725);59.2353782654;0.818930449764;;;;;;;;;;;;;;2;24,33;0;0;0;0;0;0;0;();(-2000.0, -2000.0);
10:48:51:542;10:48:51:510;1448877900.34;(0.32858307361602784, 0.36012140909830725);59.2353782654;0.818930449764;;;;;;;;;;;;;;2;24,33;0;0;0;0;0;0;0;();(-2000.0, -2000.0);
10:48:51:576;10:48:51:576;1448877900.41;(0.3294431447982788, 0.3646191914876302);58.1064224243;0.92232848977;;;;;;;;;;;;;;2;24,33;0;0;0;0;0;0;0;();(-2000.0, -2000.0);
10:48:51:591;10:48:51:576;1448877900.41;(0.3294431447982788, 0.3646191914876302);58.1064224243;0.92232848977;;;;;;;;;;;;;;2;24,33;0;0;0;0;0;0;0;();(-2000.0, -2000.0);
10:48:51:609;10:48:51:576;1448877900.41;(0.3294431447982788, 0.3646191914876302);58.1064224243;0.92232848977;;;;;;;;;;;;;;2;24,33;0;0;0;0;0;0;0;();(-2000.0, -2000.0);
10:48:51:627;10:48:51:576;1448877900.41;(0.3294431447982788, 0.3646191914876302);58.1064224243;0.92232848977;;;;;;;;;;;;;;2;24,33;0;0;0;0;0;0;0;();(-2000.0, -2000.0);
10:48:51:643;10:48:51:576;1448877900.41;(0.3294431447982788, 0.3646191914876302);58.1064224243;0.92232848977;;;;;;;;;;;;;;2;24,33;0;0;0;0;0;0;0;();(-2000.0, -2000.0);
10:48:51:677;10:48:51:644;1448877900.48;(0.3235602378845215, 0.36623369852701826);57.3021888733;1.0;;;;;;;;;;;;;;2;24,33;0;0;0;0;0;0;0;();(-2000.0, -2000.0);
10:48:51:693;10:48:51:644;1448877900.48;(0.3235602378845215, 0.36623369852701826);57.3021888733;1.0;;;;;;;;;;;;;;2;24,33;0;0;0;0;0;0;0;();(-2000.0, -2000.0);
10:48:51:710;10:48:51:709;1448877900.54;(0.3148517608642578, 0.3649199591742621);56.5232429504;1.0;;;;;;;;;;;;;;2;24,33;0;0;0;0;0;0;0;();(-2000.0, -2000.0);
10:48:51:727;10:48:51:709;1448877900.54;(0.3148517608642578, 0.3649199591742621);56.5232429504;1.0;;;;;;;;;;;;;;2;24,33;0;0;0;0;0;0;0;();(-2000.0, -2000.0);
10:48:51:743;10:48:51:709;1448877900.54;(0.3148517608642578, 0.3649199591742621);56.5232429504;1.0;;;;;;;;;;;;;;2;24,33;0;0;0;0;0;0;0;();(-2000.0, -2000.0);
10:48:51:777;10:48:51:777;1448877900.61;(0.2840041875839233, 0.6900562922159831);39.4100799561;0.611805768576;;;;;;;;;;;;;;2;24,33;0;0;0;0;0;0;0;();(-2000.0, -2000.0);
10:48:51:793;10:48:51:777;1448877900.61;(0.2840041875839233, 0.6900562922159831);39.4100799561;0.611805768576;;;;;;;;;;;;;;2;24,33;0;0;0;0;0;0;0;();(-2000.0, -2000.0);
10:48:51:810;10:48:51:777;1448877900.61;(0.2840041875839233, 0.6900562922159831);39.4100799561;0.611805768576;;;;;;;;;;;;;;2;24,33;0;0;0;0;0;0;0;();(-2000.0, -2000.0);
10:48:51:826;10:48:51:777;1448877900.61;(0.2840041875839233, 0.6900562922159831);39.4100799561;0.611805768576;;;;;;;;;;;;;;2;24,33;0;0;0;0;0;0;0;();(-2000.0, -2000.0);
10:48:51:843;10:48:51:840;1448877900.68;(0.3588874340057373, 0.5059720781114366);52.5688056946;1.0;;;;;;;;;;;;;;2;24,33;0;0;0;0;0;0;0;();(-2000.0, -2000.0);
10:48:51:860;10:48:51:840;1448877900.68;(0.3588874340057373, 0.5059720781114366);52.5688056946;1.0;;;;;;;;;;;;;;2;24,33;0;0;0;0;0;0;0;();(-2000.0, -2000.0);
10:48:51:893;10:48:51:840;1448877900.68;(0.3588874340057373, 0.5059720781114366);52.5688056946;1.0;;;;;;;;;;;;;;2;24,33;0;0;0;0;0;0;0;();(-2000.0, -2000.0);
10:48:51:910;10:48:51:908;1448877900.74;(0.36116418838500974, 0.507870356241862);52.7768821716;0.876453438393;;;;;;;;;;;;;;2;24,33;0;0;0;0;0;0;0;();(-2000.0, -2000.0);
10:48:51:926;10:48:51:908;1448877900.74;(0.36116418838500974, 0.507870356241862);52.7768821716;0.876453438393;;;;;;;;;;;;;;2;24,33;0;0;0;0;0;0;0;();(-2000.0, -2000.0);
10:48:51:943;10:48:51:908;1448877900.74;(0.36116418838500974, 0.507870356241862);52.7768821716;0.876453438393;;;;;;;;;;;;;;2;24,33;0;0;0;0;0;0;0;();(-2000.0, -2000.0);
10:48:51:960;10:48:51:908;1448877900.74;(0.36116418838500974, 0.507870356241862);52.7768821716;0.876453438393;;;;;;;;;;;;;;2;24,33;0;0;0;0;0;0;0;();(-2000.0, -2000.0);
10:48:51:993;10:48:51:976;1448877900.78;(0.3631987810134888, 0.5098938835991753);51.7112770081;1.0;;;;;;;;;;;;;;2;24,33;0;0;0;0;0;0;0;();(-2000.0, -2000.0);
10:48:52:010;10:48:51:976;1448877900.78;(0.3631987810134888, 0.5098938835991753);51.7112770081;1.0;;;;;;;;;;;;;;2;24,33;0;0;0;0;0;0;0;();(-2000.0, -2000.0);
10:48:52:027;10:48:51:976;1448877900.78;(0.3631987810134888, 0.5098938835991753);51.7112770081;1.0;;;;;;;;;;;;;;2;24,33;0;0;0;0;0;0;0;();(-2000.0, -2000.0);
10:48:52:043;10:48:52:040;1448877900.88;(0.36540701389312746, 0.5113940768771701);50.7413711548;1.0;;;;;;;;;;;;;;2;24,33;0;0;0;0;0;0;0;();(-2000.0, -2000.0);
10:48:52:060;10:48:52:040;1448877900.88;(0.36540701389312746, 0.5113940768771701);50.7413711548;1.0;;;;;;;;;;;;;;2;24,33;0;0;0;0;0;0;0;();(-2000.0, -2000.0);
10:48:52:093;10:48:52:040;1448877900.88;(0.36540701389312746, 0.5113940768771701);50.7413711548;1.0;;;;;;;;;;;;;;2;24,33;0;0;0;0;0;0;0;();(-2000.0, -2000.0);
10:48:52:110;10:48:52:107;1448877900.94;(0.3659499645233154, 0.5098066541883681);49.7258110046;1.0;;;;;;;;;;;;;;2;24,33;0;0;0;0;0;0;0;();(-2000.0, -2000.0);
10:48:52:127;10:48:52:107;1448877900.94;(0.3659499645233154, 0.5098066541883681);49.7258110046;1.0;;;;;;;;;;;;;;2;24,33;0;0;0;0;0;0;0;();(-2000.0, -2000.0);
10:48:52:143;10:48:52:107;1448877900.94;(0.3659499645233154, 0.5098066541883681);49.7258110046;1.0;;;;;;;;;;;;;;2;24,33;0;0;0;0;0;0;0;();(-2000.0, -2000.0);
10:48:52:160;10:48:52:107;1448877900.94;(0.3659499645233154, 0.5098066541883681);49.7258110046;1.0;;;;;;;;;;;;;;2;24,33;0;0;0;0;0;0;0;();(-2000.0, -2000.0);
10:48:52:194;10:48:52:172;1448877901.01;(0.3673067092895508, 0.5034177992078993);47.5805778503;0.938652685639;;;;;;;;;;;;;;2;24,33;0;0;0;0;0;0;0;();(-2000.0, -2000.0);
10:48:52:210;10:48:52:172;1448877901.01;(0.3673067092895508, 0.5034177992078993);47.5805778503;0.938652685639;;;;;;;;;;;;;;2;24,33;0;0;0;0;0;0;0;();(-2000.0, -2000.0);
10:48:52:227;10:48:52:172;1448877901.01;(0.3673067092895508, 0.5034177992078993);47.5805778503;0.938652685639;;;;;;;;;;;;;;2;24,33;0;0;0;0;0;0;0;();(-2000.0, -2000.0);
10:48:52:243;10:48:52:240;1448877901.08;(0.3358059644699097, 0.523867670694987);29.7586994171;0.632463524062;;;;;;;;;;;;;;2;24,33;0;0;0;0;0;0;0;();(-2000.0, -2000.0);
10:48:52:260;10:48:52:240;1448877901.08;(0.3358059644699097, 0.523867670694987);29.7586994171;0.632463524062;;;;;;;;;;;;;;2;24,33;0;0;0;0;0;0;0;();(-2000.0, -2000.0);
10:48:52:293;10:48:52:240;1448877901.08;(0.3358059644699097, 0.523867670694987);29.7586994171;0.632463524062;;;;;;;;;;;;;;2;24,33;0;0;0;0;0;0;0;();(-2000.0, -2000.0);
10:48:52:310;10:48:52:307;1448877901.14;(0.2721730709075928, 0.48032616509331594);51.538898468;1.0;;;;;;;;;;;;;;2;24,33;0;0;0;0;0;0;0;();(-2000.0, -2000.0);
10:48:52:327;10:48:52:307;1448877901.14;(0.2721730709075928, 0.48032616509331594);51.538898468;1.0;;;;;;;;;;;;;;2;24,33;0;0;0;0;0;0;0;();(-2000.0, -2000.0);
10:48:52:343;10:48:52:307;1448877901.14;(0.2721730709075928, 0.48032616509331594);51.538898468;1.0;;;;;;;;;;;;;;2;24,33;0;0;0;0;0;0;0;();(-2000.0, -2000.0);
10:48:52:360;10:48:52:307;1448877901.14;(0.2721730709075928, 0.48032616509331594);51.538898468;1.0;;;;;;;;;;;;;;2;24,33;0;0;0;0;0;0;0;();(-2000.0, -2000.0);
10:48:52:394;10:48:52:372;1448877901.21;(0.2782909631729126, 0.48420147365993926);52.2301864624;1.0;;;;;;;;;;;;;;2;24,33;0;0;0;0;0;0;0;();(-2000.0, -2000.0);
10:48:52:410;10:48:52:372;1448877901.21;(0.2782909631729126, 0.48420147365993926);52.2301864624;1.0;;;;;;;;;;;;;;2;24,33;0;0;0;0;0;0;0;();(-2000.0, -2000.0);
10:48:52:427;10:48:52:372;1448877901.21;(0.2782909631729126, 0.48420147365993926);52.2301864624;1.0;;;;;;;;;;;;;;2;24,33;0;0;0;0;0;0;0;();(-2000.0, -2000.0);
10:48:52:443;10:48:52:440;1448877901.28;(0.29599637985229493, 0.48853293524848085);52.7069396973;1.0;;;;;;;;;;;;;;2;24,33;0;0;0;0;0;0;0;();(-2000.0, -2000.0);
10:48:52:460;10:48:52:440;1448877901.28;(0.29599637985229493, 0.48853293524848085);52.7069396973;1.0;;;;;;;;;;;;;;2;24,33;0;0;0;0;0;0;0;();(-2000.0, -2000.0);
10:48:52:493;10:48:52:440;1448877901.28;(0.29599637985229493, 0.48853293524848085);52.7069396973;1.0;;;;;;;;;;;;;;2;24,33;0;0;0;0;0;0;0;();(-2000.0, -2000.0);
10:48:52:511;10:48:52:504;1448877901.34;(0.30548672676086425, 0.48910641140407984);54.4586524963;0.933072931735;;;;;;;;;;;;;;2;24,33;0;0;0;0;0;0;0;();(-2000.0, -2000.0);
10:48:52:527;10:48:52:504;1448877901.34;(0.30548672676086425, 0.48910641140407984);54.4586524963;0.933072931735;;;;;;;;;;;;;;2;24,33;0;0;0;0;0;0;0;();(-2000.0, -2000.0);
10:48:52:543;10:48:52:504;1448877901.34;(0.30548672676086425, 0.48910641140407984);54.4586524963;0.933072931735;;;;;;;;;;;;;;2;24,33;0;0;0;0;0;0;0;();(-2000.0, -2000.0);
10:48:52:561;10:48:52:504;1448877901.34;(0.30548672676086425, 0.48910641140407984);54.4586524963;0.933072931735;;;;;;;;;;;;;;2;24,33;0;0;0;0;0;0;0;();(-2000.0, -2000.0);
10:48:52:592;10:48:52:573;1448877901.41;(0.29872133731842043, 0.4906547122531467);54.2358169556;1.0;;;;;;;;;;;;;;2;24,33;0;0;0;0;0;0;0;();(-2000.0, -2000.0);
10:48:52:610;10:48:52:573;1448877901.41;(0.29872133731842043, 0.4906547122531467);54.2358169556;1.0;;;;;;;;;;;;;;2;24,33;0;0;0;0;0;0;0;();(-2000.0, -2000.0);
10:48:52:627;10:48:52:573;1448877901.41;(0.29872133731842043, 0.4906547122531467);54.2358169556;1.0;;;;;;;;;;;;;;2;24,33;0;0;0;0;0;0;0;();(-2000.0, -2000.0);
10:48:52:644;10:48:52:636;1448877901.48;(0.30912346839904786, 0.49566985236273875);53.6733665466;1.0;;;;;;;;;;;;;;2;24,33;0;0;0;0;0;0;0;();(-2000.0, -2000.0);
10:48:52:661;10:48:52:636;1448877901.48;(0.30912346839904786, 0.49566985236273875);53.6733665466;1.0;;;;;;;;;;;;;;2;24,33;0;0;0;0;0;0;0;();(-2000.0, -2000.0);
10:48:52:693;10:48:52:636;1448877901.48;(0.30912346839904786, 0.49566985236273875);53.6733665466;1.0;;;;;;;;;;;;;;2;24,33;0;0;0;0;0;0;0;();(-2000.0, -2000.0);
10:48:52:711;10:48:52:703;1448877901.51;(0.3131934881210327, 0.49711261325412326);53.6903266907;1.0;;;;;;;;;;;;;;2;24,33;0;0;0;0;0;0;0;();(-2000.0, -2000.0);
10:48:52:727;10:48:52:703;1448877901.51;(0.3131934881210327, 0.49711261325412326);53.6903266907;1.0;;;;;;;;;;;;;;2;24,33;0;0;0;0;0;0;0;();(-2000.0, -2000.0);
10:48:52:743;10:48:52:703;1448877901.51;(0.3131934881210327, 0.49711261325412326);53.6903266907;1.0;;;;;;;;;;;;;;2;24,33;0;0;0;0;0;0;0;();(-2000.0, -2000.0);
10:48:52:760;10:48:52:703;1448877901.51;(0.3131934881210327, 0.49711261325412326);53.6903266907;1.0;;;;;;;;;;;;;;2;24,33;0;0;0;0;0;0;0;();(-2000.0, -2000.0);
10:48:52:793;10:48:52:774;1448877901.61;(0.3185903549194336, 0.4996272193060981);54.130153656;0.955187799086;;;;;;;;;;;;;;2;24,33;0;0;0;0;0;0;0;();(-2000.0, -2000.0);
10:48:52:811;10:48:52:774;1448877901.61;(0.3185903549194336, 0.4996272193060981);54.130153656;0.955187799086;;;;;;;;;;;;;;2;24,33;0;0;0;0;0;0;0;();(-2000.0, -2000.0);
10:48:52:827;10:48:52:774;1448877901.61;(0.3185903549194336, 0.4996272193060981);54.130153656;0.955187799086;;;;;;;;;;;;;;2;24,33;0;0;0;0;0;0;0;();(-2000.0, -2000.0);
10:48:52:844;10:48:52:842;1448877901.68;(0.32007157802581787, 0.5011409335666233);53.7626609802;1.0;;;;;;;;;;;;;;2;24,33;0;0;0;0;0;0;0;();(-2000.0, -2000.0);
10:48:52:861;10:48:52:842;1448877901.68;(0.32007157802581787, 0.5011409335666233);53.7626609802;1.0;;;;;;;;;;;;;;2;24,33;0;0;0;0;0;0;0;();(-2000.0, -2000.0);
10:48:52:894;10:48:52:842;1448877901.68;(0.32007157802581787, 0.5011409335666233);53.7626609802;1.0;;;;;;;;;;;;;;2;24,33;0;0;0;0;0;0;0;();(-2000.0, -2000.0);
10:48:52:910;10:48:52:904;1448877901.74;(0.3213422536849976, 0.5018026563856337);54.1644744873;1.0;;;;;;;;;;;;;;2;24,33;0;0;0;0;0;0;0;();(-2000.0, -2000.0);
10:48:52:926;10:48:52:904;1448877901.74;(0.3213422536849976, 0.5018026563856337);54.1644744873;1.0;;;;;;;;;;;;;;2;24,33;0;0;0;0;0;0;0;();(-2000.0, -2000.0);
10:48:52:944;10:48:52:904;1448877901.74;(0.3213422536849976, 0.5018026563856337);54.1644744873;1.0;;;;;;;;;;;;;;2;24,33;0;0;0;0;0;0;0;();(-2000.0, -2000.0);
10:48:52:960;10:48:52:904;1448877901.74;(0.3213422536849976, 0.5018026563856337);54.1644744873;1.0;;;;;;;;;;;;;;2;24,33;0;0;0;0;0;0;0;();(-2000.0, -2000.0);
10:48:52:994;10:48:52:968;1448877901.81;(0.32251839637756347, 0.5028371598985459);54.5402565002;1.0;;;;;;;;;;;;;;2;24,33;0;0;0;0;0;0;0;();(-2000.0, -2000.0);
10:48:53:010;10:48:52:968;1448877901.81;(0.32251839637756347, 0.5028371598985459);54.5402565002;1.0;;;;;;;;;;;;;;2;24,33;0;0;0;0;0;0;0;();(-2000.0, -2000.0);
10:48:53:027;10:48:52:968;1448877901.81;(0.32251839637756347, 0.5028371598985459);54.5402565002;1.0;;;;;;;;;;;;;;2;24,33;0;0;0;0;0;0;0;();(-2000.0, -2000.0);
10:48:53:044;10:48:53:036;1448877901.88;(0.3244710683822632, 0.5036568535698784);55.1094894409;0.990212548347;;;;;;;;;;;;;;2;24,33;0;0;0;0;0;0;0;();(-2000.0, -2000.0);
10:48:53:061;10:48:53:036;1448877901.88;(0.3244710683822632, 0.5036568535698784);55.1094894409;0.990212548347;;;;;;;;;;;;;;2;24,33;0;0;0;0;0;0;0;();(-2000.0, -2000.0);
10:48:53:094;10:48:53:036;1448877901.88;(0.3244710683822632, 0.5036568535698784);55.1094894409;0.990212548347;;;;;;;;;;;;;;2;24,33;0;0;0;0;0;0;0;();(-2000.0, -2000.0);
10:48:53:111;10:48:53:104;1448877901.94;(0.31964290142059326, 0.5013560824924045);56.7667427063;1.0;;;;;;;;;;;;;;2;24,33;0;0;0;0;0;0;0;();(-2000.0, -2000.0);
10:48:53:128;10:48:53:104;1448877901.94;(0.31964290142059326, 0.5013560824924045);56.7667427063;1.0;;;;;;;;;;;;;;2;24,33;0;0;0;0;0;0;0;();(-2000.0, -2000.0);
10:48:53:144;10:48:53:104;1448877901.94;(0.31964290142059326, 0.5013560824924045);56.7667427063;1.0;;;;;;;;;;;;;;2;24,33;0;0;0;0;0;0;0;();(-2000.0, -2000.0);
10:48:53:160;10:48:53:104;1448877901.94;(0.31964290142059326, 0.5013560824924045);56.7667427063;1.0;;;;;;;;;;;;;;2;24,33;0;0;0;0;0;0;0;();(-2000.0, -2000.0);
10:48:53:194;10:48:53:169;1448877902.01;(0.3208568334579468, 0.503198750813802);56.6474304199;1.0;;;;;;;;;;;;;;2;24,33;0;0;0;0;0;0;0;();(-2000.0, -2000.0);
10:48:53:211;10:48:53:169;1448877902.01;(0.3208568334579468, 0.503198750813802);56.6474304199;1.0;;;;;;;;;;;;;;2;24,33;0;0;0;0;0;0;0;();(-2000.0, -2000.0);
10:48:53:228;10:48:53:169;1448877902.01;(0.3208568334579468, 0.503198750813802);56.6474304199;1.0;;;;;;;;;;;;;;2;24,33;0;0;0;0;0;0;0;();(-2000.0, -2000.0);
10:48:53:243;10:48:53:236;1448877902.08;(0.3220839023590088, 0.5042691548665365);57.4791374207;1.0;;;;;;;;;;;;;;2;24,33;0;0;0;0;0;0;0;();(-2000.0, -2000.0);
10:48:53:277;10:48:53:236;1448877902.08;(0.3220839023590088, 0.5042691548665365);57.4791374207;1.0;;;;;;;;;;;;;;2;24,33;0;0;0;0;0;0;0;();(-2000.0, -2000.0);
10:48:53:295;10:48:53:236;1448877902.08;(0.3220839023590088, 0.5042691548665365);57.4791374207;1.0;;;;;;;;;;;;;;2;24,33;0;0;0;0;0;0;0;();(-2000.0, -2000.0);
10:48:53:312;10:48:53:300;1448877902.14;(0.32299845218658446, 0.5055509779188367);57.7549057007;1.0;;;;;;;;;;;;;;2;24,33;0;0;0;0;0;0;0;();(-2000.0, -2000.0);
10:48:53:327;10:48:53:300;1448877902.14;(0.32299845218658446, 0.5055509779188367);57.7549057007;1.0;;;;;;;;;;;;;;2;24,33;0;0;0;0;0;0;0;();(-2000.0, -2000.0);
10:48:53:344;10:48:53:300;1448877902.14;(0.32299845218658446, 0.5055509779188367);57.7549057007;1.0;;;;;;;;;;;;;;2;24,33;0;0;0;0;0;0;0;();(-2000.0, -2000.0);
10:48:53:361;10:48:53:300;1448877902.14;(0.32299845218658446, 0.5055509779188367);57.7549057007;1.0;;;;;;;;;;;;;;2;24,33;0;0;0;0;0;0;0;();(-2000.0, -2000.0);
10:48:53:394;10:48:53:369;1448877902.21;(0.3238127946853638, 0.5062839084201389);58.4998130798;1.0;;;;;;;;;;;;;;2;24,33;0;0;0;0;0;0;0;();(-2000.0, -2000.0);
10:48:53:411;10:48:53:369;1448877902.21;(0.3238127946853638, 0.5062839084201389);58.4998130798;1.0;;;;;;;;;;;;;;2;24,33;0;0;0;0;0;0;0;();(-2000.0, -2000.0);
10:48:53:428;10:48:53:369;1448877902.21;(0.3238127946853638, 0.5062839084201389);58.4998130798;1.0;;;;;;;;;;;;;;2;24,33;0;0;0;0;0;0;0;();(-2000.0, -2000.0);
10:48:53:445;10:48:53:436;1448877902.28;(0.3243443965911865, 0.5070416344536675);58.617931366;1.0;;;;;;;;;;;;;;2;24,33;0;0;0;0;0;0;0;();(-2000.0, -2000.0);
10:48:53:461;10:48:53:436;1448877902.28;(0.3243443965911865, 0.5070416344536675);58.617931366;1.0;;;;;;;;;;;;;;2;24,33;0;0;0;0;0;0;0;();(-2000.0, -2000.0);
10:48:53:494;10:48:53:436;1448877902.28;(0.3243443965911865, 0.5070416344536675);58.617931366;1.0;;;;;;;;;;;;;;2;24,33;0;0;0;0;0;0;0;();(-2000.0, -2000.0);
10:48:53:512;10:48:53:503;1448877902.34;(0.32424657344818114, 0.5065472920735676);58.2251815796;1.0;;;;;;;;;;;;;;2;24,33;0;0;0;0;0;0;0;();(-2000.0, -2000.0);
10:48:53:527;10:48:53:503;1448877902.34;(0.32424657344818114, 0.5065472920735676);58.2251815796;1.0;;;;;;;;;;;;;;2;24,33;0;0;0;0;0;0;0;();(-2000.0, -2000.0);
10:48:53:544;10:48:53:503;1448877902.34;(0.32424657344818114, 0.5065472920735676);58.2251815796;1.0;;;;;;;;;;;;;;2;24,33;0;0;0;0;0;0;0;();(-2000.0, -2000.0);
10:48:53:561;10:48:53:503;1448877902.34;(0.32424657344818114, 0.5065472920735676);58.2251815796;1.0;;;;;;;;;;;;;;2;24,33;0;0;0;0;0;0;0;();(-2000.0, -2000.0);
10:48:53:593;10:48:53:569;1448877902.41;(0.32439863681793213, 0.507938978407118);57.6927108765;1.0;;;;;;;;;;;;;;2;24,33;0;0;0;0;0;0;0;();(-2000.0, -2000.0);
10:48:53:611;10:48:53:569;1448877902.41;(0.32439863681793213, 0.507938978407118);57.6927108765;1.0;;;;;;;;;;;;;;2;24,33;0;0;0;0;0;0;0;();(-2000.0, -2000.0);
10:48:53:628;10:48:53:569;1448877902.41;(0.32439863681793213, 0.507938978407118);57.6927108765;1.0;;;;;;;;;;;;;;2;24,33;0;0;0;0;0;0;0;();(-2000.0, -2000.0);
10:48:53:644;10:48:53:632;1448877902.48;(0.3245236873626709, 0.5087533738878038);57.1648101807;1.0;;;;;;;;;;;;;;2;24,33;0;0;0;0;0;0;0;();(-2000.0, -2000.0);
10:48:53:661;10:48:53:632;1448877902.48;(0.3245236873626709, 0.5087533738878038);57.1648101807;1.0;;;;;;;;;;;;;;2;24,33;0;0;0;0;0;0;0;();(-2000.0, -2000.0);
10:48:53:694;10:48:53:632;1448877902.48;(0.3245236873626709, 0.5087533738878038);57.1648101807;1.0;;;;;;;;;;;;;;2;24,33;0;0;0;0;0;0;0;();(-2000.0, -2000.0);
10:48:53:712;10:48:53:700;1448877902.54;(0.3241182088851929, 0.5100376976860894);57.2129936218;1.0;;;;;;;;;;;;;;2;24,33;0;0;0;0;0;0;0;();(-2000.0, -2000.0);
10:48:53:728;10:48:53:700;1448877902.54;(0.3241182088851929, 0.5100376976860894);57.2129936218;1.0;;;;;;;;;;;;;;2;24,33;0;0;0;0;0;0;0;();(-2000.0, -2000.0);
10:48:53:744;10:48:53:700;1448877902.54;(0.3241182088851929, 0.5100376976860894);57.2129936218;1.0;;;;;;;;;;;;;;2;24,33;0;0;0;0;0;0;0;();(-2000.0, -2000.0);
10:48:53:761;10:48:53:700;1448877902.54;(0.3241182088851929, 0.5100376976860894);57.2129936218;1.0;;;;;;;;;;;;;;2;24,33;0;0;0;0;0;0;0;();(-2000.0, -2000.0);
10:48:53:794;10:48:53:768;1448877902.61;(0, 0);0;0;;;;;;;;;;;;;;2;24,33;0;0;0;0;0;0;0;();(-2000.0, -2000.0);
10:48:53:811;10:48:53:768;1448877902.61;(0, 0);0;0;;;;;;;;;;;;;;2;24,33;0;0;0;0;0;0;0;();(-2000.0, -2000.0);
10:48:53:828;10:48:53:768;1448877902.61;(0, 0);0;0;;;;;;;;;;;;;;2;24,33;0;0;0;0;0;0;0;();(-2000.0, -2000.0);
10:48:53:845;10:48:53:831;1448877902.64;(0.3580355167388916, 0.5592765384250217);24.5641880035;0.643822836967;;;;;;;;;;;;;;2;24,33;0;0;0;0;0;0;0;();(-2000.0, -2000.0);
10:48:53:861;10:48:53:831;1448877902.64;(0.3580355167388916, 0.5592765384250217);24.5641880035;0.643822836967;;;;;;;;;;;;;;2;24,33;0;0;0;0;0;0;0;();(-2000.0, -2000.0);
10:48:53:895;10:48:53:831;1448877902.64;(0.3580355167388916, 0.5592765384250217);24.5641880035;0.643822836967;;;;;;;;;;;;;;2;24,33;0;0;0;0;0;0;0;();(-2000.0, -2000.0);
10:48:53:911;10:48:53:900;1448877902.68;(0.20033012628555297, 0.3899247487386067);26.5346450806;0.886415117451;;;;;;;;;;;;;;2;24,33;0;0;0;0;0;0;0;();(-2000.0, -2000.0);
10:48:53:928;10:48:53:900;1448877902.68;(0.20033012628555297, 0.3899247487386067);26.5346450806;0.886415117451;;;;;;;;;;;;;;2;24,33;0;0;0;0;0;0;0;();(-2000.0, -2000.0);
10:48:53:944;10:48:53:900;1448877902.68;(0.20033012628555297, 0.3899247487386067);26.5346450806;0.886415117451;;;;;;;;;;;;;;2;24,33;0;0;0;0;0;0;0;();(-2000.0, -2000.0);
10:48:53:961;10:48:53:900;1448877902.68;(0.20033012628555297, 0.3899247487386067);26.5346450806;0.886415117451;;;;;;;;;;;;;;2;24,33;0;0;0;0;0;0;0;();(-2000.0, -2000.0);
10:48:53:994;10:48:53:966;1448877902.81;(0.4849403381347656, 0.4276492648654514);54.0949363708;1.0;;;;;;;;;;;;;;2;24,33;0;0;0;0;0;0;0;();(-2000.0, -2000.0);
10:48:54:011;10:48:53:966;1448877902.81;(0.4849403381347656, 0.4276492648654514);54.0949363708;1.0;;;;;;;;;;;;;;2;24,33;0;0;0;0;0;0;0;();(-2000.0, -2000.0);
10:48:54:028;10:48:53:966;1448877902.81;(0.4849403381347656, 0.4276492648654514);54.0949363708;1.0;;;;;;;;;;;;;;2;24,33;0;0;0;0;0;0;0;();(-2000.0, -2000.0);
10:48:54:045;10:48:54:032;1448877902.84;(0.47634115219116213, 0.43505117628309464);53.95570755;1.0;;;;;;;;;;;;;;2;24,33;0;0;0;0;0;0;0;();(-2000.0, -2000.0);
10:48:54:061;10:48:54:032;1448877902.84;(0.47634115219116213, 0.43505117628309464);53.95570755;1.0;;;;;;;;;;;;;;2;24,33;0;0;0;0;0;0;0;();(-2000.0, -2000.0);
10:48:54:096;10:48:54:032;1448877902.84;(0.47634115219116213, 0.43505117628309464);53.95570755;1.0;;;;;;;;;;;;;;2;24,33;0;0;0;0;0;0;0;();(-2000.0, -2000.0);
10:48:54:112;10:48:54:100;1448877902.91;(0.46079864501953127, 0.44643414815266924);54.805683136;1.0;;;;;;;;;;;;;;2;24,33;0;0;0;0;0;0;0;();(-2000.0, -2000.0);
10:48:54:128;10:48:54:100;1448877902.91;(0.46079864501953127, 0.44643414815266924);54.805683136;1.0;;;;;;;;;;;;;;2;24,33;0;0;0;0;0;0;0;();(-2000.0, -2000.0);
10:48:54:145;10:48:54:100;1448877902.91;(0.46079864501953127, 0.44643414815266924);54.805683136;1.0;;;;;;;;;;;;;;2;24,33;0;0;0;0;0;0;0;();(-2000.0, -2000.0);
10:48:54:161;10:48:54:100;1448877902.91;(0.46079864501953127, 0.44643414815266924);54.805683136;1.0;;;;;;;;;;;;;;2;24,33;0;0;0;0;0;0;0;();(-2000.0, -2000.0);
10:48:54:195;10:48:54:164;1448877902.99;(0.4480746746063232, 0.45427284240722654);55.8977775574;1.0;;;;;;;;;;;;;;2;24,33;0;0;0;0;0;0;0;();(-2000.0, -2000.0);
10:48:54:212;10:48:54:164;1448877902.99;(0.4480746746063232, 0.45427284240722654);55.8977775574;1.0;;;;;;;;;;;;;;2;24,33;0;0;0;0;0;0;0;();(-2000.0, -2000.0);
10:48:54:228;10:48:54:164;1448877902.99;(0.4480746746063232, 0.45427284240722654);55.8977775574;1.0;;;;;;;;;;;;;;2;24,33;0;0;0;0;0;0;0;();(-2000.0, -2000.0);
10:48:54:244;10:48:54:231;1448877903.06;(0.4379560470581055, 0.458770751953125);57.1187210083;1.0;;;;;;;;;;;;;;2;24,33;0;0;0;0;0;0;0;();(-2000.0, -2000.0);
10:48:54:260;10:48:54:231;1448877903.06;(0.4379560470581055, 0.458770751953125);57.1187210083;1.0;;;;;;;;;;;;;;2;24,33;0;0;0;0;0;0;0;();(-2000.0, -2000.0);
10:48:54:295;10:48:54:231;1448877903.06;(0.4379560470581055, 0.458770751953125);57.1187210083;1.0;;;;;;;;;;;;;;2;24,33;0;0;0;0;0;0;0;();(-2000.0, -2000.0);
10:48:54:311;10:48:54:297;1448877903.11;(0.4316331624984741, 0.46200464036729605);57.0224761963;1.0;;;;;;;;;;;;;;2;24,33;0;0;0;0;0;0;0;();(-2000.0, -2000.0);
10:48:54:329;10:48:54:297;1448877903.11;(0.4316331624984741, 0.46200464036729605);57.0224761963;1.0;;;;;;;;;;;;;;2;24,33;0;0;0;0;0;0;0;();(-2000.0, -2000.0);
10:48:54:345;10:48:54:297;1448877903.11;(0.4316331624984741, 0.46200464036729605);57.0224761963;1.0;;;;;;;;;;;;;;2;24,33;0;0;0;0;0;0;0;();(-2000.0, -2000.0);
10:48:54:362;10:48:54:297;1448877903.11;(0.4316331624984741, 0.46200464036729605);57.0224761963;1.0;;;;;;;;;;;;;;2;24,33;0;0;0;0;0;0;0;();(-2000.0, -2000.0);
10:48:54:395;10:48:54:364;1448877903.21;(0.4291431665420532, 0.4630557166205512);56.53150177;1.0;;;;;;;;;;;;;;2;24,33;0;0;0;0;0;0;0;();(-2000.0, -2000.0);
10:48:54:412;10:48:54:364;1448877903.21;(0.4291431665420532, 0.4630557166205512);56.53150177;1.0;;;;;;;;;;;;;;2;24,33;0;0;0;0;0;0;0;();(-2000.0, -2000.0);
10:48:54:428;10:48:54:364;1448877903.21;(0.4291431665420532, 0.4630557166205512);56.53150177;1.0;;;;;;;;;;;;;;2;24,33;0;0;0;0;0;0;0;();(-2000.0, -2000.0);
10:48:54:445;10:48:54:432;1448877903.28;(0.4304992437362671, 0.4632179260253906);56.3990020752;1.0;;;;;;;;;;;;;;2;24,33;0;0;0;0;0;0;0;();(-2000.0, -2000.0);
10:48:54:462;10:48:54:432;1448877903.28;(0.4304992437362671, 0.4632179260253906);56.3990020752;1.0;;;;;;;;;;;;;;2;24,33;0;0;0;0;0;0;0;();(-2000.0, -2000.0);
10:48:54:495;10:48:54:432;1448877903.28;(0.4304992437362671, 0.4632179260253906);56.3990020752;1.0;;;;;;;;;;;;;;2;24,33;0;0;0;0;0;0;0;();(-2000.0, -2000.0);
10:48:54:512;10:48:54:495;1448877903.34;(0.4327983379364014, 0.46272354125976567);55.7051696777;1.0;;;;;;;;;;;;;;2;24,33;0;0;0;0;0;0;0;();(-2000.0, -2000.0);
10:48:54:528;10:48:54:495;1448877903.34;(0.4327983379364014, 0.46272354125976567);55.7051696777;1.0;;;;;;;;;;;;;;2;24,33;0;0;0;0;0;0;0;();(-2000.0, -2000.0);
10:48:54:546;10:48:54:495;1448877903.34;(0.4327983379364014, 0.46272354125976567);55.7051696777;1.0;;;;;;;;;;;;;;2;24,33;0;0;0;0;0;0;0;();(-2000.0, -2000.0);
10:48:54:562;10:48:54:495;1448877903.34;(0.4327983379364014, 0.46272354125976567);55.7051696777;1.0;;;;;;;;;;;;;;2;24,33;0;0;0;0;0;0;0;();(-2000.0, -2000.0);
10:48:54:596;10:48:54:564;1448877903.41;(0.4349325656890869, 0.46169022454155817);55.0903930664;1.0;;;;;;;;;;;;;;2;24,33;0;0;0;0;0;0;0;();(-2000.0, -2000.0);
10:48:54:612;10:48:54:564;1448877903.41;(0.4349325656890869, 0.46169022454155817);55.0903930664;1.0;;;;;;;;;;;;;;2;24,33;0;0;0;0;0;0;0;();(-2000.0, -2000.0);
10:48:54:628;10:48:54:627;1448877903.44;(0.43492565155029295, 0.4615297529432508);54.2185173035;1.0;;;;;;;;;;;;;;2;24,33;0;0;0;0;0;0;0;();(-2000.0, -2000.0);
10:48:54:645;10:48:54:627;1448877903.44;(0.43492565155029295, 0.4615297529432508);54.2185173035;1.0;;;;;;;;;;;;;;2;24,33;0;0;0;0;0;0;0;();(-2000.0, -2000.0);
10:48:54:662;10:48:54:627;1448877903.44;(0.43492565155029295, 0.4615297529432508);54.2185173035;1.0;;;;;;;;;;;;;;2;24,33;0;0;0;0;0;0;0;();(-2000.0, -2000.0);
10:48:54:696;10:48:54:627;1448877903.44;(0.43492565155029295, 0.4615297529432508);54.2185173035;1.0;;;;;;;;;;;;;;2;24,33;0;0;0;0;0;0;0;();(-2000.0, -2000.0);
10:48:54:712;10:48:54:696;1448877903.51;(0.38386528491973876, 0.4973605261908637);25.8846549988;0.696161837593;;;;;;;;;;;;;;2;24,33;0;0;0;0;0;0;0;();(-2000.0, -2000.0);
10:48:54:729;10:48:54:696;1448877903.51;(0.38386528491973876, 0.4973605261908637);25.8846549988;0.696161837593;;;;;;;;;;;;;;2;24,33;0;0;0;0;0;0;0;();(-2000.0, -2000.0);
10:48:54:745;10:48:54:696;1448877903.51;(0.38386528491973876, 0.4973605261908637);25.8846549988;0.696161837593;;;;;;;;;;;;;;2;24,33;0;0;0;0;0;0;0;();(-2000.0, -2000.0);
10:48:54:763;10:48:54:696;1448877903.51;(0.38386528491973876, 0.4973605261908637);25.8846549988;0.696161837593;;;;;;;;;;;;;;2;24,33;0;0;0;0;0;0;0;();(-2000.0, -2000.0);
10:48:54:795;10:48:54:764;1448877903.61;(0.3325051307678223, 0.5079772525363498);56.1395759583;0.759988610113;;;;;;;;;;;;;;2;24,33;0;0;0;0;0;0;0;();(-2000.0, -2000.0);
10:48:54:812;10:48:54:764;1448877903.61;(0.3325051307678223, 0.5079772525363498);56.1395759583;0.759988610113;;;;;;;;;;;;;;2;24,33;0;0;0;0;0;0;0;();(-2000.0, -2000.0);
10:48:54:829;10:48:54:764;1448877903.61;(0.3325051307678223, 0.5079772525363498);56.1395759583;0.759988610113;;;;;;;;;;;;;;2;24,33;0;0;0;0;0;0;0;();(-2000.0, -2000.0);
10:48:54:846;10:48:54:830;1448877903.64;(0.3153120279312134, 0.49979184468587234);55.3153572083;1.0;;;;;;;;;;;;;;2;24,33;0;0;0;0;0;0;0;();(-2000.0, -2000.0);
10:48:54:862;10:48:54:830;1448877903.64;(0.3153120279312134, 0.49979184468587234);55.3153572083;1.0;;;;;;;;;;;;;;2;24,33;0;0;0;0;0;0;0;();(-2000.0, -2000.0);
10:48:54:895;10:48:54:830;1448877903.64;(0.3153120279312134, 0.49979184468587234);55.3153572083;1.0;;;;;;;;;;;;;;2;24,33;0;0;0;0;0;0;0;();(-2000.0, -2000.0);
10:48:54:912;10:48:54:896;1448877903.71;(0.33532764911651614, 0.4982602437337239);54.5131874084;1.0;;;;;;;;;;;;;;2;24,33;0;0;0;0;0;0;0;();(-2000.0, -2000.0);
10:48:54:928;10:48:54:896;1448877903.71;(0.33532764911651614, 0.4982602437337239);54.5131874084;1.0;;;;;;;;;;;;;;2;24,33;0;0;0;0;0;0;0;();(-2000.0, -2000.0);
10:48:54:945;10:48:54:896;1448877903.71;(0.33532764911651614, 0.4982602437337239);54.5131874084;1.0;;;;;;;;;;;;;;2;24,33;0;0;0;0;0;0;0;();(-2000.0, -2000.0);
10:48:54:963;10:48:54:960;1448877903.78;(0.3524476528167725, 0.50218505859375);54.411605835;1.0;;;;;;;;;;;;;;2;24,33;0;0;0;0;0;0;0;();(-2000.0, -2000.0);
10:48:54:996;10:48:54:960;1448877903.78;(0.3524476528167725, 0.50218505859375);54.411605835;1.0;;;;;;;;;;;;;;2;24,33;0;0;0;0;0;0;0;();(-2000.0, -2000.0);
10:48:55:012;10:48:54:960;1448877903.78;(0.3524476528167725, 0.50218505859375);54.411605835;1.0;;;;;;;;;;;;;;2;24,33;0;0;0;0;0;0;0;();(-2000.0, -2000.0);
10:48:55:031;10:48:55:030;1448877903.84;(0.3618957996368408, 0.5033953348795572);54.2340126038;1.0;;;;;;;;;;;;;;2;24,33;0;0;0;0;0;0;0;();(-2000.0, -2000.0);
10:48:55:045;10:48:55:030;1448877903.84;(0.3618957996368408, 0.5033953348795572);54.2340126038;1.0;;;;;;;;;;;;;;2;24,33;0;0;0;0;0;0;0;();(-2000.0, -2000.0);
10:48:55:063;10:48:55:030;1448877903.84;(0.3618957996368408, 0.5033953348795572);54.2340126038;1.0;;;;;;;;;;;;;;2;24,33;0;0;0;0;0;0;0;();(-2000.0, -2000.0);
10:48:55:096;10:48:55:095;1448877903.93;(0.2954198122024536, 0.47910931905110676);56.3397636414;1.0;;;;;;;;;;;;;;2;24,33;0;0;0;0;0;0;0;();(-2000.0, -2000.0);
10:48:55:112;10:48:55:095;1448877903.93;(0.2954198122024536, 0.47910931905110676);56.3397636414;1.0;;;;;;;;;;;;;;2;24,33;0;0;0;0;0;0;0;();(-2000.0, -2000.0);
10:48:55:130;10:48:55:095;1448877903.93;(0.2954198122024536, 0.47910931905110676);56.3397636414;1.0;;;;;;;;;;;;;;2;24,33;0;0;0;0;0;0;0;();(-2000.0, -2000.0);
10:48:55:146;10:48:55:095;1448877903.93;(0.2954198122024536, 0.47910931905110676);56.3397636414;1.0;;;;;;;;;;;;;;2;24,33;0;0;0;0;0;0;0;();(-2000.0, -2000.0);
10:48:55:163;10:48:55:160;1448877903.98;(0.2989238739013672, 0.4841311560736762);55.5284385681;1.0;;;;;;;;;;;;;;2;24,33;0;0;0;0;0;0;0;();(-2000.0, -2000.0);
10:48:55:180;10:48:55:160;1448877903.98;(0.2989238739013672, 0.4841311560736762);55.5284385681;1.0;;;;;;;;;;;;;;2;24,33;0;0;0;0;0;0;0;();(-2000.0, -2000.0);
10:48:55:212;10:48:55:160;1448877903.98;(0.2989238739013672, 0.4841311560736762);55.5284385681;1.0;;;;;;;;;;;;;;2;24,33;0;0;0;0;0;0;0;();(-2000.0, -2000.0);
10:48:55:230;10:48:55:229;1448877904.08;(0.3041555404663086, 0.49001952277289496);55.0614585876;0.914277670158;;;;;;;;;;;;;;2;24,33;0;0;0;0;0;0;0;();(-2000.0, -2000.0);
10:48:55:246;10:48:55:229;1448877904.08;(0.3041555404663086, 0.49001952277289496);55.0614585876;0.914277670158;;;;;;;;;;;;;;2;24,33;0;0;0;0;0;0;0;();(-2000.0, -2000.0);
10:48:55:261;10:48:55:229;1448877904.08;(0.3041555404663086, 0.49001952277289496);55.0614585876;0.914277670158;;;;;;;;;;;;;;2;24,33;0;0;0;0;0;0;0;();(-2000.0, -2000.0);
10:48:55:280;10:48:55:229;1448877904.08;(0.3041555404663086, 0.49001952277289496);55.0614585876;0.914277670158;;;;;;;;;;;;;;2;24,33;0;0;0;0;0;0;0;();(-2000.0, -2000.0);
10:48:55:312;10:48:55:292;1448877904.11;(0.30573058128356934, 0.4915636274549696);54.1887207031;0.906910669115;;;;;;;;;;;;;;2;24,33;0;0;0;0;0;0;0;();(-2000.0, -2000.0);
10:48:55:330;10:48:55:292;1448877904.11;(0.30573058128356934, 0.4915636274549696);54.1887207031;0.906910669115;;;;;;;;;;;;;;2;24,33;0;0;0;0;0;0;0;();(-2000.0, -2000.0);
10:48:55:346;10:48:55:292;1448877904.11;(0.30573058128356934, 0.4915636274549696);54.1887207031;0.906910669115;;;;;;;;;;;;;;2;24,33;0;0;0;0;0;0;0;();(-2000.0, -2000.0);
10:48:55:363;10:48:55:360;1448877904.21;(0.3083942413330078, 0.4931223551432292);52.8644599915;1.0;;;;;;;;;;;;;;2;24,33;0;0;0;0;0;0;0;();(-2000.0, -2000.0);
10:48:55:380;10:48:55:360;1448877904.21;(0.3083942413330078, 0.4931223551432292);52.8644599915;1.0;;;;;;;;;;;;;;2;24,33;0;0;0;0;0;0;0;();(-2000.0, -2000.0);
10:48:55:413;10:48:55:360;1448877904.21;(0.3083942413330078, 0.4931223551432292);52.8644599915;1.0;;;;;;;;;;;;;;2;24,33;0;0;0;0;0;0;0;();(-2000.0, -2000.0);
10:48:55:430;10:48:55:428;1448877904.28;(0.31022570133209226, 0.49392619662814674);52.2944488525;1.0;;;;;;;;;;;;;;2;24,33;0;0;0;0;0;0;0;();(-2000.0, -2000.0);
10:48:55:446;10:48:55:428;1448877904.28;(0.31022570133209226, 0.49392619662814674);52.2944488525;1.0;;;;;;;;;;;;;;2;24,33;0;0;0;0;0;0;0;();(-2000.0, -2000.0);
10:48:55:462;10:48:55:428;1448877904.28;(0.31022570133209226, 0.49392619662814674);52.2944488525;1.0;;;;;;;;;;;;;;2;24,33;0;0;0;0;0;0;0;();(-2000.0, -2000.0);
10:48:55:496;10:48:55:494;1448877904.34;(0.3102655172348022, 0.4977389441596137);50.9947624207;0.931766478157;;;;;;;;;;;;;;2;24,33;0;0;0;0;0;0;0;();(-2000.0, -2000.0);
10:48:55:512;10:48:55:494;1448877904.34;(0.3102655172348022, 0.4977389441596137);50.9947624207;0.931766478157;;;;;;;;;;;;;;2;24,33;0;0;0;0;0;0;0;();(-2000.0, -2000.0);
10:48:55:530;10:48:55:494;1448877904.34;(0.3102655172348022, 0.4977389441596137);50.9947624207;0.931766478157;;;;;;;;;;;;;;2;24,33;0;0;0;0;0;0;0;();(-2000.0, -2000.0);
10:48:55:546;10:48:55:494;1448877904.34;(0.3102655172348022, 0.4977389441596137);50.9947624207;0.931766478157;;;;;;;;;;;;;;2;24,33;0;0;0;0;0;0;0;();(-2000.0, -2000.0);
10:48:55:563;10:48:55:560;1448877904.41;(0.31178457736968995, 0.49884787665473085);51.1871948242;1.0;;;;;;;;;;;;;;2;24,33;0;0;0;0;0;0;0;();(-2000.0, -2000.0);
10:48:55:595;10:48:55:560;1448877904.41;(0.31178457736968995, 0.49884787665473085);51.1871948242;1.0;;;;;;;;;;;;;;2;24,33;0;0;0;0;0;0;0;();(-2000.0, -2000.0);
10:48:55:613;10:48:55:560;1448877904.41;(0.31178457736968995, 0.49884787665473085);51.1871948242;1.0;;;;;;;;;;;;;;2;24,33;0;0;0;0;0;0;0;();(-2000.0, -2000.0);
10:48:55:630;10:48:55:624;1448877904.48;(0.3132761240005493, 0.49992930094401045);50.7834434509;1.0;;;;;;;;;;;;;;2;24,33;0;0;0;0;0;0;0;();(-2000.0, -2000.0);
10:48:55:646;10:48:55:624;1448877904.48;(0.3132761240005493, 0.49992930094401045);50.7834434509;1.0;;;;;;;;;;;;;;2;24,33;0;0;0;0;0;0;0;();(-2000.0, -2000.0);
10:48:55:663;10:48:55:624;1448877904.48;(0.3132761240005493, 0.49992930094401045);50.7834434509;1.0;;;;;;;;;;;;;;2;24,33;0;0;0;0;0;0;0;();(-2000.0, -2000.0);
10:48:55:680;10:48:55:624;1448877904.48;(0.3132761240005493, 0.49992930094401045);50.7834434509;1.0;;;;;;;;;;;;;;2;24,33;0;0;0;0;0;0;0;();(-2000.0, -2000.0);
10:48:55:716;10:48:55:692;1448877904.51;(0.3137351036071777, 0.5002642313639323);50.3010749817;1.0;;;;;;;;;;;;;;4;24,33,72,75;0;0;0;0;0;0;0;();(-2000.0, -2000.0);
10:48:55:729;10:48:55:692;1448877904.51;(0.3137351036071777, 0.5002642313639323);50.3010749817;1.0;;;;;;;;;;;;;;4;24,33,72,75;0;0;0;0;0;0;0;();(-2000.0, -2000.0);
10:48:55:747;10:48:55:692;1448877904.51;(0.3137351036071777, 0.5002642313639323);50.3010749817;1.0;;;;;;;;;;;;;;4;24,33,72,75;0;0;0;0;0;0;0;();(-2000.0, -2000.0);
10:48:55:763;10:48:55:756;1448877904.61;(0.3152885675430298, 0.5017719268798828);50.0362815857;1.0;;;;;;;;;;;;;;4;24,33,72,75;0;0;0;0;0;0;0;();(-2000.0, -2000.0);
10:48:55:780;10:48:55:756;1448877904.61;(0.3152885675430298, 0.5017719268798828);50.0362815857;1.0;;;;;;;;;;;;;;4;24,33,72,75;0;0;0;0;0;0;0;();(-2000.0, -2000.0);
10:48:55:813;10:48:55:756;1448877904.61;(0.3152885675430298, 0.5017719268798828);50.0362815857;1.0;;;;;;;;;;;;;;4;24,33,72,75;0;0;0;0;0;0;0;();(-2000.0, -2000.0);
10:48:55:830;10:48:55:756;1448877904.61;(0.3152885675430298, 0.5017719268798828);50.0362815857;1.0;;;;;;;;;;;;;;4;24,33,72,75;0;0;0;0;0;0;0;();(-2000.0, -2000.0);
10:48:55:847;10:48:55:839;1448877904.68;(0.31641578674316406, 0.5027444203694662);49.777633667;1.0;;;;;;;;;;;;;;4;24,33,72,75;0;0;0;0;0;0;0;();(-2000.0, -2000.0);
10:48:55:863;10:48:55:839;1448877904.68;(0.31641578674316406, 0.5027444203694662);49.777633667;1.0;;;;;;;;;;;;;;4;24,33,72,75;0;0;0;0;0;0;0;();(-2000.0, -2000.0);
10:48:55:880;10:48:55:839;1448877904.68;(0.31641578674316406, 0.5027444203694662);49.777633667;1.0;;;;;;;;;;;;;;4;24,33,72,75;0;0;0;0;0;0;0;();(-2000.0, -2000.0);
10:48:55:913;10:48:55:892;1448877904.74;(0.3174222469329834, 0.5036241743299696);49.9740066528;1.0;;;;;;;;;;;;;;4;24,33,72,75;0;0;0;0;0;0;0;();(-2000.0, -2000.0);
10:48:55:928;10:48:55:892;1448877904.74;(0.3174222469329834, 0.5036241743299696);49.9740066528;1.0;;;;;;;;;;;;;;4;24,33,72,75;0;0;0;0;0;0;0;();(-2000.0, -2000.0);
10:48:55:947;10:48:55:892;1448877904.74;(0.3174222469329834, 0.5036241743299696);49.9740066528;1.0;;;;;;;;;;;;;;4;24,33,72,75;0;0;0;0;0;0;0;();(-2000.0, -2000.0);
10:48:55:963;10:48:55:956;1448877904.81;(0.3174356698989868, 0.5038639068603515);50.4291229248;1.0;;;;;;;;;;;;;;4;24,33,72,75;0;0;0;0;0;0;0;();(-2000.0, -2000.0);
10:48:55:980;10:48:55:956;1448877904.81;(0.3174356698989868, 0.5038639068603515);50.4291229248;1.0;;;;;;;;;;;;;;4;24,33,72,75;0;0;0;0;0;0;0;();(-2000.0, -2000.0);
10:48:56:013;10:48:55:956;1448877904.81;(0.3174356698989868, 0.5038639068603515);50.4291229248;1.0;;;;;;;;;;;;;;4;24,33,72,75;0;0;0;0;0;0;0;();(-2000.0, -2000.0);
10:48:56:030;10:48:56:024;1448877904.88;(0.31754751205444337, 0.5039610120985243);50.5938491821;1.0;;;;;;;;;;;;;;4;24,33,72,75;0;0;0;0;0;0;0;();(-2000.0, -2000.0);
10:48:56:047;10:48:56:024;1448877904.88;(0.31754751205444337, 0.5039610120985243);50.5938491821;1.0;;;;;;;;;;;;;;4;24,33,72,75;0;0;0;0;0;0;0;();(-2000.0, -2000.0);
10:48:56:064;10:48:56:024;1448877904.88;(0.31754751205444337, 0.5039610120985243);50.5938491821;1.0;;;;;;;;;;;;;;4;24,33,72,75;0;0;0;0;0;0;0;();(-2000.0, -2000.0);
10:48:56:081;10:48:56:024;1448877904.88;(0.31754751205444337, 0.5039610120985243);50.5938491821;1.0;;;;;;;;;;;;;;4;24,33,72,75;0;0;0;0;0;0;0;();(-2000.0, -2000.0);
10:48:56:113;10:48:56:088;1448877904.94;(0.3184694766998291, 0.5041915045844184);51.3768844604;1.0;;;;;;;;;;;;;;4;24,33,72,75;0;0;0;0;0;0;0;();(-2000.0, -2000.0);
10:48:56:130;10:48:56:088;1448877904.94;(0.3184694766998291, 0.5041915045844184);51.3768844604;1.0;;;;;;;;;;;;;;4;24,33,72,75;0;0;0;0;0;0;0;();(-2000.0, -2000.0);
10:48:56:146;10:48:56:088;1448877904.94;(0.3184694766998291, 0.5041915045844184);51.3768844604;1.0;;;;;;;;;;;;;;4;24,33,72,75;0;0;0;0;0;0;0;();(-2000.0, -2000.0);
10:48:56:165;10:48:56:156;1448877904.98;(0.3189998149871826, 0.5041666666666667);51.7424354553;1.0;;;;;;;;;;;;;;4;24,33,72,75;0;0;0;0;0;0;0;();(-2000.0, -2000.0);
10:48:56:180;10:48:56:156;1448877904.98;(0.3189998149871826, 0.5041666666666667);51.7424354553;1.0;;;;;;;;;;;;;;4;24,33,72,75;0;0;0;0;0;0;0;();(-2000.0, -2000.0);
10:48:56:213;10:48:56:156;1448877904.98;(0.3189998149871826, 0.5041666666666667);51.7424354553;1.0;;;;;;;;;;;;;;4;24,33,72,75;0;0;0;0;0;0;0;();(-2000.0, -2000.0);
10:48:56:230;10:48:56:223;1448877905.08;(0.32159976959228515, 0.5054816351996527);52.9420547485;1.0;;;;;;;;;;;;;;4;24,33,72,75;0;0;0;0;0;0;0;();(-2000.0, -2000.0);
10:48:56:247;10:48:56:223;1448877905.08;(0.32159976959228515, 0.5054816351996527);52.9420547485;1.0;;;;;;;;;;;;;;4;24,33,72,75;0;0;0;0;0;0;0;();(-2000.0, -2000.0);
10:48:56:263;10:48:56:223;1448877905.08;(0.32159976959228515, 0.5054816351996527);52.9420547485;1.0;;;;;;;;;;;;;;4;24,33,72,75;0;0;0;0;0;0;0;();(-2000.0, -2000.0);
10:48:56:280;10:48:56:223;1448877905.08;(0.32159976959228515, 0.5054816351996527);52.9420547485;1.0;;;;;;;;;;;;;;4;24,33,72,75;0;0;0;0;0;0;0;();(-2000.0, -2000.0);
10:48:56:314;10:48:56:288;1448877905.14;(0.32339816093444823, 0.5055867089165582);53.8704948425;1.0;;;;;;;;;;;;;;4;24,33,72,75;0;0;0;0;0;0;0;();(-2000.0, -2000.0);
10:48:56:331;10:48:56:288;1448877905.14;(0.32339816093444823, 0.5055867089165582);53.8704948425;1.0;;;;;;;;;;;;;;4;24,33,72,75;0;0;0;0;0;0;0;();(-2000.0, -2000.0);
10:48:56:347;10:48:56:288;1448877905.14;(0.32339816093444823, 0.5055867089165582);53.8704948425;1.0;;;;;;;;;;;;;;4;24,33,72,75;0;0;0;0;0;0;0;();(-2000.0, -2000.0);
10:48:56:363;10:48:56:356;1448877905.21;(0.3253473281860352, 0.5060137430826823);54.5319480896;1.0;;;;;;;;;;;;;;4;24,33,72,75;0;0;0;0;0;0;0;();(-2000.0, -2000.0);
10:48:56:381;10:48:56:356;1448877905.21;(0.3253473281860352, 0.5060137430826823);54.5319480896;1.0;;;;;;;;;;;;;;4;24,33,72,75;0;0;0;0;0;0;0;();(-2000.0, -2000.0);
10:48:56:414;10:48:56:356;1448877905.21;(0.3253473281860352, 0.5060137430826823);54.5319480896;1.0;;;;;;;;;;;;;;4;24,33,72,75;0;0;0;0;0;0;0;();(-2000.0, -2000.0);
10:48:56:431;10:48:56:423;1448877905.28;(0.32621235847473146, 0.5058943854437934);55.0553092957;1.0;;;;;;;;;;;;;;4;24,33,72,75;0;0;0;0;0;0;0;();(-2000.0, -2000.0);
10:48:56:447;10:48:56:423;1448877905.28;(0.32621235847473146, 0.5058943854437934);55.0553092957;1.0;;;;;;;;;;;;;;4;24,33,72,75;0;0;0;0;0;0;0;();(-2000.0, -2000.0);
10:48:56:463;10:48:56:423;1448877905.28;(0.32621235847473146, 0.5058943854437934);55.0553092957;1.0;;;;;;;;;;;;;;4;24,33,72,75;0;0;0;0;0;0;0;();(-2000.0, -2000.0);
10:48:56:481;10:48:56:423;1448877905.28;(0.32621235847473146, 0.5058943854437934);55.0553092957;1.0;;;;;;;;;;;;;;4;24,33,72,75;0;0;0;0;0;0;0;();(-2000.0, -2000.0);
10:48:56:513;10:48:56:488;1448877905.31;(0.32752525806427, 0.5053383721245659);55.1429252625;0.868944551704;;;;;;;;;;;;;;4;24,33,72,75;0;0;0;0;0;0;0;();(-2000.0, -2000.0);
10:48:56:530;10:48:56:488;1448877905.31;(0.32752525806427, 0.5053383721245659);55.1429252625;0.868944551704;;;;;;;;;;;;;;4;24,33,72,75;0;0;0;0;0;0;0;();(-2000.0, -2000.0);
10:48:56:547;10:48:56:488;1448877905.31;(0.32752525806427, 0.5053383721245659);55.1429252625;0.868944551704;;;;;;;;;;;;;;4;24,33,72,75;0;0;0;0;0;0;0;();(-2000.0, -2000.0);
10:48:56:565;10:48:56:556;1448877905.34;(0.3673178911209106, 0.4987596299913194);58.1191101074;0.866068795403;;;;;;;;;;;;;;4;24,33,72,75;0;0;0;0;0;0;0;();(-2000.0, -2000.0);
10:48:56:581;10:48:56:556;1448877905.34;(0.3673178911209106, 0.4987596299913194);58.1191101074;0.866068795403;;;;;;;;;;;;;;4;24,33,72,75;0;0;0;0;0;0;0;();(-2000.0, -2000.0);
10:48:56:614;10:48:56:556;1448877905.34;(0.3673178911209106, 0.4987596299913194);58.1191101074;0.866068795403;;;;;;;;;;;;;;4;24,33,72,75;0;0;0;0;0;0;0;();(-2000.0, -2000.0);
10:48:56:630;10:48:56:620;1448877905.44;(0.3706979274749756, 0.5001008351643881);54.8473014832;1.0;;;;;;;;;;;;;;4;24,33,72,75;0;0;0;0;0;0;0;();(-2000.0, -2000.0);
10:48:56:647;10:48:56:620;1448877905.44;(0.3706979274749756, 0.5001008351643881);54.8473014832;1.0;;;;;;;;;;;;;;4;24,33,72,75;0;0;0;0;0;0;0;();(-2000.0, -2000.0);
10:48:56:663;10:48:56:620;1448877905.44;(0.3706979274749756, 0.5001008351643881);54.8473014832;1.0;;;;;;;;;;;;;;4;24,33,72,75;0;0;0;0;0;0;0;();(-2000.0, -2000.0);
10:48:56:681;10:48:56:620;1448877905.44;(0.3706979274749756, 0.5001008351643881);54.8473014832;1.0;;;;;;;;;;;;;;4;24,33,72,75;0;0;0;0;0;0;0;();(-2000.0, -2000.0);
10:48:56:714;10:48:56:688;1448877905.51;(0.3645649433135986, 0.5000816345214844);55.2321281433;1.0;;;;;;;;;;;;;;4;24,33,72,75;0;0;0;0;0;0;0;();(-2000.0, -2000.0);
10:48:56:730;10:48:56:688;1448877905.51;(0.3645649433135986, 0.5000816345214844);55.2321281433;1.0;;;;;;;;;;;;;;4;24,33,72,75;0;0;0;0;0;0;0;();(-2000.0, -2000.0);
10:48:56:747;10:48:56:688;1448877905.51;(0.3645649433135986, 0.5000816345214844);55.2321281433;1.0;;;;;;;;;;;;;;4;24,33,72,75;0;0;0;0;0;0;0;();(-2000.0, -2000.0);
10:48:56:764;10:48:56:755;1448877905.58;(0.3867384672164917, 0.5058762020534939);58.0759735107;0.75104161642;;;;;;;;;;;;;;4;24,33,72,75;0;0;0;0;0;0;0;();(-2000.0, -2000.0);
10:48:56:780;10:48:56:755;1448877905.58;(0.3867384672164917, 0.5058762020534939);58.0759735107;0.75104161642;;;;;;;;;;;;;;4;24,33,72,75;0;0;0;0;0;0;0;();(-2000.0, -2000.0);
10:48:56:814;10:48:56:755;1448877905.58;(0.3867384672164917, 0.5058762020534939);58.0759735107;0.75104161642;;;;;;;;;;;;;;4;24,33,72,75;0;0;0;0;0;0;0;();(-2000.0, -2000.0);
10:48:56:830;10:48:56:820;1448877905.64;(0.44252495765686034, 0.49015914069281685);52.8583259583;1.0;;;;;;;;;;;;;;4;24,33,72,75;0;0;0;0;0;0;0;();(-2000.0, -2000.0);
10:48:56:847;10:48:56:820;1448877905.64;(0.44252495765686034, 0.49015914069281685);52.8583259583;1.0;;;;;;;;;;;;;;4;24,33,72,75;0;0;0;0;0;0;0;();(-2000.0, -2000.0);
10:48:56:864;10:48:56:820;1448877905.64;(0.44252495765686034, 0.49015914069281685);52.8583259583;1.0;;;;;;;;;;;;;;4;24,33,72,75;0;0;0;0;0;0;0;();(-2000.0, -2000.0);
10:48:56:881;10:48:56:820;1448877905.64;(0.44252495765686034, 0.49015914069281685);52.8583259583;1.0;;;;;;;;;;;;;;4;24,33,72,75;0;0;0;0;0;0;0;();(-2000.0, -2000.0);
10:48:56:915;10:48:56:888;1448877905.71;(0.43427586555480957, 0.49691026475694444);52.0788078308;1.0;;;;;;;;;;;;;;4;24,33,72,75;0;0;0;0;0;0;0;();(-2000.0, -2000.0);
10:48:56:931;10:48:56:888;1448877905.71;(0.43427586555480957, 0.49691026475694444);52.0788078308;1.0;;;;;;;;;;;;;;4;24,33,72,75;0;0;0;0;0;0;0;();(-2000.0, -2000.0);
10:48:56:948;10:48:56:888;1448877905.71;(0.43427586555480957, 0.49691026475694444);52.0788078308;1.0;;;;;;;;;;;;;;4;24,33,72,75;0;0;0;0;0;0;0;();(-2000.0, -2000.0);
10:48:56:964;10:48:56:955;1448877905.78;(0.4257741212844849, 0.5002376132541233);51.8660583496;1.0;;;;;;;;;;;;;;4;24,33,72,75;0;0;0;0;0;0;0;();(-2000.0, -2000.0);
10:48:56:981;10:48:56:955;1448877905.78;(0.4257741212844849, 0.5002376132541233);51.8660583496;1.0;;;;;;;;;;;;;;4;24,33,72,75;0;0;0;0;0;0;0;();(-2000.0, -2000.0);
10:48:57:014;10:48:56:955;1448877905.78;(0.4257741212844849, 0.5002376132541233);51.8660583496;1.0;;;;;;;;;;;;;;4;24,33,72,75;0;0;0;0;0;0;0;();(-2000.0, -2000.0);
10:48:57:031;10:48:57:020;1448877905.84;(0.4187233209609985, 0.5021905687120225);52.4624671936;1.0;;;;;;;;;;;;;;4;24,33,72,75;0;0;0;0;0;0;0;();(-2000.0, -2000.0);
10:48:57:047;10:48:57:020;1448877905.84;(0.4187233209609985, 0.5021905687120225);52.4624671936;1.0;;;;;;;;;;;;;;4;24,33,72,75;0;0;0;0;0;0;0;();(-2000.0, -2000.0);
10:48:57:064;10:48:57:020;1448877905.84;(0.4187233209609985, 0.5021905687120225);52.4624671936;1.0;;;;;;;;;;;;;;4;24,33,72,75;0;0;0;0;0;0;0;();(-2000.0, -2000.0);
10:48:57:080;10:48:57:020;1448877905.84;(0.4187233209609985, 0.5021905687120225);52.4624671936;1.0;;;;;;;;;;;;;;4;24,33,72,75;0;0;0;0;0;0;0;();(-2000.0, -2000.0);
10:48:57:115;10:48:57:086;1448877905.88;(0.4157586097717285, 0.5029697842068143);52.0577392578;1.0;;;;;;;;;;;;;;4;24,33,72,75;0;0;0;0;0;0;0;();(-2000.0, -2000.0);
10:48:57:131;10:48:57:086;1448877905.88;(0.4157586097717285, 0.5029697842068143);52.0577392578;1.0;;;;;;;;;;;;;;4;24,33,72,75;0;0;0;0;0;0;0;();(-2000.0, -2000.0);
10:48:57:148;10:48:57:086;1448877905.88;(0.4157586097717285, 0.5029697842068143);52.0577392578;1.0;;;;;;;;;;;;;;4;24,33,72,75;0;0;0;0;0;0;0;();(-2000.0, -2000.0);
10:48:57:165;10:48:57:152;1448877905.98;(0.4441196441650391, 0.4438502841525608);51.4626998901;1.0;;;;;;;;;;;;;;4;24,33,72,75;0;0;0;0;0;0;0;();(-2000.0, -2000.0);
10:48:57:181;10:48:57:152;1448877905.98;(0.4441196441650391, 0.4438502841525608);51.4626998901;1.0;;;;;;;;;;;;;;4;24,33,72,75;0;0;0;0;0;0;0;();(-2000.0, -2000.0);
10:48:57:214;10:48:57:152;1448877905.98;(0.4441196441650391, 0.4438502841525608);51.4626998901;1.0;;;;;;;;;;;;;;4;24,33,72,75;0;0;0;0;0;0;0;();(-2000.0, -2000.0);
10:48:57:231;10:48:57:220;1448877906.04;(0.43876080513000487, 0.4469542609320747);52.1392593384;1.0;;;;;;;;;;;;;;4;24,33,72,75;0;0;0;0;0;0;0;();(-2000.0, -2000.0);
10:48:57:248;10:48:57:220;1448877906.04;(0.43876080513000487, 0.4469542609320747);52.1392593384;1.0;;;;;;;;;;;;;;4;24,33,72,75;0;0;0;0;0;0;0;();(-2000.0, -2000.0);
10:48:57:264;10:48:57:220;1448877906.04;(0.43876080513000487, 0.4469542609320747);52.1392593384;1.0;;;;;;;;;;;;;;4;24,33,72,75;0;0;0;0;0;0;0;();(-2000.0, -2000.0);
10:48:57:281;10:48:57:220;1448877906.04;(0.43876080513000487, 0.4469542609320747);52.1392593384;1.0;;;;;;;;;;;;;;4;24,33,72,75;0;0;0;0;0;0;0;();(-2000.0, -2000.0);
10:48:57:315;10:48:57:283;1448877906.11;(0.14992799758911132, 0.4344944000244141);21.435377121;0.969795778064;;;;;;;;;;;;;;4;24,33,72,75;0;0;0;0;0;0;0;();(-2000.0, -2000.0);
10:48:57:331;10:48:57:283;1448877906.11;(0.14992799758911132, 0.4344944000244141);21.435377121;0.969795778064;;;;;;;;;;;;;;4;24,33,72,75;0;0;0;0;0;0;0;();(-2000.0, -2000.0);
10:48:57:348;10:48:57:283;1448877906.11;(0.14992799758911132, 0.4344944000244141);21.435377121;0.969795778064;;;;;;;;;;;;;;4;24,33,72,75;0;0;0;0;0;0;0;();(-2000.0, -2000.0);
10:48:57:364;10:48:57:353;1448877906.18;(0.14999170303344728, 0.43445125155978737);21.3294067383;0.85651010315;;;;;;;;;;;;;;4;24,33,72,75;0;0;0;0;0;0;0;();(-2000.0, -2000.0);
10:48:57:382;10:48:57:353;1448877906.18;(0.14999170303344728, 0.43445125155978737);21.3294067383;0.85651010315;;;;;;;;;;;;;;4;24,33,72,75;0;0;0;0;0;0;0;();(-2000.0, -2000.0);
10:48:57:415;10:48:57:353;1448877906.18;(0.14999170303344728, 0.43445125155978737);21.3294067383;0.85651010315;;;;;;;;;;;;;;4;24,33,72,75;0;0;0;0;0;0;0;();(-2000.0, -2000.0);
10:48:57:431;10:48:57:416;1448877906.24;(0.4456674098968506, 0.4508648342556424);52.5435905457;0.879981316128;;;;;;;;;;;;;;4;24,33,72,75;0;0;0;0;0;0;0;();(-2000.0, -2000.0);
10:48:57:447;10:48:57:416;1448877906.24;(0.4456674098968506, 0.4508648342556424);52.5435905457;0.879981316128;;;;;;;;;;;;;;4;24,33,72,75;0;0;0;0;0;0;0;();(-2000.0, -2000.0);
10:48:57:464;10:48:57:416;1448877906.24;(0.4456674098968506, 0.4508648342556424);52.5435905457;0.879981316128;;;;;;;;;;;;;;4;24,33,72,75;0;0;0;0;0;0;0;();(-2000.0, -2000.0);
10:48:57:482;10:48:57:416;1448877906.24;(0.4456674098968506, 0.4508648342556424);52.5435905457;0.879981316128;;;;;;;;;;;;;;4;24,33,72,75;0;0;0;0;0;0;0;();(-2000.0, -2000.0);
10:48:57:514;10:48:57:485;1448877906.31;(0.4425839900970459, 0.45386734008789065);52.5869750977;1.0;;;;;;;;;;;;;;4;24,33,72,75;0;0;0;0;0;0;0;();(-2000.0, -2000.0);
10:48:57:531;10:48:57:485;1448877906.31;(0.4425839900970459, 0.45386734008789065);52.5869750977;1.0;;;;;;;;;;;;;;4;24,33,72,75;0;0;0;0;0;0;0;();(-2000.0, -2000.0);
10:48:57:548;10:48:57:485;1448877906.31;(0.4425839900970459, 0.45386734008789065);52.5869750977;1.0;;;;;;;;;;;;;;4;24,33,72,75;0;0;0;0;0;0;0;();(-2000.0, -2000.0);
10:48:57:565;10:48:57:553;1448877906.41;(0.4402638912200928, 0.4571664598253038);53.0955696106;1.0;;;;;;;;;;;;;;4;24,33,72,75;0;0;0;0;0;0;0;();(-2000.0, -2000.0);
10:48:57:581;10:48:57:553;1448877906.41;(0.4402638912200928, 0.4571664598253038);53.0955696106;1.0;;;;;;;;;;;;;;4;24,33,72,75;0;0;0;0;0;0;0;();(-2000.0, -2000.0);
10:48:57:614;10:48:57:553;1448877906.41;(0.4402638912200928, 0.4571664598253038);53.0955696106;1.0;;;;;;;;;;;;;;4;24,33,72,75;0;0;0;0;0;0;0;();(-2000.0, -2000.0);
10:48:57:632;10:48:57:616;1448877906.44;(0.4401373863220215, 0.45716272989908857);53.3357429504;1.0;;;;;;;;;;;;;;4;24,33,72,75;0;0;0;0;0;0;0;();(-2000.0, -2000.0);
10:48:57:648;10:48:57:616;1448877906.44;(0.4401373863220215, 0.45716272989908857);53.3357429504;1.0;;;;;;;;;;;;;;4;24,33,72,75;0;0;0;0;0;0;0;();(-2000.0, -2000.0);
10:48:57:665;10:48:57:616;1448877906.44;(0.4401373863220215, 0.45716272989908857);53.3357429504;1.0;;;;;;;;;;;;;;4;24,33,72,75;0;0;0;0;0;0;0;();(-2000.0, -2000.0);
10:48:57:681;10:48:57:616;1448877906.44;(0.4401373863220215, 0.45716272989908857);53.3357429504;1.0;;;;;;;;;;;;;;4;24,33,72,75;0;0;0;0;0;0;0;();(-2000.0, -2000.0);
10:48:57:714;10:48:57:684;1448877906.51;(0.4398162364959717, 0.4585943433973524);53.6369781494;1.0;;;;;;;;;;;;;;4;24,33,72,75;0;0;0;0;0;0;0;();(-2000.0, -2000.0);
10:48:57:731;10:48:57:684;1448877906.51;(0.4398162364959717, 0.4585943433973524);53.6369781494;1.0;;;;;;;;;;;;;;4;24,33,72,75;0;0;0;0;0;0;0;();(-2000.0, -2000.0);
10:48:57:748;10:48:57:748;1448877906.58;(0.44006881713867185, 0.4596362643771701);53.6707191467;1.0;;;;;;;;;;;;;;4;24,33,72,75;0;0;0;0;0;0;0;();(-2000.0, -2000.0);
10:48:57:765;10:48:57:748;1448877906.58;(0.44006881713867185, 0.4596362643771701);53.6707191467;1.0;;;;;;;;;;;;;;4;24,33,72,75;0;0;0;0;0;0;0;();(-2000.0, -2000.0);
10:48:57:782;10:48:57:748;1448877906.58;(0.44006881713867185, 0.4596362643771701);53.6707191467;1.0;;;;;;;;;;;;;;4;24,33,72,75;0;0;0;0;0;0;0;();(-2000.0, -2000.0);
10:48:57:815;10:48:57:748;1448877906.58;(0.44006881713867185, 0.4596362643771701);53.6707191467;1.0;;;;;;;;;;;;;;4;24,33,72,75;0;0;0;0;0;0;0;();(-2000.0, -2000.0);
10:48:57:832;10:48:57:816;1448877906.64;(0.4409318923950195, 0.46006927490234373);53.6999168396;1.0;;;;;;;;;;;;;;4;24,33,72,75;0;0;0;0;0;0;0;();(-2000.0, -2000.0);
10:48:57:848;10:48:57:816;1448877906.64;(0.4409318923950195, 0.46006927490234373);53.6999168396;1.0;;;;;;;;;;;;;;4;24,33,72,75;0;0;0;0;0;0;0;();(-2000.0, -2000.0);
10:48:57:865;10:48:57:816;1448877906.64;(0.4409318923950195, 0.46006927490234373);53.6999168396;1.0;;;;;;;;;;;;;;4;24,33,72,75;0;0;0;0;0;0;0;();(-2000.0, -2000.0);
10:48:57:881;10:48:57:816;1448877906.64;(0.4409318923950195, 0.46006927490234373);53.6999168396;1.0;;;;;;;;;;;;;;4;24,33,72,75;0;0;0;0;0;0;0;();(-2000.0, -2000.0);
10:48:57:915;10:48:57:883;1448877906.71;(0.4125045299530029, 0.46968837314181855);62.9720649719;0.724604827404;;;;;;;;;;;;;;4;24,33,72,75;0;0;0;0;0;0;0;();(-2000.0, -2000.0);
10:48:57:932;10:48:57:883;1448877906.71;(0.4125045299530029, 0.46968837314181855);62.9720649719;0.724604827404;;;;;;;;;;;;;;4;24,33,72,75;0;0;0;0;0;0;0;();(-2000.0, -2000.0);
10:48:57:948;10:48:57:947;1448877906.78;(0.1888040065765381, 0.28759265475802953);29.9886035919;0.660892133075;;;;;;;;;;;;;;4;24,33,72,75;0;0;0;0;0;0;0;();(-2000.0, -2000.0);
10:48:57:965;10:48:57:947;1448877906.78;(0.1888040065765381, 0.28759265475802953);29.9886035919;0.660892133075;;;;;;;;;;;;;;4;24,33,72,75;0;0;0;0;0;0;0;();(-2000.0, -2000.0);
10:48:57:982;10:48:57:947;1448877906.78;(0.1888040065765381, 0.28759265475802953);29.9886035919;0.660892133075;;;;;;;;;;;;;;4;24,33,72,75;0;0;0;0;0;0;0;();(-2000.0, -2000.0);
10:48:58:015;10:48:57:947;1448877906.78;(0.1888040065765381, 0.28759265475802953);29.9886035919;0.660892133075;;;;;;;;;;;;;;4;24,33,72,75;0;0;0;0;0;0;0;();(-2000.0, -2000.0);
10:48:58:033;10:48:58:016;1448877906.84;(0.2971461296081543, 0.48515828450520837);56.0315933228;1.0;;;;;;;;;;;;;;4;24,33,72,75;0;0;0;0;0;0;0;();(-2000.0, -2000.0);
10:48:58:048;10:48:58:016;1448877906.84;(0.2971461296081543, 0.48515828450520837);56.0315933228;1.0;;;;;;;;;;;;;;4;24,33,72,75;0;0;0;0;0;0;0;();(-2000.0, -2000.0);
10:48:58:065;10:48:58:016;1448877906.84;(0.2971461296081543, 0.48515828450520837);56.0315933228;1.0;;;;;;;;;;;;;;4;24,33,72,75;0;0;0;0;0;0;0;();(-2000.0, -2000.0);
10:48:58:082;10:48:58:080;1448877906.91;(0.2995180368423462, 0.48660197787814674);56.2426605225;1.0;;;;;;;;;;;;;;4;24,33,72,75;0;0;0;0;0;0;0;();(-2000.0, -2000.0);
10:48:58:115;10:48:58:080;1448877906.91;(0.2995180368423462, 0.48660197787814674);56.2426605225;1.0;;;;;;;;;;;;;;4;24,33,72,75;0;0;0;0;0;0;0;();(-2000.0, -2000.0);
10:48:58:132;10:48:58:080;1448877906.91;(0.2995180368423462, 0.48660197787814674);56.2426605225;1.0;;;;;;;;;;;;;;4;24,33,72,75;0;0;0;0;0;0;0;();(-2000.0, -2000.0);
10:48:58:148;10:48:58:148;1448877906.94;(0.30738263130187987, 0.49182684156629775);55.7602577209;1.0;;;;;;;;;;;;;;4;24,33,72,75;0;0;0;0;0;0;0;();(-2000.0, -2000.0);
10:48:58:166;10:48:58:148;1448877906.98;(0.3143786430358887, 0.49439896477593315);55.8183746338;1.0;;;;;;;;;;;;;;4;24,33,72,75;0;0;0;0;0;0;0;();(-2000.0, -2000.0);
10:48:58:182;10:48:58:148;1448877906.98;(0.3143786430358887, 0.49439896477593315);55.8183746338;1.0;;;;;;;;;;;;;;4;24,33,72,75;0;0;0;0;0;0;0;();(-2000.0, -2000.0);
10:48:58:215;10:48:58:148;1448877906.98;(0.3143786430358887, 0.49439896477593315);55.8183746338;1.0;;;;;;;;;;;;;;4;24,33,72,75;0;0;0;0;0;0;0;();(-2000.0, -2000.0);
10:48:58:231;10:48:58:216;1448877907.04;(0.3243545055389404, 0.49487457275390623);56.1816635132;0.934925936033;;;;;;;;;;;;;;4;24,33,72,75;0;0;0;0;0;0;0;();(-2000.0, -2000.0);
10:48:58:249;10:48:58:216;1448877907.04;(0.3243545055389404, 0.49487457275390623);56.1816635132;0.934925936033;;;;;;;;;;;;;;4;24,33,72,75;0;0;0;0;0;0;0;();(-2000.0, -2000.0);
10:48:58:266;10:48:58:216;1448877907.04;(0.3243545055389404, 0.49487457275390623);56.1816635132;0.934925936033;;;;;;;;;;;;;;4;24,33,72,75;0;0;0;0;0;0;0;();(-2000.0, -2000.0);
10:48:58:282;10:48:58:279;1448877907.08;(0.29235448837280276, 0.43902732001410594);59.6617965698;1.0;;;;;;;;;;;;;;4;24,33,72,75;0;0;0;0;0;0;0;();(-2000.0, -2000.0);
10:48:58:315;10:48:58:279;1448877907.08;(0.29235448837280276, 0.43902732001410594);59.6617965698;1.0;;;;;;;;;;;;;;4;24,33,72,75;0;0;0;0;0;0;0;();(-2000.0, -2000.0);
10:48:58:332;10:48:58:279;1448877907.08;(0.29235448837280276, 0.43902732001410594);59.6617965698;1.0;;;;;;;;;;;;;;4;24,33,72,75;0;0;0;0;0;0;0;();(-2000.0, -2000.0);
10:48:58:349;10:48:58:347;1448877907.19;(0.30454699993133544, 0.4308949364556207);56.5318756104;1.0;;;;;;;;;;;;;;4;24,33,72,75;0;0;0;0;0;0;0;();(-2000.0, -2000.0);
10:48:58:365;10:48:58:347;1448877907.19;(0.30454699993133544, 0.4308949364556207);56.5318756104;1.0;;;;;;;;;;;;;;4;24,33,72,75;0;0;0;0;0;0;0;();(-2000.0, -2000.0);
10:48:58:382;10:48:58:347;1448877907.19;(0.30454699993133544, 0.4308949364556207);56.5318756104;1.0;;;;;;;;;;;;;;4;24,33,72,75;0;0;0;0;0;0;0;();(-2000.0, -2000.0);
10:48:58:416;10:48:58:347;1448877907.19;(0.30454699993133544, 0.4308949364556207);56.5318756104;1.0;;;;;;;;;;;;;;4;24,33,72,75;0;0;0;0;0;0;0;();(-2000.0, -2000.0);
10:48:58:432;10:48:58:418;1448877907.24;(0.3124114513397217, 0.4377422332763672);56.447807312;1.0;;;;;;;;;;;;;;4;24,33,72,75;0;0;0;0;0;0;0;();(-2000.0, -2000.0);
10:48:58:448;10:48:58:418;1448877907.24;(0.3124114513397217, 0.4377422332763672);56.447807312;1.0;;;;;;;;;;;;;;4;24,33,72,75;0;0;0;0;0;0;0;();(-2000.0, -2000.0);
10:48:58:466;10:48:58:418;1448877907.24;(0.3124114513397217, 0.4377422332763672);56.447807312;1.0;;;;;;;;;;;;;;4;24,33,72,75;0;0;0;0;0;0;0;();(-2000.0, -2000.0);
10:48:58:483;10:48:58:480;1448877907.31;(0.314837384223938, 0.4386750962999132);56.3529167175;1.0;;;;;;;;;;;;;;4;24,33,72,75;0;0;0;0;0;0;0;();(-2000.0, -2000.0);
10:48:58:516;10:48:58:480;1448877907.31;(0.314837384223938, 0.4386750962999132);56.3529167175;1.0;;;;;;;;;;;;;;4;24,33,72,75;0;0;0;0;0;0;0;();(-2000.0, -2000.0);
10:48:58:532;10:48:58:480;1448877907.31;(0.314837384223938, 0.4386750962999132);56.3529167175;1.0;;;;;;;;;;;;;;4;24,33,72,75;0;0;0;0;0;0;0;();(-2000.0, -2000.0);
10:48:58:550;10:48:58:544;1448877907.38;(0.31732175350189207, 0.43948923746744795);56.3639755249;0.983961790481;;;;;;;;;;;;;;4;24,33,72,75;0;0;0;0;0;0;0;();(-2000.0, -2000.0);
10:48:58:566;10:48:58:544;1448877907.38;(0.31732175350189207, 0.43948923746744795);56.3639755249;0.983961790481;;;;;;;;;;;;;;4;24,33,72,75;0;0;0;0;0;0;0;();(-2000.0, -2000.0);
10:48:58:582;10:48:58:544;1448877907.38;(0.31732175350189207, 0.43948923746744795);56.3639755249;0.983961790481;;;;;;;;;;;;;;4;24,33,72,75;0;0;0;0;0;0;0;();(-2000.0, -2000.0);
10:48:58:615;10:48:58:612;1448877907.44;(0.3193769931793213, 0.4404683854844835);55.8507652283;1.0;;;;;;;;;;;;;;4;24,33,72,75;0;0;0;0;0;0;0;();(-2000.0, -2000.0);
10:48:58:632;10:48:58:612;1448877907.44;(0.3193769931793213, 0.4404683854844835);55.8507652283;1.0;;;;;;;;;;;;;;4;24,33,72,75;0;0;0;0;0;0;0;();(-2000.0, -2000.0);
10:48:58:648;10:48:58:612;1448877907.44;(0.3193769931793213, 0.4404683854844835);55.8507652283;1.0;;;;;;;;;;;;;;4;24,33,72,75;0;0;0;0;0;0;0;();(-2000.0, -2000.0);
10:48:58:665;10:48:58:612;1448877907.44;(0.3193769931793213, 0.4404683854844835);55.8507652283;1.0;;;;;;;;;;;;;;4;24,33,72,75;0;0;0;0;0;0;0;();(-2000.0, -2000.0);
10:48:58:683;10:48:58:680;1448877907.51;(0.32116291522979734, 0.44172367519802513);54.9755516052;1.0;;;;;;;;;;;;;;4;24,33,72,75;0;0;0;0;0;0;0;();(-2000.0, -2000.0);
10:48:58:715;10:48:58:680;1448877907.51;(0.32116291522979734, 0.44172367519802513);54.9755516052;1.0;;;;;;;;;;;;;;4;24,33,72,75;0;0;0;0;0;0;0;();(-2000.0, -2000.0);
10:48:58:732;10:48:58:680;1448877907.51;(0.32116291522979734, 0.44172367519802513);54.9755516052;1.0;;;;;;;;;;;;;;4;24,33,72,75;0;0;0;0;0;0;0;();(-2000.0, -2000.0);
10:48:58:749;10:48:58:744;1448877907.54;(0.33649768829345705, 0.46559490627712674);54.1909370422;0.926714331888;;;;;;;;;;;;;;4;24,33,72,75;0;0;0;0;0;0;0;();(-2000.0, -2000.0);
10:48:58:766;10:48:58:744;1448877907.54;(0.33649768829345705, 0.46559490627712674);54.1909370422;0.926714331888;;;;;;;;;;;;;;4;24,33,72,75;0;0;0;0;0;0;0;();(-2000.0, -2000.0);
10:48:58:782;10:48:58:744;1448877907.54;(0.33649768829345705, 0.46559490627712674);54.1909370422;0.926714331888;;;;;;;;;;;;;;4;24,33,72,75;0;0;0;0;0;0;0;();(-2000.0, -2000.0);
10:48:58:816;10:48:58:813;1448877907.65;(0.37718517780303956, 0.50670166015625);51.5970153809;1.0;;;;;;;;;;;;;;4;24,33,72,75;0;0;0;0;0;0;0;();(-2000.0, -2000.0);
10:48:58:833;10:48:58:813;1448877907.65;(0.37718517780303956, 0.50670166015625);51.5970153809;1.0;;;;;;;;;;;;;;4;24,33,72,75;0;0;0;0;0;0;0;();(-2000.0, -2000.0);
10:48:58:849;10:48:58:813;1448877907.65;(0.37718517780303956, 0.50670166015625);51.5970153809;1.0;;;;;;;;;;;;;;4;24,33,72,75;0;0;0;0;0;0;0;();(-2000.0, -2000.0);
10:48:58:866;10:48:58:813;1448877907.65;(0.37718517780303956, 0.50670166015625);51.5970153809;1.0;;;;;;;;;;;;;;4;24,33,72,75;0;0;0;0;0;0;0;();(-2000.0, -2000.0);
10:48:58:883;10:48:58:883;1448877907.71;(0.3726299047470093, 0.5086117214626736);50.4544334412;1.0;;;;;;;;;;;;;;4;24,33,72,75;0;0;0;0;0;0;0;();(-2000.0, -2000.0);
10:48:58:900;10:48:58:883;1448877907.71;(0.3726299047470093, 0.5086117214626736);50.4544334412;1.0;;;;;;;;;;;;;;4;24,33,72,75;0;0;0;0;0;0;0;();(-2000.0, -2000.0);
10:48:58:933;10:48:58:883;1448877907.71;(0.3726299047470093, 0.5086117214626736);50.4544334412;1.0;;;;;;;;;;;;;;4;24,33,72,75;0;0;0;0;0;0;0;();(-2000.0, -2000.0);
10:48:58:950;10:48:58:944;1448877907.78;(0.36758997440338137, 0.5093460083007812);49.8208999634;1.0;;;;;;;;;;;;;;4;24,33,72,75;0;0;0;0;0;0;0;();(-2000.0, -2000.0);
10:48:58:966;10:48:58:944;1448877907.78;(0.36758997440338137, 0.5093460083007812);49.8208999634;1.0;;;;;;;;;;;;;;4;24,33,72,75;0;0;0;0;0;0;0;();(-2000.0, -2000.0);
10:48:58:982;10:48:58:944;1448877907.78;(0.36758997440338137, 0.5093460083007812);49.8208999634;1.0;;;;;;;;;;;;;;4;24,33,72,75;0;0;0;0;0;0;0;();(-2000.0, -2000.0);
10:48:59:000;10:48:58:944;1448877907.78;(0.36758997440338137, 0.5093460083007812);49.8208999634;1.0;;;;;;;;;;;;;;4;24,33,72,75;0;0;0;0;0;0;0;();(-2000.0, -2000.0);
10:48:59:032;10:48:59:013;1448877907.84;(0.364522647857666, 0.5093597835964627);49.7054901123;0.883347393015;;;;;;;;;;;;;;4;24,33,72,75;0;0;0;0;0;0;0;();(-2000.0, -2000.0);
10:48:59:050;10:48:59:013;1448877907.84;(0.364522647857666, 0.5093597835964627);49.7054901123;0.883347393015;;;;;;;;;;;;;;4;24,33,72,75;0;0;0;0;0;0;0;();(-2000.0, -2000.0);
10:48:59:066;10:48:59:013;1448877907.84;(0.364522647857666, 0.5093597835964627);49.7054901123;0.883347393015;;;;;;;;;;;;;;4;24,33,72,75;0;0;0;0;0;0;0;();(-2000.0, -2000.0);
10:48:59:082;10:48:59:076;1448877907.91;(0.3611500024795532, 0.5093760596381294);49.054901123;0.944638596916;;;;;;;;;;;;;;4;24,33,72,75;0;0;0;0;0;0;0;();(-2000.0, -2000.0);
10:48:59:116;10:48:59:076;1448877907.91;(0.3611500024795532, 0.5093760596381294);49.054901123;0.944638596916;;;;;;;;;;;;;;4;24,33,72,75;0;0;0;0;0;0;0;();(-2000.0, -2000.0);
10:48:59:133;10:48:59:076;1448877907.91;(0.3611500024795532, 0.5093760596381294);49.054901123;0.944638596916;;;;;;;;;;;;;;4;24,33,72,75;0;0;0;0;0;0;0;();(-2000.0, -2000.0);
10:48:59:150;10:48:59:144;1448877907.98;(0.3591437816619873, 0.5158554501003689);49.2645568848;1.0;;;;;;;;;;;;;;4;24,33,72,75;0;0;0;0;0;0;0;();(-2000.0, -2000.0);
10:48:59:166;10:48:59:144;1448877907.98;(0.3591437816619873, 0.5158554501003689);49.2645568848;1.0;;;;;;;;;;;;;;4;24,33,72,75;0;0;0;0;0;0;0;();(-2000.0, -2000.0);
10:48:59:182;10:48:59:144;1448877907.98;(0.3591437816619873, 0.5158554501003689);49.2645568848;1.0;;;;;;;;;;;;;;4;24,33,72,75;0;0;0;0;0;0;0;();(-2000.0, -2000.0);
10:48:59:200;10:48:59:144;1448877907.98;(0.3591437816619873, 0.5158554501003689);49.2645568848;1.0;;;;;;;;;;;;;;4;24,33,72,75;0;0;0;0;0;0;0;();(-2000.0, -2000.0);
10:48:59:232;10:48:59:208;1448877908.04;(0.3581575393676758, 0.5167293124728732);49.873260498;1.0;;;;;;;;;;;;;;4;24,33,72,75;0;0;0;0;0;0;0;();(-2000.0, -2000.0);
10:48:59:250;10:48:59:208;1448877908.04;(0.3581575393676758, 0.5167293124728732);49.873260498;1.0;;;;;;;;;;;;;;4;24,33,72,75;0;0;0;0;0;0;0;();(-2000.0, -2000.0);
10:48:59:266;10:48:59:208;1448877908.04;(0.3581575393676758, 0.5167293124728732);49.873260498;1.0;;;;;;;;;;;;;;4;24,33,72,75;0;0;0;0;0;0;0;();(-2000.0, -2000.0);
10:48:59:282;10:48:59:276;1448877908.11;(0.35619125366210935, 0.5163233015272353);51.2082939148;0.993858629513;;;;;;;;;;;;;;4;24,33,72,75;0;0;0;0;0;0;0;();(-2000.0, -2000.0);
10:48:59:300;10:48:59:276;1448877908.11;(0.35619125366210935, 0.5163233015272353);51.2082939148;0.993858629513;;;;;;;;;;;;;;4;24,33,72,75;0;0;0;0;0;0;0;();(-2000.0, -2000.0);
10:48:59:332;10:48:59:276;1448877908.11;(0.35619125366210935, 0.5163233015272353);51.2082939148;0.993858629513;;;;;;;;;;;;;;4;24,33,72,75;0;0;0;0;0;0;0;();(-2000.0, -2000.0);
10:48:59:350;10:48:59:344;1448877908.18;(0.353987455368042, 0.5165179782443576);52.1597747803;1.0;;;;;;;;;;;;;;4;24,33,72,75;0;0;0;0;0;0;0;();(-2000.0, -2000.0);
10:48:59:366;10:48:59:344;1448877908.18;(0.353987455368042, 0.5165179782443576);52.1597747803;1.0;;;;;;;;;;;;;;4;24,33,72,75;0;0;0;0;0;0;0;();(-2000.0, -2000.0);
10:48:59:383;10:48:59:344;1448877908.18;(0.353987455368042, 0.5165179782443576);52.1597747803;1.0;;;;;;;;;;;;;;4;24,33,72,75;0;0;0;0;0;0;0;();(-2000.0, -2000.0);
10:48:59:400;10:48:59:344;1448877908.18;(0.353987455368042, 0.5165179782443576);52.1597747803;1.0;;;;;;;;;;;;;;4;24,33,72,75;0;0;0;0;0;0;0;();(-2000.0, -2000.0);
10:48:59:433;10:48:59:408;1448877908.21;(0.35271544456481935, 0.5164318508572049);52.7904624939;1.0;;;;;;;;;;;;;;4;24,33,72,75;0;0;0;0;0;0;0;();(-2000.0, -2000.0);
10:48:59:450;10:48:59:408;1448877908.21;(0.35271544456481935, 0.5164318508572049);52.7904624939;1.0;;;;;;;;;;;;;;4;24,33,72,75;0;0;0;0;0;0;0;();(-2000.0, -2000.0);
10:48:59:466;10:48:59:408;1448877908.21;(0.35271544456481935, 0.5164318508572049);52.7904624939;1.0;;;;;;;;;;;;;;4;24,33,72,75;0;0;0;0;0;0;0;();(-2000.0, -2000.0);
10:48:59:483;10:48:59:476;1448877908.31;(0.3508580207824707, 0.5163376278347439);54.2919769287;1.0;;;;;;;;;;;;;;4;24,33,72,75;0;0;0;0;0;0;0;();(-2000.0, -2000.0);
10:48:59:500;10:48:59:476;1448877908.31;(0.3508580207824707, 0.5163376278347439);54.2919769287;1.0;;;;;;;;;;;;;;4;24,33,72,75;0;0;0;0;0;0;0;();(-2000.0, -2000.0);
10:48:59:533;10:48:59:476;1448877908.31;(0.3508580207824707, 0.5163376278347439);54.2919769287;1.0;;;;;;;;;;;;;;4;24,33,72,75;0;0;0;0;0;0;0;();(-2000.0, -2000.0);
10:48:59:550;10:48:59:540;1448877908.38;(0.3508164882659912, 0.5170881483289931);54.5505371094;1.0;;;;;;;;;;;;;;4;24,33,72,75;0;0;0;0;0;0;0;();(-2000.0, -2000.0);
10:48:59:566;10:48:59:540;1448877908.38;(0.3508164882659912, 0.5170881483289931);54.5505371094;1.0;;;;;;;;;;;;;;4;24,33,72,75;0;0;0;0;0;0;0;();(-2000.0, -2000.0);
10:48:59:583;10:48:59:540;1448877908.38;(0.3508164882659912, 0.5170881483289931);54.5505371094;1.0;;;;;;;;;;;;;;4;24,33,72,75;0;0;0;0;0;0;0;();(-2000.0, -2000.0);
10:48:59:600;10:48:59:540;1448877908.38;(0.3508164882659912, 0.5170881483289931);54.5505371094;1.0;;;;;;;;;;;;;;4;24,33,72,75;0;0;0;0;0;0;0;();(-2000.0, -2000.0);
10:48:59:633;10:48:59:608;1448877908.44;(0.3508630275726318, 0.5170599195692274);55.1059608459;1.0;;;;;;;;;;;;;;4;24,33,72,75;0;0;0;0;0;0;0;();(-2000.0, -2000.0);
10:48:59:650;10:48:59:608;1448877908.44;(0.3508630275726318, 0.5170599195692274);55.1059608459;1.0;;;;;;;;;;;;;;4;24,33,72,75;0;0;0;0;0;0;0;();(-2000.0, -2000.0);
10:48:59:667;10:48:59:608;1448877908.44;(0.3508630275726318, 0.5170599195692274);55.1059608459;1.0;;;;;;;;;;;;;;4;24,33,72,75;0;0;0;0;0;0;0;();(-2000.0, -2000.0);
10:48:59:683;10:48:59:608;1448877908.44;(0.3508630275726318, 0.5170599195692274);55.1059608459;1.0;;;;;;;;;;;;;;4;24,33,72,75;0;0;0;0;0;0;0;();(-2000.0, -2000.0);
10:48:59:700;10:48:59:608;1448877908.44;(0.3508630275726318, 0.5170599195692274);55.1059608459;1.0;;;;;;;;;;;;;;4;24,33,72,75;0;0;0;0;0;0;0;();(-2000.0, -2000.0);
10:48:59:734;10:48:59:608;1448877908.44;(0.3508630275726318, 0.5170599195692274);55.1059608459;1.0;;;;;;;;;;;;;;4;24,33,72,75;0;0;0;0;0;0;0;();(-2000.0, -2000.0);
10:48:59:750;10:48:59:740;1448877908.57;(0.3763235330581665, 0.5145596398247613);55.0385475159;1.0;;;;;;;;;;;;;;4;24,33,72,75;0;0;0;0;0;0;0;();(-2000.0, -2000.0);
10:48:59:766;10:48:59:740;1448877908.57;(0.3763235330581665, 0.5145596398247613);55.0385475159;1.0;;;;;;;;;;;;;;4;24,33,72,75;0;0;0;0;0;0;0;();(-2000.0, -2000.0);
10:48:59:783;10:48:59:740;1448877908.57;(0.3763235330581665, 0.5145596398247613);55.0385475159;1.0;;;;;;;;;;;;;;4;24,33,72,75;0;0;0;0;0;0;0;();(-2000.0, -2000.0);
10:48:59:800;10:48:59:740;1448877908.57;(0.3763235330581665, 0.5145596398247613);55.0385475159;1.0;;;;;;;;;;;;;;4;24,33,72,75;0;0;0;0;0;0;0;();(-2000.0, -2000.0);
10:48:59:833;10:48:59:808;1448877908.64;(0.37225027084350587, 0.5157121022542317);55.837600708;1.0;;;;;;;;;;;;;;4;24,33,72,75;0;0;0;0;0;0;0;();(-2000.0, -2000.0);
10:48:59:850;10:48:59:808;1448877908.64;(0.37225027084350587, 0.5157121022542317);55.837600708;1.0;;;;;;;;;;;;;;4;24,33,72,75;0;0;0;0;0;0;0;();(-2000.0, -2000.0);
10:48:59:866;10:48:59:808;1448877908.64;(0.37225027084350587, 0.5157121022542317);55.837600708;1.0;;;;;;;;;;;;;;4;24,33,72,75;0;0;0;0;0;0;0;();(-2000.0, -2000.0);
10:48:59:883;10:48:59:872;1448877908.71;(0.3697336435317993, 0.5158210754394531);55.9164848328;1.0;;;;;;;;;;;;;;4;24,33,72,75;0;0;0;0;0;0;0;();(-2000.0, -2000.0);
10:48:59:900;10:48:59:872;1448877908.71;(0.3697336435317993, 0.5158210754394531);55.9164848328;1.0;;;;;;;;;;;;;;4;24,33,72,75;0;0;0;0;0;0;0;();(-2000.0, -2000.0);
10:48:59:934;10:48:59:872;1448877908.71;(0.3697336435317993, 0.5158210754394531);55.9164848328;1.0;;;;;;;;;;;;;;4;24,33,72,75;0;0;0;0;0;0;0;();(-2000.0, -2000.0);
10:48:59:950;10:48:59:940;1448877908.78;(0.40427680015563966, 0.5038881089952256);59.3381271362;0.826665818938;;;;;;;;;;;;;;4;24,33,72,75;0;0;0;0;0;0;0;();(-2000.0, -2000.0);
10:48:59:967;10:48:59:940;1448877908.78;(0.40427680015563966, 0.5038881089952256);59.3381271362;0.826665818938;;;;;;;;;;;;;;4;24,33,72,75;0;0;0;0;0;0;0;();(-2000.0, -2000.0);
10:48:59:984;10:48:59:940;1448877908.78;(0.40427680015563966, 0.5038881089952256);59.3381271362;0.826665818938;;;;;;;;;;;;;;4;24,33,72,75;0;0;0;0;0;0;0;();(-2000.0, -2000.0);
10:49:00:000;10:48:59:940;1448877908.78;(0.40427680015563966, 0.5038881089952256);59.3381271362;0.826665818938;;;;;;;;;;;;;;4;24,33,72,75;0;0;0;0;0;0;0;();(-2000.0, -2000.0);
10:49:00:034;10:49:00:013;1448877908.84;(0.46109910011291505, 0.44484943813747835);35.105381012;0.832042952424;;;;;;;;;;;;;;4;24,33,72,75;0;0;0;0;0;0;0;();(-2000.0, -2000.0);
10:49:00:050;10:49:00:013;1448877908.84;(0.46109910011291505, 0.44484943813747835);35.105381012;0.832042952424;;;;;;;;;;;;;;4;24,33,72,75;0;0;0;0;0;0;0;();(-2000.0, -2000.0);
10:49:00:070;10:49:00:013;1448877908.84;(0.46109910011291505, 0.44484943813747835);35.105381012;0.832042952424;;;;;;;;;;;;;;6;24,33,72,75,54,08;0;0;0;0;0;0;0;();(-2000.0, -2000.0);
10:49:00:083;10:49:00:071;1448877908.91;(0.45645604133605955, 0.4650349511040581);51.3666191101;1.0;;;;;;;;;;;;;;6;24,33,72,75,54,08;0;0;0;0;0;0;0;();(-2000.0, -2000.0);
10:49:00:100;10:49:00:071;1448877908.91;(0.45645604133605955, 0.4650349511040581);51.3666191101;1.0;;;;;;;;;;;;;;6;24,33,72,75,54,08;0;0;0;0;0;0;0;();(-2000.0, -2000.0);
10:49:00:133;10:49:00:071;1448877908.91;(0.45645604133605955, 0.4650349511040581);51.3666191101;1.0;;;;;;;;;;;;;;6;24,33,72,75,54,08;0;0;0;0;0;0;0;();(-2000.0, -2000.0);
10:49:00:150;10:49:00:140;1448877908.98;(0.4507588863372803, 0.47043872409396703);51.7809295654;1.0;;;;;;;;;;;;;;6;24,33,72,75,54,08;0;0;0;0;0;0;0;();(-2000.0, -2000.0);
10:49:00:167;10:49:00:140;1448877908.98;(0.4507588863372803, 0.47043872409396703);51.7809295654;1.0;;;;;;;;;;;;;;6;24,33,72,75,54,08;0;0;0;0;0;0;0;();(-2000.0, -2000.0);
10:49:00:184;10:49:00:140;1448877908.98;(0.4507588863372803, 0.47043872409396703);51.7809295654;1.0;;;;;;;;;;;;;;6;24,33,72,75,54,08;0;0;0;0;0;0;0;();(-2000.0, -2000.0);
10:49:00:201;10:49:00:140;1448877908.98;(0.4507588863372803, 0.47043872409396703);51.7809295654;1.0;;;;;;;;;;;;;;6;24,33,72,75,54,08;0;0;0;0;0;0;0;();(-2000.0, -2000.0);
10:49:00:233;10:49:00:203;1448877909.01;(0.44781832695007323, 0.4726933797200521);51.882183075;1.0;;;;;;;;;;;;;;6;24,33,72,75,54,08;0;0;0;0;0;0;0;();(-2000.0, -2000.0);
10:49:00:250;10:49:00:203;1448877909.01;(0.44781832695007323, 0.4726933797200521);51.882183075;1.0;;;;;;;;;;;;;;6;24,33,72,75,54,08;0;0;0;0;0;0;0;();(-2000.0, -2000.0);
10:49:00:267;10:49:00:203;1448877909.01;(0.44781832695007323, 0.4726933797200521);51.882183075;1.0;;;;;;;;;;;;;;6;24,33,72,75,54,08;0;0;0;0;0;0;0;();(-2000.0, -2000.0);
10:49:00:283;10:49:00:272;1448877909.11;(0.4402947902679443, 0.4769416385226779);51.9316978455;1.0;;;;;;;;;;;;;;6;24,33,72,75,54,08;0;0;0;0;0;0;0;();(-2000.0, -2000.0);
10:49:00:301;10:49:00:272;1448877909.11;(0.4402947902679443, 0.4769416385226779);51.9316978455;1.0;;;;;;;;;;;;;;6;24,33,72,75,54,08;0;0;0;0;0;0;0;();(-2000.0, -2000.0);
10:49:00:333;10:49:00:272;1448877909.11;(0.4402947902679443, 0.4769416385226779);51.9316978455;1.0;;;;;;;;;;;;;;6;24,33,72,75,54,08;0;0;0;0;0;0;0;();(-2000.0, -2000.0);
10:49:00:350;10:49:00:340;1448877909.18;(0.4364353656768799, 0.47876078287760415);52.541179657;0.865391330577;;;;;;;;;;;;;;6;24,33,72,75,54,08;0;0;0;0;0;0;0;();(-2000.0, -2000.0);
10:49:00:367;10:49:00:340;1448877909.18;(0.4364353656768799, 0.47876078287760415);52.541179657;0.865391330577;;;;;;;;;;;;;;6;24,33,72,75,54,08;0;0;0;0;0;0;0;();(-2000.0, -2000.0);
10:49:00:383;10:49:00:340;1448877909.18;(0.4364353656768799, 0.47876078287760415);52.541179657;0.865391330577;;;;;;;;;;;;;;6;24,33,72,75,54,08;0;0;0;0;0;0;0;();(-2000.0, -2000.0);
10:49:00:400;10:49:00:340;1448877909.18;(0.4364353656768799, 0.47876078287760415);52.541179657;0.865391330577;;;;;;;;;;;;;;6;24,33,72,75,54,08;0;0;0;0;0;0;0;();(-2000.0, -2000.0);
10:49:00:433;10:49:00:403;1448877909.21;(0.4335716009140015, 0.4796948750813802);52.7273712158;1.0;;;;;;;;;;;;;;6;24,33,72,75,54,08;0;0;0;0;0;0;0;();(-2000.0, -2000.0);
10:49:00:451;10:49:00:403;1448877909.21;(0.4335716009140015, 0.4796948750813802);52.7273712158;1.0;;;;;;;;;;;;;;6;24,33,72,75,54,08;0;0;0;0;0;0;0;();(-2000.0, -2000.0);
10:49:00:468;10:49:00:403;1448877909.21;(0.4335716009140015, 0.4796948750813802);52.7273712158;1.0;;;;;;;;;;;;;;6;24,33,72,75,54,08;0;0;0;0;0;0;0;();(-2000.0, -2000.0);
10:49:00:483;10:49:00:473;1448877909.31;(0.4290729761123657, 0.4816067165798611);53.1037864685;0.947923198892;;;;;;;;;;;;;;6;24,33,72,75,54,08;0;0;0;0;0;0;0;();(-2000.0, -2000.0);
10:49:00:500;10:49:00:473;1448877909.31;(0.4290729761123657, 0.4816067165798611);53.1037864685;0.947923198892;;;;;;;;;;;;;;6;24,33,72,75,54,08;0;0;0;0;0;0;0;();(-2000.0, -2000.0);
10:49:00:534;10:49:00:473;1448877909.31;(0.4290729761123657, 0.4816067165798611);53.1037864685;0.947923198892;;;;;;;;;;;;;;6;24,33,72,75,54,08;0;0;0;0;0;0;0;();(-2000.0, -2000.0);
10:49:00:551;10:49:00:536;1448877909.38;(0.4265954256057739, 0.4850315517849393);52.7336997986;0.833197155584;;;;;;;;;;;;;;6;24,33,72,75,54,08;0;0;0;0;0;0;0;();(-2000.0, -2000.0);
10:49:00:567;10:49:00:536;1448877909.38;(0.4265954256057739, 0.4850315517849393);52.7336997986;0.833197155584;;;;;;;;;;;;;;6;24,33,72,75,54,08;0;0;0;0;0;0;0;();(-2000.0, -2000.0);
10:49:00:584;10:49:00:536;1448877909.38;(0.4265954256057739, 0.4850315517849393);52.7336997986;0.833197155584;;;;;;;;;;;;;;6;24,33,72,75,54,08;0;0;0;0;0;0;0;();(-2000.0, -2000.0);
10:49:00:601;10:49:00:536;1448877909.38;(0.4265954256057739, 0.4850315517849393);52.7336997986;0.833197155584;;;;;;;;;;;;;;6;24,33,72,75,54,08;0;0;0;0;0;0;0;();(-2000.0, -2000.0);
10:49:00:634;10:49:00:604;1448877909.41;(0.41782464981079104, 0.5251372867160373);53.7385368347;0.928110207084;;;;;;;;;;;;;;6;24,33,72,75,54,08;0;0;0;0;0;0;0;();(-2000.0, -2000.0);
10:49:00:651;10:49:00:604;1448877909.41;(0.41782464981079104, 0.5251372867160373);53.7385368347;0.928110207084;;;;;;;;;;;;;;6;24,33,72,75,54,08;0;0;0;0;0;0;0;();(-2000.0, -2000.0);
10:49:00:668;10:49:00:604;1448877909.41;(0.41782464981079104, 0.5251372867160373);53.7385368347;0.928110207084;;;;;;;;;;;;;;6;24,33,72,75,54,08;0;0;0;0;0;0;0;();(-2000.0, -2000.0);
10:49:00:684;10:49:00:673;1448877909.51;(0.413591194152832, 0.5363299899631077);53.6286582947;0.907278082143;;;;;;;;;;;;;;6;24,33,72,75,54,08;0;0;0;0;0;0;0;();(-2000.0, -2000.0);
10:49:00:700;10:49:00:673;1448877909.51;(0.413591194152832, 0.5363299899631077);53.6286582947;0.907278082143;;;;;;;;;;;;;;6;24,33,72,75,54,08;0;0;0;0;0;0;0;();(-2000.0, -2000.0);
10:49:00:734;10:49:00:673;1448877909.51;(0.413591194152832, 0.5363299899631077);53.6286582947;0.907278082143;;;;;;;;;;;;;;6;24,33,72,75,54,08;0;0;0;0;0;0;0;();(-2000.0, -2000.0);
10:49:00:751;10:49:00:738;1448877909.58;(0.40978283882141114, 0.5378002166748047);54.013923645;0.843136712272;;;;;;;;;;;;;;6;24,33,72,75,54,08;0;0;0;0;0;0;0;();(-2000.0, -2000.0);
10:49:00:768;10:49:00:738;1448877909.58;(0.40978283882141114, 0.5378002166748047);54.013923645;0.843136712272;;;;;;;;;;;;;;6;24,33,72,75,54,08;0;0;0;0;0;0;0;();(-2000.0, -2000.0);
10:49:00:785;10:49:00:738;1448877909.58;(0.40978283882141114, 0.5378002166748047);54.013923645;0.843136712272;;;;;;;;;;;;;;6;24,33,72,75,54,08;0;0;0;0;0;0;0;();(-2000.0, -2000.0);
10:49:00:801;10:49:00:738;1448877909.58;(0.40978283882141114, 0.5378002166748047);54.013923645;0.843136712272;;;;;;;;;;;;;;6;24,33,72,75,54,08;0;0;0;0;0;0;0;();(-2000.0, -2000.0);
10:49:00:834;10:49:00:804;1448877909.64;(0.40650827884674073, 0.5387489742702908);53.914768219;0.931472864049;;;;;;;;;;;;;;6;24,33,72,75,54,08;0;0;0;0;0;0;0;();(-2000.0, -2000.0);
10:49:00:851;10:49:00:804;1448877909.64;(0.40650827884674073, 0.5387489742702908);53.914768219;0.931472864049;;;;;;;;;;;;;;6;24,33,72,75,54,08;0;0;0;0;0;0;0;();(-2000.0, -2000.0);
10:49:00:867;10:49:00:804;1448877909.64;(0.40650827884674073, 0.5387489742702908);53.914768219;0.931472864049;;;;;;;;;;;;;;6;24,33,72,75,54,08;0;0;0;0;0;0;0;();(-2000.0, -2000.0);
10:49:00:884;10:49:00:868;1448877909.71;(0.40436201095581054, 0.5389046986897786);54.7515411377;1.0;;;;;;;;;;;;;;6;24,33,72,75,54,08;0;0;0;0;0;0;0;();(-2000.0, -2000.0);
10:49:00:900;10:49:00:868;1448877909.71;(0.40436201095581054, 0.5389046986897786);54.7515411377;1.0;;;;;;;;;;;;;;6;24,33,72,75,54,08;0;0;0;0;0;0;0;();(-2000.0, -2000.0);
10:49:00:935;10:49:00:868;1448877909.71;(0.40436201095581054, 0.5389046986897786);54.7515411377;1.0;;;;;;;;;;;;;;6;24,33,72,75,54,08;0;0;0;0;0;0;0;();(-2000.0, -2000.0);
10:49:00:951;10:49:00:935;1448877909.74;(0.40535218715667726, 0.5337826199001736);54.954334259;0.90279478275;;;;;;;;;;;;;;6;24,33,72,75,54,08;0;0;0;0;0;0;0;();(-2000.0, -2000.0);
10:49:00:967;10:49:00:935;1448877909.74;(0.40535218715667726, 0.5337826199001736);54.954334259;0.90279478275;;;;;;;;;;;;;;6;24,33,72,75,54,08;0;0;0;0;0;0;0;();(-2000.0, -2000.0);
10:49:00:984;10:49:00:935;1448877909.74;(0.40535218715667726, 0.5337826199001736);54.954334259;0.90279478275;;;;;;;;;;;;;;6;24,33,72,75,54,08;0;0;0;0;0;0;0;();(-2000.0, -2000.0);
10:49:01:001;10:49:00:935;1448877909.74;(0.40535218715667726, 0.5337826199001736);54.954334259;0.90279478275;;;;;;;;;;;;;;6;24,33,72,75,54,08;0;0;0;0;0;0;0;();(-2000.0, -2000.0);
10:49:01:035;10:49:01:004;1448877909.83;(0.41390366554260255, 0.4850640614827474);55.5889625549;1.0;;;;;;;;;;;;;;6;24,33,72,75,54,08;0;0;0;0;0;0;0;();(-2000.0, -2000.0);
10:49:01:051;10:49:01:004;1448877909.83;(0.41390366554260255, 0.4850640614827474);55.5889625549;1.0;;;;;;;;;;;;;;6;24,33,72,75,54,08;0;0;0;0;0;0;0;();(-2000.0, -2000.0);
10:49:01:068;10:49:01:068;1448877909.91;(0.4099186182022095, 0.48685239156087234);55.9971656799;1.0;;;;;;;;;;;;;;6;24,33,72,75,54,08;0;0;0;0;0;0;0;();(-2000.0, -2000.0);
10:49:01:084;10:49:01:068;1448877909.91;(0.4099186182022095, 0.48685239156087234);55.9971656799;1.0;;;;;;;;;;;;;;6;24,33,72,75,54,08;0;0;0;0;0;0;0;();(-2000.0, -2000.0);
10:49:01:101;10:49:01:068;1448877909.91;(0.4099186182022095, 0.48685239156087234);55.9971656799;1.0;;;;;;;;;;;;;;6;24,33,72,75,54,08;0;0;0;0;0;0;0;();(-2000.0, -2000.0);
10:49:01:134;10:49:01:068;1448877909.91;(0.4099186182022095, 0.48685239156087234);55.9971656799;1.0;;;;;;;;;;;;;;6;24,33,72,75,54,08;0;0;0;0;0;0;0;();(-2000.0, -2000.0);
10:49:01:151;10:49:01:136;1448877909.98;(0.407687783241272, 0.4874792310926649);56.516544342;1.0;;;;;;;;;;;;;;6;24,33,72,75,54,08;0;0;0;0;0;0;0;();(-2000.0, -2000.0);
10:49:01:167;10:49:01:136;1448877909.98;(0.407687783241272, 0.4874792310926649);56.516544342;1.0;;;;;;;;;;;;;;6;24,33,72,75,54,08;0;0;0;0;0;0;0;();(-2000.0, -2000.0);
10:49:01:184;10:49:01:136;1448877909.98;(0.407687783241272, 0.4874792310926649);56.516544342;1.0;;;;;;;;;;;;;;6;24,33,72,75,54,08;0;0;0;0;0;0;0;();(-2000.0, -2000.0);
10:49:01:201;10:49:01:200;1448877910.04;(0.4061278820037842, 0.48804257710774734);57.1027565002;1.0;;;;;;;;;;;;;;6;24,33,72,75,54,08;0;0;0;0;0;0;0;();(-2000.0, -2000.0);
10:49:01:234;10:49:01:200;1448877910.04;(0.4061278820037842, 0.48804257710774734);57.1027565002;1.0;;;;;;;;;;;;;;6;24,33,72,75,54,08;0;0;0;0;0;0;0;();(-2000.0, -2000.0);
10:49:01:251;10:49:01:200;1448877910.04;(0.4061278820037842, 0.48804257710774734);57.1027565002;1.0;;;;;;;;;;;;;;6;24,33,72,75,54,08;0;0;0;0;0;0;0;();(-2000.0, -2000.0);
10:49:01:268;10:49:01:268;1448877910.11;(0.40493810176849365, 0.48872740003797743);57.1529846191;1.0;;;;;;;;;;;;;;6;24,33,72,75,54,08;0;0;0;0;0;0;0;();(-2000.0, -2000.0);
10:49:01:284;10:49:01:268;1448877910.11;(0.40493810176849365, 0.48872740003797743);57.1529846191;1.0;;;;;;;;;;;;;;6;24,33,72,75,54,08;0;0;0;0;0;0;0;();(-2000.0, -2000.0);
10:49:01:301;10:49:01:268;1448877910.11;(0.40493810176849365, 0.48872740003797743);57.1529846191;1.0;;;;;;;;;;;;;;6;24,33,72,75,54,08;0;0;0;0;0;0;0;();(-2000.0, -2000.0);
10:49:01:336;10:49:01:332;1448877910.18;(0.4036558151245117, 0.48932194179958766);57.8049049377;1.0;;;;;;;;;;;;;;6;24,33,72,75,54,08;0;0;0;0;0;0;0;();(-2000.0, -2000.0);
10:49:01:352;10:49:01:332;1448877910.18;(0.4036558151245117, 0.48932194179958766);57.8049049377;1.0;;;;;;;;;;;;;;6;24,33,72,75,54,08;0;0;0;0;0;0;0;();(-2000.0, -2000.0);
10:49:01:368;10:49:01:332;1448877910.18;(0.4036558151245117, 0.48932194179958766);57.8049049377;1.0;;;;;;;;;;;;;;6;24,33,72,75,54,08;0;0;0;0;0;0;0;();(-2000.0, -2000.0);
10:49:01:384;10:49:01:332;1448877910.18;(0.4036558151245117, 0.48932194179958766);57.8049049377;1.0;;;;;;;;;;;;;;6;24,33,72,75,54,08;0;0;0;0;0;0;0;();(-2000.0, -2000.0);
10:49:01:401;10:49:01:399;1448877910.21;(0.4030614852905273, 0.48952916463216145);57.569934845;1.0;;;;;;;;;;;;;;6;24,33,72,75,54,08;0;0;0;0;0;0;0;();(-2000.0, -2000.0);
10:49:01:435;10:49:01:399;1448877910.21;(0.4030614852905273, 0.48952916463216145);57.569934845;1.0;;;;;;;;;;;;;;6;24,33,72,75,54,08;0;0;0;0;0;0;0;();(-2000.0, -2000.0);
10:49:01:451;10:49:01:399;1448877910.21;(0.4030614852905273, 0.48952916463216145);57.569934845;1.0;;;;;;;;;;;;;;6;24,33,72,75,54,08;0;0;0;0;0;0;0;();(-2000.0, -2000.0);
10:49:01:468;10:49:01:468;1448877910.31;(0.3939255714416504, 0.5368636237250435);57.933139801;1.0;;;;;;;;;;;;;;6;24,33,72,75,54,08;0;0;0;0;0;0;0;();(-2000.0, -2000.0);
10:49:01:485;10:49:01:468;1448877910.31;(0.3939255714416504, 0.5368636237250435);57.933139801;1.0;;;;;;;;;;;;;;6;24,33,72,75,54,08;0;0;0;0;0;0;0;();(-2000.0, -2000.0);
10:49:01:501;10:49:01:468;1448877910.31;(0.3939255714416504, 0.5368636237250435);57.933139801;1.0;;;;;;;;;;;;;;6;24,33,72,75,54,08;0;0;0;0;0;0;0;();(-2000.0, -2000.0);
10:49:01:536;10:49:01:532;1448877910.38;(0.3930316925048828, 0.5377725813123915);58.7047729492;1.0;;;;;;;;;;;;;;6;24,33,72,75,54,08;0;0;0;0;0;0;0;();(-2000.0, -2000.0);
10:49:01:552;10:49:01:532;1448877910.38;(0.3930316925048828, 0.5377725813123915);58.7047729492;1.0;;;;;;;;;;;;;;6;24,33,72,75,54,08;0;0;0;0;0;0;0;();(-2000.0, -2000.0);
10:49:01:569;10:49:01:532;1448877910.38;(0.3930316925048828, 0.5377725813123915);58.7047729492;1.0;;;;;;;;;;;;;;6;24,33,72,75,54,08;0;0;0;0;0;0;0;();(-2000.0, -2000.0);
10:49:01:585;10:49:01:532;1448877910.38;(0.3930316925048828, 0.5377725813123915);58.7047729492;1.0;;;;;;;;;;;;;;6;24,33,72,75,54,08;0;0;0;0;0;0;0;();(-2000.0, -2000.0);
10:49:01:603;10:49:01:532;1448877910.38;(0.3930316925048828, 0.5377725813123915);58.7047729492;1.0;;;;;;;;;;;;;;6;24,33,72,75,54,08;0;0;0;0;0;0;0;();(-2000.0, -2000.0);
10:49:01:634;10:49:01:605;1448877910.44;(0.39222288131713867, 0.5376181708441841);58.8856544495;1.0;;;;;;;;;;;;;;6;24,33,72,75,54,08;0;0;0;0;0;0;0;();(-2000.0, -2000.0);
10:49:01:652;10:49:01:605;1448877910.44;(0.39222288131713867, 0.5376181708441841);58.8856544495;1.0;;;;;;;;;;;;;;6;24,33,72,75,54,08;0;0;0;0;0;0;0;();(-2000.0, -2000.0);
10:49:01:668;10:49:01:664;1448877910.51;(0.39117562770843506, 0.5381160312228732);59.2685661316;1.0;;;;;;;;;;;;;;6;24,33,72,75,54,08;0;0;0;0;0;0;0;();(-2000.0, -2000.0);
10:49:01:685;10:49:01:664;1448877910.51;(0.39117562770843506, 0.5381160312228732);59.2685661316;1.0;;;;;;;;;;;;;;6;24,33,72,75,54,08;0;0;0;0;0;0;0;();(-2000.0, -2000.0);
10:49:01:702;10:49:01:664;1448877910.51;(0.39117562770843506, 0.5381160312228732);59.2685661316;1.0;;;;;;;;;;;;;;6;24,33,72,75,54,08;0;0;0;0;0;0;0;();(-2000.0, -2000.0);
10:49:01:735;10:49:01:732;1448877910.58;(0.390559983253479, 0.53846189710829);59.1684608459;1.0;;;;;;;;;;;;;;6;24,33,72,75,54,08;0;0;0;0;0;0;0;();(-2000.0, -2000.0);
10:49:01:752;10:49:01:732;1448877910.58;(0.390559983253479, 0.53846189710829);59.1684608459;1.0;;;;;;;;;;;;;;6;24,33,72,75,54,08;0;0;0;0;0;0;0;();(-2000.0, -2000.0);
10:49:01:768;10:49:01:732;1448877910.58;(0.390559983253479, 0.53846189710829);59.1684608459;1.0;;;;;;;;;;;;;;6;24,33,72,75,54,08;0;0;0;0;0;0;0;();(-2000.0, -2000.0);
10:49:01:785;10:49:01:732;1448877910.58;(0.390559983253479, 0.53846189710829);59.1684608459;1.0;;;;;;;;;;;;;;6;24,33,72,75,54,08;0;0;0;0;0;0;0;();(-2000.0, -2000.0);
10:49:01:801;10:49:01:799;1448877910.64;(0.3821181058883667, 0.5190359327528211);59.6376914978;0.907871414993;;;;;;;;;;;;;;6;24,33,72,75,54,08;0;0;0;0;0;0;0;();(-2000.0, -2000.0);
10:49:01:835;10:49:01:799;1448877910.64;(0.3821181058883667, 0.5190359327528211);59.6376914978;0.907871414993;;;;;;;;;;;;;;6;24,33,72,75,54,08;0;0;0;0;0;0;0;();(-2000.0, -2000.0);
10:49:01:852;10:49:01:799;1448877910.64;(0.3821181058883667, 0.5190359327528211);59.6376914978;0.907871414993;;;;;;;;;;;;;;6;24,33,72,75,54,08;0;0;0;0;0;0;0;();(-2000.0, -2000.0);
10:49:01:869;10:49:01:864;1448877910.68;(0.3820122480392456, 0.507395511203342);59.4537391663;1.0;;;;;;;;;;;;;;6;24,33,72,75,54,08;0;0;0;0;0;0;0;();(-2000.0, -2000.0);
10:49:01:886;10:49:01:864;1448877910.68;(0.3820122480392456, 0.507395511203342);59.4537391663;1.0;;;;;;;;;;;;;;6;24,33,72,75,54,08;0;0;0;0;0;0;0;();(-2000.0, -2000.0);
10:49:01:902;10:49:01:864;1448877910.68;(0.3820122480392456, 0.507395511203342);59.4537391663;1.0;;;;;;;;;;;;;;6;24,33,72,75,54,08;0;0;0;0;0;0;0;();(-2000.0, -2000.0);
10:49:01:936;10:49:01:933;1448877910.78;(0.38111464977264403, 0.508599853515625);59.616153717;1.0;;;;;;;;;;;;;;6;24,33,72,75,54,08;0;0;0;0;0;0;0;();(-2000.0, -2000.0);
10:49:01:951;10:49:01:933;1448877910.78;(0.38111464977264403, 0.508599853515625);59.616153717;1.0;;;;;;;;;;;;;;6;24,33,72,75,54,08;0;0;0;0;0;0;0;();(-2000.0, -2000.0);
10:49:01:970;10:49:01:933;1448877910.78;(0.38111464977264403, 0.508599853515625);59.616153717;1.0;;;;;;;;;;;;;;6;24,33,72,75,54,08;0;0;0;0;0;0;0;();(-2000.0, -2000.0);
10:49:01:986;10:49:01:933;1448877910.78;(0.38111464977264403, 0.508599853515625);59.616153717;1.0;;;;;;;;;;;;;;6;24,33,72,75,54,08;0;0;0;0;0;0;0;();(-2000.0, -2000.0);
10:49:02:002;10:49:01:996;1448877910.84;(0.38124494552612304, 0.5088264889187283);60.1289367676;1.0;;;;;;;;;;;;;;6;24,33,72,75,54,08;0;0;0;0;0;0;0;();(-2000.0, -2000.0);
10:49:02:035;10:49:01:996;1448877910.84;(0.38124494552612304, 0.5088264889187283);60.1289367676;1.0;;;;;;;;;;;;;;6;24,33,72,75,54,08;0;0;0;0;0;0;0;();(-2000.0, -2000.0);
10:49:02:052;10:49:01:996;1448877910.84;(0.38124494552612304, 0.5088264889187283);60.1289367676;1.0;;;;;;;;;;;;;;6;24,33,72,75,54,08;0;0;0;0;0;0;0;();(-2000.0, -2000.0);
10:49:02:068;10:49:02:067;1448877910.91;(0.38157856464385986, 0.5090654585096571);60.5752677917;1.0;;;;;;;;;;;;;;6;24,33,72,75,54,08;0;0;0;0;0;0;0;();(-2000.0, -2000.0);
10:49:02:086;10:49:02:067;1448877910.91;(0.38157856464385986, 0.5090654585096571);60.5752677917;1.0;;;;;;;;;;;;;;6;24,33,72,75,54,08;0;0;0;0;0;0;0;();(-2000.0, -2000.0);
10:49:02:102;10:49:02:067;1448877910.91;(0.38157856464385986, 0.5090654585096571);60.5752677917;1.0;;;;;;;;;;;;;;6;24,33,72,75,54,08;0;0;0;0;0;0;0;();(-2000.0, -2000.0);
10:49:02:136;10:49:02:132;1448877910.98;(0.38216438293457033, 0.5090202755398221);60.6118354797;1.0;;;;;;;;;;;;;;6;24,33,72,75,54,08;0;0;0;0;0;0;0;();(-2000.0, -2000.0);
10:49:02:152;10:49:02:132;1448877910.98;(0.38216438293457033, 0.5090202755398221);60.6118354797;1.0;;;;;;;;;;;;;;6;24,33,72,75,54,08;0;0;0;0;0;0;0;();(-2000.0, -2000.0);
10:49:02:169;10:49:02:132;1448877910.98;(0.38216438293457033, 0.5090202755398221);60.6118354797;1.0;;;;;;;;;;;;;;6;24,33,72,75,54,08;0;0;0;0;0;0;0;();(-2000.0, -2000.0);
10:49:02:185;10:49:02:132;1448877910.98;(0.38216438293457033, 0.5090202755398221);60.6118354797;1.0;;;;;;;;;;;;;;6;24,33,72,75,54,08;0;0;0;0;0;0;0;();(-2000.0, -2000.0);
10:49:02:202;10:49:02:196;1448877911.04;(0.38251895904541017, 0.5092476738823785);60.4617652893;1.0;;;;;;;;;;;;;;6;24,33,72,75,54,08;0;0;0;0;0;0;0;();(-2000.0, -2000.0);
10:49:02:236;10:49:02:196;1448877911.04;(0.38251895904541017, 0.5092476738823785);60.4617652893;1.0;;;;;;;;;;;;;;6;24,33,72,75,54,08;0;0;0;0;0;0;0;();(-2000.0, -2000.0);
10:49:02:253;10:49:02:196;1448877911.04;(0.38251895904541017, 0.5092476738823785);60.4617652893;1.0;;;;;;;;;;;;;;6;24,33,72,75,54,08;0;0;0;0;0;0;0;();(-2000.0, -2000.0);
10:49:02:269;10:49:02:264;1448877911.08;(0, 0);0;0;;;;;;;;;;;;;;6;24,33,72,75,54,08;0;0;0;0;0;0;0;();(-2000.0, -2000.0);
10:49:02:285;10:49:02:264;1448877911.08;(0, 0);0;0;;;;;;;;;;;;;;6;24,33,72,75,54,08;0;0;0;0;0;0;0;();(-2000.0, -2000.0);
10:49:02:302;10:49:02:264;1448877911.08;(0, 0);0;0;;;;;;;;;;;;;;6;24,33,72,75,54,08;0;0;0;0;0;0;0;();(-2000.0, -2000.0);
10:49:02:335;10:49:02:264;1448877911.08;(0, 0);0;0;;;;;;;;;;;;;;6;24,33,72,75,54,08;0;0;0;0;0;0;0;();(-2000.0, -2000.0);
10:49:02:352;10:49:02:264;1448877911.08;(0, 0);0;0;;;;;;;;;;;;;;6;24,33,72,75,54,08;0;0;0;0;0;0;0;();(-2000.0, -2000.0);
10:49:02:369;10:49:02:264;1448877911.08;(0, 0);0;0;;;;;;;;;;;;;;6;24,33,72,75,54,08;0;0;0;0;0;0;0;();(-2000.0, -2000.0);
10:49:02:385;10:49:02:264;1448877911.08;(0, 0);0;0;;;;;;;;;;;;;;6;24,33,72,75,54,08;0;0;0;0;0;0;0;();(-2000.0, -2000.0);
10:49:02:403;10:49:02:396;1448877911.22;(0.44904375076293945, 0.49394378662109373);58.8437271118;1.0;;;;;;;;;;;;;;6;24,33,72,75,54,08;0;0;0;0;0;0;0;();(-2000.0, -2000.0);
10:49:02:435;10:49:02:396;1448877911.22;(0.44904375076293945, 0.49394378662109373);58.8437271118;1.0;;;;;;;;;;;;;;6;24,33,72,75,54,08;0;0;0;0;0;0;0;();(-2000.0, -2000.0);
10:49:02:453;10:49:02:396;1448877911.22;(0.44904375076293945, 0.49394378662109373);58.8437271118;1.0;;;;;;;;;;;;;;6;24,33,72,75,54,08;0;0;0;0;0;0;0;();(-2000.0, -2000.0);
10:49:02:469;10:49:02:467;1448877911.28;(0.4463466167449951, 0.4961004469129774);58.9055252075;0.959389216169;;;;;;;;;;;;;;6;24,33,72,75,54,08;0;0;0;0;0;0;0;();(-2000.0, -2000.0);
10:49:02:486;10:49:02:467;1448877911.28;(0.4463466167449951, 0.4961004469129774);58.9055252075;0.959389216169;;;;;;;;;;;;;;6;24,33,72,75,54,08;0;0;0;0;0;0;0;();(-2000.0, -2000.0);
10:49:02:503;10:49:02:467;1448877911.28;(0.4463466167449951, 0.4961004469129774);58.9055252075;0.959389216169;;;;;;;;;;;;;;6;24,33,72,75,54,08;0;0;0;0;0;0;0;();(-2000.0, -2000.0);
10:49:02:536;10:49:02:528;1448877911.34;(0.46353988647460936, 0.4792804294162326);62.021900177;0.776673939667;;;;;;;;;;;;;;6;24,33,72,75,54,08;0;0;0;0;0;0;0;();(-2000.0, -2000.0);
10:49:02:552;10:49:02:528;1448877911.34;(0.46353988647460936, 0.4792804294162326);62.021900177;0.776673939667;;;;;;;;;;;;;;6;24,33,72,75,54,08;0;0;0;0;0;0;0;();(-2000.0, -2000.0);
10:49:02:569;10:49:02:528;1448877911.34;(0.46353988647460936, 0.4792804294162326);62.021900177;0.776673939667;;;;;;;;;;;;;;6;24,33,72,75,54,08;0;0;0;0;0;0;0;();(-2000.0, -2000.0);
10:49:02:586;10:49:02:528;1448877911.34;(0.46353988647460936, 0.4792804294162326);62.021900177;0.776673939667;;;;;;;;;;;;;;6;24,33,72,75,54,08;0;0;0;0;0;0;0;();(-2000.0, -2000.0);
10:49:02:603;10:49:02:596;1448877911.44;(0.4763338565826416, 0.4638145446777344);56.6450424194;1.0;;;;;;;;;;;;;;6;24,33,72,75,54,08;0;0;0;0;0;0;0;();(-2000.0, -2000.0);
10:49:02:636;10:49:02:596;1448877911.44;(0.4763338565826416, 0.4638145446777344);56.6450424194;1.0;;;;;;;;;;;;;;6;24,33,72,75,54,08;0;0;0;0;0;0;0;();(-2000.0, -2000.0);
10:49:02:652;10:49:02:596;1448877911.44;(0.4763338565826416, 0.4638145446777344);56.6450424194;1.0;;;;;;;;;;;;;;6;24,33,72,75,54,08;0;0;0;0;0;0;0;();(-2000.0, -2000.0);
10:49:02:669;10:49:02:660;1448877911.48;(0.47487893104553225, 0.46498239305284284);57.2527236938;0.827813484964;;;;;;;;;;;;;;6;24,33,72,75,54,08;0;0;0;0;0;0;0;();(-2000.0, -2000.0);
10:49:02:686;10:49:02:660;1448877911.48;(0.47487893104553225, 0.46498239305284284);57.2527236938;0.827813484964;;;;;;;;;;;;;;6;24,33,72,75,54,08;0;0;0;0;0;0;0;();(-2000.0, -2000.0);
10:49:02:703;10:49:02:660;1448877911.48;(0.47487893104553225, 0.46498239305284284);57.2527236938;0.827813484964;;;;;;;;;;;;;;6;24,33,72,75,54,08;0;0;0;0;0;0;0;();(-2000.0, -2000.0);
10:49:02:736;10:49:02:660;1448877911.48;(0.47487893104553225, 0.46498239305284284);57.2527236938;0.827813484964;;;;;;;;;;;;;;6;24,33,72,75,54,08;0;0;0;0;0;0;0;();(-2000.0, -2000.0);
10:49:02:752;10:49:02:739;1448877911.58;(0.4690994739532471, 0.46928677029079857);56.6940078735;0.88172248721;;;;;;;;;;;;;;6;24,33,72,75,54,08;0;0;0;0;0;0;0;();(-2000.0, -2000.0);
10:49:02:770;10:49:02:739;1448877911.58;(0.4690994739532471, 0.46928677029079857);56.6940078735;0.88172248721;;;;;;;;;;;;;;6;24,33,72,75,54,08;0;0;0;0;0;0;0;();(-2000.0, -2000.0);
10:49:02:785;10:49:02:739;1448877911.58;(0.4690994739532471, 0.46928677029079857);56.6940078735;0.88172248721;;;;;;;;;;;;;;6;24,33,72,75,54,08;0;0;0;0;0;0;0;();(-2000.0, -2000.0);
10:49:02:803;10:49:02:799;1448877911.64;(0.4665635585784912, 0.471294191148546);56.4063262939;1.0;;;;;;;;;;;;;;6;24,33,72,75,54,08;0;0;0;0;0;0;0;();(-2000.0, -2000.0);
10:49:02:835;10:49:02:799;1448877911.64;(0.4665635585784912, 0.471294191148546);56.4063262939;1.0;;;;;;;;;;;;;;6;24,33,72,75,54,08;0;0;0;0;0;0;0;();(-2000.0, -2000.0);
10:49:02:853;10:49:02:799;1448877911.64;(0.4665635585784912, 0.471294191148546);56.4063262939;1.0;;;;;;;;;;;;;;6;24,33,72,75,54,08;0;0;0;0;0;0;0;();(-2000.0, -2000.0);
10:49:02:869;10:49:02:860;1448877911.71;(0.4597722053527832, 0.4636582268608941);55.6058502197;1.0;;;;;;;;;;;;;;6;24,33,72,75,54,08;0;0;0;0;0;0;0;();(-2000.0, -2000.0);
10:49:02:885;10:49:02:860;1448877911.71;(0.4597722053527832, 0.4636582268608941);55.6058502197;1.0;;;;;;;;;;;;;;6;24,33,72,75,54,08;0;0;0;0;0;0;0;();(-2000.0, -2000.0);
10:49:02:903;10:49:02:860;1448877911.71;(0.4597722053527832, 0.4636582268608941);55.6058502197;1.0;;;;;;;;;;;;;;6;24,33,72,75,54,08;0;0;0;0;0;0;0;();(-2000.0, -2000.0);
10:49:02:919;10:49:02:860;1448877911.71;(0.4597722053527832, 0.4636582268608941);55.6058502197;1.0;;;;;;;;;;;;;;6;24,33,72,75,54,08;0;0;0;0;0;0;0;();(-2000.0, -2000.0);
10:49:02:953;10:49:02:928;1448877911.78;(0, 0);0;0;;;;;;;;;;;;;;6;24,33,72,75,54,08;0;0;0;0;0;0;0;();(-2000.0, -2000.0);
10:49:02:969;10:49:02:928;1448877911.78;(0, 0);0;0;;;;;;;;;;;;;;6;24,33,72,75,54,08;0;0;0;0;0;0;0;();(-2000.0, -2000.0);
10:49:02:986;10:49:02:928;1448877911.78;(0, 0);0;0;;;;;;;;;;;;;;6;24,33,72,75,54,08;0;0;0;0;0;0;0;();(-2000.0, -2000.0);
10:49:03:003;10:49:02:992;1448877911.84;(0.43993196487426756, 0.4880867004394531);55.576877594;0.880818522363;;;;;;;;;;;;;;6;24,33,72,75,54,08;0;0;0;0;0;0;0;();(-2000.0, -2000.0);
10:49:03:020;10:49:02:992;1448877911.84;(0.43993196487426756, 0.4880867004394531);55.576877594;0.880818522363;;;;;;;;;;;;;;6;24,33,72,75,54,08;0;0;0;0;0;0;0;();(-2000.0, -2000.0);
10:49:03:052;10:49:02:992;1448877911.84;(0.43993196487426756, 0.4880867004394531);55.576877594;0.880818522363;;;;;;;;;;;;;;6;24,33,72,75,54,08;0;0;0;0;0;0;0;();(-2000.0, -2000.0);
10:49:03:070;10:49:03:060;1448877911.91;(0.44120173454284667, 0.490696038140191);55.1198310852;1.0;;;;;;;;;;;;;;6;24,33,72,75,54,08;0;0;0;0;0;0;0;();(-2000.0, -2000.0);
10:49:03:087;10:49:03:060;1448877911.91;(0.44120173454284667, 0.490696038140191);55.1198310852;1.0;;;;;;;;;;;;;;6;24,33,72,75,54,08;0;0;0;0;0;0;0;();(-2000.0, -2000.0);
10:49:03:102;10:49:03:060;1448877911.91;(0.44120173454284667, 0.490696038140191);55.1198310852;1.0;;;;;;;;;;;;;;6;24,33,72,75,54,08;0;0;0;0;0;0;0;();(-2000.0, -2000.0);
10:49:03:120;10:49:03:060;1448877911.91;(0.44120173454284667, 0.490696038140191);55.1198310852;1.0;;;;;;;;;;;;;;6;24,33,72,75,54,08;0;0;0;0;0;0;0;();(-2000.0, -2000.0);
10:49:03:152;10:49:03:127;1448877911.98;(0.4416253089904785, 0.4926128387451172);54.7199935913;1.0;;;;;;;;;;;;;;6;24,33,72,75,54,08;0;0;0;0;0;0;0;();(-2000.0, -2000.0);
10:49:03:171;10:49:03:127;1448877911.98;(0.4416253089904785, 0.4926128387451172);54.7199935913;1.0;;;;;;;;;;;;;;6;24,33,72,75,54,08;0;0;0;0;0;0;0;();(-2000.0, -2000.0);
10:49:03:186;10:49:03:127;1448877911.98;(0.4416253089904785, 0.4926128387451172);54.7199935913;1.0;;;;;;;;;;;;;;6;24,33,72,75,54,08;0;0;0;0;0;0;0;();(-2000.0, -2000.0);
10:49:03:202;10:49:03:192;1448877912.04;(0.44165902137756347, 0.49339586893717446);54.1641731262;1.0;;;;;;;;;;;;;;6;24,33,72,75,54,08;0;0;0;0;0;0;0;();(-2000.0, -2000.0);
10:49:03:220;10:49:03:192;1448877912.04;(0.44165902137756347, 0.49339586893717446);54.1641731262;1.0;;;;;;;;;;;;;;6;24,33,72,75,54,08;0;0;0;0;0;0;0;();(-2000.0, -2000.0);
10:49:03:253;10:49:03:192;1448877912.04;(0.44165902137756347, 0.49339586893717446);54.1641731262;1.0;;;;;;;;;;;;;;6;24,33,72,75,54,08;0;0;0;0;0;0;0;();(-2000.0, -2000.0);
10:49:03:270;10:49:03:259;1448877912.11;(0.44110536575317383, 0.4940245734320746);54.1778869629;1.0;;;;;;;;;;;;;;6;24,33,72,75,54,08;0;0;0;0;0;0;0;();(-2000.0, -2000.0);
10:49:03:287;10:49:03:259;1448877912.11;(0.44110536575317383, 0.4940245734320746);54.1778869629;1.0;;;;;;;;;;;;;;6;24,33,72,75,54,08;0;0;0;0;0;0;0;();(-2000.0, -2000.0);
10:49:03:303;10:49:03:259;1448877912.11;(0.44110536575317383, 0.4940245734320746);54.1778869629;1.0;;;;;;;;;;;;;;6;24,33,72,75,54,08;0;0;0;0;0;0;0;();(-2000.0, -2000.0);
10:49:03:320;10:49:03:259;1448877912.11;(0.44110536575317383, 0.4940245734320746);54.1778869629;1.0;;;;;;;;;;;;;;6;24,33,72,75,54,08;0;0;0;0;0;0;0;();(-2000.0, -2000.0);
10:49:03:353;10:49:03:324;1448877912.14;(0.4411160945892334, 0.49425722757975266);54.1066741943;1.0;;;;;;;;;;;;;;6;24,33,72,75,54,08;0;0;0;0;0;0;0;();(-2000.0, -2000.0);
10:49:03:369;10:49:03:324;1448877912.14;(0.4411160945892334, 0.49425722757975266);54.1066741943;1.0;;;;;;;;;;;;;;6;24,33,72,75,54,08;0;0;0;0;0;0;0;();(-2000.0, -2000.0);
10:49:03:387;10:49:03:324;1448877912.14;(0.4411160945892334, 0.49425722757975266);54.1066741943;1.0;;;;;;;;;;;;;;6;24,33,72,75,54,08;0;0;0;0;0;0;0;();(-2000.0, -2000.0);
10:49:03:403;10:49:03:393;1448877912.24;(0.44114136695861816, 0.4943348778618707);55.4836502075;1.0;;;;;;;;;;;;;;6;24,33,72,75,54,08;0;0;0;0;0;0;0;();(-2000.0, -2000.0);
10:49:03:420;10:49:03:393;1448877912.24;(0.44114136695861816, 0.4943348778618707);55.4836502075;1.0;;;;;;;;;;;;;;6;24,33,72,75,54,08;0;0;0;0;0;0;0;();(-2000.0, -2000.0);
10:49:03:453;10:49:03:393;1448877912.24;(0.44114136695861816, 0.4943348778618707);55.4836502075;1.0;;;;;;;;;;;;;;6;24,33,72,75,54,08;0;0;0;0;0;0;0;();(-2000.0, -2000.0);
10:49:03:470;10:49:03:460;1448877912.28;(0.46820716857910155, 0.4633482191297743);55.7934455872;1.0;;;;;;;;;;;;;;6;24,33,72,75,54,08;0;0;0;0;0;0;0;();(-2000.0, -2000.0);
10:49:03:486;10:49:03:460;1448877912.28;(0.46820716857910155, 0.4633482191297743);55.7934455872;1.0;;;;;;;;;;;;;;6;24,33,72,75,54,08;0;0;0;0;0;0;0;();(-2000.0, -2000.0);
10:49:03:503;10:49:03:460;1448877912.28;(0.46820716857910155, 0.4633482191297743);55.7934455872;1.0;;;;;;;;;;;;;;6;24,33,72,75,54,08;0;0;0;0;0;0;0;();(-2000.0, -2000.0);
10:49:03:520;10:49:03:460;1448877912.28;(0.46820716857910155, 0.4633482191297743);55.7934455872;1.0;;;;;;;;;;;;;;6;24,33,72,75,54,08;0;0;0;0;0;0;0;();(-2000.0, -2000.0);
10:49:03:553;10:49:03:526;1448877912.38;(0.46691293716430665, 0.46511527167426214);55.7674827576;1.0;;;;;;;;;;;;;;6;24,33,72,75,54,08;0;0;0;0;0;0;0;();(-2000.0, -2000.0);
10:49:03:569;10:49:03:526;1448877912.38;(0.46691293716430665, 0.46511527167426214);55.7674827576;1.0;;;;;;;;;;;;;;6;24,33,72,75,54,08;0;0;0;0;0;0;0;();(-2000.0, -2000.0);
10:49:03:587;10:49:03:526;1448877912.38;(0.46691293716430665, 0.46511527167426214);55.7674827576;1.0;;;;;;;;;;;;;;6;24,33,72,75,54,08;0;0;0;0;0;0;0;();(-2000.0, -2000.0);
10:49:03:604;10:49:03:592;1448877912.44;(0.46561336517333984, 0.466740714179145);56.0903968811;1.0;;;;;;;;;;;;;;6;24,33,72,75,54,08;0;0;0;0;0;0;0;();(-2000.0, -2000.0);
10:49:03:620;10:49:03:592;1448877912.44;(0.46561336517333984, 0.466740714179145);56.0903968811;1.0;;;;;;;;;;;;;;6;24,33,72,75,54,08;0;0;0;0;0;0;0;();(-2000.0, -2000.0);
10:49:03:654;10:49:03:592;1448877912.44;(0.46561336517333984, 0.466740714179145);56.0903968811;1.0;;;;;;;;;;;;;;6;24,33,72,75,54,08;0;0;0;0;0;0;0;();(-2000.0, -2000.0);
10:49:03:670;10:49:03:656;1448877912.51;(0.46416525840759276, 0.4683855692545573);55.7795066833;1.0;;;;;;;;;;;;;;6;24,33,72,75,54,08;0;0;0;0;0;0;0;();(-2000.0, -2000.0);
10:49:03:686;10:49:03:656;1448877912.51;(0.46416525840759276, 0.4683855692545573);55.7795066833;1.0;;;;;;;;;;;;;;6;24,33,72,75,54,08;0;0;0;0;0;0;0;();(-2000.0, -2000.0);
10:49:03:704;10:49:03:656;1448877912.51;(0.46416525840759276, 0.4683855692545573);55.7795066833;1.0;;;;;;;;;;;;;;6;24,33,72,75,54,08;0;0;0;0;0;0;0;();(-2000.0, -2000.0);
10:49:03:720;10:49:03:656;1448877912.51;(0.46416525840759276, 0.4683855692545573);55.7795066833;1.0;;;;;;;;;;;;;;6;24,33,72,75,54,08;0;0;0;0;0;0;0;();(-2000.0, -2000.0);
10:49:03:753;10:49:03:725;1448877912.54;(0.4636990547180176, 0.4690548790825738);55.9189758301;1.0;;;;;;;;;;;;;;6;24,33,72,75,54,08;0;0;0;0;0;0;0;();(-2000.0, -2000.0);
10:49:03:770;10:49:03:725;1448877912.54;(0.4636990547180176, 0.4690548790825738);55.9189758301;1.0;;;;;;;;;;;;;;6;24,33,72,75,54,08;0;0;0;0;0;0;0;();(-2000.0, -2000.0);
10:49:03:786;10:49:03:725;1448877912.54;(0.4636990547180176, 0.4690548790825738);55.9189758301;1.0;;;;;;;;;;;;;;6;24,33,72,75,54,08;0;0;0;0;0;0;0;();(-2000.0, -2000.0);
10:49:03:803;10:49:03:792;1448877912.64;(0.463621187210083, 0.47013719346788196);54.7503738403;1.0;;;;;;;;;;;;;;6;24,33,72,75,54,08;0;0;0;0;0;0;0;();(-2000.0, -2000.0);
10:49:03:820;10:49:03:792;1448877912.64;(0.463621187210083, 0.47013719346788196);54.7503738403;1.0;;;;;;;;;;;;;;6;24,33,72,75,54,08;0;0;0;0;0;0;0;();(-2000.0, -2000.0);
10:49:03:853;10:49:03:792;1448877912.64;(0.463621187210083, 0.47013719346788196);54.7503738403;1.0;;;;;;;;;;;;;;6;24,33,72,75,54,08;0;0;0;0;0;0;0;();(-2000.0, -2000.0);
10:49:03:870;10:49:03:856;1448877912.71;(0.46465511322021485, 0.47085884941948786);54.7504196167;1.0;;;;;;;;;;;;;;6;24,33,72,75,54,08;0;0;0;0;0;0;0;();(-2000.0, -2000.0);
10:49:03:886;10:49:03:856;1448877912.71;(0.46465511322021485, 0.47085884941948786);54.7504196167;1.0;;;;;;;;;;;;;;6;24,33,72,75,54,08;0;0;0;0;0;0;0;();(-2000.0, -2000.0);
10:49:03:904;10:49:03:856;1448877912.71;(0.46465511322021485, 0.47085884941948786);54.7504196167;1.0;;;;;;;;;;;;;;6;24,33,72,75,54,08;0;0;0;0;0;0;0;();(-2000.0, -2000.0);
10:49:03:920;10:49:03:856;1448877912.71;(0.46465511322021485, 0.47085884941948786);54.7504196167;1.0;;;;;;;;;;;;;;6;24,33,72,75,54,08;0;0;0;0;0;0;0;();(-2000.0, -2000.0);
10:49:03:953;10:49:03:934;1448877912.78;(0.4652697563171387, 0.47072809007432725);54.4618225098;1.0;;;;;;;;;;;;;;6;24,33,72,75,54,08;0;0;0;0;0;0;0;();(-2000.0, -2000.0);
10:49:03:970;10:49:03:934;1448877912.78;(0.4652697563171387, 0.47072809007432725);54.4618225098;1.0;;;;;;;;;;;;;;6;24,33,72,75,54,08;0;0;0;0;0;0;0;();(-2000.0, -2000.0);
10:49:03:986;10:49:03:934;1448877912.78;(0.4652697563171387, 0.47072809007432725);54.4618225098;1.0;;;;;;;;;;;;;;6;24,33,72,75,54,08;0;0;0;0;0;0;0;();(-2000.0, -2000.0);
10:49:04:004;10:49:03:987;1448877912.81;(0.12740265130996703, 0.5806755065917969);54.6495170593;0.659396303336;;;;;;;;;;;;;;6;24,33,72,75,54,08;0;0;0;0;0;0;0;();(-2000.0, -2000.0);
10:49:04:020;10:49:03:987;1448877912.81;(0.12740265130996703, 0.5806755065917969);54.6495170593;0.659396303336;;;;;;;;;;;;;;6;24,33,72,75,54,08;0;0;0;0;0;0;0;();(-2000.0, -2000.0);
10:49:04:054;10:49:03:987;1448877912.81;(0.12740265130996703, 0.5806755065917969);54.6495170593;0.659396303336;;;;;;;;;;;;;;6;24,33,72,75,54,08;0;0;0;0;0;0;0;();(-2000.0, -2000.0);
10:49:04:071;10:49:04:055;1448877912.88;(0.35277206897735597, 0.5251031239827474);59.8847579956;1.0;;;;;;;;;;;;;;6;24,33,72,75,54,08;0;0;0;0;0;0;0;();(-2000.0, -2000.0);
10:49:04:087;10:49:04:055;1448877912.88;(0.35277206897735597, 0.5251031239827474);59.8847579956;1.0;;;;;;;;;;;;;;6;24,33,72,75,54,08;0;0;0;0;0;0;0;();(-2000.0, -2000.0);
10:49:04:105;10:49:04:055;1448877912.88;(0.35277206897735597, 0.5251031239827474);59.8847579956;1.0;;;;;;;;;;;;;;6;24,33,72,75,54,08;0;0;0;0;0;0;0;();(-2000.0, -2000.0);
