%Timestamp,timestamp_write;timestamp_gotpupil;eyeTrackerTime;normPos;diameter;confidence;timestamp_gotbitdata;CRC;SEQ;AnalogOutp1;AnalogOutp2;AnalogOutp3;AnalogOutp4;AnalogOutp5;AnalogOutp6;DigitalOutp1;DigitalOutp2;DigitalOutp3;DigitalOutp4;nplanes;listofAirplanesonScreen;lastAction;lastActionDetails;lastActionAirplaneNumber;calculatedScore;positiveScore;negativeScore;collidedAirplaneNumbers;targetPositions;collisionPoint
12:09:36:312;12:09:36:298;1448407534.86;(0.6923889636993408, 0.7514742109510634);68.691696167;1.0;;;;;;;;;;;;;;0;0;0;0;0;0;0;0;0;();(-2000.0, -2000.0);
12:09:36:324;12:09:36:298;1448407534.86;(0.6923889636993408, 0.7514742109510634);68.691696167;1.0;;;;;;;;;;;;;;0;0;0;0;0;0;0;0;0;();(-2000.0, -2000.0);
12:09:36:332;12:09:36:298;1448407534.86;(0.6923889636993408, 0.7514742109510634);68.691696167;1.0;;;;;;;;;;;;;;0;0;0;0;0;0;0;0;0;();(-2000.0, -2000.0);
12:09:36:340;12:09:36:298;1448407534.86;(0.6923889636993408, 0.7514742109510634);68.691696167;1.0;;;;;;;;;;;;;;0;0;0;0;0;0;0;0;0;();(-2000.0, -2000.0);
12:09:36:345;12:09:36:298;1448407534.86;(0.6923889636993408, 0.7514742109510634);68.691696167;1.0;;;;;;;;;;;;;;0;0;0;0;0;0;0;0;0;();(-2000.0, -2000.0);
12:09:36:349;12:09:36:298;1448407534.86;(0.6923889636993408, 0.7514742109510634);68.691696167;1.0;;;;;;;;;;;;;;0;0;0;0;0;0;0;0;0;();(-2000.0, -2000.0);
12:09:36:352;12:09:36:298;1448407534.86;(0.6923889636993408, 0.7514742109510634);68.691696167;1.0;;;;;;;;;;;;;;0;0;0;0;0;0;0;0;0;();(-2000.0, -2000.0);
12:09:36:356;12:09:36:298;1448407534.86;(0.6923889636993408, 0.7514742109510634);68.691696167;1.0;;;;;;;;;;;;;;0;0;0;0;0;0;0;0;0;();(-2000.0, -2000.0);
12:09:36:359;12:09:36:298;1448407534.86;(0.6923889636993408, 0.7514742109510634);68.691696167;1.0;;;;;;;;;;;;;;0;0;0;0;0;0;0;0;0;();(-2000.0, -2000.0);
12:09:36:363;12:09:36:298;1448407534.86;(0.6923889636993408, 0.7514742109510634);68.691696167;1.0;;;;;;;;;;;;;;0;0;0;0;0;0;0;0;0;();(-2000.0, -2000.0);
12:09:36:370;12:09:36:368;1448407534.96;(0.693848991394043, 0.7541105270385742);68.4356384277;1.0;;;;;;;;;;;;;;0;0;0;0;0;0;0;0;0;();(-2000.0, -2000.0);
12:09:36:373;12:09:36:368;1448407534.96;(0.693848991394043, 0.7541105270385742);68.4356384277;1.0;;;;;;;;;;;;;;0;0;0;0;0;0;0;0;0;();(-2000.0, -2000.0);
12:09:36:377;12:09:36:368;1448407534.96;(0.693848991394043, 0.7541105270385742);68.4356384277;1.0;;;;;;;;;;;;;;0;0;0;0;0;0;0;0;0;();(-2000.0, -2000.0);
12:09:36:380;12:09:36:368;1448407534.96;(0.693848991394043, 0.7541105270385742);68.4356384277;1.0;;;;;;;;;;;;;;0;0;0;0;0;0;0;0;0;();(-2000.0, -2000.0);
12:09:36:383;12:09:36:368;1448407534.96;(0.693848991394043, 0.7541105270385742);68.4356384277;1.0;;;;;;;;;;;;;;0;0;0;0;0;0;0;0;0;();(-2000.0, -2000.0);
12:09:36:387;12:09:36:368;1448407534.96;(0.693848991394043, 0.7541105270385742);68.4356384277;1.0;;;;;;;;;;;;;;0;0;0;0;0;0;0;0;0;();(-2000.0, -2000.0);
12:09:36:391;12:09:36:368;1448407534.96;(0.693848991394043, 0.7541105270385742);68.4356384277;1.0;;;;;;;;;;;;;;0;0;0;0;0;0;0;0;0;();(-2000.0, -2000.0);
12:09:36:394;12:09:36:368;1448407534.96;(0.693848991394043, 0.7541105270385742);68.4356384277;1.0;;;;;;;;;;;;;;0;0;0;0;0;0;0;0;0;();(-2000.0, -2000.0);
12:09:36:398;12:09:36:368;1448407534.96;(0.693848991394043, 0.7541105270385742);68.4356384277;1.0;;;;;;;;;;;;;;0;0;0;0;0;0;0;0;0;();(-2000.0, -2000.0);
12:09:36:401;12:09:36:368;1448407534.96;(0.693848991394043, 0.7541105270385742);68.4356384277;1.0;;;;;;;;;;;;;;0;0;0;0;0;0;0;0;0;();(-2000.0, -2000.0);
12:09:36:404;12:09:36:368;1448407534.96;(0.693848991394043, 0.7541105270385742);68.4356384277;1.0;;;;;;;;;;;;;;0;0;0;0;0;0;0;0;0;();(-2000.0, -2000.0);
12:09:36:408;12:09:36:368;1448407534.96;(0.693848991394043, 0.7541105270385742);68.4356384277;1.0;;;;;;;;;;;;;;0;0;0;0;0;0;0;0;0;();(-2000.0, -2000.0);
12:09:36:440;12:09:36:429;1448407534.99;(0.694096565246582, 0.7548344930013021);68.8358688354;1.0;;;;;;;;;;;;;;0;0;0;0;0;0;0;0;0;();(-2000.0, -2000.0);
12:09:36:458;12:09:36:429;1448407534.99;(0.694096565246582, 0.7548344930013021);68.8358688354;1.0;;;;;;;;;;;;;;0;0;0;0;0;0;0;0;0;();(-2000.0, -2000.0);
12:09:36:473;12:09:36:429;1448407534.99;(0.694096565246582, 0.7548344930013021);68.8358688354;1.0;;;;;;;;;;;;;;0;0;0;0;0;0;0;0;0;();(-2000.0, -2000.0);
12:09:36:490;12:09:36:429;1448407534.99;(0.694096565246582, 0.7548344930013021);68.8358688354;1.0;;;;;;;;;;;;;;0;0;0;0;0;0;0;0;0;();(-2000.0, -2000.0);
12:09:36:507;12:09:36:501;1448407535.06;(0.6947052478790283, 0.7549190733167861);68.4896240234;1.0;;;;;;;;;;;;;;0;0;0;0;0;0;0;0;0;();(-2000.0, -2000.0);
12:09:36:542;12:09:36:501;1448407535.06;(0.6947052478790283, 0.7549190733167861);68.4896240234;1.0;;;;;;;;;;;;;;0;0;0;0;0;0;0;0;0;();(-2000.0, -2000.0);
12:09:36:559;12:09:36:501;1448407535.06;(0.6947052478790283, 0.7549190733167861);68.4896240234;1.0;;;;;;;;;;;;;;0;0;0;0;0;0;0;0;0;();(-2000.0, -2000.0);
12:09:36:575;12:09:36:568;1448407535.12;(0, 0);0;0;;;;;;;;;;;;;;0;0;0;0;0;0;0;0;0;();(-2000.0, -2000.0);
12:09:36:591;12:09:36:568;1448407535.12;(0, 0);0;0;;;;;;;;;;;;;;0;0;0;0;0;0;0;0;0;();(-2000.0, -2000.0);
12:09:36:607;12:09:36:568;1448407535.12;(0, 0);0;0;;;;;;;;;;;;;;0;0;0;0;0;0;0;0;0;();(-2000.0, -2000.0);
12:09:36:640;12:09:36:630;1448407535.2;(0.6854122638702392, 0.7380813174777561);69.2882766724;0.845604254849;;;;;;;;;;;;;;0;0;0;0;0;0;0;0;0;();(-2000.0, -2000.0);
12:09:36:657;12:09:36:630;1448407535.2;(0.6854122638702392, 0.7380813174777561);69.2882766724;0.845604254849;;;;;;;;;;;;;;0;0;0;0;0;0;0;0;0;();(-2000.0, -2000.0);
12:09:36:673;12:09:36:630;1448407535.2;(0.6854122638702392, 0.7380813174777561);69.2882766724;0.845604254849;;;;;;;;;;;;;;0;0;0;0;0;0;0;0;0;();(-2000.0, -2000.0);
12:09:36:691;12:09:36:630;1448407535.2;(0.6854122638702392, 0.7380813174777561);69.2882766724;0.845604254849;;;;;;;;;;;;;;0;0;0;0;0;0;0;0;0;();(-2000.0, -2000.0);
12:09:36:707;12:09:36:698;1448407535.26;(0, 0);0;0;;;;;;;;;;;;;;0;0;0;0;0;0;0;0;0;();(-2000.0, -2000.0);
12:09:36:741;12:09:36:698;1448407535.26;(0, 0);0;0;;;;;;;;;;;;;;0;0;0;0;0;0;0;0;0;();(-2000.0, -2000.0);
12:09:36:757;12:09:36:698;1448407535.26;(0, 0);0;0;;;;;;;;;;;;;;0;0;0;0;0;0;0;0;0;();(-2000.0, -2000.0);
12:09:36:774;12:09:36:761;1448407535.32;(0.8880205154418945, 0.6547749413384332);31.6939640045;0.612998607393;;;;;;;;;;;;;;0;0;0;0;0;0;0;0;0;();(-2000.0, -2000.0);
12:09:36:792;12:09:36:761;1448407535.32;(0.8880205154418945, 0.6547749413384332);31.6939640045;0.612998607393;;;;;;;;;;;;;;0;0;0;0;0;0;0;0;0;();(-2000.0, -2000.0);
12:09:36:807;12:09:36:761;1448407535.32;(0.8880205154418945, 0.6547749413384332);31.6939640045;0.612998607393;;;;;;;;;;;;;;0;0;0;0;0;0;0;0;0;();(-2000.0, -2000.0);
12:09:36:841;12:09:36:761;1448407535.32;(0.8880205154418945, 0.6547749413384332);31.6939640045;0.612998607393;;;;;;;;;;;;;;0;0;0;0;0;0;0;0;0;();(-2000.0, -2000.0);
12:09:36:857;12:09:36:761;1448407535.32;(0.8880205154418945, 0.6547749413384332);31.6939640045;0.612998607393;;;;;;;;;;;;;;0;0;0;0;0;0;0;0;0;();(-2000.0, -2000.0);
12:09:36:874;12:09:36:761;1448407535.32;(0.8880205154418945, 0.6547749413384332);31.6939640045;0.612998607393;;;;;;;;;;;;;;0;0;0;0;0;0;0;0;0;();(-2000.0, -2000.0);
12:09:36:890;12:09:36:761;1448407535.32;(0.8880205154418945, 0.6547749413384332);31.6939640045;0.612998607393;;;;;;;;;;;;;;0;0;0;0;0;0;0;0;0;();(-2000.0, -2000.0);
12:09:36:907;12:09:36:896;1448407535.46;(0, 0);0;0;;;;;;;;;;;;;;0;0;0;0;0;0;0;0;0;();(-2000.0, -2000.0);
12:09:36:941;12:09:36:896;1448407535.46;(0, 0);0;0;;;;;;;;;;;;;;0;0;0;0;0;0;0;0;0;();(-2000.0, -2000.0);
12:09:36:959;12:09:36:896;1448407535.46;(0, 0);0;0;;;;;;;;;;;;;;0;0;0;0;0;0;0;0;0;();(-2000.0, -2000.0);
12:09:36:975;12:09:36:962;1448407535.49;(0.682819938659668, 0.7807116190592448);70.3936004639;0.967076632563;;;;;;;;;;;;;;0;0;0;0;0;0;0;0;0;();(-2000.0, -2000.0);
12:09:36:993;12:09:36:962;1448407535.49;(0.682819938659668, 0.7807116190592448);70.3936004639;0.967076632563;;;;;;;;;;;;;;0;0;0;0;0;0;0;0;0;();(-2000.0, -2000.0);
12:09:37:009;12:09:36:962;1448407535.49;(0.682819938659668, 0.7807116190592448);70.3936004639;0.967076632563;;;;;;;;;;;;;;0;0;0;0;0;0;0;0;0;();(-2000.0, -2000.0);
12:09:37:042;12:09:37:032;1448407535.59;(0.6833178043365479, 0.7800594753689236);71.3037109375;0.990373455806;;;;;;;;;;;;;;0;0;0;0;0;0;0;0;0;();(-2000.0, -2000.0);
12:09:37:058;12:09:37:032;1448407535.59;(0.6833178043365479, 0.7800594753689236);71.3037109375;0.990373455806;;;;;;;;;;;;;;0;0;0;0;0;0;0;0;0;();(-2000.0, -2000.0);
12:09:37:075;12:09:37:032;1448407535.59;(0.6833178043365479, 0.7800594753689236);71.3037109375;0.990373455806;;;;;;;;;;;;;;0;0;0;0;0;0;0;0;0;();(-2000.0, -2000.0);
12:09:37:091;12:09:37:032;1448407535.59;(0.6833178043365479, 0.7800594753689236);71.3037109375;0.990373455806;;;;;;;;;;;;;;0;0;0;0;0;0;0;0;0;();(-2000.0, -2000.0);
12:09:37:108;12:09:37:096;1448407535.66;(0.6763182640075683, 0.7836952633327908);70.6775054932;0.764139075122;;;;;;;;;;;;;;0;0;0;0;0;0;0;0;0;();(-2000.0, -2000.0);
12:09:37:141;12:09:37:096;1448407535.66;(0.6763182640075683, 0.7836952633327908);70.6775054932;0.764139075122;;;;;;;;;;;;;;0;0;0;0;0;0;0;0;0;();(-2000.0, -2000.0);
12:09:37:159;12:09:37:096;1448407535.66;(0.6763182640075683, 0.7836952633327908);70.6775054932;0.764139075122;;;;;;;;;;;;;;0;0;0;0;0;0;0;0;0;();(-2000.0, -2000.0);
12:09:37:175;12:09:37:168;1448407535.72;(0.6634617805480957, 0.7935544331868489);72.4110794067;0.82961234297;;;;;;;;;;;;;;0;0;0;0;0;0;0;0;0;();(-2000.0, -2000.0);
12:09:37:192;12:09:37:168;1448407535.72;(0.6634617805480957, 0.7935544331868489);72.4110794067;0.82961234297;;;;;;;;;;;;;;0;0;0;0;0;0;0;0;0;();(-2000.0, -2000.0);
12:09:37:209;12:09:37:168;1448407535.72;(0.6634617805480957, 0.7935544331868489);72.4110794067;0.82961234297;;;;;;;;;;;;;;0;0;0;0;0;0;0;0;0;();(-2000.0, -2000.0);
12:09:37:242;12:09:37:226;1448407535.79;(0.2973419904708862, 0.8329336378309462);18.0814228058;0.697006915346;;;;;;;;;;;;;;0;0;0;0;0;0;0;0;0;();(-2000.0, -2000.0);
12:09:37:258;12:09:37:226;1448407535.79;(0.2973419904708862, 0.8329336378309462);18.0814228058;0.697006915346;;;;;;;;;;;;;;0;0;0;0;0;0;0;0;0;();(-2000.0, -2000.0);
12:09:37:274;12:09:37:226;1448407535.79;(0.2973419904708862, 0.8329336378309462);18.0814228058;0.697006915346;;;;;;;;;;;;;;0;0;0;0;0;0;0;0;0;();(-2000.0, -2000.0);
12:09:37:291;12:09:37:226;1448407535.79;(0.2973419904708862, 0.8329336378309462);18.0814228058;0.697006915346;;;;;;;;;;;;;;0;0;0;0;0;0;0;0;0;();(-2000.0, -2000.0);
12:09:37:309;12:09:37:296;1448407535.86;(0, 0);0;0;;;;;;;;;;;;;;0;0;0;0;0;0;0;0;0;();(-2000.0, -2000.0);
12:09:37:342;12:09:37:296;1448407535.86;(0, 0);0;0;;;;;;;;;;;;;;0;0;0;0;0;0;0;0;0;();(-2000.0, -2000.0);
12:09:37:359;12:09:37:296;1448407535.86;(0, 0);0;0;;;;;;;;;;;;;;0;0;0;0;0;0;0;0;0;();(-2000.0, -2000.0);
12:09:37:374;12:09:37:365;1448407535.92;(0.8736635208129883, 0.7447578430175781);26.3706493378;0.674168678444;;;;;;;;;;;;;;0;0;0;0;0;0;0;0;0;();(-2000.0, -2000.0);
12:09:37:392;12:09:37:365;1448407535.92;(0.8736635208129883, 0.7447578430175781);26.3706493378;0.674168678444;;;;;;;;;;;;;;0;0;0;0;0;0;0;0;0;();(-2000.0, -2000.0);
12:09:37:408;12:09:37:365;1448407535.92;(0.8736635208129883, 0.7447578430175781);26.3706493378;0.674168678444;;;;;;;;;;;;;;0;0;0;0;0;0;0;0;0;();(-2000.0, -2000.0);
12:09:37:442;12:09:37:424;1448407535.96;(0, 0);0;0;;;;;;;;;;;;;;0;0;0;0;0;0;0;0;0;();(-2000.0, -2000.0);
12:09:37:459;12:09:37:424;1448407535.96;(0, 0);0;0;;;;;;;;;;;;;;0;0;0;0;0;0;0;0;0;();(-2000.0, -2000.0);
12:09:37:475;12:09:37:424;1448407535.96;(0, 0);0;0;;;;;;;;;;;;;;0;0;0;0;0;0;0;0;0;();(-2000.0, -2000.0);
12:09:37:492;12:09:37:424;1448407535.96;(0, 0);0;0;;;;;;;;;;;;;;0;0;0;0;0;0;0;0;0;();(-2000.0, -2000.0);
12:09:37:509;12:09:37:492;1448407536.01;(0.6513898849487305, 0.7990587340460883);74.5529098511;0.908120038216;;;;;;;;;;;;;;0;0;0;0;0;0;0;0;0;();(-2000.0, -2000.0);
12:09:37:542;12:09:37:492;1448407536.01;(0.6513898849487305, 0.7990587340460883);74.5529098511;0.908120038216;;;;;;;;;;;;;;0;0;0;0;0;0;0;0;0;();(-2000.0, -2000.0);
12:09:37:560;12:09:37:558;1448407536.12;(0.6484452724456787, 0.8457707405090332);76.3726348877;0.780748472603;;;;;;;;;;;;;;0;0;0;0;0;0;0;0;0;();(-2000.0, -2000.0);
12:09:37:575;12:09:37:558;1448407536.12;(0.6484452724456787, 0.8457707405090332);76.3726348877;0.780748472603;;;;;;;;;;;;;;0;0;0;0;0;0;0;0;0;();(-2000.0, -2000.0);
12:09:37:593;12:09:37:558;1448407536.12;(0.6484452724456787, 0.8457707405090332);76.3726348877;0.780748472603;;;;;;;;;;;;;;0;0;0;0;0;0;0;0;0;();(-2000.0, -2000.0);
12:09:37:608;12:09:37:558;1448407536.12;(0.6484452724456787, 0.8457707405090332);76.3726348877;0.780748472603;;;;;;;;;;;;;;0;0;0;0;0;0;0;0;0;();(-2000.0, -2000.0);
12:09:37:642;12:09:37:627;1448407536.19;(0, 0);0;0;;;;;;;;;;;;;;0;0;0;0;0;0;0;0;0;();(-2000.0, -2000.0);
12:09:37:658;12:09:37:627;1448407536.19;(0, 0);0;0;;;;;;;;;;;;;;0;0;0;0;0;0;0;0;0;();(-2000.0, -2000.0);
12:09:37:674;12:09:37:627;1448407536.19;(0, 0);0;0;;;;;;;;;;;;;;0;0;0;0;0;0;0;0;0;();(-2000.0, -2000.0);
12:09:37:692;12:09:37:627;1448407536.19;(0, 0);0;0;;;;;;;;;;;;;;0;0;0;0;0;0;0;0;0;();(-2000.0, -2000.0);
12:09:37:708;12:09:37:696;1448407536.26;(0.6247422218322753, 0.8802068286471897);74.7209014893;0.7944040524;;;;;;;;;;;;;;0;0;0;0;0;0;0;0;0;();(-2000.0, -2000.0);
12:09:37:741;12:09:37:696;1448407536.26;(0.6247422218322753, 0.8802068286471897);74.7209014893;0.7944040524;;;;;;;;;;;;;;0;0;0;0;0;0;0;0;0;();(-2000.0, -2000.0);
12:09:37:760;12:09:37:757;1448407536.32;(0.566500473022461, 0.8126220279269748);72.0117645264;0.780356778387;;;;;;;;;;;;;;0;0;0;0;0;0;0;0;0;();(-2000.0, -2000.0);
12:09:37:775;12:09:37:757;1448407536.32;(0.566500473022461, 0.8126220279269748);72.0117645264;0.780356778387;;;;;;;;;;;;;;0;0;0;0;0;0;0;0;0;();(-2000.0, -2000.0);
12:09:37:791;12:09:37:757;1448407536.32;(0.566500473022461, 0.8126220279269748);72.0117645264;0.780356778387;;;;;;;;;;;;;;0;0;0;0;0;0;0;0;0;();(-2000.0, -2000.0);
12:09:37:808;12:09:37:757;1448407536.32;(0.566500473022461, 0.8126220279269748);72.0117645264;0.780356778387;;;;;;;;;;;;;;0;0;0;0;0;0;0;0;0;();(-2000.0, -2000.0);
12:09:37:841;12:09:37:824;1448407536.36;(0.3289177656173706, 0.8767219755384658);23.8468647003;0.687646265604;;;;;;;;;;;;;;0;0;0;0;0;0;0;0;0;();(-2000.0, -2000.0);
12:09:37:858;12:09:37:824;1448407536.36;(0.3289177656173706, 0.8767219755384658);23.8468647003;0.687646265604;;;;;;;;;;;;;;0;0;0;0;0;0;0;0;0;();(-2000.0, -2000.0);
12:09:37:875;12:09:37:824;1448407536.36;(0.3289177656173706, 0.8767219755384658);23.8468647003;0.687646265604;;;;;;;;;;;;;;0;0;0;0;0;0;0;0;0;();(-2000.0, -2000.0);
12:09:37:891;12:09:37:890;1448407536.44;(0, 0);0;0;;;;;;;;;;;;;;0;0;0;0;0;0;0;0;0;();(-2000.0, -2000.0);
12:09:37:908;12:09:37:890;1448407536.44;(0, 0);0;0;;;;;;;;;;;;;;0;0;0;0;0;0;0;0;0;();(-2000.0, -2000.0);
12:09:37:942;12:09:37:890;1448407536.44;(0, 0);0;0;;;;;;;;;;;;;;0;0;0;0;0;0;0;0;0;();(-2000.0, -2000.0);
12:09:37:959;12:09:37:957;1448407536.49;(0.545374870300293, 0.7385147306654188);69.5054779053;0.757135492306;;;;;;;;;;;;;;0;0;0;0;0;0;0;0;0;();(-2000.0, -2000.0);
12:09:37:975;12:09:37:957;1448407536.49;(0.545374870300293, 0.7385147306654188);69.5054779053;0.757135492306;;;;;;;;;;;;;;0;0;0;0;0;0;0;0;0;();(-2000.0, -2000.0);
12:09:37:992;12:09:37:957;1448407536.49;(0.545374870300293, 0.7385147306654188);69.5054779053;0.757135492306;;;;;;;;;;;;;;0;0;0;0;0;0;0;0;0;();(-2000.0, -2000.0);
12:09:38:009;12:09:37:957;1448407536.49;(0.545374870300293, 0.7385147306654188);69.5054779053;0.757135492306;;;;;;;;;;;;;;0;0;0;0;0;0;0;0;0;();(-2000.0, -2000.0);
12:09:38:042;12:09:38:024;1448407536.52;(0.5422577857971191, 0.7154600779215494);70.5062942505;0.85070425538;;;;;;;;;;;;;;0;0;0;0;0;0;0;0;0;();(-2000.0, -2000.0);
12:09:38:060;12:09:38:024;1448407536.52;(0.5422577857971191, 0.7154600779215494);70.5062942505;0.85070425538;;;;;;;;;;;;;;0;0;0;0;0;0;0;0;0;();(-2000.0, -2000.0);
12:09:38:076;12:09:38:024;1448407536.52;(0.5422577857971191, 0.7154600779215494);70.5062942505;0.85070425538;;;;;;;;;;;;;;0;0;0;0;0;0;0;0;0;();(-2000.0, -2000.0);
12:09:38:094;12:09:38:091;1448407536.6;(0.5475121974945069, 0.7092185762193468);70.8702545166;0.829857682121;;;;;;;;;;;;;;0;0;0;0;0;0;0;0;0;();(-2000.0, -2000.0);
12:09:38:110;12:09:38:104;1448407536.66;(0.43862357139587405, 0.7358496983846028);18.1590194702;0.847165471407;;;;;;;;;;;;;;0;0;0;0;0;0;0;0;0;();(-2000.0, -2000.0);
12:09:38:143;12:09:38:104;1448407536.66;(0.43862357139587405, 0.7358496983846028);18.1590194702;0.847165471407;;;;;;;;;;;;;;0;0;0;0;0;0;0;0;0;();(-2000.0, -2000.0);
12:09:38:159;12:09:38:104;1448407536.66;(0.43862357139587405, 0.7358496983846028);18.1590194702;0.847165471407;;;;;;;;;;;;;;0;0;0;0;0;0;0;0;0;();(-2000.0, -2000.0);
12:09:38:176;12:09:38:104;1448407536.66;(0.43862357139587405, 0.7358496983846028);18.1590194702;0.847165471407;;;;;;;;;;;;;;0;0;0;0;0;0;0;0;0;();(-2000.0, -2000.0);
12:09:38:193;12:09:38:104;1448407536.66;(0.43862357139587405, 0.7358496983846028);18.1590194702;0.847165471407;;;;;;;;;;;;;;0;0;0;0;0;0;0;0;0;();(-2000.0, -2000.0);
12:09:38:209;12:09:38:104;1448407536.66;(0.43862357139587405, 0.7358496983846028);18.1590194702;0.847165471407;;;;;;;;;;;;;;0;0;0;0;0;0;0;0;0;();(-2000.0, -2000.0);
12:09:38:244;12:09:38:221;1448407536.69;(0.6114708423614502, 0.7060214572482639);69.0071716309;0.809427480609;;;;;;;;;;;;;;0;0;0;0;0;0;0;0;0;();(-2000.0, -2000.0);
12:09:38:260;12:09:38:221;1448407536.69;(0.6114708423614502, 0.7060214572482639);69.0071716309;0.809427480609;;;;;;;;;;;;;;0;0;0;0;0;0;0;0;0;();(-2000.0, -2000.0);
12:09:38:277;12:09:38:221;1448407536.69;(0.6114708423614502, 0.7060214572482639);69.0071716309;0.809427480609;;;;;;;;;;;;;;0;0;0;0;0;0;0;0;0;();(-2000.0, -2000.0);
12:09:38:293;12:09:38:289;1448407536.78;(0.35192313194274905, 0.9037228054470486);94.4509658813;0.622437745028;;;;;;;;;;;;;;0;0;0;0;0;0;0;0;0;();(-2000.0, -2000.0);
12:09:38:310;12:09:38:289;1448407536.78;(0.35192313194274905, 0.9037228054470486);94.4509658813;0.622437745028;;;;;;;;;;;;;;0;0;0;0;0;0;0;0;0;();(-2000.0, -2000.0);
12:09:38:343;12:09:38:289;1448407536.78;(0.35192313194274905, 0.9037228054470486);94.4509658813;0.622437745028;;;;;;;;;;;;;;0;0;0;0;0;0;0;0;0;();(-2000.0, -2000.0);
12:09:38:359;12:09:38:357;1448407536.84;(0.6179345607757568, 0.6998916837904188);68.422706604;1.0;;;;;;;;;;;;;;0;0;0;0;0;0;0;0;0;();(-2000.0, -2000.0);
12:09:38:376;12:09:38:357;1448407536.84;(0.6179345607757568, 0.6998916837904188);68.422706604;1.0;;;;;;;;;;;;;;0;0;0;0;0;0;0;0;0;();(-2000.0, -2000.0);
12:09:38:393;12:09:38:357;1448407536.84;(0.6179345607757568, 0.6998916837904188);68.422706604;1.0;;;;;;;;;;;;;;0;0;0;0;0;0;0;0;0;();(-2000.0, -2000.0);
12:09:38:410;12:09:38:357;1448407536.84;(0.6179345607757568, 0.6998916837904188);68.422706604;1.0;;;;;;;;;;;;;;0;0;0;0;0;0;0;0;0;();(-2000.0, -2000.0);
12:09:38:443;12:09:38:421;1448407536.94;(0.6196693897247314, 0.699211671617296);68.5163650513;0.947413332372;;;;;;;;;;;;;;0;0;0;0;0;0;0;0;0;();(-2000.0, -2000.0);
12:09:38:460;12:09:38:421;1448407536.94;(0.6196693897247314, 0.699211671617296);68.5163650513;0.947413332372;;;;;;;;;;;;;;0;0;0;0;0;0;0;0;0;();(-2000.0, -2000.0);
12:09:38:476;12:09:38:421;1448407536.94;(0.6196693897247314, 0.699211671617296);68.5163650513;0.947413332372;;;;;;;;;;;;;;0;0;0;0;0;0;0;0;0;();(-2000.0, -2000.0);
12:09:38:494;12:09:38:491;1448407537.02;(0, 0);0;0;;;;;;;;;;;;;;0;0;0;0;0;0;0;0;0;();(-2000.0, -2000.0);
12:09:38:510;12:09:38:493;1448407537.06;(0, 0);0;0;;;;;;;;;;;;;;0;0;0;0;0;0;0;0;0;();(-2000.0, -2000.0);
12:09:38:543;12:09:38:493;1448407537.06;(0, 0);0;0;;;;;;;;;;;;;;0;0;0;0;0;0;0;0;0;();(-2000.0, -2000.0);
12:09:38:560;12:09:38:556;1448407537.12;(0.5203338623046875, 0.5604522705078125);21.6384601593;0.662624544966;;;;;;;;;;;;;;0;0;0;0;0;0;0;0;0;();(-2000.0, -2000.0);
12:09:38:576;12:09:38:556;1448407537.12;(0.5203338623046875, 0.5604522705078125);21.6384601593;0.662624544966;;;;;;;;;;;;;;0;0;0;0;0;0;0;0;0;();(-2000.0, -2000.0);
12:09:38:593;12:09:38:556;1448407537.12;(0.5203338623046875, 0.5604522705078125);21.6384601593;0.662624544966;;;;;;;;;;;;;;0;0;0;0;0;0;0;0;0;();(-2000.0, -2000.0);
12:09:38:609;12:09:38:556;1448407537.12;(0.5203338623046875, 0.5604522705078125);21.6384601593;0.662624544966;;;;;;;;;;;;;;0;0;0;0;0;0;0;0;0;();(-2000.0, -2000.0);
12:09:38:643;12:09:38:622;1448407537.19;(0.524655818939209, 0.6287096235487196);43.0997314453;0.628155151287;;;;;;;;;;;;;;0;0;0;0;0;0;0;0;0;();(-2000.0, -2000.0);
12:09:38:659;12:09:38:622;1448407537.19;(0.524655818939209, 0.6287096235487196);43.0997314453;0.628155151287;;;;;;;;;;;;;;0;0;0;0;0;0;0;0;0;();(-2000.0, -2000.0);
12:09:38:676;12:09:38:622;1448407537.19;(0.524655818939209, 0.6287096235487196);43.0997314453;0.628155151287;;;;;;;;;;;;;;0;0;0;0;0;0;0;0;0;();(-2000.0, -2000.0);
12:09:38:692;12:09:38:622;1448407537.19;(0.524655818939209, 0.6287096235487196);43.0997314453;0.628155151287;;;;;;;;;;;;;;0;0;0;0;0;0;0;0;0;();(-2000.0, -2000.0);
12:09:38:710;12:09:38:622;1448407537.19;(0.524655818939209, 0.6287096235487196);43.0997314453;0.628155151287;;;;;;;;;;;;;;0;0;0;0;0;0;0;0;0;();(-2000.0, -2000.0);
12:09:38:727;12:09:38:622;1448407537.19;(0.524655818939209, 0.6287096235487196);43.0997314453;0.628155151287;;;;;;;;;;;;;;0;0;0;0;0;0;0;0;0;();(-2000.0, -2000.0);
12:09:38:761;12:09:38:757;1448407537.32;(0, 0);0;0;;;;;;;;;;;;;;0;0;0;0;0;0;0;0;0;();(-2000.0, -2000.0);
12:09:38:776;12:09:38:757;1448407537.32;(0, 0);0;0;;;;;;;;;;;;;;0;0;0;0;0;0;0;0;0;();(-2000.0, -2000.0);
12:09:38:793;12:09:38:757;1448407537.32;(0, 0);0;0;;;;;;;;;;;;;;0;0;0;0;0;0;0;0;0;();(-2000.0, -2000.0);
12:09:38:811;12:09:38:757;1448407537.32;(0, 0);0;0;;;;;;;;;;;;;;0;0;0;0;0;0;0;0;0;();(-2000.0, -2000.0);
12:09:38:827;12:09:38:823;1448407537.4;(0.7837149620056152, 0.5623908572726779);24.9568443298;0.619623536249;;;;;;;;;;;;;;0;0;0;0;0;0;0;0;0;();(-2000.0, -2000.0);
12:09:38:860;12:09:38:823;1448407537.4;(0.7837149620056152, 0.5623908572726779);24.9568443298;0.619623536249;;;;;;;;;;;;;;0;0;0;0;0;0;0;0;0;();(-2000.0, -2000.0);
12:09:38:877;12:09:38:823;1448407537.4;(0.7837149620056152, 0.5623908572726779);24.9568443298;0.619623536249;;;;;;;;;;;;;;0;0;0;0;0;0;0;0;0;();(-2000.0, -2000.0);
12:09:38:893;12:09:38:887;1448407537.46;(0.637839937210083, 0.6480946858723958);18.9263191223;0.789623280643;;;;;;;;;;;;;;0;0;0;0;0;0;0;0;0;();(-2000.0, -2000.0);
12:09:38:911;12:09:38:887;1448407537.46;(0.637839937210083, 0.6480946858723958);18.9263191223;0.789623280643;;;;;;;;;;;;;;0;0;0;0;0;0;0;0;0;();(-2000.0, -2000.0);
12:09:38:942;12:09:38:887;1448407537.46;(0.637839937210083, 0.6480946858723958);18.9263191223;0.789623280643;;;;;;;;;;;;;;0;0;0;0;0;0;0;0;0;();(-2000.0, -2000.0);
12:09:38:959;12:09:38:952;1448407537.49;(0.3641309976577759, 0.6489153967963325);21.5685310364;0.762661584436;;;;;;;;;;;;;;0;0;0;0;0;0;0;0;0;();(-2000.0, -2000.0);
12:09:38:976;12:09:38:952;1448407537.49;(0.3641309976577759, 0.6489153967963325);21.5685310364;0.762661584436;;;;;;;;;;;;;;0;0;0;0;0;0;0;0;0;();(-2000.0, -2000.0);
12:09:38:992;12:09:38:952;1448407537.49;(0.3641309976577759, 0.6489153967963325);21.5685310364;0.762661584436;;;;;;;;;;;;;;0;0;0;0;0;0;0;0;0;();(-2000.0, -2000.0);
12:09:39:010;12:09:38:952;1448407537.49;(0.3641309976577759, 0.6489153967963325);21.5685310364;0.762661584436;;;;;;;;;;;;;;0;0;0;0;0;0;0;0;0;();(-2000.0, -2000.0);
12:09:39:026;12:09:39:022;1448407537.6;(0.5603622436523438, 0.5664472368028428);68.852935791;0.819807910025;;;;;;;;;;;;;;0;0;0;0;0;0;0;0;0;();(-2000.0, -2000.0);
12:09:39:059;12:09:39:022;1448407537.6;(0.5603622436523438, 0.5664472368028428);68.852935791;0.819807910025;;;;;;;;;;;;;;0;0;0;0;0;0;0;0;0;();(-2000.0, -2000.0);
12:09:39:077;12:09:39:022;1448407537.6;(0.5603622436523438, 0.5664472368028428);68.852935791;0.819807910025;;;;;;;;;;;;;;0;0;0;0;0;0;0;0;0;();(-2000.0, -2000.0);
12:09:39:093;12:09:39:022;1448407537.6;(0.5603622436523438, 0.5664472368028428);68.852935791;0.819807910025;;;;;;;;;;;;;;0;0;0;0;0;0;0;0;0;();(-2000.0, -2000.0);
12:09:39:110;12:09:39:022;1448407537.6;(0.5603622436523438, 0.5664472368028428);68.852935791;0.819807910025;;;;;;;;;;;;;;0;0;0;0;0;0;0;0;0;();(-2000.0, -2000.0);
12:09:39:127;12:09:39:022;1448407537.6;(0.5603622436523438, 0.5664472368028428);68.852935791;0.819807910025;;;;;;;;;;;;;;0;0;0;0;0;0;0;0;0;();(-2000.0, -2000.0);
12:09:39:161;12:09:39:153;1448407537.62;(0.5629927635192871, 0.5667098151312935);69.1369171143;1.0;;;;;;;;;;;;;;0;0;0;0;0;0;0;0;0;();(-2000.0, -2000.0);
12:09:39:177;12:09:39:153;1448407537.62;(0.5629927635192871, 0.5667098151312935);69.1369171143;1.0;;;;;;;;;;;;;;0;0;0;0;0;0;0;0;0;();(-2000.0, -2000.0);
12:09:39:193;12:09:39:153;1448407537.62;(0.5629927635192871, 0.5667098151312935);69.1369171143;1.0;;;;;;;;;;;;;;0;0;0;0;0;0;0;0;0;();(-2000.0, -2000.0);
12:09:39:210;12:09:39:153;1448407537.62;(0.5629927635192871, 0.5667098151312935);69.1369171143;1.0;;;;;;;;;;;;;;0;0;0;0;0;0;0;0;0;();(-2000.0, -2000.0);
12:09:39:227;12:09:39:217;1448407537.75;(0.5705623626708984, 0.5587112002902561);68.2388153076;0.923304695625;;;;;;;;;;;;;;0;0;0;0;0;0;0;0;0;();(-2000.0, -2000.0);
12:09:39:261;12:09:39:217;1448407537.75;(0.5705623626708984, 0.5587112002902561);68.2388153076;0.923304695625;;;;;;;;;;;;;;0;0;0;0;0;0;0;0;0;();(-2000.0, -2000.0);
12:09:39:276;12:09:39:217;1448407537.75;(0.5705623626708984, 0.5587112002902561);68.2388153076;0.923304695625;;;;;;;;;;;;;;0;0;0;0;0;0;0;0;0;();(-2000.0, -2000.0);
12:09:39:292;12:09:39:284;1448407537.8;(0.5748607635498046, 0.5497319963243272);66.4377593994;0.882823166904;;;;;;;;;;;;;;0;0;0;0;0;0;0;0;0;();(-2000.0, -2000.0);
12:09:39:309;12:09:39:284;1448407537.8;(0.5748607635498046, 0.5497319963243272);66.4377593994;0.882823166904;;;;;;;;;;;;;;0;0;0;0;0;0;0;0;0;();(-2000.0, -2000.0);
12:09:39:326;12:09:39:284;1448407537.8;(0.5748607635498046, 0.5497319963243272);66.4377593994;0.882823166904;;;;;;;;;;;;;;0;0;0;0;0;0;0;0;0;();(-2000.0, -2000.0);
12:09:39:360;12:09:39:284;1448407537.8;(0.5748607635498046, 0.5497319963243272);66.4377593994;0.882823166904;;;;;;;;;;;;;;0;0;0;0;0;0;0;0;0;();(-2000.0, -2000.0);
12:09:39:377;12:09:39:284;1448407537.8;(0.5748607635498046, 0.5497319963243272);66.4377593994;0.882823166904;;;;;;;;;;;;;;0;0;0;0;0;0;0;0;0;();(-2000.0, -2000.0);
12:09:39:394;12:09:39:284;1448407537.8;(0.5748607635498046, 0.5497319963243272);66.4377593994;0.882823166904;;;;;;;;;;;;;;0;0;0;0;0;0;0;0;0;();(-2000.0, -2000.0);
12:09:39:411;12:09:39:284;1448407537.8;(0.5748607635498046, 0.5497319963243272);66.4377593994;0.882823166904;;;;;;;;;;;;;;0;0;0;0;0;0;0;0;0;();(-2000.0, -2000.0);
12:09:39:443;12:09:39:418;1448407537.97;(0, 0);0;0;;;;;;;;;;;;;;0;0;0;0;0;0;0;0;0;();(-2000.0, -2000.0);
12:09:39:460;12:09:39:418;1448407537.97;(0, 0);0;0;;;;;;;;;;;;;;0;0;0;0;0;0;0;0;0;();(-2000.0, -2000.0);
12:09:39:476;12:09:39:418;1448407537.97;(0, 0);0;0;;;;;;;;;;;;;;0;0;0;0;0;0;0;0;0;();(-2000.0, -2000.0);
12:09:39:493;12:09:39:418;1448407537.97;(0, 0);0;0;;;;;;;;;;;;;;0;0;0;0;0;0;0;0;0;();(-2000.0, -2000.0);
12:09:39:510;12:09:39:418;1448407537.97;(0, 0);0;0;;;;;;;;;;;;;;0;0;0;0;0;0;0;0;0;();(-2000.0, -2000.0);
12:09:39:544;12:09:39:418;1448407537.97;(0, 0);0;0;;;;;;;;;;;;;;0;0;0;0;0;0;0;0;0;();(-2000.0, -2000.0);
12:09:39:561;12:09:39:549;1448407537.99;(0.5643601894378663, 0.5438216739230686);70.7262039185;0.817539752561;;;;;;;;;;;;;;0;0;0;0;0;0;0;0;0;();(-2000.0, -2000.0);
12:09:39:577;12:09:39:549;1448407537.99;(0.5643601894378663, 0.5438216739230686);70.7262039185;0.817539752561;;;;;;;;;;;;;;0;0;0;0;0;0;0;0;0;();(-2000.0, -2000.0);
12:09:39:593;12:09:39:549;1448407537.99;(0.5643601894378663, 0.5438216739230686);70.7262039185;0.817539752561;;;;;;;;;;;;;;0;0;0;0;0;0;0;0;0;();(-2000.0, -2000.0);
12:09:39:610;12:09:39:549;1448407537.99;(0.5643601894378663, 0.5438216739230686);70.7262039185;0.817539752561;;;;;;;;;;;;;;0;0;0;0;0;0;0;0;0;();(-2000.0, -2000.0);
12:09:39:643;12:09:39:617;1448407538.11;(0.5667765140533447, 0.5333310445149739);70.2510986328;0.800286633121;;;;;;;;;;;;;;0;0;0;0;0;0;0;0;0;();(-2000.0, -2000.0);
12:09:39:660;12:09:39:617;1448407538.11;(0.5667765140533447, 0.5333310445149739);70.2510986328;0.800286633121;;;;;;;;;;;;;;0;0;0;0;0;0;0;0;0;();(-2000.0, -2000.0);
12:09:39:676;12:09:39:617;1448407538.11;(0.5667765140533447, 0.5333310445149739);70.2510986328;0.800286633121;;;;;;;;;;;;;;0;0;0;0;0;0;0;0;0;();(-2000.0, -2000.0);
12:09:39:693;12:09:39:617;1448407538.11;(0.5667765140533447, 0.5333310445149739);70.2510986328;0.800286633121;;;;;;;;;;;;;;0;0;0;0;0;0;0;0;0;();(-2000.0, -2000.0);
12:09:39:709;12:09:39:617;1448407538.11;(0.5667765140533447, 0.5333310445149739);70.2510986328;0.800286633121;;;;;;;;;;;;;;0;0;0;0;0;0;0;0;0;();(-2000.0, -2000.0);
12:09:39:726;12:09:39:617;1448407538.11;(0.5667765140533447, 0.5333310445149739);70.2510986328;0.800286633121;;;;;;;;;;;;;;0;0;0;0;0;0;0;0;0;();(-2000.0, -2000.0);
12:09:39:760;12:09:39:751;1448407538.32;(0.6097242355346679, 0.48250406053331163);25.4331607819;0.76073053398;;;;;;;;;;;;;;0;0;0;0;0;0;0;0;0;();(-2000.0, -2000.0);
12:09:39:777;12:09:39:751;1448407538.32;(0.6097242355346679, 0.48250406053331163);25.4331607819;0.76073053398;;;;;;;;;;;;;;0;0;0;0;0;0;0;0;0;();(-2000.0, -2000.0);
12:09:39:793;12:09:39:751;1448407538.32;(0.6097242355346679, 0.48250406053331163);25.4331607819;0.76073053398;;;;;;;;;;;;;;0;0;0;0;0;0;0;0;0;();(-2000.0, -2000.0);
12:09:39:810;12:09:39:751;1448407538.32;(0.6097242355346679, 0.48250406053331163);25.4331607819;0.76073053398;;;;;;;;;;;;;;0;0;0;0;0;0;0;0;0;();(-2000.0, -2000.0);
12:09:39:828;12:09:39:818;1448407538.39;(0, 0);0;0;;;;;;;;;;;;;;0;0;0;0;0;0;0;0;0;();(-2000.0, -2000.0);
12:09:39:860;12:09:39:818;1448407538.39;(0, 0);0;0;;;;;;;;;;;;;;0;0;0;0;0;0;0;0;0;();(-2000.0, -2000.0);
12:09:39:877;12:09:39:818;1448407538.39;(0, 0);0;0;;;;;;;;;;;;;;0;0;0;0;0;0;0;0;0;();(-2000.0, -2000.0);
12:09:39:893;12:09:39:882;1448407538.46;(0, 0);0;0;;;;;;;;;;;;;;0;0;0;0;0;0;0;0;0;();(-2000.0, -2000.0);
12:09:39:910;12:09:39:882;1448407538.46;(0, 0);0;0;;;;;;;;;;;;;;0;0;0;0;0;0;0;0;0;();(-2000.0, -2000.0);
12:09:39:927;12:09:39:882;1448407538.46;(0, 0);0;0;;;;;;;;;;;;;;0;0;0;0;0;0;0;0;0;();(-2000.0, -2000.0);
12:09:39:960;12:09:39:951;1448407538.52;(0.7987802505493165, 0.5215380350748697);24.7042884827;0.707361557121;;;;;;;;;;;;;;0;0;0;0;0;0;0;0;0;();(-2000.0, -2000.0);
12:09:39:977;12:09:39:951;1448407538.52;(0.7987802505493165, 0.5215380350748697);24.7042884827;0.707361557121;;;;;;;;;;;;;;0;0;0;0;0;0;0;0;0;();(-2000.0, -2000.0);
12:09:39:995;12:09:39:951;1448407538.52;(0.7987802505493165, 0.5215380350748697);24.7042884827;0.707361557121;;;;;;;;;;;;;;0;0;0;0;0;0;0;0;0;();(-2000.0, -2000.0);
12:09:40:011;12:09:39:951;1448407538.52;(0.7987802505493165, 0.5215380350748697);24.7042884827;0.707361557121;;;;;;;;;;;;;;0;0;0;0;0;0;0;0;0;();(-2000.0, -2000.0);
12:09:40:028;12:09:40:012;1448407538.56;(0.5922662734985351, 0.5470016479492188);63.7053184509;0.649173699092;;;;;;;;;;;;;;0;0;0;0;0;0;0;0;0;();(-2000.0, -2000.0);
12:09:40:061;12:09:40:012;1448407538.56;(0.5922662734985351, 0.5470016479492188);63.7053184509;0.649173699092;;;;;;;;;;;;;;0;0;0;0;0;0;0;0;0;();(-2000.0, -2000.0);
12:09:40:078;12:09:40:012;1448407538.56;(0.5922662734985351, 0.5470016479492188);63.7053184509;0.649173699092;;;;;;;;;;;;;;0;0;0;0;0;0;0;0;0;();(-2000.0, -2000.0);
12:09:40:094;12:09:40:012;1448407538.56;(0.5922662734985351, 0.5470016479492188);63.7053184509;0.649173699092;;;;;;;;;;;;;;0;0;0;0;0;0;0;0;0;();(-2000.0, -2000.0);
12:09:40:111;12:09:40:012;1448407538.56;(0.5922662734985351, 0.5470016479492188);63.7053184509;0.649173699092;;;;;;;;;;;;;;0;0;0;0;0;0;0;0;0;();(-2000.0, -2000.0);
12:09:40:127;12:09:40:012;1448407538.56;(0.5922662734985351, 0.5470016479492188);63.7053184509;0.649173699092;;;;;;;;;;;;;;0;0;0;0;0;0;0;0;0;();(-2000.0, -2000.0);
12:09:40:161;12:09:40:149;1448407538.59;(0.5860362529754639, 0.560930887858073);69.3101043701;0.701689769094;;;;;;;;;;;;;;0;0;0;0;0;0;0;0;0;();(-2000.0, -2000.0);
12:09:40:178;12:09:40:149;1448407538.59;(0.5860362529754639, 0.560930887858073);69.3101043701;0.701689769094;;;;;;;;;;;;;;0;0;0;0;0;0;0;0;0;();(-2000.0, -2000.0);
12:09:40:194;12:09:40:149;1448407538.59;(0.5860362529754639, 0.560930887858073);69.3101043701;0.701689769094;;;;;;;;;;;;;;0;0;0;0;0;0;0;0;0;();(-2000.0, -2000.0);
12:09:40:210;12:09:40:149;1448407538.59;(0.5860362529754639, 0.560930887858073);69.3101043701;0.701689769094;;;;;;;;;;;;;;0;0;0;0;0;0;0;0;0;();(-2000.0, -2000.0);
12:09:40:227;12:09:40:212;1448407538.72;(0.5861073493957519, 0.5733357323540582);71.6561813354;0.829438960596;;;;;;;;;;;;;;0;0;0;0;0;0;0;0;0;();(-2000.0, -2000.0);
12:09:40:261;12:09:40:212;1448407538.72;(0.5861073493957519, 0.5733357323540582);71.6561813354;0.829438960596;;;;;;;;;;;;;;0;0;0;0;0;0;0;0;0;();(-2000.0, -2000.0);
12:09:40:277;12:09:40:212;1448407538.72;(0.5861073493957519, 0.5733357323540582);71.6561813354;0.829438960596;;;;;;;;;;;;;;0;0;0;0;0;0;0;0;0;();(-2000.0, -2000.0);
12:09:40:293;12:09:40:212;1448407538.72;(0.5861073493957519, 0.5733357323540582);71.6561813354;0.829438960596;;;;;;;;;;;;;;0;0;0;0;0;0;0;0;0;();(-2000.0, -2000.0);
12:09:40:310;12:09:40:212;1448407538.72;(0.5861073493957519, 0.5733357323540582);71.6561813354;0.829438960596;;;;;;;;;;;;;;0;0;0;0;0;0;0;0;0;();(-2000.0, -2000.0);
12:09:40:328;12:09:40:212;1448407538.72;(0.5861073493957519, 0.5733357323540582);71.6561813354;0.829438960596;;;;;;;;;;;;;;0;0;0;0;0;0;0;0;0;();(-2000.0, -2000.0);
12:09:40:362;12:09:40:348;1448407538.91;(0.5710989952087402, 0.5703186459011502);74.5871963501;1.0;;;;;;;;;;;;;;0;0;0;0;0;0;0;0;0;();(-2000.0, -2000.0);
12:09:40:378;12:09:40:348;1448407538.91;(0.5710989952087402, 0.5703186459011502);74.5871963501;1.0;;;;;;;;;;;;;;0;0;0;0;0;0;0;0;0;();(-2000.0, -2000.0);
12:09:40:394;12:09:40:348;1448407538.91;(0.5710989952087402, 0.5703186459011502);74.5871963501;1.0;;;;;;;;;;;;;;0;0;0;0;0;0;0;0;0;();(-2000.0, -2000.0);
12:09:40:412;12:09:40:348;1448407538.91;(0.5710989952087402, 0.5703186459011502);74.5871963501;1.0;;;;;;;;;;;;;;0;0;0;0;0;0;0;0;0;();(-2000.0, -2000.0);
12:09:40:427;12:09:40:424;1448407538.99;(0.5673086643218994, 0.5742280748155382);74.8356323242;0.824002263753;;;;;;;;;;;;;;0;0;0;0;0;0;0;0;0;();(-2000.0, -2000.0);
12:09:40:460;12:09:40:424;1448407538.99;(0.5673086643218994, 0.5742280748155382);74.8356323242;0.824002263753;;;;;;;;;;;;;;0;0;0;0;0;0;0;0;0;();(-2000.0, -2000.0);
12:09:40:477;12:09:40:424;1448407538.99;(0.5673086643218994, 0.5742280748155382);74.8356323242;0.824002263753;;;;;;;;;;;;;;0;0;0;0;0;0;0;0;0;();(-2000.0, -2000.0);
12:09:40:494;12:09:40:482;1448407539.06;(0.5652973651885986, 0.5777591705322266);74.519569397;0.837618952988;;;;;;;;;;;;;;0;0;0;0;0;0;0;0;0;();(-2000.0, -2000.0);
12:09:40:511;12:09:40:482;1448407539.06;(0.5652973651885986, 0.5777591705322266);74.519569397;0.837618952988;;;;;;;;;;;;;;0;0;0;0;0;0;0;0;0;();(-2000.0, -2000.0);
12:09:40:527;12:09:40:482;1448407539.06;(0.5652973651885986, 0.5777591705322266);74.519569397;0.837618952988;;;;;;;;;;;;;;0;0;0;0;0;0;0;0;0;();(-2000.0, -2000.0);
12:09:40:560;12:09:40:549;1448407539.12;(0.5636580467224122, 0.5832484775119358);74.3129806519;1.0;;;;;;;;;;;;;;0;0;0;0;0;0;0;0;0;();(-2000.0, -2000.0);
12:09:40:577;12:09:40:549;1448407539.12;(0.5636580467224122, 0.5832484775119358);74.3129806519;1.0;;;;;;;;;;;;;;0;0;0;0;0;0;0;0;0;();(-2000.0, -2000.0);
12:09:40:593;12:09:40:549;1448407539.12;(0.5636580467224122, 0.5832484775119358);74.3129806519;1.0;;;;;;;;;;;;;;0;0;0;0;0;0;0;0;0;();(-2000.0, -2000.0);
12:09:40:611;12:09:40:549;1448407539.12;(0.5636580467224122, 0.5832484775119358);74.3129806519;1.0;;;;;;;;;;;;;;0;0;0;0;0;0;0;0;0;();(-2000.0, -2000.0);
12:09:40:627;12:09:40:615;1448407539.19;(0.5616142749786377, 0.5824085659450955);72.8664627075;1.0;;;;;;;;;;;;;;0;0;0;0;0;0;0;0;0;();(-2000.0, -2000.0);
12:09:40:661;12:09:40:615;1448407539.19;(0.5616142749786377, 0.5824085659450955);72.8664627075;1.0;;;;;;;;;;;;;;0;0;0;0;0;0;0;0;0;();(-2000.0, -2000.0);
12:09:40:678;12:09:40:677;1448407539.22;(0.5609395027160644, 0.5830447726779514);71.0506973267;0.96079445672;;;;;;;;;;;;;;0;0;0;0;0;0;0;0;0;();(-2000.0, -2000.0);
12:09:40:695;12:09:40:677;1448407539.22;(0.5609395027160644, 0.5830447726779514);71.0506973267;0.96079445672;;;;;;;;;;;;;;0;0;0;0;0;0;0;0;0;();(-2000.0, -2000.0);
12:09:40:712;12:09:40:677;1448407539.22;(0.5609395027160644, 0.5830447726779514);71.0506973267;0.96079445672;;;;;;;;;;;;;;0;0;0;0;0;0;0;0;0;();(-2000.0, -2000.0);
12:09:40:728;12:09:40:677;1448407539.22;(0.5609395027160644, 0.5830447726779514);71.0506973267;0.96079445672;;;;;;;;;;;;;;0;0;0;0;0;0;0;0;0;();(-2000.0, -2000.0);
12:09:40:760;12:09:40:747;1448407539.32;(0.5556619167327881, 0.5903046502007379);68.8213729858;1.0;;;;;;;;;;;;;;0;0;0;0;0;0;0;0;0;();(-2000.0, -2000.0);
12:09:40:778;12:09:40:747;1448407539.32;(0.5556619167327881, 0.5903046502007379);68.8213729858;1.0;;;;;;;;;;;;;;0;0;0;0;0;0;0;0;0;();(-2000.0, -2000.0);
12:09:40:794;12:09:40:747;1448407539.32;(0.5556619167327881, 0.5903046502007379);68.8213729858;1.0;;;;;;;;;;;;;;0;0;0;0;0;0;0;0;0;();(-2000.0, -2000.0);
12:09:40:810;12:09:40:747;1448407539.32;(0.5556619167327881, 0.5903046502007379);68.8213729858;1.0;;;;;;;;;;;;;;0;0;0;0;0;0;0;0;0;();(-2000.0, -2000.0);
12:09:40:828;12:09:40:812;1448407539.36;(0.654478120803833, 0.7739943822224935);20.9770584106;0.835409475857;;;;;;;;;;;;;;0;0;0;0;0;0;0;0;0;();(-2000.0, -2000.0);
12:09:40:861;12:09:40:812;1448407539.36;(0.654478120803833, 0.7739943822224935);20.9770584106;0.835409475857;;;;;;;;;;;;;;0;0;0;0;0;0;0;0;0;();(-2000.0, -2000.0);
12:09:40:878;12:09:40:812;1448407539.36;(0.654478120803833, 0.7739943822224935);20.9770584106;0.835409475857;;;;;;;;;;;;;;0;0;0;0;0;0;0;0;0;();(-2000.0, -2000.0);
12:09:40:895;12:09:40:812;1448407539.36;(0.654478120803833, 0.7739943822224935);20.9770584106;0.835409475857;;;;;;;;;;;;;;0;0;0;0;0;0;0;0;0;();(-2000.0, -2000.0);
12:09:40:910;12:09:40:812;1448407539.36;(0.654478120803833, 0.7739943822224935);20.9770584106;0.835409475857;;;;;;;;;;;;;;0;0;0;0;0;0;0;0;0;();(-2000.0, -2000.0);
12:09:40:928;12:09:40:812;1448407539.36;(0.654478120803833, 0.7739943822224935);20.9770584106;0.835409475857;;;;;;;;;;;;;;0;0;0;0;0;0;0;0;0;();(-2000.0, -2000.0);
12:09:40:961;12:09:40:937;1448407539.51;(0.551621389389038, 0.6028954399956596);65.309967041;0.928772906049;;;;;;;;;;;;;;0;0;0;0;0;0;0;0;0;();(-2000.0, -2000.0);
12:09:40:978;12:09:40:937;1448407539.51;(0.551621389389038, 0.6028954399956596);65.309967041;0.928772906049;;;;;;;;;;;;;;0;0;0;0;0;0;0;0;0;();(-2000.0, -2000.0);
12:09:40:994;12:09:40:937;1448407539.51;(0.551621389389038, 0.6028954399956596);65.309967041;0.928772906049;;;;;;;;;;;;;;0;0;0;0;0;0;0;0;0;();(-2000.0, -2000.0);
12:09:41:010;12:09:40:937;1448407539.51;(0.551621389389038, 0.6028954399956596);65.309967041;0.928772906049;;;;;;;;;;;;;;0;0;0;0;0;0;0;0;0;();(-2000.0, -2000.0);
12:09:41:028;12:09:40:937;1448407539.51;(0.551621389389038, 0.6028954399956596);65.309967041;0.928772906049;;;;;;;;;;;;;;0;0;0;0;0;0;0;0;0;();(-2000.0, -2000.0);
12:09:41:061;12:09:41:054;1448407539.61;(0.5495787620544433, 0.6099276224772135);64.2934036255;0.966541784987;;;;;;;;;;;;;;0;0;0;0;0;0;0;0;0;();(-2000.0, -2000.0);
12:09:41:077;12:09:41:054;1448407539.61;(0.5495787620544433, 0.6099276224772135);64.2934036255;0.966541784987;;;;;;;;;;;;;;0;0;0;0;0;0;0;0;0;();(-2000.0, -2000.0);
12:09:41:094;12:09:41:054;1448407539.61;(0.5495787620544433, 0.6099276224772135);64.2934036255;0.966541784987;;;;;;;;;;;;;;0;0;0;0;0;0;0;0;0;();(-2000.0, -2000.0);
12:09:41:113;12:09:41:111;1448407539.69;(0.5503695964813232, 0.6145320044623481);64.4819259644;1.0;;;;;;;;;;;;;;0;0;0;0;0;0;0;0;0;();(-2000.0, -2000.0);
12:09:41:128;12:09:41:111;1448407539.69;(0.5503695964813232, 0.6145320044623481);64.4819259644;1.0;;;;;;;;;;;;;;0;0;0;0;0;0;0;0;0;();(-2000.0, -2000.0);
12:09:41:161;12:09:41:111;1448407539.69;(0.5503695964813232, 0.6145320044623481);64.4819259644;1.0;;;;;;;;;;;;;;0;0;0;0;0;0;0;0;0;();(-2000.0, -2000.0);
12:09:41:177;12:09:41:170;1448407539.76;(0.5507526397705078, 0.6168946372138129);65.0882797241;1.0;;;;;;;;;;;;;;0;0;0;0;0;0;0;0;0;();(-2000.0, -2000.0);
12:09:41:195;12:09:41:170;1448407539.76;(0.5507526397705078, 0.6168946372138129);65.0882797241;1.0;;;;;;;;;;;;;;0;0;0;0;0;0;0;0;0;();(-2000.0, -2000.0);
12:09:41:211;12:09:41:170;1448407539.76;(0.5507526397705078, 0.6168946372138129);65.0882797241;1.0;;;;;;;;;;;;;;0;0;0;0;0;0;0;0;0;();(-2000.0, -2000.0);
12:09:41:228;12:09:41:225;1448407539.79;(0.5506053924560547, 0.617466566297743);65.1575927734;1.0;;;;;;;;;;;;;;0;0;0;0;0;0;0;0;0;();(-2000.0, -2000.0);
12:09:41:261;12:09:41:225;1448407539.79;(0.5506053924560547, 0.617466566297743);65.1575927734;1.0;;;;;;;;;;;;;;0;0;0;0;0;0;0;0;0;();(-2000.0, -2000.0);
12:09:41:279;12:09:41:225;1448407539.79;(0.5506053924560547, 0.617466566297743);65.1575927734;1.0;;;;;;;;;;;;;;0;0;0;0;0;0;0;0;0;();(-2000.0, -2000.0);
12:09:41:295;12:09:41:225;1448407539.79;(0.5506053924560547, 0.617466566297743);65.1575927734;1.0;;;;;;;;;;;;;;0;0;0;0;0;0;0;0;0;();(-2000.0, -2000.0);
12:09:41:311;12:09:41:225;1448407539.79;(0.5506053924560547, 0.617466566297743);65.1575927734;1.0;;;;;;;;;;;;;;0;0;0;0;0;0;0;0;0;();(-2000.0, -2000.0);
12:09:41:329;12:09:41:225;1448407539.79;(0.5506053924560547, 0.617466566297743);65.1575927734;1.0;;;;;;;;;;;;;;0;0;0;0;0;0;0;0;0;();(-2000.0, -2000.0);
12:09:41:363;12:09:41:332;1448407539.82;(0.5478394508361817, 0.6204914093017578);65.1885223389;1.0;;;;;;;;;;;;;;0;0;0;0;0;0;0;0;0;();(-2000.0, -2000.0);
12:09:41:379;12:09:41:332;1448407539.82;(0.5478394508361817, 0.6204914093017578);65.1885223389;1.0;;;;;;;;;;;;;;0;0;0;0;0;0;0;0;0;();(-2000.0, -2000.0);
12:09:41:396;12:09:41:332;1448407539.82;(0.5478394508361817, 0.6204914093017578);65.1885223389;1.0;;;;;;;;;;;;;;0;0;0;0;0;0;0;0;0;();(-2000.0, -2000.0);
12:09:41:413;12:09:41:332;1448407539.82;(0.5478394508361817, 0.6204914093017578);65.1885223389;1.0;;;;;;;;;;;;;;0;0;0;0;0;0;0;0;0;();(-2000.0, -2000.0);
12:09:41:429;12:09:41:332;1448407539.82;(0.5478394508361817, 0.6204914093017578);65.1885223389;1.0;;;;;;;;;;;;;;0;0;0;0;0;0;0;0;0;();(-2000.0, -2000.0);
12:09:41:463;12:09:41:332;1448407539.82;(0.5478394508361817, 0.6204914093017578);65.1885223389;1.0;;;;;;;;;;;;;;0;0;0;0;0;0;0;0;0;();(-2000.0, -2000.0);
12:09:41:479;12:09:41:332;1448407539.82;(0.5478394508361817, 0.6204914093017578);65.1885223389;1.0;;;;;;;;;;;;;;0;0;0;0;0;0;0;0;0;();(-2000.0, -2000.0);
12:09:41:496;12:09:41:485;1448407539.93;(0.5343189239501953, 0.5918611738416883);64.3491821289;1.0;;;;;;;;;;;;;;0;0;0;0;0;0;0;0;0;();(-2000.0, -2000.0);
12:09:41:513;12:09:41:485;1448407539.93;(0.5343189239501953, 0.5918611738416883);64.3491821289;1.0;;;;;;;;;;;;;;0;0;0;0;0;0;0;0;0;();(-2000.0, -2000.0);
12:09:41:530;12:09:41:485;1448407539.93;(0.5343189239501953, 0.5918611738416883);64.3491821289;1.0;;;;;;;;;;;;;;0;0;0;0;0;0;0;0;0;();(-2000.0, -2000.0);
12:09:41:561;12:09:41:485;1448407539.93;(0.5343189239501953, 0.5918611738416883);64.3491821289;1.0;;;;;;;;;;;;;;0;0;0;0;0;0;0;0;0;();(-2000.0, -2000.0);
12:09:41:578;12:09:41:485;1448407539.93;(0.5343189239501953, 0.5918611738416883);64.3491821289;1.0;;;;;;;;;;;;;;0;0;0;0;0;0;0;0;0;();(-2000.0, -2000.0);
12:09:41:595;12:09:41:586;1448407540.06;(0.5299203395843506, 0.6023102654351129);65.6404724121;0.937260084733;;;;;;;;;;;;;;0;0;0;0;0;0;0;0;0;();(-2000.0, -2000.0);
12:09:41:612;12:09:41:586;1448407540.06;(0.5299203395843506, 0.6023102654351129);65.6404724121;0.937260084733;;;;;;;;;;;;;;0;0;0;0;0;0;0;0;0;();(-2000.0, -2000.0);
12:09:41:628;12:09:41:586;1448407540.06;(0.5299203395843506, 0.6023102654351129);65.6404724121;0.937260084733;;;;;;;;;;;;;;0;0;0;0;0;0;0;0;0;();(-2000.0, -2000.0);
12:09:41:661;12:09:41:586;1448407540.06;(0.5299203395843506, 0.6023102654351129);65.6404724121;0.937260084733;;;;;;;;;;;;;;0;0;0;0;0;0;0;0;0;();(-2000.0, -2000.0);
12:09:41:678;12:09:41:586;1448407540.06;(0.5299203395843506, 0.6023102654351129);65.6404724121;0.937260084733;;;;;;;;;;;;;;0;0;0;0;0;0;0;0;0;();(-2000.0, -2000.0);
12:09:41:696;12:09:41:681;1448407540.17;(0.5265286445617676, 0.5921536339653863);58.4868354797;0.880302122175;;;;;;;;;;;;;;0;0;0;0;0;0;0;0;0;();(-2000.0, -2000.0);
12:09:41:712;12:09:41:681;1448407540.17;(0.5265286445617676, 0.5921536339653863);58.4868354797;0.880302122175;;;;;;;;;;;;;;0;0;0;0;0;0;0;0;0;();(-2000.0, -2000.0);
12:09:41:728;12:09:41:681;1448407540.17;(0.5265286445617676, 0.5921536339653863);58.4868354797;0.880302122175;;;;;;;;;;;;;;0;0;0;0;0;0;0;0;0;();(-2000.0, -2000.0);
12:09:41:761;12:09:41:735;1448407540.31;(0.49187002182006834, 0.4978484683566623);63.6237373352;0.840492288648;;;;;;;;;;;;;;0;0;0;0;0;0;0;0;0;();(-2000.0, -2000.0);
12:09:41:779;12:09:41:735;1448407540.31;(0.49187002182006834, 0.4978484683566623);63.6237373352;0.840492288648;;;;;;;;;;;;;;0;0;0;0;0;0;0;0;0;();(-2000.0, -2000.0);
12:09:41:795;12:09:41:735;1448407540.31;(0.49187002182006834, 0.4978484683566623);63.6237373352;0.840492288648;;;;;;;;;;;;;;0;0;0;0;0;0;0;0;0;();(-2000.0, -2000.0);
12:09:41:811;12:09:41:735;1448407540.31;(0.49187002182006834, 0.4978484683566623);63.6237373352;0.840492288648;;;;;;;;;;;;;;0;0;0;0;0;0;0;0;0;();(-2000.0, -2000.0);
12:09:41:828;12:09:41:735;1448407540.31;(0.49187002182006834, 0.4978484683566623);63.6237373352;0.840492288648;;;;;;;;;;;;;;0;0;0;0;0;0;0;0;0;();(-2000.0, -2000.0);
12:09:41:862;12:09:41:850;1448407540.41;(0.4757274627685547, 0.3874078538682726);62.6648406982;0.982470871058;;;;;;;;;;;;;;0;0;0;0;0;0;0;0;0;();(-2000.0, -2000.0);
12:09:41:880;12:09:41:850;1448407540.41;(0.4757274627685547, 0.3874078538682726);62.6648406982;0.982470871058;;;;;;;;;;;;;;0;0;0;0;0;0;0;0;0;();(-2000.0, -2000.0);
12:09:41:896;12:09:41:850;1448407540.41;(0.4757274627685547, 0.3874078538682726);62.6648406982;0.982470871058;;;;;;;;;;;;;;0;0;0;0;0;0;0;0;0;();(-2000.0, -2000.0);
12:09:41:913;12:09:41:907;1448407540.46;(0.4759346008300781, 0.34508984883626304);62.143863678;0.921582291611;;;;;;;;;;;;;;0;0;0;0;0;0;0;0;0;();(-2000.0, -2000.0);
12:09:41:930;12:09:41:907;1448407540.46;(0.4759346008300781, 0.34508984883626304);62.143863678;0.921582291611;;;;;;;;;;;;;;0;0;0;0;0;0;0;0;0;();(-2000.0, -2000.0);
12:09:41:963;12:09:41:907;1448407540.46;(0.4759346008300781, 0.34508984883626304);62.143863678;0.921582291611;;;;;;;;;;;;;;0;0;0;0;0;0;0;0;0;();(-2000.0, -2000.0);
12:09:41:980;12:09:41:972;1448407540.52;(0.4776583194732666, 0.34336132473415804);62.3384132385;0.987864041897;;;;;;;;;;;;;;0;0;0;0;0;0;0;0;0;();(-2000.0, -2000.0);
12:09:41:996;12:09:41:972;1448407540.52;(0.4776583194732666, 0.34336132473415804);62.3384132385;0.987864041897;;;;;;;;;;;;;;0;0;0;0;0;0;0;0;0;();(-2000.0, -2000.0);
12:09:42:013;12:09:41:972;1448407540.52;(0.4776583194732666, 0.34336132473415804);62.3384132385;0.987864041897;;;;;;;;;;;;;;0;0;0;0;0;0;0;0;0;();(-2000.0, -2000.0);
12:09:42:030;12:09:42:023;1448407540.59;(0.4654669761657715, 0.417881351047092);62.4407119751;1.0;;;;;;;;;;;;;;0;0;0;0;0;0;0;0;0;();(-2000.0, -2000.0);
12:09:42:063;12:09:42:023;1448407540.59;(0.4654669761657715, 0.417881351047092);62.4407119751;1.0;;;;;;;;;;;;;;0;0;0;0;0;0;0;0;0;();(-2000.0, -2000.0);
12:09:42:081;12:09:42:023;1448407540.59;(0.4654669761657715, 0.417881351047092);62.4407119751;1.0;;;;;;;;;;;;;;0;0;0;0;0;0;0;0;0;();(-2000.0, -2000.0);
12:09:42:097;12:09:42:090;1448407540.66;(0.4540405750274658, 0.3992786407470703);61.8893318176;1.0;;;;;;;;;;;;;;0;0;0;0;0;0;0;0;0;();(-2000.0, -2000.0);
12:09:42:113;12:09:42:090;1448407540.66;(0.4540405750274658, 0.3992786407470703);61.8893318176;1.0;;;;;;;;;;;;;;0;0;0;0;0;0;0;0;0;();(-2000.0, -2000.0);
12:09:42:130;12:09:42:090;1448407540.66;(0.4540405750274658, 0.3992786407470703);61.8893318176;1.0;;;;;;;;;;;;;;0;0;0;0;0;0;0;0;0;();(-2000.0, -2000.0);
12:09:42:163;12:09:42:141;1448407540.69;(0.4548643589019775, 0.38685523139105904);62.6504669189;1.0;;;;;;;;;;;;;;0;0;0;0;0;0;0;0;0;();(-2000.0, -2000.0);
12:09:42:179;12:09:42:141;1448407540.69;(0.4548643589019775, 0.38685523139105904);62.6504669189;1.0;;;;;;;;;;;;;;0;0;0;0;0;0;0;0;0;();(-2000.0, -2000.0);
12:09:42:196;12:09:42:190;1448407540.76;(0.4502551078796387, 0.37737100389268663);61.8042449951;1.0;;;;;;;;;;;;;;0;0;0;0;0;0;0;0;0;();(-2000.0, -2000.0);
12:09:42:212;12:09:42:190;1448407540.76;(0.4502551078796387, 0.37737100389268663);61.8042449951;1.0;;;;;;;;;;;;;;0;0;0;0;0;0;0;0;0;();(-2000.0, -2000.0);
12:09:42:228;12:09:42:190;1448407540.76;(0.4502551078796387, 0.37737100389268663);61.8042449951;1.0;;;;;;;;;;;;;;0;0;0;0;0;0;0;0;0;();(-2000.0, -2000.0);
12:09:42:262;12:09:42:238;1448407540.82;(0.45005507469177247, 0.37395718892415364);62.0637321472;1.0;;;;;;;;;;;;;;0;0;0;0;0;0;0;0;0;();(-2000.0, -2000.0);
12:09:42:280;12:09:42:238;1448407540.82;(0.45005507469177247, 0.37395718892415364);62.0637321472;1.0;;;;;;;;;;;;;;0;0;0;0;0;0;0;0;0;();(-2000.0, -2000.0);
12:09:42:296;12:09:42:289;1448407540.86;(0.44947147369384766, 0.3758938683403863);61.9583702087;1.0;;;;;;;;;;;;;;0;0;0;0;0;0;0;0;0;();(-2000.0, -2000.0);
12:09:42:313;12:09:42:289;1448407540.86;(0.44947147369384766, 0.3758938683403863);61.9583702087;1.0;;;;;;;;;;;;;;0;0;0;0;0;0;0;0;0;();(-2000.0, -2000.0);
12:09:42:328;12:09:42:289;1448407540.86;(0.44947147369384766, 0.3758938683403863);61.9583702087;1.0;;;;;;;;;;;;;;0;0;0;0;0;0;0;0;0;();(-2000.0, -2000.0);
12:09:42:362;12:09:42:338;1448407540.92;(0.4415263652801514, 0.36261533101399734);61.464881897;1.0;;;;;;;;;;;;;;0;0;0;0;0;0;0;0;0;();(-2000.0, -2000.0);
12:09:42:378;12:09:42:338;1448407540.92;(0.4415263652801514, 0.36261533101399734);61.464881897;1.0;;;;;;;;;;;;;;0;0;0;0;0;0;0;0;0;();(-2000.0, -2000.0);
12:09:42:396;12:09:42:392;1448407540.96;(0.4416062355041504, 0.3624054802788629);61.3396224976;1.0;;;;;;;;;;;;;;0;0;0;0;0;0;0;0;0;();(-2000.0, -2000.0);
12:09:42:413;12:09:42:392;1448407540.96;(0.4416062355041504, 0.3624054802788629);61.3396224976;1.0;;;;;;;;;;;;;;0;0;0;0;0;0;0;0;0;();(-2000.0, -2000.0);
12:09:42:429;12:09:42:392;1448407540.96;(0.4416062355041504, 0.3624054802788629);61.3396224976;1.0;;;;;;;;;;;;;;0;0;0;0;0;0;0;0;0;();(-2000.0, -2000.0);
12:09:42:462;12:09:42:439;1448407541.02;(0.44187283515930176, 0.36227942572699656);61.247127533;1.0;;;;;;;;;;;;;;0;0;0;0;0;0;0;0;0;();(-2000.0, -2000.0);
12:09:42:480;12:09:42:439;1448407541.02;(0.44187283515930176, 0.36227942572699656);61.247127533;1.0;;;;;;;;;;;;;;0;0;0;0;0;0;0;0;0;();(-2000.0, -2000.0);
12:09:42:497;12:09:42:489;1448407541.06;(0.44188508987426756, 0.3626690334743924);61.1688079834;1.0;;;;;;;;;;;;;;0;0;0;0;0;0;0;0;0;();(-2000.0, -2000.0);
12:09:42:512;12:09:42:489;1448407541.06;(0.44188508987426756, 0.3626690334743924);61.1688079834;1.0;;;;;;;;;;;;;;0;0;0;0;0;0;0;0;0;();(-2000.0, -2000.0);
12:09:42:529;12:09:42:489;1448407541.06;(0.44188508987426756, 0.3626690334743924);61.1688079834;1.0;;;;;;;;;;;;;;0;0;0;0;0;0;0;0;0;();(-2000.0, -2000.0);
12:09:42:563;12:09:42:538;1448407541.12;(0.4433722496032715, 0.36202443440755205);61.0620689392;0.8933898581;;;;;;;;;;;;;;0;0;0;0;0;0;0;0;0;();(-2000.0, -2000.0);
12:09:42:579;12:09:42:538;1448407541.12;(0.4433722496032715, 0.36202443440755205);61.0620689392;0.8933898581;;;;;;;;;;;;;;0;0;0;0;0;0;0;0;0;();(-2000.0, -2000.0);
12:09:42:595;12:09:42:589;1448407541.16;(0.4440789222717285, 0.3614419725206163);60.2002639771;1.0;;;;;;;;;;;;;;0;0;0;0;0;0;0;0;0;();(-2000.0, -2000.0);
12:09:42:612;12:09:42:589;1448407541.16;(0.4440789222717285, 0.3614419725206163);60.2002639771;1.0;;;;;;;;;;;;;;0;0;0;0;0;0;0;0;0;();(-2000.0, -2000.0);
12:09:42:629;12:09:42:589;1448407541.16;(0.4440789222717285, 0.3614419725206163);60.2002639771;1.0;;;;;;;;;;;;;;0;0;0;0;0;0;0;0;0;();(-2000.0, -2000.0);
12:09:42:663;12:09:42:638;1448407541.22;(0.4443509101867676, 0.36139250861273875);59.7949676514;1.0;;;;;;;;;;;;;;0;0;0;0;0;0;0;0;0;();(-2000.0, -2000.0);
12:09:42:680;12:09:42:638;1448407541.22;(0.4443509101867676, 0.36139250861273875);59.7949676514;1.0;;;;;;;;;;;;;;0;0;0;0;0;0;0;0;0;();(-2000.0, -2000.0);
12:09:42:697;12:09:42:684;1448407541.26;(0.44422297477722167, 0.36162105136447487);59.7159194946;1.0;;;;;;;;;;;;;;0;0;0;0;0;0;0;0;0;();(-2000.0, -2000.0);
12:09:42:712;12:09:42:684;1448407541.26;(0.44422297477722167, 0.36162105136447487);59.7159194946;1.0;;;;;;;;;;;;;;0;0;0;0;0;0;0;0;0;();(-2000.0, -2000.0);
12:09:42:729;12:09:42:684;1448407541.26;(0.44422297477722167, 0.36162105136447487);59.7159194946;1.0;;;;;;;;;;;;;;0;0;0;0;0;0;0;0;0;();(-2000.0, -2000.0);
12:09:42:746;12:09:42:738;1448407541.32;(0.4442838191986084, 0.3621742248535156);59.5878601074;1.0;;;;;;;;;;;;;;0;0;0;0;0;0;0;0;0;();(-2000.0, -2000.0);
12:09:42:779;12:09:42:738;1448407541.32;(0.4442838191986084, 0.3621742248535156);59.5878601074;1.0;;;;;;;;;;;;;;0;0;0;0;0;0;0;0;0;();(-2000.0, -2000.0);
12:09:42:796;12:09:42:785;1448407541.36;(0.4441691398620605, 0.36217278374565975);59.6733627319;1.0;;;;;;;;;;;;;;0;0;0;0;0;0;0;0;0;();(-2000.0, -2000.0);
12:09:42:812;12:09:42:785;1448407541.36;(0.4441691398620605, 0.36217278374565975);59.6733627319;1.0;;;;;;;;;;;;;;0;0;0;0;0;0;0;0;0;();(-2000.0, -2000.0);
12:09:42:829;12:09:42:785;1448407541.36;(0.4441691398620605, 0.36217278374565975);59.6733627319;1.0;;;;;;;;;;;;;;0;0;0;0;0;0;0;0;0;();(-2000.0, -2000.0);
12:09:42:862;12:09:42:838;1448407541.42;(0.4440725803375244, 0.36240645514594183);59.7043075562;1.0;;;;;;;;;;;;;;0;0;0;0;0;0;0;0;0;();(-2000.0, -2000.0);
12:09:42:879;12:09:42:838;1448407541.42;(0.4440725803375244, 0.36240645514594183);59.7043075562;1.0;;;;;;;;;;;;;;0;0;0;0;0;0;0;0;0;();(-2000.0, -2000.0);
12:09:42:895;12:09:42:884;1448407541.46;(0.44379987716674807, 0.3628847757975261);59.2711410522;1.0;;;;;;;;;;;;;;0;0;0;0;0;0;0;0;0;();(-2000.0, -2000.0);
12:09:42:912;12:09:42:884;1448407541.46;(0.44379987716674807, 0.3628847757975261);59.2711410522;1.0;;;;;;;;;;;;;;0;0;0;0;0;0;0;0;0;();(-2000.0, -2000.0);
12:09:42:929;12:09:42:884;1448407541.46;(0.44379987716674807, 0.3628847757975261);59.2711410522;1.0;;;;;;;;;;;;;;0;0;0;0;0;0;0;0;0;();(-2000.0, -2000.0);
12:09:42:946;12:09:42:937;1448407541.52;(0.4436279296875, 0.3633791181776259);59.4032592773;1.0;;;;;;;;;;;;;;0;0;0;0;0;0;0;0;0;();(-2000.0, -2000.0);
12:09:42:981;12:09:42:937;1448407541.52;(0.4436279296875, 0.3633791181776259);59.4032592773;1.0;;;;;;;;;;;;;;0;0;0;0;0;0;0;0;0;();(-2000.0, -2000.0);
12:09:42:997;12:09:42:985;1448407541.56;(0.44359464645385743, 0.3632468753390842);59.5434494019;1.0;;;;;;;;;;;;;;0;0;0;0;0;0;0;0;0;();(-2000.0, -2000.0);
12:09:43:014;12:09:42:985;1448407541.56;(0.44359464645385743, 0.3632468753390842);59.5434494019;1.0;;;;;;;;;;;;;;0;0;0;0;0;0;0;0;0;();(-2000.0, -2000.0);
12:09:43:030;12:09:42:985;1448407541.56;(0.44359464645385743, 0.3632468753390842);59.5434494019;1.0;;;;;;;;;;;;;;0;0;0;0;0;0;0;0;0;();(-2000.0, -2000.0);
12:09:43:063;12:09:43:038;1448407541.62;(0.4433720111846924, 0.36288740370008676);59.5827941895;1.0;;;;;;;;;;;;;;0;0;0;0;0;0;0;0;0;();(-2000.0, -2000.0);
12:09:43:079;12:09:43:038;1448407541.62;(0.4433720111846924, 0.36288740370008676);59.5827941895;1.0;;;;;;;;;;;;;;0;0;0;0;0;0;0;0;0;();(-2000.0, -2000.0);
12:09:43:096;12:09:43:085;1448407541.66;(0.44324889183044436, 0.3630324045817057);59.580783844;1.0;;;;;;;;;;;;;;0;0;0;0;0;0;0;0;0;();(-2000.0, -2000.0);
12:09:43:115;12:09:43:085;1448407541.66;(0.44324889183044436, 0.3630324045817057);59.580783844;1.0;;;;;;;;;;;;;;0;0;0;0;0;0;0;0;0;();(-2000.0, -2000.0);
12:09:43:131;12:09:43:085;1448407541.66;(0.44324889183044436, 0.3630324045817057);59.580783844;1.0;;;;;;;;;;;;;;0;0;0;0;0;0;0;0;0;();(-2000.0, -2000.0);
12:09:43:147;12:09:43:136;1448407541.72;(0.4431124210357666, 0.36264796786838105);59.6008033752;1.0;;;;;;;;;;;;;;0;0;0;0;0;0;0;0;0;();(-2000.0, -2000.0);
12:09:43:181;12:09:43:136;1448407541.72;(0.4431124210357666, 0.36264796786838105);59.6008033752;1.0;;;;;;;;;;;;;;0;0;0;0;0;0;0;0;0;();(-2000.0, -2000.0);
12:09:43:196;12:09:43:185;1448407541.76;(0.44262127876281737, 0.36252589755588105);59.5354766846;1.0;;;;;;;;;;;;;;0;0;0;0;0;0;0;0;0;();(-2000.0, -2000.0);
12:09:43:213;12:09:43:185;1448407541.76;(0.44262127876281737, 0.36252589755588105);59.5354766846;1.0;;;;;;;;;;;;;;0;0;0;0;0;0;0;0;0;();(-2000.0, -2000.0);
12:09:43:231;12:09:43:185;1448407541.76;(0.44262127876281737, 0.36252589755588105);59.5354766846;1.0;;;;;;;;;;;;;;0;0;0;0;0;0;0;0;0;();(-2000.0, -2000.0);
12:09:43:264;12:09:43:234;1448407541.79;(0.44249391555786133, 0.3620584699842665);59.698841095;1.0;;;;;;;;;;;;;;0;0;0;0;0;0;0;0;0;();(-2000.0, -2000.0);
12:09:43:280;12:09:43:234;1448407541.79;(0.44249391555786133, 0.3620584699842665);59.698841095;1.0;;;;;;;;;;;;;;0;0;0;0;0;0;0;0;0;();(-2000.0, -2000.0);
12:09:43:296;12:09:43:286;1448407541.86;(0.4421727180480957, 0.36092389424641924);59.8370094299;1.0;;;;;;;;;;;;;;0;0;0;0;0;0;0;0;0;();(-2000.0, -2000.0);
12:09:43:314;12:09:43:286;1448407541.86;(0.4421727180480957, 0.36092389424641924);59.8370094299;1.0;;;;;;;;;;;;;;0;0;0;0;0;0;0;0;0;();(-2000.0, -2000.0);
12:09:43:331;12:09:43:286;1448407541.86;(0.4421727180480957, 0.36092389424641924);59.8370094299;1.0;;;;;;;;;;;;;;0;0;0;0;0;0;0;0;0;();(-2000.0, -2000.0);
12:09:43:346;12:09:43:336;1448407541.92;(0.4402779102325439, 0.359213383992513);59.9311218262;1.0;;;;;;;;;;;;;;0;0;0;0;0;0;0;0;0;();(-2000.0, -2000.0);
12:09:43:380;12:09:43:336;1448407541.92;(0.4402779102325439, 0.359213383992513);59.9311218262;1.0;;;;;;;;;;;;;;0;0;0;0;0;0;0;0;0;();(-2000.0, -2000.0);
12:09:43:397;12:09:43:385;1448407541.96;(0.4395308017730713, 0.35804027981228304);59.9320220947;1.0;;;;;;;;;;;;;;0;0;0;0;0;0;0;0;0;();(-2000.0, -2000.0);
12:09:43:413;12:09:43:385;1448407541.96;(0.4395308017730713, 0.35804027981228304);59.9320220947;1.0;;;;;;;;;;;;;;0;0;0;0;0;0;0;0;0;();(-2000.0, -2000.0);
12:09:43:431;12:09:43:385;1448407541.96;(0.4395308017730713, 0.35804027981228304);59.9320220947;1.0;;;;;;;;;;;;;;0;0;0;0;0;0;0;0;0;();(-2000.0, -2000.0);
12:09:43:447;12:09:43:385;1448407541.96;(0.4395308017730713, 0.35804027981228304);59.9320220947;1.0;;;;;;;;;;;;;;0;0;0;0;0;0;0;0;0;();(-2000.0, -2000.0);
12:09:43:481;12:09:43:449;1448407542.02;(0.43864855766296384, 0.3553575727674696);60.0138092041;1.0;;;;;;;;;;;;;;0;0;0;0;0;0;0;0;0;();(-2000.0, -2000.0);
12:09:43:497;12:09:43:485;1448407542.06;(0.4382027149200439, 0.3539411332872179);60.1197090149;1.0;;;;;;;;;;;;;;0;0;0;0;0;0;0;0;0;();(-2000.0, -2000.0);
12:09:43:514;12:09:43:485;1448407542.06;(0.4382027149200439, 0.3539411332872179);60.1197090149;1.0;;;;;;;;;;;;;;0;0;0;0;0;0;0;0;0;();(-2000.0, -2000.0);
12:09:43:530;12:09:43:485;1448407542.06;(0.4382027149200439, 0.3539411332872179);60.1197090149;1.0;;;;;;;;;;;;;;0;0;0;0;0;0;0;0;0;();(-2000.0, -2000.0);
12:09:43:547;12:09:43:536;1448407542.12;(0.43791918754577636, 0.3519397311740451);60.0551795959;1.0;;;;;;;;;;;;;;0;0;0;0;0;0;0;0;0;();(-2000.0, -2000.0);
12:09:43:580;12:09:43:536;1448407542.12;(0.43791918754577636, 0.3519397311740451);60.0551795959;1.0;;;;;;;;;;;;;;0;0;0;0;0;0;0;0;0;();(-2000.0, -2000.0);
12:09:43:598;12:09:43:580;1448407542.16;(0.437653923034668, 0.35130242241753473);60.6530647278;1.0;;;;;;;;;;;;;;0;0;0;0;0;0;0;0;0;();(-2000.0, -2000.0);
12:09:43:614;12:09:43:580;1448407542.16;(0.437653923034668, 0.35130242241753473);60.6530647278;1.0;;;;;;;;;;;;;;0;0;0;0;0;0;0;0;0;();(-2000.0, -2000.0);
12:09:43:629;12:09:43:580;1448407542.16;(0.437653923034668, 0.35130242241753473);60.6530647278;1.0;;;;;;;;;;;;;;0;0;0;0;0;0;0;0;0;();(-2000.0, -2000.0);
12:09:43:648;12:09:43:634;1448407542.22;(0.43703231811523435, 0.34922442966037326);60.5977363586;1.0;;;;;;;;;;;;;;0;0;0;0;0;0;0;0;0;();(-2000.0, -2000.0);
12:09:43:681;12:09:43:634;1448407542.22;(0.43703231811523435, 0.34922442966037326);60.5977363586;1.0;;;;;;;;;;;;;;0;0;0;0;0;0;0;0;0;();(-2000.0, -2000.0);
12:09:43:698;12:09:43:681;1448407542.26;(0.4374457836151123, 0.3487392001681857);60.8879241943;1.0;;;;;;;;;;;;;;0;0;0;0;0;0;0;0;0;();(-2000.0, -2000.0);
12:09:43:713;12:09:43:681;1448407542.26;(0.4374457836151123, 0.3487392001681857);60.8879241943;1.0;;;;;;;;;;;;;;0;0;0;0;0;0;0;0;0;();(-2000.0, -2000.0);
12:09:43:730;12:09:43:681;1448407542.26;(0.4374457836151123, 0.3487392001681857);60.8879241943;1.0;;;;;;;;;;;;;;0;0;0;0;0;0;0;0;0;();(-2000.0, -2000.0);
12:09:43:748;12:09:43:733;1448407542.29;(0.43749003410339354, 0.34762941996256513);60.7375297546;1.0;;;;;;;;;;;;;;0;0;0;0;0;0;0;0;0;();(-2000.0, -2000.0);
12:09:43:781;12:09:43:733;1448407542.29;(0.43749003410339354, 0.34762941996256513);60.7375297546;1.0;;;;;;;;;;;;;;0;0;0;0;0;0;0;0;0;();(-2000.0, -2000.0);
12:09:43:798;12:09:43:786;1448407542.36;(0.43973121643066404, 0.3449729919433594);60.7642173767;1.0;;;;;;;;;;;;;;0;0;0;0;0;0;0;0;0;();(-2000.0, -2000.0);
12:09:43:814;12:09:43:786;1448407542.36;(0.43973121643066404, 0.3449729919433594);60.7642173767;1.0;;;;;;;;;;;;;;0;0;0;0;0;0;0;0;0;();(-2000.0, -2000.0);
12:09:43:830;12:09:43:786;1448407542.36;(0.43973121643066404, 0.3449729919433594);60.7642173767;1.0;;;;;;;;;;;;;;0;0;0;0;0;0;0;0;0;();(-2000.0, -2000.0);
12:09:43:847;12:09:43:843;1448407542.42;(0.43895602226257324, 0.34298812018500435);61.0462532043;1.0;;;;;;;;;;;;;;0;0;0;0;0;0;0;0;0;();(-2000.0, -2000.0);
12:09:43:881;12:09:43:843;1448407542.42;(0.43895602226257324, 0.34298812018500435);61.0462532043;1.0;;;;;;;;;;;;;;0;0;0;0;0;0;0;0;0;();(-2000.0, -2000.0);
12:09:43:898;12:09:43:843;1448407542.42;(0.43895602226257324, 0.34298812018500435);61.0462532043;1.0;;;;;;;;;;;;;;0;0;0;0;0;0;0;0;0;();(-2000.0, -2000.0);
12:09:43:914;12:09:43:897;1448407542.46;(0.4384622097015381, 0.3418903350830078);61.1333351135;1.0;;;;;;;;;;;;;;0;0;0;0;0;0;0;0;0;();(-2000.0, -2000.0);
12:09:43:931;12:09:43:897;1448407542.46;(0.4384622097015381, 0.3418903350830078);61.1333351135;1.0;;;;;;;;;;;;;;0;0;0;0;0;0;0;0;0;();(-2000.0, -2000.0);
12:09:43:947;12:09:43:897;1448407542.46;(0.4384622097015381, 0.3418903350830078);61.1333351135;1.0;;;;;;;;;;;;;;0;0;0;0;0;0;0;0;0;();(-2000.0, -2000.0);
12:09:43:981;12:09:43:958;1448407542.52;(0.4374091625213623, 0.3388654920789931);61.4620399475;1.0;;;;;;;;;;;;;;0;0;0;0;0;0;0;0;0;();(-2000.0, -2000.0);
12:09:43:998;12:09:43:958;1448407542.52;(0.4374091625213623, 0.3388654920789931);61.4620399475;1.0;;;;;;;;;;;;;;0;0;0;0;0;0;0;0;0;();(-2000.0, -2000.0);
12:09:44:014;12:09:43:958;1448407542.52;(0.4374091625213623, 0.3388654920789931);61.4620399475;1.0;;;;;;;;;;;;;;0;0;0;0;0;0;0;0;0;();(-2000.0, -2000.0);
12:09:44:030;12:09:44:022;1448407542.59;(0.4372690200805664, 0.3365062713623047);61.6183586121;1.0;;;;;;;;;;;;;;0;0;0;0;0;0;0;0;0;();(-2000.0, -2000.0);
12:09:44:048;12:09:44:022;1448407542.59;(0.4372690200805664, 0.3365062713623047);61.6183586121;1.0;;;;;;;;;;;;;;0;0;0;0;0;0;0;0;0;();(-2000.0, -2000.0);
12:09:44:081;12:09:44:022;1448407542.59;(0.4372690200805664, 0.3365062713623047);61.6183586121;1.0;;;;;;;;;;;;;;0;0;0;0;0;0;0;0;0;();(-2000.0, -2000.0);
12:09:44:097;12:09:44:091;1448407542.66;(0.43723316192626954, 0.33461295233832467);61.7423591614;1.0;;;;;;;;;;;;;;0;0;0;0;0;0;0;0;0;();(-2000.0, -2000.0);
12:09:44:114;12:09:44:091;1448407542.66;(0.43723316192626954, 0.33461295233832467);61.7423591614;1.0;;;;;;;;;;;;;;0;0;0;0;0;0;0;0;0;();(-2000.0, -2000.0);
12:09:44:131;12:09:44:091;1448407542.66;(0.43723316192626954, 0.33461295233832467);61.7423591614;1.0;;;;;;;;;;;;;;0;0;0;0;0;0;0;0;0;();(-2000.0, -2000.0);
12:09:44:147;12:09:44:091;1448407542.66;(0.43723316192626954, 0.33461295233832467);61.7423591614;1.0;;;;;;;;;;;;;;0;0;0;0;0;0;0;0;0;();(-2000.0, -2000.0);
12:09:44:181;12:09:44:159;1448407542.72;(0.43565983772277833, 0.32781897650824654);61.1571846008;0.816067080903;;;;;;;;;;;;;;0;0;0;0;0;0;0;0;0;();(-2000.0, -2000.0);
12:09:44:198;12:09:44:159;1448407542.72;(0.43565983772277833, 0.32781897650824654);61.1571846008;0.816067080903;;;;;;;;;;;;;;0;0;0;0;0;0;0;0;0;();(-2000.0, -2000.0);
12:09:44:214;12:09:44:159;1448407542.72;(0.43565983772277833, 0.32781897650824654);61.1571846008;0.816067080903;;;;;;;;;;;;;;0;0;0;0;0;0;0;0;0;();(-2000.0, -2000.0);
12:09:44:230;12:09:44:223;1448407542.79;(0, 0);0;0;;;;;;;;;;;;;;0;0;0;0;0;0;0;0;0;();(-2000.0, -2000.0);
12:09:44:247;12:09:44:223;1448407542.79;(0, 0);0;0;;;;;;;;;;;;;;0;0;0;0;0;0;0;0;0;();(-2000.0, -2000.0);
12:09:44:282;12:09:44:223;1448407542.79;(0, 0);0;0;;;;;;;;;;;;;;0;0;0;0;0;0;0;0;0;();(-2000.0, -2000.0);
12:09:44:299;12:09:44:290;1448407542.86;(0.4530802249908447, 0.327174801296658);46.4089202881;0.728657499087;;;;;;;;;;;;;;0;0;0;0;0;0;0;0;0;();(-2000.0, -2000.0);
12:09:44:315;12:09:44:290;1448407542.86;(0.4530802249908447, 0.327174801296658);46.4089202881;0.728657499087;;;;;;;;;;;;;;0;0;0;0;0;0;0;0;0;();(-2000.0, -2000.0);
12:09:44:331;12:09:44:290;1448407542.86;(0.4530802249908447, 0.327174801296658);46.4089202881;0.728657499087;;;;;;;;;;;;;;0;0;0;0;0;0;0;0;0;();(-2000.0, -2000.0);
12:09:44:349;12:09:44:290;1448407542.86;(0.4530802249908447, 0.327174801296658);46.4089202881;0.728657499087;;;;;;;;;;;;;;0;0;0;0;0;0;0;0;0;();(-2000.0, -2000.0);
12:09:44:382;12:09:44:356;1448407542.92;(0.44195027351379396, 0.33533075120713973);61.1812515259;0.680721133336;;;;;;;;;;;;;;0;0;0;0;0;0;0;0;0;();(-2000.0, -2000.0);
12:09:44:397;12:09:44:356;1448407542.92;(0.44195027351379396, 0.33533075120713973);61.1812515259;0.680721133336;;;;;;;;;;;;;;0;0;0;0;0;0;0;0;0;();(-2000.0, -2000.0);
12:09:44:413;12:09:44:356;1448407542.92;(0.44195027351379396, 0.33533075120713973);61.1812515259;0.680721133336;;;;;;;;;;;;;;0;0;0;0;0;0;0;0;0;();(-2000.0, -2000.0);
12:09:44:431;12:09:44:422;1448407542.99;(0.4382020950317383, 0.33924725850423176);61.8694038391;0.932260341106;;;;;;;;;;;;;;0;0;0;0;0;0;0;0;0;();(-2000.0, -2000.0);
12:09:44:447;12:09:44:422;1448407542.99;(0.4382020950317383, 0.33924725850423176);61.8694038391;0.932260341106;;;;;;;;;;;;;;0;0;0;0;0;0;0;0;0;();(-2000.0, -2000.0);
12:09:44:481;12:09:44:422;1448407542.99;(0.4382020950317383, 0.33924725850423176);61.8694038391;0.932260341106;;;;;;;;;;;;;;0;0;0;0;0;0;0;0;0;();(-2000.0, -2000.0);
12:09:44:497;12:09:44:490;1448407543.06;(0.43553981781005857, 0.33717282613118493);61.9503479004;0.904335701571;;;;;;;;;;;;;;0;0;0;0;0;0;0;0;0;();(-2000.0, -2000.0);
12:09:44:514;12:09:44:490;1448407543.06;(0.43553981781005857, 0.33717282613118493);61.9503479004;0.904335701571;;;;;;;;;;;;;;0;0;0;0;0;0;0;0;0;();(-2000.0, -2000.0);
12:09:44:531;12:09:44:490;1448407543.06;(0.43553981781005857, 0.33717282613118493);61.9503479004;0.904335701571;;;;;;;;;;;;;;0;0;0;0;0;0;0;0;0;();(-2000.0, -2000.0);
12:09:44:547;12:09:44:490;1448407543.06;(0.43553981781005857, 0.33717282613118493);61.9503479004;0.904335701571;;;;;;;;;;;;;;0;0;0;0;0;0;0;0;0;();(-2000.0, -2000.0);
12:09:44:580;12:09:44:554;1448407543.12;(0.4329338788986206, 0.33261659410264754);61.9094581604;1.0;;;;;;;;;;;;;;0;0;0;0;0;0;0;0;0;();(-2000.0, -2000.0);
12:09:44:598;12:09:44:554;1448407543.12;(0.4329338788986206, 0.33261659410264754);61.9094581604;1.0;;;;;;;;;;;;;;0;0;0;0;0;0;0;0;0;();(-2000.0, -2000.0);
12:09:44:614;12:09:44:554;1448407543.12;(0.4329338788986206, 0.33261659410264754);61.9094581604;1.0;;;;;;;;;;;;;;0;0;0;0;0;0;0;0;0;();(-2000.0, -2000.0);
12:09:44:631;12:09:44:623;1448407543.19;(0.4289583921432495, 0.32550977071126297);62.2417297363;0.951758978952;;;;;;;;;;;;;;0;0;0;0;0;0;0;0;0;();(-2000.0, -2000.0);
12:09:44:647;12:09:44:623;1448407543.19;(0.4289583921432495, 0.32550977071126297);62.2417297363;0.951758978952;;;;;;;;;;;;;;0;0;0;0;0;0;0;0;0;();(-2000.0, -2000.0);
12:09:44:681;12:09:44:623;1448407543.19;(0.4289583921432495, 0.32550977071126297);62.2417297363;0.951758978952;;;;;;;;;;;;;;0;0;0;0;0;0;0;0;0;();(-2000.0, -2000.0);
12:09:44:698;12:09:44:687;1448407543.26;(0.4325548648834229, 0.3495521545410156);60.9220046997;0.659123879605;;;;;;;;;;;;;;0;0;0;0;0;0;0;0;0;();(-2000.0, -2000.0);
12:09:44:714;12:09:44:687;1448407543.26;(0.4325548648834229, 0.3495521545410156);60.9220046997;0.659123879605;;;;;;;;;;;;;;0;0;0;0;0;0;0;0;0;();(-2000.0, -2000.0);
12:09:44:731;12:09:44:687;1448407543.26;(0.4325548648834229, 0.3495521545410156);60.9220046997;0.659123879605;;;;;;;;;;;;;;0;0;0;0;0;0;0;0;0;();(-2000.0, -2000.0);
12:09:44:747;12:09:44:687;1448407543.26;(0.4325548648834229, 0.3495521545410156);60.9220046997;0.659123879605;;;;;;;;;;;;;;0;0;0;0;0;0;0;0;0;();(-2000.0, -2000.0);
12:09:44:782;12:09:44:754;1448407543.32;(0, 0);0;0;;;;;;;;;;;;;;0;0;0;0;0;0;0;0;0;();(-2000.0, -2000.0);
12:09:44:797;12:09:44:754;1448407543.32;(0, 0);0;0;;;;;;;;;;;;;;0;0;0;0;0;0;0;0;0;();(-2000.0, -2000.0);
12:09:44:814;12:09:44:754;1448407543.32;(0, 0);0;0;;;;;;;;;;;;;;0;0;0;0;0;0;0;0;0;();(-2000.0, -2000.0);
12:09:44:831;12:09:44:818;1448407543.39;(0, 0);0;0;;;;;;;;;;;;;;0;0;0;0;0;0;0;0;0;();(-2000.0, -2000.0);
12:09:44:847;12:09:44:818;1448407543.39;(0, 0);0;0;;;;;;;;;;;;;;0;0;0;0;0;0;0;0;0;();(-2000.0, -2000.0);
12:09:44:881;12:09:44:818;1448407543.39;(0, 0);0;0;;;;;;;;;;;;;;0;0;0;0;0;0;0;0;0;();(-2000.0, -2000.0);
12:09:44:897;12:09:44:818;1448407543.39;(0, 0);0;0;;;;;;;;;;;;;;0;0;0;0;0;0;0;0;0;();(-2000.0, -2000.0);
12:09:44:915;12:09:44:901;1448407543.46;(0.778462266921997, 0.38099123636881516);35.0116043091;0.66142744146;;;;;;;;;;;;;;0;0;0;0;0;0;0;0;0;();(-2000.0, -2000.0);
12:09:44:931;12:09:44:901;1448407543.46;(0.778462266921997, 0.38099123636881516);35.0116043091;0.66142744146;;;;;;;;;;;;;;0;0;0;0;0;0;0;0;0;();(-2000.0, -2000.0);
12:09:44:948;12:09:44:901;1448407543.46;(0.778462266921997, 0.38099123636881516);35.0116043091;0.66142744146;;;;;;;;;;;;;;0;0;0;0;0;0;0;0;0;();(-2000.0, -2000.0);
12:09:44:982;12:09:44:953;1448407543.52;(0, 0);0;0;;;;;;;;;;;;;;0;0;0;0;0;0;0;0;0;();(-2000.0, -2000.0);
12:09:44:999;12:09:44:953;1448407543.52;(0, 0);0;0;;;;;;;;;;;;;;0;0;0;0;0;0;0;0;0;();(-2000.0, -2000.0);
12:09:45:015;12:09:44:953;1448407543.52;(0, 0);0;0;;;;;;;;;;;;;;0;0;0;0;0;0;0;0;0;();(-2000.0, -2000.0);
12:09:45:031;12:09:45:019;1448407543.59;(0, 0);0;0;;;;;;;;;;;;;;0;0;0;0;0;0;0;0;0;();(-2000.0, -2000.0);
12:09:45:048;12:09:45:019;1448407543.59;(0, 0);0;0;;;;;;;;;;;;;;0;0;0;0;0;0;0;0;0;();(-2000.0, -2000.0);
12:09:45:081;12:09:45:019;1448407543.59;(0, 0);0;0;;;;;;;;;;;;;;0;0;0;0;0;0;0;0;0;();(-2000.0, -2000.0);
12:09:45:098;12:09:45:086;1448407543.66;(0, 0);0;0;;;;;;;;;;;;;;0;0;0;0;0;0;0;0;0;();(-2000.0, -2000.0);
12:09:45:114;12:09:45:086;1448407543.66;(0, 0);0;0;;;;;;;;;;;;;;0;0;0;0;0;0;0;0;0;();(-2000.0, -2000.0);
12:09:45:132;12:09:45:086;1448407543.66;(0, 0);0;0;;;;;;;;;;;;;;0;0;0;0;0;0;0;0;0;();(-2000.0, -2000.0);
12:09:45:148;12:09:45:086;1448407543.66;(0, 0);0;0;;;;;;;;;;;;;;0;0;0;0;0;0;0;0;0;();(-2000.0, -2000.0);
12:09:45:182;12:09:45:152;1448407543.72;(0, 0);0;0;;;;;;;;;;;;;;0;0;0;0;0;0;0;0;0;();(-2000.0, -2000.0);
12:09:45:198;12:09:45:152;1448407543.72;(0, 0);0;0;;;;;;;;;;;;;;0;0;0;0;0;0;0;0;0;();(-2000.0, -2000.0);
12:09:45:215;12:09:45:152;1448407543.72;(0, 0);0;0;;;;;;;;;;;;;;0;0;0;0;0;0;0;0;0;();(-2000.0, -2000.0);
12:09:45:231;12:09:45:219;1448407543.79;(0.45157499313354493, 0.41500566270616324);62.4607620239;0.671285520188;;;;;;;;;;;;;;0;0;0;0;0;0;0;0;0;();(-2000.0, -2000.0);
12:09:45:248;12:09:45:219;1448407543.79;(0.45157499313354493, 0.41500566270616324);62.4607620239;0.671285520188;;;;;;;;;;;;;;0;0;0;0;0;0;0;0;0;();(-2000.0, -2000.0);
12:09:45:282;12:09:45:219;1448407543.79;(0.45157499313354493, 0.41500566270616324);62.4607620239;0.671285520188;;;;;;;;;;;;;;0;0;0;0;0;0;0;0;0;();(-2000.0, -2000.0);
12:09:45:299;12:09:45:289;1448407543.86;(0, 0);0;0;;;;;;;;;;;;;;0;0;0;0;0;0;0;0;0;();(-2000.0, -2000.0);
12:09:45:315;12:09:45:289;1448407543.86;(0, 0);0;0;;;;;;;;;;;;;;0;0;0;0;0;0;0;0;0;();(-2000.0, -2000.0);
12:09:45:333;12:09:45:289;1448407543.86;(0, 0);0;0;;;;;;;;;;;;;;0;0;0;0;0;0;0;0;0;();(-2000.0, -2000.0);
12:09:45:348;12:09:45:289;1448407543.86;(0, 0);0;0;;;;;;;;;;;;;;0;0;0;0;0;0;0;0;0;();(-2000.0, -2000.0);
12:09:45:382;12:09:45:350;1448407543.92;(0.44559516906738283, 0.403898196750217);58.1855392456;0.650786930184;;;;;;;;;;;;;;0;0;0;0;0;0;0;0;0;();(-2000.0, -2000.0);
12:09:45:399;12:09:45:350;1448407543.92;(0.44559516906738283, 0.403898196750217);58.1855392456;0.650786930184;;;;;;;;;;;;;;0;0;0;0;0;0;0;0;0;();(-2000.0, -2000.0);
12:09:45:416;12:09:45:350;1448407543.92;(0.44559516906738283, 0.403898196750217);58.1855392456;0.650786930184;;;;;;;;;;;;;;0;0;0;0;0;0;0;0;0;();(-2000.0, -2000.0);
12:09:45:433;12:09:45:426;1448407543.99;(0.7568446636199951, 0.4069895426432292);34.8649673462;0.613030117786;;;;;;;;;;;;;;0;0;0;0;0;0;0;0;0;();(-2000.0, -2000.0);
12:09:45:448;12:09:45:426;1448407543.99;(0.7568446636199951, 0.4069895426432292);34.8649673462;0.613030117786;;;;;;;;;;;;;;0;0;0;0;0;0;0;0;0;();(-2000.0, -2000.0);
12:09:45:482;12:09:45:426;1448407543.99;(0.7568446636199951, 0.4069895426432292);34.8649673462;0.613030117786;;;;;;;;;;;;;;0;0;0;0;0;0;0;0;0;();(-2000.0, -2000.0);
12:09:45:498;12:09:45:486;1448407544.06;(0, 0);0;0;;;;;;;;;;;;;;0;0;0;0;0;0;0;0;0;();(-2000.0, -2000.0);
12:09:45:515;12:09:45:486;1448407544.06;(0, 0);0;0;;;;;;;;;;;;;;0;0;0;0;0;0;0;0;0;();(-2000.0, -2000.0);
12:09:45:532;12:09:45:486;1448407544.06;(0, 0);0;0;;;;;;;;;;;;;;0;0;0;0;0;0;0;0;0;();(-2000.0, -2000.0);
12:09:45:548;12:09:45:486;1448407544.06;(0, 0);0;0;;;;;;;;;;;;;;0;0;0;0;0;0;0;0;0;();(-2000.0, -2000.0);
12:09:45:581;12:09:45:552;1448407544.12;(0, 0);0;0;;;;;;;;;;;;;;0;0;0;0;0;0;0;0;0;();(-2000.0, -2000.0);
12:09:45:598;12:09:45:552;1448407544.12;(0, 0);0;0;;;;;;;;;;;;;;0;0;0;0;0;0;0;0;0;();(-2000.0, -2000.0);
12:09:45:615;12:09:45:552;1448407544.12;(0, 0);0;0;;;;;;;;;;;;;;0;0;0;0;0;0;0;0;0;();(-2000.0, -2000.0);
12:09:45:632;12:09:45:619;1448407544.19;(0.3922471523284912, 0.566006088256836);24.7571926117;0.68251745396;;;;;;;;;;;;;;0;0;0;0;0;0;0;0;0;();(-2000.0, -2000.0);
12:09:45:648;12:09:45:619;1448407544.19;(0.3922471523284912, 0.566006088256836);24.7571926117;0.68251745396;;;;;;;;;;;;;;0;0;0;0;0;0;0;0;0;();(-2000.0, -2000.0);
12:09:45:686;12:09:45:681;1448407544.22;(0.47258920669555665, 0.3957217322455512);53.4220161438;0.61675120215;;;;;;;;;;;;;;0;0;0;0;0;0;0;0;0;();(-2000.0, -2000.0);
12:09:45:700;12:09:45:684;1448407544.26;(0.4675487518310547, 0.40091302659776473);55.4485816956;0.709195090414;;;;;;;;;;;;;;0;0;0;0;0;0;0;0;0;();(-2000.0, -2000.0);
12:09:45:715;12:09:45:684;1448407544.26;(0.4675487518310547, 0.40091302659776473);55.4485816956;0.709195090414;;;;;;;;;;;;;;0;0;0;0;0;0;0;0;0;();(-2000.0, -2000.0);
12:09:45:732;12:09:45:684;1448407544.26;(0.4675487518310547, 0.40091302659776473);55.4485816956;0.709195090414;;;;;;;;;;;;;;0;0;0;0;0;0;0;0;0;();(-2000.0, -2000.0);
12:09:45:748;12:09:45:684;1448407544.26;(0.4675487518310547, 0.40091302659776473);55.4485816956;0.709195090414;;;;;;;;;;;;;;0;0;0;0;0;0;0;0;0;();(-2000.0, -2000.0);
12:09:45:781;12:09:45:750;1448407544.32;(0.3949899196624756, 0.5607888115776909);24.8917388916;0.843681846201;;;;;;;;;;;;;;0;0;0;0;0;0;0;0;0;();(-2000.0, -2000.0);
12:09:45:800;12:09:45:750;1448407544.32;(0.3949899196624756, 0.5607888115776909);24.8917388916;0.843681846201;;;;;;;;;;;;;;0;0;0;0;0;0;0;0;0;();(-2000.0, -2000.0);
12:09:45:817;12:09:45:813;1448407544.36;(0.47204298973083497, 0.39680124918619797);57.1648330688;0.621597835285;;;;;;;;;;;;;;0;0;0;0;0;0;0;0;0;();(-2000.0, -2000.0);
12:09:45:833;12:09:45:816;1448407544.39;(0.481170654296875, 0.390084711710612);54.5022926331;0.762636554772;;;;;;;;;;;;;;0;0;0;0;0;0;0;0;0;();(-2000.0, -2000.0);
12:09:45:850;12:09:45:816;1448407544.39;(0.481170654296875, 0.390084711710612);54.5022926331;0.762636554772;;;;;;;;;;;;;;0;0;0;0;0;0;0;0;0;();(-2000.0, -2000.0);
12:09:45:883;12:09:45:881;1448407544.42;(0, 0);0;0;;;;;;;;;;;;;;0;0;0;0;0;0;0;0;0;();(-2000.0, -2000.0);
12:09:45:899;12:09:45:882;1448407544.46;(0, 0);0;0;;;;;;;;;;;;;;0;0;0;0;0;0;0;0;0;();(-2000.0, -2000.0);
12:09:45:916;12:09:45:882;1448407544.46;(0, 0);0;0;;;;;;;;;;;;;;0;0;0;0;0;0;0;0;0;();(-2000.0, -2000.0);
12:09:45:932;12:09:45:882;1448407544.46;(0, 0);0;0;;;;;;;;;;;;;;0;0;0;0;0;0;0;0;0;();(-2000.0, -2000.0);
12:09:45:948;12:09:45:882;1448407544.46;(0, 0);0;0;;;;;;;;;;;;;;0;0;0;0;0;0;0;0;0;();(-2000.0, -2000.0);
12:09:45:982;12:09:45:952;1448407544.52;(0, 0);0;0;;;;;;;;;;;;;;0;0;0;0;0;0;0;0;0;();(-2000.0, -2000.0);
12:09:45:998;12:09:45:952;1448407544.52;(0, 0);0;0;;;;;;;;;;;;;;0;0;0;0;0;0;0;0;0;();(-2000.0, -2000.0);
12:09:46:016;12:09:46:014;1448407544.59;(0.4551724910736084, 0.4001002417670356);58.9614715576;0.615790829231;;;;;;;;;;;;;;0;0;0;0;0;0;0;0;0;();(-2000.0, -2000.0);
12:09:46:032;12:09:46:014;1448407544.59;(0.4551724910736084, 0.4001002417670356);58.9614715576;0.615790829231;;;;;;;;;;;;;;0;0;0;0;0;0;0;0;0;();(-2000.0, -2000.0);
12:09:46:048;12:09:46:014;1448407544.59;(0.4551724910736084, 0.4001002417670356);58.9614715576;0.615790829231;;;;;;;;;;;;;;0;0;0;0;0;0;0;0;0;();(-2000.0, -2000.0);
12:09:46:083;12:09:46:081;1448407544.66;(0, 0);0;0;;;;;;;;;;;;;;0;0;0;0;0;0;0;0;0;();(-2000.0, -2000.0);
12:09:46:099;12:09:46:081;1448407544.66;(0, 0);0;0;;;;;;;;;;;;;;0;0;0;0;0;0;0;0;0;();(-2000.0, -2000.0);
12:09:46:117;12:09:46:081;1448407544.66;(0, 0);0;0;;;;;;;;;;;;;;0;0;0;0;0;0;0;0;0;();(-2000.0, -2000.0);
12:09:46:135;12:09:46:081;1448407544.66;(0, 0);0;0;;;;;;;;;;;;;;0;0;0;0;0;0;0;0;0;();(-2000.0, -2000.0);
12:09:46:152;12:09:46:148;1448407544.72;(0.48017239570617676, 0.4011255476209853);59.1935310364;0.844585374887;;;;;;;;;;;;;;0;0;0;0;0;0;0;0;0;();(-2000.0, -2000.0);
12:09:46:184;12:09:46:148;1448407544.72;(0.48017239570617676, 0.4011255476209853);59.1935310364;0.844585374887;;;;;;;;;;;;;;0;0;0;0;0;0;0;0;0;();(-2000.0, -2000.0);
12:09:46:200;12:09:46:148;1448407544.72;(0.48017239570617676, 0.4011255476209853);59.1935310364;0.844585374887;;;;;;;;;;;;;;0;0;0;0;0;0;0;0;0;();(-2000.0, -2000.0);
12:09:46:217;12:09:46:213;1448407544.76;(0.4773848533630371, 0.40162124633789065);60.546962738;0.795054431316;;;;;;;;;;;;;;0;0;0;0;0;0;0;0;0;();(-2000.0, -2000.0);
12:09:46:233;12:09:46:213;1448407544.76;(0.4773848533630371, 0.40162124633789065);60.546962738;0.795054431316;;;;;;;;;;;;;;0;0;0;0;0;0;0;0;0;();(-2000.0, -2000.0);
12:09:46:249;12:09:46:213;1448407544.76;(0.4773848533630371, 0.40162124633789065);60.546962738;0.795054431316;;;;;;;;;;;;;;0;0;0;0;0;0;0;0;0;();(-2000.0, -2000.0);
12:09:46:285;12:09:46:284;1448407544.86;(0.4703815460205078, 0.39951553344726565);59.8148498535;0.819314133372;;;;;;;;;;;;;;0;0;0;0;0;0;0;0;0;();(-2000.0, -2000.0);
12:09:46:299;12:09:46:284;1448407544.86;(0.4703815460205078, 0.39951553344726565);59.8148498535;0.819314133372;;;;;;;;;;;;;;0;0;0;0;0;0;0;0;0;();(-2000.0, -2000.0);
12:09:46:317;12:09:46:284;1448407544.86;(0.4703815460205078, 0.39951553344726565);59.8148498535;0.819314133372;;;;;;;;;;;;;;0;0;0;0;0;0;0;0;0;();(-2000.0, -2000.0);
12:09:46:332;12:09:46:284;1448407544.86;(0.4703815460205078, 0.39951553344726565);59.8148498535;0.819314133372;;;;;;;;;;;;;;0;0;0;0;0;0;0;0;0;();(-2000.0, -2000.0);
12:09:46:349;12:09:46:347;1448407544.92;(0.4685814380645752, 0.3859183841281467);61.1114807129;0.684494974642;;;;;;;;;;;;;;0;0;0;0;0;0;0;0;0;();(-2000.0, -2000.0);
12:09:46:383;12:09:46:347;1448407544.92;(0.4685814380645752, 0.3859183841281467);61.1114807129;0.684494974642;;;;;;;;;;;;;;0;0;0;0;0;0;0;0;0;();(-2000.0, -2000.0);
12:09:46:400;12:09:46:347;1448407544.92;(0.4685814380645752, 0.3859183841281467);61.1114807129;0.684494974642;;;;;;;;;;;;;;0;0;0;0;0;0;0;0;0;();(-2000.0, -2000.0);
12:09:46:419;12:09:46:415;1448407544.99;(0.5640573978424073, 0.5246158175998263);27.3962879181;0.813403528319;;;;;;;;;;;;;;0;0;0;0;0;0;0;0;0;();(-2000.0, -2000.0);
12:09:46:433;12:09:46:415;1448407544.99;(0.5640573978424073, 0.5246158175998263);27.3962879181;0.813403528319;;;;;;;;;;;;;;0;0;0;0;0;0;0;0;0;();(-2000.0, -2000.0);
12:09:46:450;12:09:46:415;1448407544.99;(0.5640573978424073, 0.5246158175998263);27.3962879181;0.813403528319;;;;;;;;;;;;;;0;0;0;0;0;0;0;0;0;();(-2000.0, -2000.0);
12:09:46:483;12:09:46:478;1448407545.06;(0.39186370372772217, 0.5638677808973525);18.9707355499;0.855060234007;;;;;;;;;;;;;;0;0;0;0;0;0;0;0;0;();(-2000.0, -2000.0);
12:09:46:499;12:09:46:478;1448407545.06;(0.39186370372772217, 0.5638677808973525);18.9707355499;0.855060234007;;;;;;;;;;;;;;0;0;0;0;0;0;0;0;0;();(-2000.0, -2000.0);
12:09:46:515;12:09:46:478;1448407545.06;(0.39186370372772217, 0.5638677808973525);18.9707355499;0.855060234007;;;;;;;;;;;;;;0;0;0;0;0;0;0;0;0;();(-2000.0, -2000.0);
12:09:46:533;12:09:46:478;1448407545.06;(0.39186370372772217, 0.5638677808973525);18.9707355499;0.855060234007;;;;;;;;;;;;;;0;0;0;0;0;0;0;0;0;();(-2000.0, -2000.0);
12:09:46:549;12:09:46:547;1448407545.12;(0.4871059417724609, 0.3762297736273872);55.1797714233;0.795121728113;;;;;;;;;;;;;;0;0;0;0;0;0;0;0;0;();(-2000.0, -2000.0);
12:09:46:584;12:09:46:547;1448407545.12;(0.4871059417724609, 0.3762297736273872);55.1797714233;0.795121728113;;;;;;;;;;;;;;0;0;0;0;0;0;0;0;0;();(-2000.0, -2000.0);
12:09:46:600;12:09:46:547;1448407545.12;(0.4871059417724609, 0.3762297736273872);55.1797714233;0.795121728113;;;;;;;;;;;;;;0;0;0;0;0;0;0;0;0;();(-2000.0, -2000.0);
12:09:46:617;12:09:46:614;1448407545.19;(0.4781341075897217, 0.3876869201660156);60.0018463135;0.871745842303;;;;;;;;;;;;;;0;0;0;0;0;0;0;0;0;();(-2000.0, -2000.0);
12:09:46:633;12:09:46:614;1448407545.19;(0.4781341075897217, 0.3876869201660156);60.0018463135;0.871745842303;;;;;;;;;;;;;;0;0;0;0;0;0;0;0;0;();(-2000.0, -2000.0);
12:09:46:650;12:09:46:614;1448407545.19;(0.4781341075897217, 0.3876869201660156);60.0018463135;0.871745842303;;;;;;;;;;;;;;0;0;0;0;0;0;0;0;0;();(-2000.0, -2000.0);
12:09:46:683;12:09:46:678;1448407545.26;(0.49138388633728025, 0.37156350877549915);56.8389167786;0.857177161758;;;;;;;;;;;;;;0;0;0;0;0;0;0;0;0;();(-2000.0, -2000.0);
12:09:46:699;12:09:46:678;1448407545.26;(0.49138388633728025, 0.37156350877549915);56.8389167786;0.857177161758;;;;;;;;;;;;;;0;0;0;0;0;0;0;0;0;();(-2000.0, -2000.0);
12:09:46:717;12:09:46:678;1448407545.26;(0.49138388633728025, 0.37156350877549915);56.8389167786;0.857177161758;;;;;;;;;;;;;;0;0;0;0;0;0;0;0;0;();(-2000.0, -2000.0);
12:09:46:732;12:09:46:678;1448407545.26;(0.49138388633728025, 0.37156350877549915);56.8389167786;0.857177161758;;;;;;;;;;;;;;0;0;0;0;0;0;0;0;0;();(-2000.0, -2000.0);
12:09:46:750;12:09:46:746;1448407545.32;(0.48831882476806643, 0.3733603159586588);54.1133346558;0.655974606104;;;;;;;;;;;;;;0;0;0;0;0;0;0;0;0;();(-2000.0, -2000.0);
12:09:46:783;12:09:46:746;1448407545.32;(0.48831882476806643, 0.3733603159586588);54.1133346558;0.655974606104;;;;;;;;;;;;;;0;0;0;0;0;0;0;0;0;();(-2000.0, -2000.0);
12:09:46:800;12:09:46:746;1448407545.32;(0.48831882476806643, 0.3733603159586588);54.1133346558;0.655974606104;;;;;;;;;;;;;;0;0;0;0;0;0;0;0;0;();(-2000.0, -2000.0);
12:09:46:817;12:09:46:811;1448407545.39;(0.48496150970458984, 0.3779996236165365);55.8860206604;0.819323581613;;;;;;;;;;;;;;0;0;0;0;0;0;0;0;0;();(-2000.0, -2000.0);
12:09:46:834;12:09:46:811;1448407545.39;(0.48496150970458984, 0.3779996236165365);55.8860206604;0.819323581613;;;;;;;;;;;;;;0;0;0;0;0;0;0;0;0;();(-2000.0, -2000.0);
12:09:46:849;12:09:46:811;1448407545.39;(0.48496150970458984, 0.3779996236165365);55.8860206604;0.819323581613;;;;;;;;;;;;;;0;0;0;0;0;0;0;0;0;();(-2000.0, -2000.0);
12:09:46:884;12:09:46:878;1448407545.46;(0.48242893218994143, 0.382684071858724);57.8031082153;0.851261809347;;;;;;;;;;;;;;0;0;0;0;0;0;0;0;0;();(-2000.0, -2000.0);
12:09:46:899;12:09:46:878;1448407545.46;(0.48242893218994143, 0.382684071858724);57.8031082153;0.851261809347;;;;;;;;;;;;;;0;0;0;0;0;0;0;0;0;();(-2000.0, -2000.0);
12:09:46:916;12:09:46:878;1448407545.46;(0.48242893218994143, 0.382684071858724);57.8031082153;0.851261809347;;;;;;;;;;;;;;0;0;0;0;0;0;0;0;0;();(-2000.0, -2000.0);
12:09:46:933;12:09:46:878;1448407545.46;(0.48242893218994143, 0.382684071858724);57.8031082153;0.851261809347;;;;;;;;;;;;;;0;0;0;0;0;0;0;0;0;();(-2000.0, -2000.0);
12:09:46:951;12:09:46:878;1448407545.46;(0.48242893218994143, 0.382684071858724);57.8031082153;0.851261809347;;;;;;;;;;;;;;0;0;0;0;0;0;0;0;0;();(-2000.0, -2000.0);
12:09:46:967;12:09:46:959;1448407545.52;(0.48396053314208987, 0.38008477952745223);55.9779052734;0.862513847412;;;;;;;;;;;;;;0;0;0;0;0;0;0;0;0;();(-2000.0, -2000.0);
12:09:47:000;12:09:46:959;1448407545.52;(0.48396053314208987, 0.38008477952745223);55.9779052734;0.862513847412;;;;;;;;;;;;;;0;0;0;0;0;0;0;0;0;();(-2000.0, -2000.0);
12:09:47:016;12:09:47:010;1448407545.59;(0.49193291664123534, 0.3728719923231337);56.5881156921;1.0;;;;;;;;;;;;;;0;0;0;0;0;0;0;0;0;();(-2000.0, -2000.0);
12:09:47:034;12:09:47:010;1448407545.59;(0.49193291664123534, 0.3728719923231337);56.5881156921;1.0;;;;;;;;;;;;;;0;0;0;0;0;0;0;0;0;();(-2000.0, -2000.0);
12:09:47:050;12:09:47:010;1448407545.59;(0.49193291664123534, 0.3728719923231337);56.5881156921;1.0;;;;;;;;;;;;;;0;0;0;0;0;0;0;0;0;();(-2000.0, -2000.0);
12:09:47:083;12:09:47:079;1448407545.66;(0.4901789665222168, 0.37721574571397565);58.0391960144;0.89152069128;;;;;;;;;;;;;;0;0;0;0;0;0;0;0;0;();(-2000.0, -2000.0);
12:09:47:099;12:09:47:079;1448407545.66;(0.4901789665222168, 0.37721574571397565);58.0391960144;0.89152069128;;;;;;;;;;;;;;0;0;0;0;0;0;0;0;0;();(-2000.0, -2000.0);
12:09:47:118;12:09:47:079;1448407545.66;(0.4901789665222168, 0.37721574571397565);58.0391960144;0.89152069128;;;;;;;;;;;;;;0;0;0;0;0;0;0;0;0;();(-2000.0, -2000.0);
12:09:47:132;12:09:47:079;1448407545.66;(0.4901789665222168, 0.37721574571397565);58.0391960144;0.89152069128;;;;;;;;;;;;;;0;0;0;0;0;0;0;0;0;();(-2000.0, -2000.0);
12:09:47:150;12:09:47:142;1448407545.72;(0.4881861209869385, 0.3808836195203993);58.1263809204;0.855362618379;;;;;;;;;;;;;;0;0;0;0;0;0;0;0;0;();(-2000.0, -2000.0);
12:09:47:166;12:09:47:142;1448407545.72;(0.4881861209869385, 0.3808836195203993);58.1263809204;0.855362618379;;;;;;;;;;;;;;0;0;0;0;0;0;0;0;0;();(-2000.0, -2000.0);
12:09:47:200;12:09:47:142;1448407545.72;(0.4881861209869385, 0.3808836195203993);58.1263809204;0.855362618379;;;;;;;;;;;;;;0;0;0;0;0;0;0;0;0;();(-2000.0, -2000.0);
12:09:47:216;12:09:47:210;1448407545.79;(0.4861952304840088, 0.38265202840169266);58.1723937988;0.877249576629;;;;;;;;;;;;;;0;0;0;0;0;0;0;0;0;();(-2000.0, -2000.0);
12:09:47:233;12:09:47:210;1448407545.79;(0.4861952304840088, 0.38265202840169266);58.1723937988;0.877249576629;;;;;;;;;;;;;;0;0;0;0;0;0;0;0;0;();(-2000.0, -2000.0);
12:09:47:250;12:09:47:210;1448407545.79;(0.4861952304840088, 0.38265202840169266);58.1723937988;0.877249576629;;;;;;;;;;;;;;0;0;0;0;0;0;0;0;0;();(-2000.0, -2000.0);
12:09:47:267;12:09:47:210;1448407545.79;(0.4861952304840088, 0.38265202840169266);58.1723937988;0.877249576629;;;;;;;;;;;;;;0;0;0;0;0;0;0;0;0;();(-2000.0, -2000.0);
12:09:47:300;12:09:47:278;1448407545.86;(0.4846324443817139, 0.3842057545979818);58.4830360413;0.951389554664;;;;;;;;;;;;;;0;0;0;0;0;0;0;0;0;();(-2000.0, -2000.0);
12:09:47:317;12:09:47:278;1448407545.86;(0.4846324443817139, 0.3842057545979818);58.4830360413;0.951389554664;;;;;;;;;;;;;;0;0;0;0;0;0;0;0;0;();(-2000.0, -2000.0);
12:09:47:333;12:09:47:278;1448407545.86;(0.4846324443817139, 0.3842057545979818);58.4830360413;0.951389554664;;;;;;;;;;;;;;0;0;0;0;0;0;0;0;0;();(-2000.0, -2000.0);
12:09:47:350;12:09:47:341;1448407545.89;(0.484470272064209, 0.3844600253634982);58.7307815552;0.954401366413;;;;;;;;;;;;;;0;0;0;0;0;0;0;0;0;();(-2000.0, -2000.0);
12:09:47:366;12:09:47:341;1448407545.89;(0.484470272064209, 0.3844600253634982);58.7307815552;0.954401366413;;;;;;;;;;;;;;0;0;0;0;0;0;0;0;0;();(-2000.0, -2000.0);
12:09:47:400;12:09:47:341;1448407545.89;(0.484470272064209, 0.3844600253634982);58.7307815552;0.954401366413;;;;;;;;;;;;;;0;0;0;0;0;0;0;0;0;();(-2000.0, -2000.0);
12:09:47:416;12:09:47:410;1448407545.96;(0.48039813041687013, 0.3933522542317708);59.1689910889;0.775619106335;;;;;;;;;;;;;;0;0;0;0;0;0;0;0;0;();(-2000.0, -2000.0);
12:09:47:433;12:09:47:410;1448407545.96;(0.48039813041687013, 0.3933522542317708);59.1689910889;0.775619106335;;;;;;;;;;;;;;0;0;0;0;0;0;0;0;0;();(-2000.0, -2000.0);
12:09:47:449;12:09:47:410;1448407545.96;(0.48039813041687013, 0.3933522542317708);59.1689910889;0.775619106335;;;;;;;;;;;;;;0;0;0;0;0;0;0;0;0;();(-2000.0, -2000.0);
12:09:47:466;12:09:47:410;1448407545.96;(0.48039813041687013, 0.3933522542317708);59.1689910889;0.775619106335;;;;;;;;;;;;;;0;0;0;0;0;0;0;0;0;();(-2000.0, -2000.0);
12:09:47:500;12:09:47:476;1448407546.06;(0.4807590007781982, 0.39273796081542967);58.0605735779;0.871405276877;;;;;;;;;;;;;;0;0;0;0;0;0;0;0;0;();(-2000.0, -2000.0);
12:09:47:516;12:09:47:476;1448407546.06;(0.4807590007781982, 0.39273796081542967);58.0605735779;0.871405276877;;;;;;;;;;;;;;0;0;0;0;0;0;0;0;0;();(-2000.0, -2000.0);
12:09:47:533;12:09:47:476;1448407546.06;(0.4807590007781982, 0.39273796081542967);58.0605735779;0.871405276877;;;;;;;;;;;;;;0;0;0;0;0;0;0;0;0;();(-2000.0, -2000.0);
12:09:47:550;12:09:47:543;1448407546.12;(0.48102989196777346, 0.39311544630262585);58.6149559021;0.887191251721;;;;;;;;;;;;;;0;0;0;0;0;0;0;0;0;();(-2000.0, -2000.0);
12:09:47:566;12:09:47:543;1448407546.12;(0.48102989196777346, 0.39311544630262585);58.6149559021;0.887191251721;;;;;;;;;;;;;;0;0;0;0;0;0;0;0;0;();(-2000.0, -2000.0);
12:09:47:601;12:09:47:543;1448407546.12;(0.48102989196777346, 0.39311544630262585);58.6149559021;0.887191251721;;;;;;;;;;;;;;0;0;0;0;0;0;0;0;0;();(-2000.0, -2000.0);
12:09:47:617;12:09:47:610;1448407546.19;(0.4814439296722412, 0.39383956061469183);59.397228241;0.863346540654;;;;;;;;;;;;;;0;0;0;0;0;0;0;0;0;();(-2000.0, -2000.0);
12:09:47:634;12:09:47:610;1448407546.19;(0.4814439296722412, 0.39383956061469183);59.397228241;0.863346540654;;;;;;;;;;;;;;0;0;0;0;0;0;0;0;0;();(-2000.0, -2000.0);
12:09:47:652;12:09:47:610;1448407546.19;(0.4814439296722412, 0.39383956061469183);59.397228241;0.863346540654;;;;;;;;;;;;;;0;0;0;0;0;0;0;0;0;();(-2000.0, -2000.0);
12:09:47:668;12:09:47:610;1448407546.19;(0.4814439296722412, 0.39383956061469183);59.397228241;0.863346540654;;;;;;;;;;;;;;0;0;0;0;0;0;0;0;0;();(-2000.0, -2000.0);
12:09:47:701;12:09:47:676;1448407546.26;(0, 0);0;0;;;;;;;;;;;;;;0;0;0;0;0;0;0;0;0;();(-2000.0, -2000.0);
12:09:47:718;12:09:47:676;1448407546.26;(0, 0);0;0;;;;;;;;;;;;;;0;0;0;0;0;0;0;0;0;();(-2000.0, -2000.0);
12:09:47:734;12:09:47:676;1448407546.26;(0, 0);0;0;;;;;;;;;;;;;;0;0;0;0;0;0;0;0;0;();(-2000.0, -2000.0);
12:09:47:751;12:09:47:743;1448407546.32;(0.4452834606170654, 0.3878190358479817);60.0480804443;0.725947153636;;;;;;;;;;;;;;0;0;0;0;0;0;0;0;0;();(-2000.0, -2000.0);
12:09:47:768;12:09:47:743;1448407546.32;(0.4452834606170654, 0.3878190358479817);60.0480804443;0.725947153636;;;;;;;;;;;;;;0;0;0;0;0;0;0;0;0;();(-2000.0, -2000.0);
12:09:47:800;12:09:47:743;1448407546.32;(0.4452834606170654, 0.3878190358479817);60.0480804443;0.725947153636;;;;;;;;;;;;;;0;0;0;0;0;0;0;0;0;();(-2000.0, -2000.0);
12:09:47:817;12:09:47:743;1448407546.32;(0.4452834606170654, 0.3878190358479817);60.0480804443;0.725947153636;;;;;;;;;;;;;;0;0;0;0;0;0;0;0;0;();(-2000.0, -2000.0);
12:09:47:833;12:09:47:820;1448407546.39;(0.4453141212463379, 0.3999587164984809);57.9968910217;0.754387837415;;;;;;;;;;;;;;0;0;0;0;0;0;0;0;0;();(-2000.0, -2000.0);
12:09:47:850;12:09:47:820;1448407546.39;(0.4453141212463379, 0.3999587164984809);57.9968910217;0.754387837415;;;;;;;;;;;;;;0;0;0;0;0;0;0;0;0;();(-2000.0, -2000.0);
12:09:47:866;12:09:47:820;1448407546.39;(0.4453141212463379, 0.3999587164984809);57.9968910217;0.754387837415;;;;;;;;;;;;;;0;0;0;0;0;0;0;0;0;();(-2000.0, -2000.0);
12:09:47:900;12:09:47:873;1448407546.46;(0, 0);0;0;;;;;;;;;;;;;;0;0;0;0;0;0;0;0;0;();(-2000.0, -2000.0);
12:09:47:917;12:09:47:873;1448407546.46;(0, 0);0;0;;;;;;;;;;;;;;0;0;0;0;0;0;0;0;0;();(-2000.0, -2000.0);
12:09:47:934;12:09:47:873;1448407546.46;(0, 0);0;0;;;;;;;;;;;;;;0;0;0;0;0;0;0;0;0;();(-2000.0, -2000.0);
12:09:47:950;12:09:47:938;1448407546.52;(0, 0);0;0;;;;;;;;;;;;;;0;0;0;0;0;0;0;0;0;();(-2000.0, -2000.0);
12:09:47:967;12:09:47:938;1448407546.52;(0, 0);0;0;;;;;;;;;;;;;;0;0;0;0;0;0;0;0;0;();(-2000.0, -2000.0);
12:09:48:001;12:09:47:938;1448407546.52;(0, 0);0;0;;;;;;;;;;;;;;0;0;0;0;0;0;0;0;0;();(-2000.0, -2000.0);
12:09:48:017;12:09:48:006;1448407546.59;(0, 0);0;0;;;;;;;;;;;;;;0;0;0;0;0;0;0;0;0;();(-2000.0, -2000.0);
12:09:48:033;12:09:48:006;1448407546.59;(0, 0);0;0;;;;;;;;;;;;;;0;0;0;0;0;0;0;0;0;();(-2000.0, -2000.0);
12:09:48:050;12:09:48:006;1448407546.59;(0, 0);0;0;;;;;;;;;;;;;;0;0;0;0;0;0;0;0;0;();(-2000.0, -2000.0);
12:09:48:067;12:09:48:006;1448407546.59;(0, 0);0;0;;;;;;;;;;;;;;0;0;0;0;0;0;0;0;0;();(-2000.0, -2000.0);
12:09:48:100;12:09:48:075;1448407546.66;(0.39159502983093264, 0.4092798444959852);58.6760177612;0.660682148558;;;;;;;;;;;;;;0;0;0;0;0;0;0;0;0;();(-2000.0, -2000.0);
12:09:48:119;12:09:48:075;1448407546.66;(0.39159502983093264, 0.4092798444959852);58.6760177612;0.660682148558;;;;;;;;;;;;;;0;0;0;0;0;0;0;0;0;();(-2000.0, -2000.0);
12:09:48:135;12:09:48:075;1448407546.66;(0.39159502983093264, 0.4092798444959852);58.6760177612;0.660682148558;;;;;;;;;;;;;;0;0;0;0;0;0;0;0;0;();(-2000.0, -2000.0);
12:09:48:152;12:09:48:144;1448407546.72;(0, 0);0;0;;;;;;;;;;;;;;0;0;0;0;0;0;0;0;0;();(-2000.0, -2000.0);
12:09:48:167;12:09:48:144;1448407546.72;(0, 0);0;0;;;;;;;;;;;;;;0;0;0;0;0;0;0;0;0;();(-2000.0, -2000.0);
12:09:48:200;12:09:48:144;1448407546.72;(0, 0);0;0;;;;;;;;;;;;;;0;0;0;0;0;0;0;0;0;();(-2000.0, -2000.0);
12:09:48:217;12:09:48:204;1448407546.76;(0.4133067846298218, 0.4052516937255859);57.6054458618;0.649261395525;;;;;;;;;;;;;;0;0;0;0;0;0;0;0;0;();(-2000.0, -2000.0);
12:09:48:234;12:09:48:204;1448407546.76;(0.4133067846298218, 0.4052516937255859);57.6054458618;0.649261395525;;;;;;;;;;;;;;0;0;0;0;0;0;0;0;0;();(-2000.0, -2000.0);
12:09:48:251;12:09:48:204;1448407546.76;(0.4133067846298218, 0.4052516937255859);57.6054458618;0.649261395525;;;;;;;;;;;;;;0;0;0;0;0;0;0;0;0;();(-2000.0, -2000.0);
12:09:48:267;12:09:48:204;1448407546.76;(0.4133067846298218, 0.4052516937255859);57.6054458618;0.649261395525;;;;;;;;;;;;;;0;0;0;0;0;0;0;0;0;();(-2000.0, -2000.0);
12:09:48:301;12:09:48:273;1448407546.86;(0.4027303695678711, 0.398471917046441);57.4084358215;0.68878184571;;;;;;;;;;;;;;0;0;0;0;0;0;0;0;0;();(-2000.0, -2000.0);
12:09:48:318;12:09:48:273;1448407546.86;(0.4027303695678711, 0.398471917046441);57.4084358215;0.68878184571;;;;;;;;;;;;;;0;0;0;0;0;0;0;0;0;();(-2000.0, -2000.0);
12:09:48:335;12:09:48:273;1448407546.86;(0.4027303695678711, 0.398471917046441);57.4084358215;0.68878184571;;;;;;;;;;;;;;0;0;0;0;0;0;0;0;0;();(-2000.0, -2000.0);
12:09:48:350;12:09:48:343;1448407546.92;(0.4062172889709473, 0.39487198723687067);57.8079910278;0.708037022091;;;;;;;;;;;;;;0;0;0;0;0;0;0;0;0;();(-2000.0, -2000.0);
12:09:48:367;12:09:48:343;1448407546.92;(0.4062172889709473, 0.39487198723687067);57.8079910278;0.708037022091;;;;;;;;;;;;;;0;0;0;0;0;0;0;0;0;();(-2000.0, -2000.0);
12:09:48:401;12:09:48:343;1448407546.92;(0.4062172889709473, 0.39487198723687067);57.8079910278;0.708037022091;;;;;;;;;;;;;;0;0;0;0;0;0;0;0;0;();(-2000.0, -2000.0);
12:09:48:417;12:09:48:406;1448407546.99;(0.41041381359100343, 0.39408548143174915);57.6425895691;0.716766140551;;;;;;;;;;;;;;0;0;0;0;0;0;0;0;0;();(-2000.0, -2000.0);
12:09:48:434;12:09:48:406;1448407546.99;(0.41041381359100343, 0.39408548143174915);57.6425895691;0.716766140551;;;;;;;;;;;;;;0;0;0;0;0;0;0;0;0;();(-2000.0, -2000.0);
12:09:48:451;12:09:48:406;1448407546.99;(0.41041381359100343, 0.39408548143174915);57.6425895691;0.716766140551;;;;;;;;;;;;;;0;0;0;0;0;0;0;0;0;();(-2000.0, -2000.0);
12:09:48:467;12:09:48:406;1448407546.99;(0.41041381359100343, 0.39408548143174915);57.6425895691;0.716766140551;;;;;;;;;;;;;;0;0;0;0;0;0;0;0;0;();(-2000.0, -2000.0);
12:09:48:501;12:09:48:468;1448407547.02;(0.4152508735656738, 0.3810449388292101);60.1464614868;0.715795269652;;;;;;;;;;;;;;0;0;0;0;0;0;0;0;0;();(-2000.0, -2000.0);
12:09:48:517;12:09:48:468;1448407547.02;(0.4152508735656738, 0.3810449388292101);60.1464614868;0.715795269652;;;;;;;;;;;;;;0;0;0;0;0;0;0;0;0;();(-2000.0, -2000.0);
12:09:48:534;12:09:48:468;1448407547.02;(0.4152508735656738, 0.3810449388292101);60.1464614868;0.715795269652;;;;;;;;;;;;;;0;0;0;0;0;0;0;0;0;();(-2000.0, -2000.0);
12:09:48:551;12:09:48:540;1448407547.12;(0.41626098155975344, 0.3832589891221788);61.8132209778;0.723490015554;;;;;;;;;;;;;;0;0;0;0;0;0;0;0;0;();(-2000.0, -2000.0);
12:09:48:568;12:09:48:540;1448407547.12;(0.41626098155975344, 0.3832589891221788);61.8132209778;0.723490015554;;;;;;;;;;;;;;0;0;0;0;0;0;0;0;0;();(-2000.0, -2000.0);
12:09:48:601;12:09:48:540;1448407547.12;(0.41626098155975344, 0.3832589891221788);61.8132209778;0.723490015554;;;;;;;;;;;;;;0;0;0;0;0;0;0;0;0;();(-2000.0, -2000.0);
12:09:48:618;12:09:48:601;1448407547.16;(0.42011775970458987, 0.3832936180962456);59.9518051147;0.655219403092;;;;;;;;;;;;;;0;0;0;0;0;0;0;0;0;();(-2000.0, -2000.0);
12:09:48:634;12:09:48:601;1448407547.16;(0.42011775970458987, 0.3832936180962456);59.9518051147;0.655219403092;;;;;;;;;;;;;;0;0;0;0;0;0;0;0;0;();(-2000.0, -2000.0);
12:09:48:650;12:09:48:601;1448407547.16;(0.42011775970458987, 0.3832936180962456);59.9518051147;0.655219403092;;;;;;;;;;;;;;0;0;0;0;0;0;0;0;0;();(-2000.0, -2000.0);
12:09:48:667;12:09:48:601;1448407547.16;(0.42011775970458987, 0.3832936180962456);59.9518051147;0.655219403092;;;;;;;;;;;;;;0;0;0;0;0;0;0;0;0;();(-2000.0, -2000.0);
12:09:48:701;12:09:48:673;1448407547.26;(0, 0);0;0;;;;;;;;;;;;;;0;0;0;0;0;0;0;0;0;();(-2000.0, -2000.0);
12:09:48:718;12:09:48:673;1448407547.26;(0, 0);0;0;;;;;;;;;;;;;;0;0;0;0;0;0;0;0;0;();(-2000.0, -2000.0);
12:09:48:735;12:09:48:673;1448407547.26;(0, 0);0;0;;;;;;;;;;;;;;0;0;0;0;0;0;0;0;0;();(-2000.0, -2000.0);
12:09:48:753;12:09:48:743;1448407547.32;(0.09764443039894104, 0.62066224416097);31.3212909698;0.604010939752;;;;;;;;;;;;;;0;0;0;0;0;0;0;0;0;();(-2000.0, -2000.0);
12:09:48:768;12:09:48:743;1448407547.32;(0.09764443039894104, 0.62066224416097);31.3212909698;0.604010939752;;;;;;;;;;;;;;0;0;0;0;0;0;0;0;0;();(-2000.0, -2000.0);
12:09:48:802;12:09:48:801;1448407547.36;(0.3824864387512207, 0.40907202826605904);59.3232955933;0.608619203414;;;;;;;;;;;;;;0;0;0;0;0;0;0;0;0;();(-2000.0, -2000.0);
12:09:48:818;12:09:48:801;1448407547.36;(0.3824864387512207, 0.40907202826605904);59.3232955933;0.608619203414;;;;;;;;;;;;;;0;0;0;0;0;0;0;0;0;();(-2000.0, -2000.0);
12:09:48:834;12:09:48:801;1448407547.36;(0.3824864387512207, 0.40907202826605904);59.3232955933;0.608619203414;;;;;;;;;;;;;;0;0;0;0;0;0;0;0;0;();(-2000.0, -2000.0);
12:09:48:851;12:09:48:801;1448407547.36;(0.3824864387512207, 0.40907202826605904);59.3232955933;0.608619203414;;;;;;;;;;;;;;0;0;0;0;0;0;0;0;0;();(-2000.0, -2000.0);
12:09:48:867;12:09:48:801;1448407547.36;(0.3824864387512207, 0.40907202826605904);59.3232955933;0.608619203414;;;;;;;;;;;;;;0;0;0;0;0;0;0;0;0;();(-2000.0, -2000.0);
12:09:48:901;12:09:48:871;1448407547.42;(0, 0);0;0;;;;;;;;;;;;;;0;0;0;0;0;0;0;0;0;();(-2000.0, -2000.0);
12:09:48:918;12:09:48:871;1448407547.42;(0, 0);0;0;;;;;;;;;;;;;;0;0;0;0;0;0;0;0;0;();(-2000.0, -2000.0);
12:09:48:936;12:09:48:934;1448407547.49;(0, 0);0;0;;;;;;;;;;;;;;0;0;0;0;0;0;0;0;0;();(-2000.0, -2000.0);
12:09:48:951;12:09:48:934;1448407547.49;(0, 0);0;0;;;;;;;;;;;;;;0;0;0;0;0;0;0;0;0;();(-2000.0, -2000.0);
12:09:48:968;12:09:48:934;1448407547.49;(0, 0);0;0;;;;;;;;;;;;;;0;0;0;0;0;0;0;0;0;();(-2000.0, -2000.0);
12:09:49:002;12:09:48:934;1448407547.49;(0, 0);0;0;;;;;;;;;;;;;;0;0;0;0;0;0;0;0;0;();(-2000.0, -2000.0);
12:09:49:018;12:09:49:007;1448407547.59;(0, 0);0;0;;;;;;;;;;;;;;0;0;0;0;0;0;0;0;0;();(-2000.0, -2000.0);
12:09:49:034;12:09:49:007;1448407547.59;(0, 0);0;0;;;;;;;;;;;;;;0;0;0;0;0;0;0;0;0;();(-2000.0, -2000.0);
12:09:49:051;12:09:49:007;1448407547.59;(0, 0);0;0;;;;;;;;;;;;;;0;0;0;0;0;0;0;0;0;();(-2000.0, -2000.0);
12:09:49:068;12:09:49:007;1448407547.59;(0, 0);0;0;;;;;;;;;;;;;;0;0;0;0;0;0;0;0;0;();(-2000.0, -2000.0);
12:09:49:102;12:09:49:068;1448407547.62;(0.37600605487823485, 0.42165620591905384);59.2451400757;0.631794928962;;;;;;;;;;;;;;0;0;0;0;0;0;0;0;0;();(-2000.0, -2000.0);
12:09:49:120;12:09:49:068;1448407547.62;(0.37600605487823485, 0.42165620591905384);59.2451400757;0.631794928962;;;;;;;;;;;;;;0;0;0;0;0;0;0;0;0;();(-2000.0, -2000.0);
12:09:49:136;12:09:49:132;1448407547.66;(0.3771543264389038, 0.42030029296875004);58.3069267273;0.60638792137;;;;;;;;;;;;;;0;0;0;0;0;0;0;0;0;();(-2000.0, -2000.0);
12:09:49:152;12:09:49:138;1448407547.72;(0, 0);0;0;;;;;;;;;;;;;;0;0;0;0;0;0;0;0;0;();(-2000.0, -2000.0);
12:09:49:169;12:09:49:138;1448407547.72;(0, 0);0;0;;;;;;;;;;;;;;0;0;0;0;0;0;0;0;0;();(-2000.0, -2000.0);
12:09:49:205;12:09:49:201;1448407547.76;(0, 0);0;0;;;;;;;;;;;;;;0;0;0;0;0;0;0;0;0;();(-2000.0, -2000.0);
12:09:49:219;12:09:49:201;1448407547.76;(0, 0);0;0;;;;;;;;;;;;;;0;0;0;0;0;0;0;0;0;();(-2000.0, -2000.0);
12:09:49:236;12:09:49:201;1448407547.76;(0, 0);0;0;;;;;;;;;;;;;;0;0;0;0;0;0;0;0;0;();(-2000.0, -2000.0);
12:09:49:252;12:09:49:201;1448407547.76;(0, 0);0;0;;;;;;;;;;;;;;0;0;0;0;0;0;0;0;0;();(-2000.0, -2000.0);
12:09:49:268;12:09:49:266;1448407547.82;(0.7699273109436036, 0.4099530961778429);23.0200901031;0.651625135905;;;;;;;;;;;;;;0;0;0;0;0;0;0;0;0;();(-2000.0, -2000.0);
12:09:49:301;12:09:49:266;1448407547.82;(0.7699273109436036, 0.4099530961778429);23.0200901031;0.651625135905;;;;;;;;;;;;;;0;0;0;0;0;0;0;0;0;();(-2000.0, -2000.0);
12:09:49:319;12:09:49:266;1448407547.82;(0.7699273109436036, 0.4099530961778429);23.0200901031;0.651625135905;;;;;;;;;;;;;;0;0;0;0;0;0;0;0;0;();(-2000.0, -2000.0);
12:09:49:335;12:09:49:266;1448407547.82;(0.7699273109436036, 0.4099530961778429);23.0200901031;0.651625135905;;;;;;;;;;;;;;0;0;0;0;0;0;0;0;0;();(-2000.0, -2000.0);
12:09:49:353;12:09:49:342;1448407547.89;(0, 0);0;0;;;;;;;;;;;;;;0;0;0;0;0;0;0;0;0;();(-2000.0, -2000.0);
12:09:49:368;12:09:49:342;1448407547.89;(0, 0);0;0;;;;;;;;;;;;;;0;0;0;0;0;0;0;0;0;();(-2000.0, -2000.0);
12:09:49:402;12:09:49:400;1448407547.92;(0, 0);0;0;;;;;;;;;;;;;;0;0;0;0;0;0;0;0;0;();(-2000.0, -2000.0);
12:09:49:418;12:09:49:402;1448407547.96;(0.7969226837158203, 0.3659538692898221);21.2500667572;0.646410321821;;;;;;;;;;;;;;0;0;0;0;0;0;0;0;0;();(-2000.0, -2000.0);
12:09:49:435;12:09:49:402;1448407547.96;(0.7969226837158203, 0.3659538692898221);21.2500667572;0.646410321821;;;;;;;;;;;;;;0;0;0;0;0;0;0;0;0;();(-2000.0, -2000.0);
12:09:49:451;12:09:49:402;1448407547.96;(0.7969226837158203, 0.3659538692898221);21.2500667572;0.646410321821;;;;;;;;;;;;;;0;0;0;0;0;0;0;0;0;();(-2000.0, -2000.0);
12:09:49:471;12:09:49:467;1448407548.02;(0.43340139389038085, 0.3848595513237847);58.1867904663;0.83546967952;;;;;;;;;;;;;;0;0;0;0;0;0;0;0;0;();(-2000.0, -2000.0);
12:09:49:503;12:09:49:467;1448407548.02;(0.43340139389038085, 0.3848595513237847);58.1867904663;0.83546967952;;;;;;;;;;;;;;0;0;0;0;0;0;0;0;0;();(-2000.0, -2000.0);
12:09:49:520;12:09:49:467;1448407548.02;(0.43340139389038085, 0.3848595513237847);58.1867904663;0.83546967952;;;;;;;;;;;;;;0;0;0;0;0;0;0;0;0;();(-2000.0, -2000.0);
12:09:49:537;12:09:49:533;1448407548.06;(0.43423545360565186, 0.37783054775661895);60.6911468506;0.88009794343;;;;;;;;;;;;;;0;0;0;0;0;0;0;0;0;();(-2000.0, -2000.0);
12:09:49:552;12:09:49:536;1448407548.09;(0.43180596828460693, 0.38767695956759984);58.2848358154;0.788390883252;;;;;;;;;;;;;;0;0;0;0;0;0;0;0;0;();(-2000.0, -2000.0);
12:09:49:570;12:09:49:536;1448407548.09;(0.43180596828460693, 0.38767695956759984);58.2848358154;0.788390883252;;;;;;;;;;;;;;0;0;0;0;0;0;0;0;0;();(-2000.0, -2000.0);
12:09:49:604;12:09:49:599;1448407548.12;(0.4312413215637207, 0.38782759772406683);58.5017547607;0.866507012421;;;;;;;;;;;;;;0;0;0;0;0;0;0;0;0;();(-2000.0, -2000.0);
12:09:49:620;12:09:49:603;1448407548.16;(0, 0);0;0;;;;;;;;;;;;;;0;0;0;0;0;0;0;0;0;();(-2000.0, -2000.0);
12:09:49:636;12:09:49:603;1448407548.16;(0, 0);0;0;;;;;;;;;;;;;;0;0;0;0;0;0;0;0;0;();(-2000.0, -2000.0);
12:09:49:653;12:09:49:603;1448407548.16;(0, 0);0;0;;;;;;;;;;;;;;0;0;0;0;0;0;0;0;0;();(-2000.0, -2000.0);
12:09:49:671;12:09:49:668;1448407548.22;(0, 0);0;0;;;;;;;;;;;;;;0;0;0;0;0;0;0;0;0;();(-2000.0, -2000.0);
12:09:49:703;12:09:49:668;1448407548.22;(0, 0);0;0;;;;;;;;;;;;;;0;0;0;0;0;0;0;0;0;();(-2000.0, -2000.0);
12:09:49:720;12:09:49:668;1448407548.22;(0, 0);0;0;;;;;;;;;;;;;;0;0;0;0;0;0;0;0;0;();(-2000.0, -2000.0);
12:09:49:737;12:09:49:733;1448407548.26;(0.44815883636474607, 0.34699236551920576);29.807226181;0.697868235077;;;;;;;;;;;;;;0;0;0;0;0;0;0;0;0;();(-2000.0, -2000.0);
12:09:49:753;12:09:49:736;1448407548.29;(0, 0);0;0;;;;;;;;;;;;;;0;0;0;0;0;0;0;0;0;();(-2000.0, -2000.0);
12:09:49:769;12:09:49:736;1448407548.29;(0, 0);0;0;;;;;;;;;;;;;;0;0;0;0;0;0;0;0;0;();(-2000.0, -2000.0);
12:09:49:805;12:09:49:801;1448407548.36;(0.47464733123779296, 0.3779187520345052);57.8187599182;0.937548827762;;;;;;;;;;;;;;0;0;0;0;0;0;0;0;0;();(-2000.0, -2000.0);
12:09:49:820;12:09:49:801;1448407548.36;(0.47464733123779296, 0.3779187520345052);57.8187599182;0.937548827762;;;;;;;;;;;;;;0;0;0;0;0;0;0;0;0;();(-2000.0, -2000.0);
12:09:49:836;12:09:49:801;1448407548.36;(0.47464733123779296, 0.3779187520345052);57.8187599182;0.937548827762;;;;;;;;;;;;;;0;0;0;0;0;0;0;0;0;();(-2000.0, -2000.0);
12:09:49:854;12:09:49:801;1448407548.36;(0.47464733123779296, 0.3779187520345052);57.8187599182;0.937548827762;;;;;;;;;;;;;;0;0;0;0;0;0;0;0;0;();(-2000.0, -2000.0);
12:09:49:871;12:09:49:868;1448407548.39;(0.47411160469055175, 0.3802093505859375);57.7281570435;0.8604085728;;;;;;;;;;;;;;0;0;0;0;0;0;0;0;0;();(-2000.0, -2000.0);
12:09:49:903;12:09:49:872;1448407548.42;(0.47329072952270507, 0.3817398918999566);57.8012504578;0.808719052156;;;;;;;;;;;;;;0;0;0;0;0;0;0;0;0;();(-2000.0, -2000.0);
12:09:49:920;12:09:49:872;1448407548.42;(0.47329072952270507, 0.3817398918999566);57.8012504578;0.808719052156;;;;;;;;;;;;;;0;0;0;0;0;0;0;0;0;();(-2000.0, -2000.0);
12:09:49:937;12:09:49:931;1448407548.49;(0.472564697265625, 0.37943492465549045);57.3030700684;0.826451342685;;;;;;;;;;;;;;0;0;0;0;0;0;0;0;0;();(-2000.0, -2000.0);
12:09:49:953;12:09:49:931;1448407548.49;(0.472564697265625, 0.37943492465549045);57.3030700684;0.826451342685;;;;;;;;;;;;;;0;0;0;0;0;0;0;0;0;();(-2000.0, -2000.0);
12:09:49:969;12:09:49:931;1448407548.49;(0.472564697265625, 0.37943492465549045);57.3030700684;0.826451342685;;;;;;;;;;;;;;0;0;0;0;0;0;0;0;0;();(-2000.0, -2000.0);
12:09:50:003;12:09:49:999;1448407548.56;(0.47062344551086427, 0.37995796203613286);57.3969154358;0.789082025067;;;;;;;;;;;;;;0;0;0;0;0;0;0;0;0;();(-2000.0, -2000.0);
12:09:50:020;12:09:49:999;1448407548.56;(0.47062344551086427, 0.37995796203613286);57.3969154358;0.789082025067;;;;;;;;;;;;;;0;0;0;0;0;0;0;0;0;();(-2000.0, -2000.0);
12:09:50:035;12:09:49:999;1448407548.56;(0.47062344551086427, 0.37995796203613286);57.3969154358;0.789082025067;;;;;;;;;;;;;;0;0;0;0;0;0;0;0;0;();(-2000.0, -2000.0);
12:09:50:053;12:09:49:999;1448407548.56;(0.47062344551086427, 0.37995796203613286);57.3969154358;0.789082025067;;;;;;;;;;;;;;0;0;0;0;0;0;0;0;0;();(-2000.0, -2000.0);
12:09:50:069;12:09:50:067;1448407548.62;(0, 0);0;0;;;;;;;;;;;;;;0;0;0;0;0;0;0;0;0;();(-2000.0, -2000.0);
12:09:50:103;12:09:50:067;1448407548.62;(0, 0);0;0;;;;;;;;;;;;;;0;0;0;0;0;0;0;0;0;();(-2000.0, -2000.0);
12:09:50:120;12:09:50:067;1448407548.62;(0, 0);0;0;;;;;;;;;;;;;;0;0;0;0;0;0;0;0;0;();(-2000.0, -2000.0);
12:09:50:137;12:09:50:130;1448407548.69;(0.46655879020690916, 0.3784441206190321);57.3415031433;0.601145030306;;;;;;;;;;;;;;0;0;0;0;0;0;0;0;0;();(-2000.0, -2000.0);
12:09:50:153;12:09:50:130;1448407548.69;(0.46655879020690916, 0.3784441206190321);57.3415031433;0.601145030306;;;;;;;;;;;;;;0;0;0;0;0;0;0;0;0;();(-2000.0, -2000.0);
12:09:50:170;12:09:50:130;1448407548.69;(0.46655879020690916, 0.3784441206190321);57.3415031433;0.601145030306;;;;;;;;;;;;;;0;0;0;0;0;0;0;0;0;();(-2000.0, -2000.0);
12:09:50:202;12:09:50:199;1448407548.76;(0.46347579956054685, 0.3801842159695096);58.1087150574;0.797218307445;;;;;;;;;;;;;;0;0;0;0;0;0;0;0;0;();(-2000.0, -2000.0);
12:09:50:219;12:09:50:199;1448407548.76;(0.46347579956054685, 0.3801842159695096);58.1087150574;0.797218307445;;;;;;;;;;;;;;0;0;0;0;0;0;0;0;0;();(-2000.0, -2000.0);
12:09:50:236;12:09:50:199;1448407548.76;(0.46347579956054685, 0.3801842159695096);58.1087150574;0.797218307445;;;;;;;;;;;;;;0;0;0;0;0;0;0;0;0;();(-2000.0, -2000.0);
12:09:50:252;12:09:50:199;1448407548.76;(0.46347579956054685, 0.3801842159695096);58.1087150574;0.797218307445;;;;;;;;;;;;;;0;0;0;0;0;0;0;0;0;();(-2000.0, -2000.0);
12:09:50:269;12:09:50:262;1448407548.82;(0.8192649841308594, 0.6311615414089626);18.6814479828;0.713986308921;;;;;;;;;;;;;;0;0;0;0;0;0;0;0;0;();(-2000.0, -2000.0);
12:09:50:303;12:09:50:262;1448407548.82;(0.8192649841308594, 0.6311615414089626);18.6814479828;0.713986308921;;;;;;;;;;;;;;0;0;0;0;0;0;0;0;0;();(-2000.0, -2000.0);
12:09:50:319;12:09:50:262;1448407548.82;(0.8192649841308594, 0.6311615414089626);18.6814479828;0.713986308921;;;;;;;;;;;;;;0;0;0;0;0;0;0;0;0;();(-2000.0, -2000.0);
12:09:50:335;12:09:50:331;1448407548.89;(0.4934258460998535, 0.3706537034776476);56.0201568604;0.86662147325;;;;;;;;;;;;;;0;0;0;0;0;0;0;0;0;();(-2000.0, -2000.0);
12:09:50:353;12:09:50:331;1448407548.89;(0.4934258460998535, 0.3706537034776476);56.0201568604;0.86662147325;;;;;;;;;;;;;;0;0;0;0;0;0;0;0;0;();(-2000.0, -2000.0);
12:09:50:369;12:09:50:331;1448407548.89;(0.4934258460998535, 0.3706537034776476);56.0201568604;0.86662147325;;;;;;;;;;;;;;0;0;0;0;0;0;0;0;0;();(-2000.0, -2000.0);
12:09:50:403;12:09:50:398;1448407548.96;(0.49115686416625975, 0.37189305623372393);55.1193313599;0.968227966102;;;;;;;;;;;;;;0;0;0;0;0;0;0;0;0;();(-2000.0, -2000.0);
12:09:50:420;12:09:50:398;1448407548.96;(0.49115686416625975, 0.37189305623372393);55.1193313599;0.968227966102;;;;;;;;;;;;;;0;0;0;0;0;0;0;0;0;();(-2000.0, -2000.0);
12:09:50:436;12:09:50:398;1448407548.96;(0.49115686416625975, 0.37189305623372393);55.1193313599;0.968227966102;;;;;;;;;;;;;;0;0;0;0;0;0;0;0;0;();(-2000.0, -2000.0);
12:09:50:453;12:09:50:398;1448407548.96;(0.49115686416625975, 0.37189305623372393);55.1193313599;0.968227966102;;;;;;;;;;;;;;0;0;0;0;0;0;0;0;0;();(-2000.0, -2000.0);
12:09:50:469;12:09:50:462;1448407549.02;(0.4879764556884766, 0.37649900648328993);55.9768295288;0.805498388141;;;;;;;;;;;;;;0;0;0;0;0;0;0;0;0;();(-2000.0, -2000.0);
12:09:50:486;12:09:50:462;1448407549.02;(0.4879764556884766, 0.37649900648328993);55.9768295288;0.805498388141;;;;;;;;;;;;;;0;0;0;0;0;0;0;0;0;();(-2000.0, -2000.0);
12:09:50:519;12:09:50:462;1448407549.02;(0.4879764556884766, 0.37649900648328993);55.9768295288;0.805498388141;;;;;;;;;;;;;;0;0;0;0;0;0;0;0;0;();(-2000.0, -2000.0);
12:09:50:536;12:09:50:530;1448407549.09;(0.48488707542419435, 0.37442546420627165);55.5685043335;0.936502355546;;;;;;;;;;;;;;0;0;0;0;0;0;0;0;0;();(-2000.0, -2000.0);
12:09:50:553;12:09:50:530;1448407549.09;(0.48488707542419435, 0.37442546420627165);55.5685043335;0.936502355546;;;;;;;;;;;;;;0;0;0;0;0;0;0;0;0;();(-2000.0, -2000.0);
12:09:50:570;12:09:50:530;1448407549.09;(0.48488707542419435, 0.37442546420627165);55.5685043335;0.936502355546;;;;;;;;;;;;;;0;0;0;0;0;0;0;0;0;();(-2000.0, -2000.0);
12:09:50:587;12:09:50:530;1448407549.09;(0.48488707542419435, 0.37442546420627165);55.5685043335;0.936502355546;;;;;;;;;;;;;;0;0;0;0;0;0;0;0;0;();(-2000.0, -2000.0);
12:09:50:619;12:09:50:595;1448407549.16;(0.4515382766723633, 0.32226918538411453);58.0440330505;0.827834795523;;;;;;;;;;;;;;0;0;0;0;0;0;0;0;0;();(-2000.0, -2000.0);
12:09:50:636;12:09:50:595;1448407549.16;(0.4515382766723633, 0.32226918538411453);58.0440330505;0.827834795523;;;;;;;;;;;;;;0;0;0;0;0;0;0;0;0;();(-2000.0, -2000.0);
12:09:50:652;12:09:50:595;1448407549.16;(0.4515382766723633, 0.32226918538411453);58.0440330505;0.827834795523;;;;;;;;;;;;;;0;0;0;0;0;0;0;0;0;();(-2000.0, -2000.0);
12:09:50:669;12:09:50:663;1448407549.22;(0.44478487968444824, 0.29797719319661453);60.8083000183;0.634375947851;;;;;;;;;;;;;;0;0;0;0;0;0;0;0;0;();(-2000.0, -2000.0);
12:09:50:687;12:09:50:663;1448407549.22;(0.44478487968444824, 0.29797719319661453);60.8083000183;0.634375947851;;;;;;;;;;;;;;0;0;0;0;0;0;0;0;0;();(-2000.0, -2000.0);
12:09:50:719;12:09:50:663;1448407549.22;(0.44478487968444824, 0.29797719319661453);60.8083000183;0.634375947851;;;;;;;;;;;;;;0;0;0;0;0;0;0;0;0;();(-2000.0, -2000.0);
12:09:50:736;12:09:50:727;1448407549.29;(0, 0);0;0;;;;;;;;;;;;;;0;0;0;0;0;0;0;0;0;();(-2000.0, -2000.0);
12:09:50:752;12:09:50:727;1448407549.29;(0, 0);0;0;;;;;;;;;;;;;;0;0;0;0;0;0;0;0;0;();(-2000.0, -2000.0);
12:09:50:769;12:09:50:727;1448407549.29;(0, 0);0;0;;;;;;;;;;;;;;0;0;0;0;0;0;0;0;0;();(-2000.0, -2000.0);
12:09:50:786;12:09:50:727;1448407549.29;(0, 0);0;0;;;;;;;;;;;;;;0;0;0;0;0;0;0;0;0;();(-2000.0, -2000.0);
12:09:50:820;12:09:50:794;1448407549.36;(0.45347094535827637, 0.29123920864529085);58.4500617981;0.696390007473;;;;;;;;;;;;;;0;0;0;0;0;0;0;0;0;();(-2000.0, -2000.0);
12:09:50:836;12:09:50:794;1448407549.36;(0.45347094535827637, 0.29123920864529085);58.4500617981;0.696390007473;;;;;;;;;;;;;;0;0;0;0;0;0;0;0;0;();(-2000.0, -2000.0);
12:09:50:853;12:09:50:794;1448407549.36;(0.45347094535827637, 0.29123920864529085);58.4500617981;0.696390007473;;;;;;;;;;;;;;0;0;0;0;0;0;0;0;0;();(-2000.0, -2000.0);
12:09:50:869;12:09:50:862;1448407549.42;(0.44815406799316404, 0.27844111124674475);57.5499191284;0.612927102173;;;;;;;;;;;;;;0;0;0;0;0;0;0;0;0;();(-2000.0, -2000.0);
12:09:50:886;12:09:50:862;1448407549.42;(0.44815406799316404, 0.27844111124674475);57.5499191284;0.612927102173;;;;;;;;;;;;;;0;0;0;0;0;0;0;0;0;();(-2000.0, -2000.0);
12:09:50:919;12:09:50:862;1448407549.42;(0.44815406799316404, 0.27844111124674475);57.5499191284;0.612927102173;;;;;;;;;;;;;;0;0;0;0;0;0;0;0;0;();(-2000.0, -2000.0);
12:09:50:936;12:09:50:926;1448407549.49;(0, 0);0;0;;;;;;;;;;;;;;0;0;0;0;0;0;0;0;0;();(-2000.0, -2000.0);
12:09:50:952;12:09:50:926;1448407549.49;(0, 0);0;0;;;;;;;;;;;;;;0;0;0;0;0;0;0;0;0;();(-2000.0, -2000.0);
12:09:50:969;12:09:50:926;1448407549.49;(0, 0);0;0;;;;;;;;;;;;;;0;0;0;0;0;0;0;0;0;();(-2000.0, -2000.0);
12:09:50:987;12:09:50:926;1448407549.49;(0, 0);0;0;;;;;;;;;;;;;;0;0;0;0;0;0;0;0;0;();(-2000.0, -2000.0);
12:09:51:021;12:09:50:994;1448407549.56;(0.44983410835266113, 0.28517676459418406);58.4225997925;0.679827742963;;;;;;;;;;;;;;0;0;0;0;0;0;0;0;0;();(-2000.0, -2000.0);
12:09:51:036;12:09:50:994;1448407549.56;(0.44983410835266113, 0.28517676459418406);58.4225997925;0.679827742963;;;;;;;;;;;;;;0;0;0;0;0;0;0;0;0;();(-2000.0, -2000.0);
12:09:51:052;12:09:50:994;1448407549.56;(0.44983410835266113, 0.28517676459418406);58.4225997925;0.679827742963;;;;;;;;;;;;;;0;0;0;0;0;0;0;0;0;();(-2000.0, -2000.0);
12:09:51:069;12:09:51:058;1448407549.62;(0.4420457363128662, 0.3051472557915582);62.4846725464;0.62783850332;;;;;;;;;;;;;;0;0;0;0;0;0;0;0;0;();(-2000.0, -2000.0);
12:09:51:086;12:09:51:058;1448407549.62;(0.4420457363128662, 0.3051472557915582);62.4846725464;0.62783850332;;;;;;;;;;;;;;0;0;0;0;0;0;0;0;0;();(-2000.0, -2000.0);
12:09:51:120;12:09:51:058;1448407549.62;(0.4420457363128662, 0.3051472557915582);62.4846725464;0.62783850332;;;;;;;;;;;;;;0;0;0;0;0;0;0;0;0;();(-2000.0, -2000.0);
12:09:51:136;12:09:51:126;1448407549.69;(0, 0);0;0;;;;;;;;;;;;;;0;0;0;0;0;0;0;0;0;();(-2000.0, -2000.0);
12:09:51:153;12:09:51:126;1448407549.69;(0, 0);0;0;;;;;;;;;;;;;;0;0;0;0;0;0;0;0;0;();(-2000.0, -2000.0);
12:09:51:170;12:09:51:126;1448407549.69;(0, 0);0;0;;;;;;;;;;;;;;0;0;0;0;0;0;0;0;0;();(-2000.0, -2000.0);
12:09:51:186;12:09:51:126;1448407549.69;(0, 0);0;0;;;;;;;;;;;;;;0;0;0;0;0;0;0;0;0;();(-2000.0, -2000.0);
12:09:51:219;12:09:51:196;1448407549.76;(0.44111266136169436, 0.30168007744683156);62.0874900818;0.669648825954;;;;;;;;;;;;;;0;0;0;0;0;0;0;0;0;();(-2000.0, -2000.0);
12:09:51:237;12:09:51:196;1448407549.76;(0.44111266136169436, 0.30168007744683156);62.0874900818;0.669648825954;;;;;;;;;;;;;;0;0;0;0;0;0;0;0;0;();(-2000.0, -2000.0);
12:09:51:253;12:09:51:196;1448407549.76;(0.44111266136169436, 0.30168007744683156);62.0874900818;0.669648825954;;;;;;;;;;;;;;0;0;0;0;0;0;0;0;0;();(-2000.0, -2000.0);
12:09:51:271;12:09:51:258;1448407549.82;(0, 0);0;0;;;;;;;;;;;;;;0;0;0;0;0;0;0;0;0;();(-2000.0, -2000.0);
12:09:51:288;12:09:51:258;1448407549.82;(0, 0);0;0;;;;;;;;;;;;;;0;0;0;0;0;0;0;0;0;();(-2000.0, -2000.0);
12:09:51:320;12:09:51:258;1448407549.82;(0, 0);0;0;;;;;;;;;;;;;;0;0;0;0;0;0;0;0;0;();(-2000.0, -2000.0);
12:09:51:337;12:09:51:334;1448407549.89;(0, 0);0;0;;;;;;;;;;;;;;0;0;0;0;0;0;0;0;0;();(-2000.0, -2000.0);
12:09:51:353;12:09:51:334;1448407549.89;(0, 0);0;0;;;;;;;;;;;;;;0;0;0;0;0;0;0;0;0;();(-2000.0, -2000.0);
12:09:51:370;12:09:51:334;1448407549.89;(0, 0);0;0;;;;;;;;;;;;;;0;0;0;0;0;0;0;0;0;();(-2000.0, -2000.0);
12:09:51:386;12:09:51:334;1448407549.89;(0, 0);0;0;;;;;;;;;;;;;;0;0;0;0;0;0;0;0;0;();(-2000.0, -2000.0);
12:09:51:420;12:09:51:390;1448407549.96;(0, 0);0;0;;;;;;;;;;;;;;0;0;0;0;0;0;0;0;0;();(-2000.0, -2000.0);
12:09:51:438;12:09:51:390;1448407549.96;(0, 0);0;0;;;;;;;;;;;;;;0;0;0;0;0;0;0;0;0;();(-2000.0, -2000.0);
12:09:51:454;12:09:51:390;1448407549.96;(0, 0);0;0;;;;;;;;;;;;;;0;0;0;0;0;0;0;0;0;();(-2000.0, -2000.0);
12:09:51:471;12:09:51:464;1448407550.02;(0.4687380313873291, 0.3867861853705512);59.8543128967;0.85748106677;;;;;;;;;;;;;;0;0;0;0;0;0;0;0;0;();(-2000.0, -2000.0);
12:09:51:488;12:09:51:464;1448407550.02;(0.4687380313873291, 0.3867861853705512);59.8543128967;0.85748106677;;;;;;;;;;;;;;0;0;0;0;0;0;0;0;0;();(-2000.0, -2000.0);
12:09:51:520;12:09:51:464;1448407550.02;(0.4687380313873291, 0.3867861853705512);59.8543128967;0.85748106677;;;;;;;;;;;;;;0;0;0;0;0;0;0;0;0;();(-2000.0, -2000.0);
12:09:51:537;12:09:51:526;1448407550.09;(0.4673000335693359, 0.38686150444878475);59.9913673401;0.844884934242;;;;;;;;;;;;;;0;0;0;0;0;0;0;0;0;();(-2000.0, -2000.0);
12:09:51:553;12:09:51:526;1448407550.09;(0.4673000335693359, 0.38686150444878475);59.9913673401;0.844884934242;;;;;;;;;;;;;;0;0;0;0;0;0;0;0;0;();(-2000.0, -2000.0);
12:09:51:570;12:09:51:526;1448407550.09;(0.4673000335693359, 0.38686150444878475);59.9913673401;0.844884934242;;;;;;;;;;;;;;0;0;0;0;0;0;0;0;0;();(-2000.0, -2000.0);
12:09:51:587;12:09:51:526;1448407550.09;(0.4673000335693359, 0.38686150444878475);59.9913673401;0.844884934242;;;;;;;;;;;;;;0;0;0;0;0;0;0;0;0;();(-2000.0, -2000.0);
12:09:51:620;12:09:51:591;1448407550.16;(0.4642758846282959, 0.39210845099555125);63.677154541;0.672702352591;;;;;;;;;;;;;;0;0;0;0;0;0;0;0;0;();(-2000.0, -2000.0);
12:09:51:637;12:09:51:591;1448407550.16;(0.4642758846282959, 0.39210845099555125);63.677154541;0.672702352591;;;;;;;;;;;;;;0;0;0;0;0;0;0;0;0;();(-2000.0, -2000.0);
12:09:51:654;12:09:51:591;1448407550.16;(0.4642758846282959, 0.39210845099555125);63.677154541;0.672702352591;;;;;;;;;;;;;;0;0;0;0;0;0;0;0;0;();(-2000.0, -2000.0);
12:09:51:669;12:09:51:658;1448407550.22;(0.4679270267486572, 0.3795031653510199);59.4728889465;0.621501791854;;;;;;;;;;;;;;0;0;0;0;0;0;0;0;0;();(-2000.0, -2000.0);
12:09:51:687;12:09:51:658;1448407550.22;(0.4679270267486572, 0.3795031653510199);59.4728889465;0.621501791854;;;;;;;;;;;;;;0;0;0;0;0;0;0;0;0;();(-2000.0, -2000.0);
12:09:51:722;12:09:51:658;1448407550.22;(0.4679270267486572, 0.3795031653510199);59.4728889465;0.621501791854;;;;;;;;;;;;;;0;0;0;0;0;0;0;0;0;();(-2000.0, -2000.0);
12:09:51:738;12:09:51:725;1448407550.29;(0.4040867328643799, 0.5630844540066189);33.2105789185;0.633329536607;;;;;;;;;;;;;;0;0;0;0;0;0;0;0;0;();(-2000.0, -2000.0);
12:09:51:754;12:09:51:725;1448407550.29;(0.4040867328643799, 0.5630844540066189);33.2105789185;0.633329536607;;;;;;;;;;;;;;0;0;0;0;0;0;0;0;0;();(-2000.0, -2000.0);
12:09:51:773;12:09:51:725;1448407550.29;(0.4040867328643799, 0.5630844540066189);33.2105789185;0.633329536607;;;;;;;;;;;;;;0;0;0;0;0;0;0;0;0;();(-2000.0, -2000.0);
12:09:51:787;12:09:51:725;1448407550.29;(0.4040867328643799, 0.5630844540066189);33.2105789185;0.633329536607;;;;;;;;;;;;;;0;0;0;0;0;0;0;0;0;();(-2000.0, -2000.0);
12:09:51:820;12:09:51:792;1448407550.36;(0, 0);0;0;;;;;;;;;;;;;;0;0;0;0;0;0;0;0;0;();(-2000.0, -2000.0);
12:09:51:837;12:09:51:792;1448407550.36;(0, 0);0;0;;;;;;;;;;;;;;0;0;0;0;0;0;0;0;0;();(-2000.0, -2000.0);
12:09:51:853;12:09:51:792;1448407550.36;(0, 0);0;0;;;;;;;;;;;;;;0;0;0;0;0;0;0;0;0;();(-2000.0, -2000.0);
12:09:51:870;12:09:51:858;1448407550.42;(0.4661074161529541, 0.3839116414388021);58.4491653442;0.759856772757;;;;;;;;;;;;;;0;0;0;0;0;0;0;0;0;();(-2000.0, -2000.0);
12:09:51:887;12:09:51:858;1448407550.42;(0.4661074161529541, 0.3839116414388021);58.4491653442;0.759856772757;;;;;;;;;;;;;;0;0;0;0;0;0;0;0;0;();(-2000.0, -2000.0);
12:09:51:920;12:09:51:858;1448407550.42;(0.4661074161529541, 0.3839116414388021);58.4491653442;0.759856772757;;;;;;;;;;;;;;0;0;0;0;0;0;0;0;0;();(-2000.0, -2000.0);
12:09:51:937;12:09:51:925;1448407550.49;(0.45215692520141604, 0.3720855289035373);59.3047981262;0.865698397864;;;;;;;;;;;;;;0;0;0;0;0;0;0;0;0;();(-2000.0, -2000.0);
