%Timestamp,timestamp_write;timestamp_gotpupil;eyeTrackerTime;normPos;diameter;confidence;timestamp_gotbitdata;CRC;SEQ;AnalogOutp1;AnalogOutp2;AnalogOutp3;AnalogOutp4;AnalogOutp5;AnalogOutp6;DigitalOutp1;DigitalOutp2;DigitalOutp3;DigitalOutp4;nplanes;listofAirplanesonScreen;lastAction;lastActionDetails;lastActionAirplaneNumber;calculatedScore;positiveScore;negativeScore;collidedAirplaneNumbers;targetPositions;collisionPoint
03:31:28:595;03:31:28:563;1448461883.35;(0.39090063571929934, 0.26728884379069007);59.8151550293;1.0;;;;;;;;;;;;;;0;57,80;0;0;0;0;0;0;0;();(0.0, 0.0);
03:31:28:617;03:31:28:607;1448461883.42;(0.39032299518585206, 0.26701223585340716);59.977394104;1.0;;;;;;;;;;;;;;0;57,80;0;0;0;0;0;0;0;();(-2000.0, -2000.0);
03:31:28:623;03:31:28:607;1448461883.42;(0.39032299518585206, 0.26701223585340716);59.977394104;1.0;;;;;;;;;;;;;;0;0;0;0;0;10;2;0;0;();(-2000.0, -2000.0);
03:31:28:626;03:31:28:607;1448461883.42;(0.39032299518585206, 0.26701223585340716);59.977394104;1.0;;;;;;;;;;;;;;0;0;0;0;0;10;2;0;0;();(-2000.0, -2000.0);
03:31:28:629;03:31:28:607;1448461883.42;(0.39032299518585206, 0.26701223585340716);59.977394104;1.0;;;;;;;;;;;;;;0;0;0;0;0;10;2;0;0;();(-2000.0, -2000.0);
03:31:28:632;03:31:28:607;1448461883.42;(0.39032299518585206, 0.26701223585340716);59.977394104;1.0;;;;;;;;;;;;;;0;0;0;0;0;10;2;0;0;();(-2000.0, -2000.0);
03:31:28:636;03:31:28:607;1448461883.42;(0.39032299518585206, 0.26701223585340716);59.977394104;1.0;;;;;;;;;;;;;;0;0;0;0;0;10;2;0;0;();(-2000.0, -2000.0);
03:31:28:639;03:31:28:607;1448461883.42;(0.39032299518585206, 0.26701223585340716);59.977394104;1.0;;;;;;;;;;;;;;0;0;0;0;0;10;2;0;0;();(-2000.0, -2000.0);
03:31:28:642;03:31:28:607;1448461883.42;(0.39032299518585206, 0.26701223585340716);59.977394104;1.0;;;;;;;;;;;;;;0;0;0;0;0;10;2;0;0;();(-2000.0, -2000.0);
03:31:28:645;03:31:28:607;1448461883.42;(0.39032299518585206, 0.26701223585340716);59.977394104;1.0;;;;;;;;;;;;;;0;0;0;0;0;10;2;0;0;();(-2000.0, -2000.0);
03:31:28:648;03:31:28:607;1448461883.42;(0.39032299518585206, 0.26701223585340716);59.977394104;1.0;;;;;;;;;;;;;;0;0;0;0;0;10;2;0;0;();(-2000.0, -2000.0);
03:31:28:650;03:31:28:607;1448461883.42;(0.39032299518585206, 0.26701223585340716);59.977394104;1.0;;;;;;;;;;;;;;0;0;0;0;0;10;2;0;0;();(-2000.0, -2000.0);
03:31:28:652;03:31:28:607;1448461883.42;(0.39032299518585206, 0.26701223585340716);59.977394104;1.0;;;;;;;;;;;;;;0;0;0;0;0;10;2;0;0;();(-2000.0, -2000.0);
03:31:28:655;03:31:28:607;1448461883.42;(0.39032299518585206, 0.26701223585340716);59.977394104;1.0;;;;;;;;;;;;;;0;0;0;0;0;10;2;0;0;();(-2000.0, -2000.0);
03:31:28:657;03:31:28:607;1448461883.42;(0.39032299518585206, 0.26701223585340716);59.977394104;1.0;;;;;;;;;;;;;;0;0;0;0;0;10;2;0;0;();(-2000.0, -2000.0);
03:31:28:660;03:31:28:607;1448461883.42;(0.39032299518585206, 0.26701223585340716);59.977394104;1.0;;;;;;;;;;;;;;0;0;0;0;0;10;2;0;0;();(-2000.0, -2000.0);
03:31:28:663;03:31:28:607;1448461883.42;(0.39032299518585206, 0.26701223585340716);59.977394104;1.0;;;;;;;;;;;;;;0;0;0;0;0;10;2;0;0;();(-2000.0, -2000.0);
03:31:28:665;03:31:28:607;1448461883.42;(0.39032299518585206, 0.26701223585340716);59.977394104;1.0;;;;;;;;;;;;;;0;0;0;0;0;10;2;0;0;();(-2000.0, -2000.0);
03:31:28:668;03:31:28:607;1448461883.42;(0.39032299518585206, 0.26701223585340716);59.977394104;1.0;;;;;;;;;;;;;;0;0;0;0;0;10;2;0;0;();(-2000.0, -2000.0);
03:31:28:671;03:31:28:607;1448461883.42;(0.39032299518585206, 0.26701223585340716);59.977394104;1.0;;;;;;;;;;;;;;0;0;0;0;0;10;2;0;0;();(-2000.0, -2000.0);
03:31:28:673;03:31:28:607;1448461883.42;(0.39032299518585206, 0.26701223585340716);59.977394104;1.0;;;;;;;;;;;;;;0;0;0;0;0;10;2;0;0;();(-2000.0, -2000.0);
03:31:28:676;03:31:28:607;1448461883.42;(0.39032299518585206, 0.26701223585340716);59.977394104;1.0;;;;;;;;;;;;;;0;0;0;0;0;10;2;0;0;();(-2000.0, -2000.0);
03:31:28:678;03:31:28:607;1448461883.42;(0.39032299518585206, 0.26701223585340716);59.977394104;1.0;;;;;;;;;;;;;;0;0;0;0;0;10;2;0;0;();(-2000.0, -2000.0);
03:31:28:681;03:31:28:607;1448461883.42;(0.39032299518585206, 0.26701223585340716);59.977394104;1.0;;;;;;;;;;;;;;0;0;0;0;0;10;2;0;0;();(-2000.0, -2000.0);
03:31:30:346;03:31:30:311;1448461885.12;(0.3865370273590088, 0.31061528523763016);61.5062599182;1.0;;;;;;;;;;;;;;0;0;0;0;0;10;2;0;0;();(-2000.0, -2000.0);
03:31:30:361;03:31:30:347;1448461885.15;(0.3867088794708252, 0.3103808508978949);61.3379058838;1.0;;;;;;;;;;;;;;0;0;0;0;0;10;2;0;0;();(-2000.0, -2000.0);
03:31:30:371;03:31:30:347;1448461885.15;(0.3867088794708252, 0.3103808508978949);61.3379058838;1.0;;;;;;;;;;;;;;0;0;0;0;0;10;2;0;0;();(-2000.0, -2000.0);
03:31:30:381;03:31:30:347;1448461885.15;(0.3867088794708252, 0.3103808508978949);61.3379058838;1.0;;;;;;;;;;;;;;0;0;0;0;0;10;2;0;0;();(-2000.0, -2000.0);
03:31:30:390;03:31:30:388;1448461885.18;(0.386886739730835, 0.31013785468207467);60.5259628296;1.0;;;;;;;;;;;;;;0;0;0;0;0;10;2;0;0;();(-2000.0, -2000.0);
03:31:30:394;03:31:30:388;1448461885.18;(0.386886739730835, 0.31013785468207467);60.5259628296;1.0;;;;;;;;;;;;;;0;0;0;0;0;10;2;0;0;();(-2000.0, -2000.0);
03:31:30:398;03:31:30:388;1448461885.18;(0.386886739730835, 0.31013785468207467);60.5259628296;1.0;;;;;;;;;;;;;;0;0;0;0;0;10;2;0;0;();(-2000.0, -2000.0);
03:31:30:402;03:31:30:388;1448461885.18;(0.386886739730835, 0.31013785468207467);60.5259628296;1.0;;;;;;;;;;;;;;0;0;0;0;0;10;2;0;0;();(-2000.0, -2000.0);
03:31:30:406;03:31:30:388;1448461885.18;(0.386886739730835, 0.31013785468207467);60.5259628296;1.0;;;;;;;;;;;;;;0;0;0;0;0;10;2;0;0;();(-2000.0, -2000.0);
03:31:30:410;03:31:30:388;1448461885.18;(0.386886739730835, 0.31013785468207467);60.5259628296;1.0;;;;;;;;;;;;;;0;0;0;0;0;10;2;0;0;();(-2000.0, -2000.0);
03:31:30:414;03:31:30:388;1448461885.18;(0.386886739730835, 0.31013785468207467);60.5259628296;1.0;;;;;;;;;;;;;;0;0;0;0;0;10;2;0;0;();(-2000.0, -2000.0);
03:31:30:418;03:31:30:388;1448461885.18;(0.386886739730835, 0.31013785468207467);60.5259628296;1.0;;;;;;;;;;;;;;0;0;0;0;0;10;2;0;0;();(-2000.0, -2000.0);
03:31:30:420;03:31:30:388;1448461885.18;(0.386886739730835, 0.31013785468207467);60.5259628296;1.0;;;;;;;;;;;;;;0;0;0;0;0;10;2;0;0;();(-2000.0, -2000.0);
03:31:30:422;03:31:30:388;1448461885.18;(0.386886739730835, 0.31013785468207467);60.5259628296;1.0;;;;;;;;;;;;;;0;0;0;0;0;10;2;0;0;();(-2000.0, -2000.0);
03:31:30:425;03:31:30:388;1448461885.18;(0.386886739730835, 0.31013785468207467);60.5259628296;1.0;;;;;;;;;;;;;;0;0;0;0;0;10;2;0;0;();(-2000.0, -2000.0);
03:31:30:427;03:31:30:388;1448461885.18;(0.386886739730835, 0.31013785468207467);60.5259628296;1.0;;;;;;;;;;;;;;0;0;0;0;0;10;2;0;0;();(-2000.0, -2000.0);
03:31:30:430;03:31:30:388;1448461885.18;(0.386886739730835, 0.31013785468207467);60.5259628296;1.0;;;;;;;;;;;;;;0;0;0;0;0;10;2;0;0;();(-2000.0, -2000.0);
03:31:30:433;03:31:30:388;1448461885.18;(0.386886739730835, 0.31013785468207467);60.5259628296;1.0;;;;;;;;;;;;;;0;0;0;0;0;10;2;0;0;();(-2000.0, -2000.0);
03:31:30:435;03:31:30:388;1448461885.18;(0.386886739730835, 0.31013785468207467);60.5259628296;1.0;;;;;;;;;;;;;;0;0;0;0;0;10;2;0;0;();(-2000.0, -2000.0);
03:31:30:438;03:31:30:388;1448461885.18;(0.386886739730835, 0.31013785468207467);60.5259628296;1.0;;;;;;;;;;;;;;0;0;0;0;0;10;2;0;0;();(-2000.0, -2000.0);
03:31:30:441;03:31:30:388;1448461885.18;(0.386886739730835, 0.31013785468207467);60.5259628296;1.0;;;;;;;;;;;;;;0;0;0;0;0;10;2;0;0;();(-2000.0, -2000.0);
03:31:30:456;03:31:30:388;1448461885.18;(0.386886739730835, 0.31013785468207467);60.5259628296;1.0;;;;;;;;;;;;;;0;0;0;0;0;10;2;0;0;();(-2000.0, -2000.0);
03:31:30:520;03:31:30:511;1448461885.22;(0.38425865173339846, 0.30822402106391056);59.4140853882;1.0;;;;;;;;;;;;;;0;0;0;0;0;10;2;0;0;();(-2000.0, -2000.0);
03:31:30:523;03:31:30:511;1448461885.22;(0.38425865173339846, 0.30822402106391056);59.4140853882;1.0;;;;;;;;;;;;;;0;0;0;0;0;10;2;0;0;();(-2000.0, -2000.0);
03:31:30:526;03:31:30:511;1448461885.22;(0.38425865173339846, 0.30822402106391056);59.4140853882;1.0;;;;;;;;;;;;;;0;0;0;0;0;10;2;0;0;();(-2000.0, -2000.0);
03:31:30:539;03:31:30:511;1448461885.22;(0.38425865173339846, 0.30822402106391056);59.4140853882;1.0;;;;;;;;;;;;;;0;0;0;0;0;10;2;0;0;();(-2000.0, -2000.0);
03:31:30:557;03:31:30:555;1448461885.32;(0.37253990173339846, 0.304771974351671);59.0951080322;1.0;;;;;;;;;;;;;;0;0;0;0;0;10;2;0;0;();(-2000.0, -2000.0);
03:31:30:576;03:31:30:559;1448461885.35;(0.37245466709136965, 0.3055571662055121);58.5626983643;1.0;;;;;;;;;;;;;;0;0;0;0;0;10;2;0;0;();(-2000.0, -2000.0);
03:31:30:595;03:31:30:559;1448461885.35;(0.37245466709136965, 0.3055571662055121);58.5626983643;1.0;;;;;;;;;;;;;;0;0;0;0;0;10;2;0;0;();(-2000.0, -2000.0);
03:31:30:612;03:31:30:596;1448461885.38;(0.37253215312957766, 0.3060167100694444);58.2680244446;1.0;;;;;;;;;;;;;;0;0;0;0;0;10;2;0;0;();(-2000.0, -2000.0);
03:31:30:644;03:31:30:640;1448461885.45;(0.37263824939727785, 0.30664634704589844);57.9844741821;1.0;;;;;;;;;;;;;;0;0;0;0;0;10;2;0;0;();(-2000.0, -2000.0);
03:31:30:659;03:31:30:640;1448461885.45;(0.37263824939727785, 0.30664634704589844);57.9844741821;1.0;;;;;;;;;;;;;;0;0;0;0;0;10;2;0;0;();(-2000.0, -2000.0);
03:31:30:675;03:31:30:640;1448461885.45;(0.37263824939727785, 0.30664634704589844);57.9844741821;1.0;;;;;;;;;;;;;;0;0;0;0;0;10;2;0;0;();(-2000.0, -2000.0);
03:31:30:708;03:31:30:679;1448461885.48;(0.3724372863769531, 0.30654106140136717);58.1588363647;1.0;;;;;;;;;;;;;;0;0;0;0;0;10;2;0;0;();(-2000.0, -2000.0);
03:31:30:724;03:31:30:719;1448461885.52;(0.3724151611328125, 0.3061742994520399);57.8860321045;1.0;;;;;;;;;;;;;;0;0;0;0;0;10;2;0;0;();(-2000.0, -2000.0);
03:31:30:741;03:31:30:719;1448461885.52;(0.3724151611328125, 0.3061742994520399);57.8860321045;1.0;;;;;;;;;;;;;;0;0;0;0;0;10;2;0;0;();(-2000.0, -2000.0);
03:31:30:758;03:31:30:719;1448461885.52;(0.3724151611328125, 0.3061742994520399);57.8860321045;1.0;;;;;;;;;;;;;;0;0;0;0;0;10;2;0;0;();(-2000.0, -2000.0);
03:31:30:774;03:31:30:763;1448461885.55;(0.37321224212646487, 0.30499398973253034);58.2031898499;1.0;;;;;;;;;;;;;;0;0;0;0;0;10;2;0;0;();(-2000.0, -2000.0);
03:31:30:808;03:31:30:803;1448461885.58;(0.3889521837234497, 0.29089050292968754);58.0409889221;1.0;;;;;;;;;;;;;;0;0;0;0;0;10;2;0;0;();(-2000.0, -2000.0);
03:31:30:825;03:31:30:803;1448461885.58;(0.3889521837234497, 0.29089050292968754);58.0409889221;1.0;;;;;;;;;;;;;;0;0;0;0;0;10;2;0;0;();(-2000.0, -2000.0);
03:31:30:841;03:31:30:803;1448461885.58;(0.3889521837234497, 0.29089050292968754);58.0409889221;1.0;;;;;;;;;;;;;;0;0;0;0;0;10;2;0;0;();(-2000.0, -2000.0);
03:31:30:858;03:31:30:845;1448461885.65;(0.38841540813446046, 0.2913823445638021);58.5109062195;1.0;;;;;;;;;;;;;;0;0;0;0;0;10;2;0;0;();(-2000.0, -2000.0);
03:31:30:875;03:31:30:845;1448461885.65;(0.38841540813446046, 0.2913823445638021);58.5109062195;1.0;;;;;;;;;;;;;;0;0;0;0;0;10;2;0;0;();(-2000.0, -2000.0);
03:31:30:892;03:31:30:887;1448461885.68;(0.38825037479400637, 0.2916325039333767);58.639541626;1.0;;;;;;;;;;;;;;0;0;0;0;0;10;2;0;0;();(-2000.0, -2000.0);
03:31:30:925;03:31:30:887;1448461885.68;(0.38825037479400637, 0.2916325039333767);58.639541626;1.0;;;;;;;;;;;;;;0;0;0;0;0;10;2;0;0;();(-2000.0, -2000.0);
03:31:30:942;03:31:30:928;1448461885.72;(0.38789877891540525, 0.2920800103081598);58.7750015259;1.0;;;;;;;;;;;;;;0;0;0;0;0;10;2;0;0;();(-2000.0, -2000.0);
03:31:30:959;03:31:30:928;1448461885.72;(0.38789877891540525, 0.2920800103081598);58.7750015259;1.0;;;;;;;;;;;;;;0;0;0;0;0;10;2;0;0;();(-2000.0, -2000.0);
03:31:30:975;03:31:30:972;1448461885.78;(0.38771848678588866, 0.2924758911132812);58.8672561646;1.0;;;;;;;;;;;;;;0;0;0;0;0;10;2;0;0;();(-2000.0, -2000.0);
03:31:30:992;03:31:30:972;1448461885.78;(0.38771848678588866, 0.2924758911132812);58.8672561646;1.0;;;;;;;;;;;;;;0;0;0;0;0;10;2;0;0;();(-2000.0, -2000.0);
03:31:31:026;03:31:31:011;1448461885.82;(0.38759799003601075, 0.2925086127387153);59.0725898743;1.0;;;;;;;;;;;;;;0;0;0;0;0;10;2;0;0;();(-2000.0, -2000.0);
03:31:36:038;03:31:36:027;1448461890.82;(0, 0);0;0;;;;;;;;;;;;;;0;0;0;0;0;10;2;0;0;();(-2000.0, -2000.0);
03:31:36:043;03:31:36:027;1448461890.82;(0, 0);0;0;;;;;;;;;;;;;;0;0;0;0;0;10;2;0;0;();(-2000.0, -2000.0);
03:31:36:048;03:31:36:027;1448461890.82;(0, 0);0;0;;;;;;;;;;;;;;0;0;0;0;0;10;2;0;0;();(-2000.0, -2000.0);
03:31:36:054;03:31:36:027;1448461890.82;(0, 0);0;0;;;;;;;;;;;;;;0;0;0;0;0;10;2;0;0;();(-2000.0, -2000.0);
03:31:36:058;03:31:36:027;1448461890.82;(0, 0);0;0;;;;;;;;;;;;;;0;0;0;0;0;10;2;0;0;();(-2000.0, -2000.0);
03:31:36:061;03:31:36:027;1448461890.82;(0, 0);0;0;;;;;;;;;;;;;;0;0;0;0;0;10;2;0;0;();(-2000.0, -2000.0);
03:31:36:064;03:31:36:027;1448461890.82;(0, 0);0;0;;;;;;;;;;;;;;0;0;0;0;0;10;2;0;0;();(-2000.0, -2000.0);
03:31:36:067;03:31:36:027;1448461890.82;(0, 0);0;0;;;;;;;;;;;;;;0;0;0;0;0;10;2;0;0;();(-2000.0, -2000.0);
03:31:36:069;03:31:36:027;1448461890.82;(0, 0);0;0;;;;;;;;;;;;;;0;0;0;0;0;10;2;0;0;();(-2000.0, -2000.0);
03:31:36:072;03:31:36:027;1448461890.82;(0, 0);0;0;;;;;;;;;;;;;;0;0;0;0;0;10;2;0;0;();(-2000.0, -2000.0);
03:31:36:076;03:31:36:070;1448461890.85;(0.3620466709136963, 0.2866907331678602);57.7151908875;0.77937957743;;;;;;;;;;;;;;0;0;0;0;0;10;2;0;0;();(-2000.0, -2000.0);
03:31:36:081;03:31:36:073;1448461890.88;(0.3641162157058716, 0.2911050584581163);57.7628288269;1.0;;;;;;;;;;;;;;0;0;0;0;0;10;2;0;0;();(-2000.0, -2000.0);
03:31:36:084;03:31:36:073;1448461890.88;(0.3641162157058716, 0.2911050584581163);57.7628288269;1.0;;;;;;;;;;;;;;0;0;0;0;0;10;2;0;0;();(-2000.0, -2000.0);
03:31:36:087;03:31:36:073;1448461890.88;(0.3641162157058716, 0.2911050584581163);57.7628288269;1.0;;;;;;;;;;;;;;0;0;0;0;0;10;2;0;0;();(-2000.0, -2000.0);
03:31:36:089;03:31:36:073;1448461890.88;(0.3641162157058716, 0.2911050584581163);57.7628288269;1.0;;;;;;;;;;;;;;0;0;0;0;0;10;2;0;0;();(-2000.0, -2000.0);
03:31:36:092;03:31:36:073;1448461890.88;(0.3641162157058716, 0.2911050584581163);57.7628288269;1.0;;;;;;;;;;;;;;0;0;0;0;0;10;2;0;0;();(-2000.0, -2000.0);
03:31:36:094;03:31:36:073;1448461890.88;(0.3641162157058716, 0.2911050584581163);57.7628288269;1.0;;;;;;;;;;;;;;0;0;0;0;0;10;2;0;0;();(-2000.0, -2000.0);
03:31:36:097;03:31:36:073;1448461890.88;(0.3641162157058716, 0.2911050584581163);57.7628288269;1.0;;;;;;;;;;;;;;0;0;0;0;0;10;2;0;0;();(-2000.0, -2000.0);
03:31:36:099;03:31:36:073;1448461890.88;(0.3641162157058716, 0.2911050584581163);57.7628288269;1.0;;;;;;;;;;;;;;0;0;0;0;0;10;2;0;0;();(-2000.0, -2000.0);
03:31:36:102;03:31:36:073;1448461890.88;(0.3641162157058716, 0.2911050584581163);57.7628288269;1.0;;;;;;;;;;;;;;0;0;0;0;0;10;2;0;0;();(-2000.0, -2000.0);
03:31:36:124;03:31:36:111;1448461890.92;(0.3656764507293701, 0.2912885030110677);58.2658729553;0.904383531235;;;;;;;;;;;;;;0;0;0;0;0;10;2;0;0;();(-2000.0, -2000.0);
03:31:36:140;03:31:36:111;1448461890.92;(0.3656764507293701, 0.2912885030110677);58.2658729553;0.904383531235;;;;;;;;;;;;;;0;0;0;0;0;10;2;0;0;();(-2000.0, -2000.0);
03:31:36:157;03:31:36:155;1448461890.95;(0.3669166564941406, 0.2920925564236111);58.051361084;1.0;;;;;;;;;;;;;;0;0;0;0;0;10;2;0;0;();(-2000.0, -2000.0);
03:31:36:174;03:31:36:155;1448461890.95;(0.3669166564941406, 0.2920925564236111);58.051361084;1.0;;;;;;;;;;;;;;0;0;0;0;0;10;2;0;0;();(-2000.0, -2000.0);
03:31:36:191;03:31:36:155;1448461890.95;(0.3669166564941406, 0.2920925564236111);58.051361084;1.0;;;;;;;;;;;;;;0;0;0;0;0;10;2;0;0;();(-2000.0, -2000.0);
03:31:36:224;03:31:36:195;1448461890.98;(0.3682811498641968, 0.29222607082790797);57.951625824;1.0;;;;;;;;;;;;;;0;0;0;0;0;10;2;0;0;();(-2000.0, -2000.0);
03:31:36:241;03:31:36:236;1448461891.05;(0.36954669952392577, 0.2935618082682292);57.5363922119;1.0;;;;;;;;;;;;;;0;0;0;0;0;10;2;0;0;();(-2000.0, -2000.0);
03:31:36:258;03:31:36:236;1448461891.05;(0.36954669952392577, 0.2935618082682292);57.5363922119;1.0;;;;;;;;;;;;;;0;0;0;0;0;10;2;0;0;();(-2000.0, -2000.0);
03:31:36:274;03:31:36:236;1448461891.05;(0.36954669952392577, 0.2935618082682292);57.5363922119;1.0;;;;;;;;;;;;;;0;0;0;0;0;10;2;0;0;();(-2000.0, -2000.0);
03:31:36:291;03:31:36:279;1448461891.08;(0.3700617790222168, 0.29444160461425783);57.7189559937;1.0;;;;;;;;;;;;;;0;0;0;0;0;10;2;0;0;();(-2000.0, -2000.0);
03:31:36:326;03:31:36:318;1448461891.12;(0.37051098346710204, 0.29450433519151475);57.6409873962;1.0;;;;;;;;;;;;;;0;0;0;0;0;10;2;0;0;();(-2000.0, -2000.0);
03:31:36:341;03:31:36:318;1448461891.12;(0.37051098346710204, 0.29450433519151475);57.6409873962;1.0;;;;;;;;;;;;;;0;0;0;0;0;10;2;0;0;();(-2000.0, -2000.0);
03:31:36:358;03:31:36:318;1448461891.12;(0.37051098346710204, 0.29450433519151475);57.6409873962;1.0;;;;;;;;;;;;;;0;0;0;0;0;10;2;0;0;();(-2000.0, -2000.0);
03:31:36:375;03:31:36:359;1448461891.15;(0.37132925987243653, 0.2946171654595269);57.7118606567;1.0;;;;;;;;;;;;;;0;0;0;0;0;10;2;0;0;();(-2000.0, -2000.0);
03:31:36:392;03:31:36:359;1448461891.15;(0.37132925987243653, 0.2946171654595269);57.7118606567;1.0;;;;;;;;;;;;;;0;0;0;0;0;10;2;0;0;();(-2000.0, -2000.0);
03:31:36:425;03:31:36:404;1448461891.22;(0.37327942848205564, 0.29523260328504775);58.1384315491;1.0;;;;;;;;;;;;;;0;0;0;0;0;10;2;0;0;();(-2000.0, -2000.0);
03:31:36:442;03:31:36:404;1448461891.22;(0.37327942848205564, 0.29523260328504775);58.1384315491;1.0;;;;;;;;;;;;;;0;0;0;0;0;10;2;0;0;();(-2000.0, -2000.0);
03:31:36:459;03:31:36:443;1448461891.25;(0.3741456508636475, 0.2951044294569227);58.4204101562;1.0;;;;;;;;;;;;;;0;0;0;0;0;10;2;0;0;();(-2000.0, -2000.0);
03:31:36:476;03:31:36:443;1448461891.25;(0.3741456508636475, 0.2951044294569227);58.4204101562;1.0;;;;;;;;;;;;;;0;0;0;0;0;10;2;0;0;();(-2000.0, -2000.0);
03:31:36:493;03:31:36:483;1448461891.28;(0.37507402896881104, 0.2953946431477864);58.5769081116;1.0;;;;;;;;;;;;;;0;0;0;0;0;10;2;0;0;();(-2000.0, -2000.0);
03:31:36:527;03:31:36:483;1448461891.28;(0.37507402896881104, 0.2953946431477864);58.5769081116;1.0;;;;;;;;;;;;;;0;0;0;0;0;10;2;0;0;();(-2000.0, -2000.0);
03:31:36:543;03:31:36:527;1448461891.32;(0.3761725664138794, 0.2949635399712457);59.0888938904;1.0;;;;;;;;;;;;;;0;0;0;0;0;10;2;0;0;();(-2000.0, -2000.0);
03:31:36:560;03:31:36:527;1448461891.32;(0.3761725664138794, 0.2949635399712457);59.0888938904;1.0;;;;;;;;;;;;;;0;0;0;0;0;10;2;0;0;();(-2000.0, -2000.0);
03:31:36:576;03:31:36:567;1448461891.35;(0.38455729484558104, 0.2664449903700087);59.1909713745;1.0;;;;;;;;;;;;;;0;0;0;0;0;10;2;0;0;();(-2000.0, -2000.0);
03:31:36:593;03:31:36:567;1448461891.35;(0.38455729484558104, 0.2664449903700087);59.1909713745;1.0;;;;;;;;;;;;;;0;0;0;0;0;10;2;0;0;();(-2000.0, -2000.0);
03:31:36:610;03:31:36:567;1448461891.35;(0.38455729484558104, 0.2664449903700087);59.1909713745;1.0;;;;;;;;;;;;;;0;0;0;0;0;10;2;0;0;();(-2000.0, -2000.0);
03:31:36:643;03:31:36:567;1448461891.35;(0.38455729484558104, 0.2664449903700087);59.1909713745;1.0;;;;;;;;;;;;;;0;0;0;0;0;10;2;0;0;();(-2000.0, -2000.0);
03:31:36:660;03:31:36:652;1448461891.44;(0.37372989654541017, 0.2025495741102431);62.1195831299;1.0;;;;;;;;;;;;;;0;0;0;0;0;10;2;0;0;();(-2000.0, -2000.0);
03:31:36:677;03:31:36:652;1448461891.44;(0.37372989654541017, 0.2025495741102431);62.1195831299;1.0;;;;;;;;;;;;;;0;0;0;0;0;10;2;0;0;();(-2000.0, -2000.0);
03:31:36:694;03:31:36:692;1448461891.48;(0.37292919158935545, 0.2037178039550781);62.3422203064;1.0;;;;;;;;;;;;;;0;0;0;0;0;10;2;0;0;();(-2000.0, -2000.0);
03:31:36:710;03:31:36:692;1448461891.48;(0.37292919158935545, 0.2037178039550781);62.3422203064;1.0;;;;;;;;;;;;;;0;0;0;0;0;10;2;0;0;();(-2000.0, -2000.0);
03:31:36:744;03:31:36:736;1448461891.55;(0.3749594449996948, 0.2049927605523003);62.4943733215;1.0;;;;;;;;;;;;;;0;0;0;0;0;10;2;0;0;();(-2000.0, -2000.0);
03:31:36:761;03:31:36:736;1448461891.55;(0.3749594449996948, 0.2049927605523003);62.4943733215;1.0;;;;;;;;;;;;;;0;0;0;0;0;10;2;0;0;();(-2000.0, -2000.0);
03:31:36:777;03:31:36:775;1448461891.58;(0.37647323608398436, 0.20563549465603304);62.2897224426;0.873423150534;;;;;;;;;;;;;;0;0;0;0;0;10;2;0;0;();(-2000.0, -2000.0);
03:31:36:794;03:31:36:775;1448461891.58;(0.37647323608398436, 0.20563549465603304);62.2897224426;0.873423150534;;;;;;;;;;;;;;0;0;0;0;0;10;2;0;0;();(-2000.0, -2000.0);
03:31:36:811;03:31:36:775;1448461891.58;(0.37647323608398436, 0.20563549465603304);62.2897224426;0.873423150534;;;;;;;;;;;;;;0;0;0;0;0;10;2;0;0;();(-2000.0, -2000.0);
03:31:36:845;03:31:36:815;1448461891.62;(0.3780057430267334, 0.20589226616753475);62.1261291504;0.88453032371;;;;;;;;;;;;;;0;0;0;0;0;10;2;0;0;();(-2000.0, -2000.0);
03:31:36:861;03:31:36:859;1448461891.65;(0.3795966863632202, 0.20639970567491317);62.0986785889;0.834486076044;;;;;;;;;;;;;;0;0;0;0;0;10;2;0;0;();(-2000.0, -2000.0);
03:31:36:878;03:31:36:859;1448461891.65;(0.3795966863632202, 0.20639970567491317);62.0986785889;0.834486076044;;;;;;;;;;;;;;0;0;0;0;0;10;2;0;0;();(-2000.0, -2000.0);
03:31:36:895;03:31:36:859;1448461891.65;(0.3795966863632202, 0.20639970567491317);62.0986785889;0.834486076044;;;;;;;;;;;;;;0;0;0;0;0;10;2;0;0;();(-2000.0, -2000.0);
03:31:36:913;03:31:36:898;1448461891.68;(0.3811107873916626, 0.20671819051106766);61.9574127197;0.962494888855;;;;;;;;;;;;;;0;0;0;0;0;10;2;0;0;();(-2000.0, -2000.0);
03:31:36:945;03:31:36:942;1448461891.72;(0.38236446380615235, 0.20713916354709205);61.8509407043;1.0;;;;;;;;;;;;;;0;0;0;0;0;10;2;0;0;();(-2000.0, -2000.0);
03:31:36:962;03:31:36:942;1448461891.72;(0.38236446380615235, 0.20713916354709205);61.8509407043;1.0;;;;;;;;;;;;;;0;0;0;0;0;10;2;0;0;();(-2000.0, -2000.0);
03:31:36:979;03:31:36:942;1448461891.72;(0.38236446380615235, 0.20713916354709205);61.8509407043;1.0;;;;;;;;;;;;;;0;0;0;0;0;10;2;0;0;();(-2000.0, -2000.0);
03:31:36:996;03:31:36:983;1448461891.75;(0.3802673578262329, 0.20392769707573788);61.7853546143;1.0;;;;;;;;;;;;;;0;0;0;0;0;10;2;0;0;();(-2000.0, -2000.0);
03:31:37:012;03:31:36:983;1448461891.75;(0.3802673578262329, 0.20392769707573788);61.7853546143;1.0;;;;;;;;;;;;;;0;0;0;0;0;10;2;0;0;();(-2000.0, -2000.0);
03:31:37:046;03:31:37:024;1448461891.82;(0.38159499168395994, 0.2038049485948351);61.5073928833;1.0;;;;;;;;;;;;;;0;0;0;0;0;10;2;0;0;();(-2000.0, -2000.0);
03:31:37:064;03:31:37:024;1448461891.82;(0.38159499168395994, 0.2038049485948351);61.5073928833;1.0;;;;;;;;;;;;;;0;0;0;0;0;10;2;0;0;();(-2000.0, -2000.0);
03:31:37:079;03:31:37:068;1448461891.88;(0.3820532560348511, 0.2047726949055989);61.5311851501;1.0;;;;;;;;;;;;;;0;0;0;0;0;10;2;0;0;();(-2000.0, -2000.0);
03:31:37:096;03:31:37:068;1448461891.88;(0.3820532560348511, 0.2047726949055989);61.5311851501;1.0;;;;;;;;;;;;;;0;0;0;0;0;10;2;0;0;();(-2000.0, -2000.0);
03:31:37:113;03:31:37:106;1448461891.92;(0.38190646171569825, 0.20508117675781246);61.5764694214;1.0;;;;;;;;;;;;;;0;0;0;0;0;10;2;0;0;();(-2000.0, -2000.0);
03:31:37:130;03:31:37:106;1448461891.92;(0.38190646171569825, 0.20508117675781246);61.5764694214;1.0;;;;;;;;;;;;;;0;0;0;0;0;10;2;0;0;();(-2000.0, -2000.0);
03:31:37:163;03:31:37:147;1448461891.95;(0.3819125652313232, 0.2054224650065104);61.4759216309;1.0;;;;;;;;;;;;;;0;0;0;0;0;10;2;0;0;();(-2000.0, -2000.0);
03:31:37:180;03:31:37:147;1448461891.95;(0.3819125652313232, 0.2054224650065104);61.4759216309;1.0;;;;;;;;;;;;;;0;0;0;0;0;10;2;0;0;();(-2000.0, -2000.0);
03:31:37:197;03:31:37:191;1448461891.98;(0.41860620975494384, 0.21401875813802085);61.8723945618;0.719271666782;;;;;;;;;;;;;;0;0;0;0;0;10;2;0;0;();(-2000.0, -2000.0);
03:31:37:214;03:31:37:191;1448461891.98;(0.41860620975494384, 0.21401875813802085);61.8723945618;0.719271666782;;;;;;;;;;;;;;0;0;0;0;0;10;2;0;0;();(-2000.0, -2000.0);
03:31:37:230;03:31:37:191;1448461891.98;(0.41860620975494384, 0.21401875813802085);61.8723945618;0.719271666782;;;;;;;;;;;;;;0;0;0;0;0;10;2;0;0;();(-2000.0, -2000.0);
03:31:37:264;03:31:37:231;1448461892.02;(0.46985015869140623, 0.17016516791449654);23.6758556366;0.70312517515;;;;;;;;;;;;;;0;0;0;0;0;10;2;0;0;();(-2000.0, -2000.0);
03:31:37:281;03:31:37:272;1448461892.08;(0, 0);0;0;;;;;;;;;;;;;;0;0;0;0;0;10;2;0;0;();(-2000.0, -2000.0);
03:31:37:297;03:31:37:272;1448461892.08;(0, 0);0;0;;;;;;;;;;;;;;0;0;0;0;0;10;2;0;0;();(-2000.0, -2000.0);
03:31:37:314;03:31:37:272;1448461892.08;(0, 0);0;0;;;;;;;;;;;;;;0;0;0;0;0;10;2;0;0;();(-2000.0, -2000.0);
03:31:37:331;03:31:37:272;1448461892.08;(0, 0);0;0;;;;;;;;;;;;;;0;0;0;0;0;10;2;0;0;();(-2000.0, -2000.0);
03:31:37:364;03:31:37:356;1448461892.15;(0.4200372457504272, 0.272122573852539);19.3938083649;0.84666204958;;;;;;;;;;;;;;0;0;0;0;0;10;2;0;0;();(-2000.0, -2000.0);
03:31:37:381;03:31:37:356;1448461892.15;(0.4200372457504272, 0.272122573852539);19.3938083649;0.84666204958;;;;;;;;;;;;;;0;0;0;0;0;10;2;0;0;();(-2000.0, -2000.0);
03:31:37:398;03:31:37:356;1448461892.15;(0.4200372457504272, 0.272122573852539);19.3938083649;0.84666204958;;;;;;;;;;;;;;0;0;0;0;0;10;2;0;0;();(-2000.0, -2000.0);
03:31:37:415;03:31:37:356;1448461892.15;(0.4200372457504272, 0.272122573852539);19.3938083649;0.84666204958;;;;;;;;;;;;;;0;0;0;0;0;10;2;0;0;();(-2000.0, -2000.0);
03:31:37:431;03:31:37:356;1448461892.15;(0.4200372457504272, 0.272122573852539);19.3938083649;0.84666204958;;;;;;;;;;;;;;0;0;0;0;0;10;2;0;0;();(-2000.0, -2000.0);
03:31:37:465;03:31:37:440;1448461892.23;(0.47368292808532714, 0.18296245998806426);56.5007400513;1.0;;;;;;;;;;;;;;0;0;0;0;0;10;2;0;0;();(-2000.0, -2000.0);
03:31:37:482;03:31:37:480;1448461892.28;(0.6139914512634277, 0.3481973436143663);36.9257316589;0.637310675286;;;;;;;;;;;;;;0;0;0;0;0;10;2;0;0;();(-2000.0, -2000.0);
03:31:37:499;03:31:37:480;1448461892.28;(0.6139914512634277, 0.3481973436143663);36.9257316589;0.637310675286;;;;;;;;;;;;;;0;0;0;0;0;10;2;0;0;();(-2000.0, -2000.0);
03:31:37:515;03:31:37:480;1448461892.28;(0.6139914512634277, 0.3481973436143663);36.9257316589;0.637310675286;;;;;;;;;;;;;;0;0;0;0;0;10;2;0;0;();(-2000.0, -2000.0);
03:31:37:532;03:31:37:522;1448461892.32;(0.46453123092651366, 0.1882519192165799);57.7526359558;1.0;;;;;;;;;;;;;;0;0;0;0;0;10;2;0;0;();(-2000.0, -2000.0);
03:31:37:567;03:31:37:562;1448461892.35;(0.4618062973022461, 0.1891981336805556);57.5565490723;1.0;;;;;;;;;;;;;;0;0;0;0;0;10;2;0;0;();(-2000.0, -2000.0);
03:31:37:582;03:31:37:562;1448461892.35;(0.4618062973022461, 0.1891981336805556);57.5565490723;1.0;;;;;;;;;;;;;;0;0;0;0;0;10;2;0;0;();(-2000.0, -2000.0);
03:31:37:599;03:31:37:562;1448461892.35;(0.4618062973022461, 0.1891981336805556);57.5565490723;1.0;;;;;;;;;;;;;;0;0;0;0;0;10;2;0;0;();(-2000.0, -2000.0);
03:31:37:616;03:31:37:603;1448461892.38;(0.4592839241027832, 0.1904207865397135);57.4563598633;1.0;;;;;;;;;;;;;;0;0;0;0;0;10;2;0;0;();(-2000.0, -2000.0);
03:31:37:633;03:31:37:603;1448461892.38;(0.4592839241027832, 0.1904207865397135);57.4563598633;1.0;;;;;;;;;;;;;;0;0;0;0;0;10;2;0;0;();(-2000.0, -2000.0);
03:31:37:666;03:31:37:648;1448461892.45;(0.4547414302825928, 0.19313651190863712);57.7508926392;1.0;;;;;;;;;;;;;;0;0;0;0;0;10;2;0;0;();(-2000.0, -2000.0);
03:31:37:683;03:31:37:648;1448461892.45;(0.4547414302825928, 0.19313651190863712);57.7508926392;1.0;;;;;;;;;;;;;;0;0;0;0;0;10;2;0;0;();(-2000.0, -2000.0);
03:31:37:700;03:31:37:648;1448461892.45;(0.4547414302825928, 0.19313651190863712);57.7508926392;1.0;;;;;;;;;;;;;;0;0;0;0;0;10;2;0;0;();(-2000.0, -2000.0);
03:31:37:717;03:31:37:648;1448461892.45;(0.4547414302825928, 0.19313651190863712);57.7508926392;1.0;;;;;;;;;;;;;;0;0;0;0;0;10;2;0;0;();(-2000.0, -2000.0);
03:31:37:733;03:31:37:732;1448461892.52;(0.4532759666442871, 0.18462193806966143);58.3722114563;1.0;;;;;;;;;;;;;;0;0;0;0;0;10;2;0;0;();(-2000.0, -2000.0);
03:31:37:750;03:31:37:732;1448461892.52;(0.4532759666442871, 0.18462193806966143);58.3722114563;1.0;;;;;;;;;;;;;;0;0;0;0;0;10;2;0;0;();(-2000.0, -2000.0);
03:31:37:784;03:31:37:773;1448461892.58;(0.45110793113708497, 0.1837574428982205);58.9182853699;1.0;;;;;;;;;;;;;;0;0;0;0;0;10;2;0;0;();(-2000.0, -2000.0);
03:31:37:800;03:31:37:773;1448461892.58;(0.45110793113708497, 0.1837574428982205);58.9182853699;1.0;;;;;;;;;;;;;;0;0;0;0;0;10;2;0;0;();(-2000.0, -2000.0);
03:31:37:817;03:31:37:811;1448461892.62;(0.4502476692199707, 0.18404354519314237);59.1158447266;1.0;;;;;;;;;;;;;;0;0;0;0;0;10;2;0;0;();(-2000.0, -2000.0);
03:31:37:834;03:31:37:811;1448461892.62;(0.4502476692199707, 0.18404354519314237);59.1158447266;1.0;;;;;;;;;;;;;;0;0;0;0;0;10;2;0;0;();(-2000.0, -2000.0);
03:31:37:851;03:31:37:811;1448461892.62;(0.4502476692199707, 0.18404354519314237);59.1158447266;1.0;;;;;;;;;;;;;;0;0;0;0;0;10;2;0;0;();(-2000.0, -2000.0);
03:31:37:884;03:31:37:855;1448461892.65;(0.44957594871520995, 0.18408923678927946);59.0525093079;1.0;;;;;;;;;;;;;;0;0;0;0;0;10;2;0;0;();(-2000.0, -2000.0);
03:31:37:901;03:31:37:894;1448461892.68;(0.4492223262786865, 0.18449435763888888);59.2094650269;1.0;;;;;;;;;;;;;;0;0;0;0;0;10;2;0;0;();(-2000.0, -2000.0);
03:31:37:918;03:31:37:894;1448461892.68;(0.4492223262786865, 0.18449435763888888);59.2094650269;1.0;;;;;;;;;;;;;;0;0;0;0;0;10;2;0;0;();(-2000.0, -2000.0);
03:31:37:935;03:31:37:894;1448461892.68;(0.4492223262786865, 0.18449435763888888);59.2094650269;1.0;;;;;;;;;;;;;;0;0;0;0;0;10;2;0;0;();(-2000.0, -2000.0);
03:31:37:951;03:31:37:937;1448461892.75;(0.4487316608428955, 0.1845287746853299);59.0924873352;1.0;;;;;;;;;;;;;;0;0;0;0;0;10;2;0;0;();(-2000.0, -2000.0);
03:31:37:985;03:31:37:978;1448461892.78;(0.44899697303771974, 0.18456980387369792);58.9086685181;1.0;;;;;;;;;;;;;;0;0;0;0;0;10;2;0;0;();(-2000.0, -2000.0);
03:31:38:002;03:31:37:978;1448461892.78;(0.44899697303771974, 0.18456980387369792);58.9086685181;1.0;;;;;;;;;;;;;;0;0;0;0;0;10;2;0;0;();(-2000.0, -2000.0);
03:31:38:018;03:31:37:978;1448461892.78;(0.44899697303771974, 0.18456980387369792);58.9086685181;1.0;;;;;;;;;;;;;;0;0;0;0;0;10;2;0;0;();(-2000.0, -2000.0);
03:31:38:035;03:31:38:019;1448461892.82;(0.4494197845458984, 0.18489642673068574);58.8943977356;1.0;;;;;;;;;;;;;;0;0;0;0;0;10;2;0;0;();(-2000.0, -2000.0);
03:31:38:052;03:31:38:019;1448461892.82;(0.4494197845458984, 0.18489642673068574);58.8943977356;1.0;;;;;;;;;;;;;;0;0;0;0;0;10;2;0;0;();(-2000.0, -2000.0);
03:31:38:086;03:31:38:062;1448461892.85;(0.449873161315918, 0.18515141805013025);58.7023773193;1.0;;;;;;;;;;;;;;0;0;0;0;0;10;2;0;0;();(-2000.0, -2000.0);
03:31:38:102;03:31:38:062;1448461892.85;(0.449873161315918, 0.18515141805013025);58.7023773193;1.0;;;;;;;;;;;;;;0;0;0;0;0;10;2;0;0;();(-2000.0, -2000.0);
03:31:38:119;03:31:38:106;1448461892.92;(0.45052213668823243, 0.1855010138617621);58.5640983582;1.0;;;;;;;;;;;;;;0;0;0;0;0;10;2;0;0;();(-2000.0, -2000.0);
03:31:38:136;03:31:38:106;1448461892.92;(0.45052213668823243, 0.1855010138617621);58.5640983582;1.0;;;;;;;;;;;;;;0;0;0;0;0;10;2;0;0;();(-2000.0, -2000.0);
03:31:38:153;03:31:38:142;1448461892.95;(0.4508092403411865, 0.18539386325412321);58.4623947144;1.0;;;;;;;;;;;;;;0;0;0;0;0;10;2;0;0;();(-2000.0, -2000.0);
03:31:38:186;03:31:38:142;1448461892.95;(0.4508092403411865, 0.18539386325412321);58.4623947144;1.0;;;;;;;;;;;;;;0;0;0;0;0;10;2;0;0;();(-2000.0, -2000.0);
03:31:38:205;03:31:38:186;1448461892.98;(0.4511387348175049, 0.18491405910915804);58.5483283997;1.0;;;;;;;;;;;;;;0;0;0;0;0;10;2;0;0;();(-2000.0, -2000.0);
03:31:38:219;03:31:38:186;1448461892.98;(0.4511387348175049, 0.18491405910915804);58.5483283997;1.0;;;;;;;;;;;;;;0;0;0;0;0;10;2;0;0;();(-2000.0, -2000.0);
03:31:38:236;03:31:38:228;1448461893.05;(0.45195941925048827, 0.18456420898437498);58.3780708313;1.0;;;;;;;;;;;;;;0;0;0;0;0;10;2;0;0;();(-2000.0, -2000.0);
03:31:38:253;03:31:38:228;1448461893.05;(0.45195941925048827, 0.18456420898437498);58.3780708313;1.0;;;;;;;;;;;;;;0;0;0;0;0;10;2;0;0;();(-2000.0, -2000.0);
03:31:38:270;03:31:38:266;1448461893.08;(0.4521240234375, 0.18457302517361107);58.4585456848;1.0;;;;;;;;;;;;;;0;0;0;0;0;10;2;0;0;();(-2000.0, -2000.0);
03:31:38:303;03:31:38:266;1448461893.08;(0.4521240234375, 0.18457302517361107);58.4585456848;1.0;;;;;;;;;;;;;;0;0;0;0;0;10;2;0;0;();(-2000.0, -2000.0);
03:31:38:320;03:31:38:310;1448461893.12;(0.4554255485534668, 0.1866060892740885);57.8450889587;1.0;;;;;;;;;;;;;;0;0;0;0;0;10;2;0;0;();(-2000.0, -2000.0);
03:31:38:337;03:31:38:310;1448461893.12;(0.4554255485534668, 0.1866060892740885);57.8450889587;1.0;;;;;;;;;;;;;;0;0;0;0;0;10;2;0;0;();(-2000.0, -2000.0);
03:31:38:354;03:31:38:350;1448461893.15;(0.45546517372131345, 0.1870028177897135);58.2230377197;1.0;;;;;;;;;;;;;;0;0;0;0;0;10;2;0;0;();(-2000.0, -2000.0);
03:31:38:370;03:31:38:350;1448461893.15;(0.45546517372131345, 0.1870028177897135);58.2230377197;1.0;;;;;;;;;;;;;;0;0;0;0;0;10;2;0;0;();(-2000.0, -2000.0);
03:31:38:404;03:31:38:390;1448461893.18;(0.4554689884185791, 0.1874606662326389);58.2769813538;1.0;;;;;;;;;;;;;;0;0;0;0;0;10;2;0;0;();(-2000.0, -2000.0);
03:31:38:421;03:31:38:390;1448461893.18;(0.4554689884185791, 0.1874606662326389);58.2769813538;1.0;;;;;;;;;;;;;;0;0;0;0;0;10;2;0;0;();(-2000.0, -2000.0);
03:31:38:438;03:31:38:436;1448461893.25;(0.4557212829589844, 0.18758994208441837);58.2360992432;1.0;;;;;;;;;;;;;;0;0;0;0;0;10;2;0;0;();(-2000.0, -2000.0);
03:31:38:454;03:31:38:436;1448461893.25;(0.4557212829589844, 0.18758994208441837);58.2360992432;1.0;;;;;;;;;;;;;;0;0;0;0;0;10;2;0;0;();(-2000.0, -2000.0);
03:31:38:471;03:31:38:436;1448461893.25;(0.4557212829589844, 0.18758994208441837);58.2360992432;1.0;;;;;;;;;;;;;;0;0;0;0;0;10;2;0;0;();(-2000.0, -2000.0);
03:31:38:505;03:31:38:475;1448461893.28;(0.4558828353881836, 0.1874544779459636);58.073135376;1.0;;;;;;;;;;;;;;0;0;0;0;0;10;2;0;0;();(-2000.0, -2000.0);
03:31:38:521;03:31:38:519;1448461893.32;(0.45622992515563965, 0.18719440036349821);58.1606063843;1.0;;;;;;;;;;;;;;0;0;0;0;0;10;2;0;0;();(-2000.0, -2000.0);
03:31:38:538;03:31:38:519;1448461893.32;(0.45622992515563965, 0.18719440036349821);58.1606063843;1.0;;;;;;;;;;;;;;0;0;0;0;0;10;2;0;0;();(-2000.0, -2000.0);
03:31:38:555;03:31:38:519;1448461893.32;(0.45622992515563965, 0.18719440036349821);58.1606063843;1.0;;;;;;;;;;;;;;0;0;0;0;0;10;2;0;0;();(-2000.0, -2000.0);
03:31:38:572;03:31:38:558;1448461893.35;(0.45635571479797366, 0.1873847113715278);58.292678833;1.0;;;;;;;;;;;;;;0;0;0;0;0;10;2;0;0;();(-2000.0, -2000.0);
03:31:38:608;03:31:38:600;1448461893.42;(0.456494665145874, 0.18800693088107634);58.5021934509;1.0;;;;;;;;;;;;;;0;27,33;0;0;0;10;2;0;0;();(-2000.0, -2000.0);
03:31:38:708;03:31:38:682;1448461893.48;(0.4567592620849609, 0.1879249572753906);58.7660598755;1.0;;;;;;;;;;;;;;0;27,33;0;0;0;10;2;0;0;();(-2000.0, -2000.0);
03:31:38:712;03:31:38:682;1448461893.48;(0.4567592620849609, 0.1879249572753906);58.7660598755;1.0;;;;;;;;;;;;;;0;0;0;0;0;20;4;0;0;();(-2000.0, -2000.0);
03:31:38:715;03:31:38:682;1448461893.48;(0.4567592620849609, 0.1879249572753906);58.7660598755;1.0;;;;;;;;;;;;;;0;0;0;0;0;20;4;0;0;();(-2000.0, -2000.0);
03:31:38:717;03:31:38:682;1448461893.48;(0.4567592620849609, 0.1879249572753906);58.7660598755;1.0;;;;;;;;;;;;;;0;0;0;0;0;20;4;0;0;();(-2000.0, -2000.0);
03:31:38:720;03:31:38:682;1448461893.48;(0.4567592620849609, 0.1879249572753906);58.7660598755;1.0;;;;;;;;;;;;;;0;0;0;0;0;20;4;0;0;();(-2000.0, -2000.0);
03:31:38:723;03:31:38:682;1448461893.48;(0.4567592620849609, 0.1879249572753906);58.7660598755;1.0;;;;;;;;;;;;;;0;0;0;0;0;20;4;0;0;();(-2000.0, -2000.0);
03:31:38:740;03:31:38:723;1448461893.52;(0.4568334579467773, 0.1877660115559896);58.9156913757;1.0;;;;;;;;;;;;;;0;0;0;0;0;20;4;0;0;();(-2000.0, -2000.0);
03:31:38:756;03:31:38:723;1448461893.52;(0.4568334579467773, 0.1877660115559896);58.9156913757;1.0;;;;;;;;;;;;;;0;0;0;0;0;20;4;0;0;();(-2000.0, -2000.0);
03:31:38:773;03:31:38:768;1448461893.58;(0.4570600986480713, 0.18764979044596353);59.0771827698;1.0;;;;;;;;;;;;;;0;0;0;0;0;20;4;0;0;();(-2000.0, -2000.0);
03:31:38:790;03:31:38:768;1448461893.58;(0.4570600986480713, 0.18764979044596353);59.0771827698;1.0;;;;;;;;;;;;;;0;0;0;0;0;20;4;0;0;();(-2000.0, -2000.0);
03:31:38:823;03:31:38:768;1448461893.58;(0.4570600986480713, 0.18764979044596353);59.0771827698;1.0;;;;;;;;;;;;;;0;0;0;0;0;20;4;0;0;();(-2000.0, -2000.0);
03:31:38:840;03:31:38:768;1448461893.58;(0.4570600986480713, 0.18764979044596353);59.0771827698;1.0;;;;;;;;;;;;;;0;0;0;0;0;20;4;0;0;();(-2000.0, -2000.0);
03:31:38:857;03:31:38:852;1448461893.65;(0.4571967601776123, 0.18751788669162328);59.2511329651;1.0;;;;;;;;;;;;;;0;0;0;0;0;20;4;0;0;();(-2000.0, -2000.0);
03:31:38:874;03:31:38:852;1448461893.65;(0.4571967601776123, 0.18751788669162328);59.2511329651;1.0;;;;;;;;;;;;;;0;0;0;0;0;20;4;0;0;();(-2000.0, -2000.0);
03:31:38:890;03:31:38:852;1448461893.65;(0.4571967601776123, 0.18751788669162328);59.2511329651;1.0;;;;;;;;;;;;;;0;0;0;0;0;20;4;0;0;();(-2000.0, -2000.0);
03:31:38:925;03:31:38:890;1448461893.68;(0.457233190536499, 0.18764572143554692);59.4542274475;1.0;;;;;;;;;;;;;;0;0;0;0;0;20;4;0;0;();(-2000.0, -2000.0);
03:31:38:941;03:31:38:932;1448461893.75;(0.45746440887451173, 0.18809204101562504);59.54920578;1.0;;;;;;;;;;;;;;0;0;0;0;0;20;4;0;0;();(-2000.0, -2000.0);
03:31:38:958;03:31:38:932;1448461893.75;(0.45746440887451173, 0.18809204101562504);59.54920578;1.0;;;;;;;;;;;;;;0;0;0;0;0;20;4;0;0;();(-2000.0, -2000.0);
03:31:38:988;03:31:38:974;1448461893.78;(0.45760602951049806, 0.1882303873697917);59.5862998962;1.0;;;;;;;;;;;;;;0;0;0;0;0;20;4;0;0;();(-2000.0, -2000.0);
03:31:39:004;03:31:38:974;1448461893.78;(0.45760602951049806, 0.1882303873697917);59.5862998962;1.0;;;;;;;;;;;;;;0;0;0;0;0;20;4;0;0;();(-2000.0, -2000.0);
03:31:39:019;03:31:39:014;1448461893.82;(0.45763654708862306, 0.18846630520290797);59.8001480103;1.0;;;;;;;;;;;;;;0;0;0;0;0;20;4;0;0;();(-2000.0, -2000.0);
03:31:39:034;03:31:39:014;1448461893.82;(0.45763654708862306, 0.18846630520290797);59.8001480103;1.0;;;;;;;;;;;;;;0;0;0;0;0;20;4;0;0;();(-2000.0, -2000.0);
03:31:39:064;03:31:39:054;1448461893.85;(0.4578835964202881, 0.1883196512858073);59.5257873535;1.0;;;;;;;;;;;;;;0;0;0;0;0;20;4;0;0;();(-2000.0, -2000.0);
03:31:39:079;03:31:39:054;1448461893.85;(0.4578835964202881, 0.1883196512858073);59.5257873535;1.0;;;;;;;;;;;;;;0;0;0;0;0;20;4;0;0;();(-2000.0, -2000.0);
03:31:39:095;03:31:39:054;1448461893.85;(0.4578835964202881, 0.1883196512858073);59.5257873535;1.0;;;;;;;;;;;;;;0;0;0;0;0;20;4;0;0;();(-2000.0, -2000.0);
03:31:39:110;03:31:39:100;1448461893.92;(0.4578083992004395, 0.18836178249782987);59.4356231689;1.0;;;;;;;;;;;;;;0;0;0;0;0;20;4;0;0;();(-2000.0, -2000.0);
03:31:39:142;03:31:39:138;1448461893.95;(0.45795621871948244, 0.1884437561035156);59.6792640686;1.0;;;;;;;;;;;;;;0;0;0;0;0;20;4;0;0;();(-2000.0, -2000.0);
03:31:39:159;03:31:39:138;1448461893.95;(0.45795621871948244, 0.1884437561035156);59.6792640686;1.0;;;;;;;;;;;;;;0;0;0;0;0;20;4;0;0;();(-2000.0, -2000.0);
03:31:39:175;03:31:39:138;1448461893.95;(0.45795621871948244, 0.1884437561035156);59.6792640686;1.0;;;;;;;;;;;;;;0;0;0;0;0;20;4;0;0;();(-2000.0, -2000.0);
03:31:39:192;03:31:39:182;1448461893.98;(0.45803351402282716, 0.18844680786132817);59.6514358521;1.0;;;;;;;;;;;;;;0;0;0;0;0;20;4;0;0;();(-2000.0, -2000.0);
03:31:39:227;03:31:39:222;1448461894.02;(0.4582668781280518, 0.18846647474500866);59.9042320251;1.0;;;;;;;;;;;;;;0;0;0;0;0;20;4;0;0;();(-2000.0, -2000.0);
03:31:39:242;03:31:39:222;1448461894.02;(0.4582668781280518, 0.18846647474500866);59.9042320251;1.0;;;;;;;;;;;;;;0;0;0;0;0;20;4;0;0;();(-2000.0, -2000.0);
03:31:39:259;03:31:39:222;1448461894.02;(0.4582668781280518, 0.18846647474500866);59.9042320251;1.0;;;;;;;;;;;;;;0;0;0;0;0;20;4;0;0;();(-2000.0, -2000.0);
03:31:39:276;03:31:39:264;1448461894.08;(0.4584928035736084, 0.18837966918945315);59.8751869202;1.0;;;;;;;;;;;;;;0;0;0;0;0;20;4;0;0;();(-2000.0, -2000.0);
03:31:39:293;03:31:39:264;1448461894.08;(0.4584928035736084, 0.18837966918945315);59.8751869202;1.0;;;;;;;;;;;;;;0;0;0;0;0;20;4;0;0;();(-2000.0, -2000.0);
03:31:39:326;03:31:39:306;1448461894.12;(0.45876708030700686, 0.18832660251193578);60.1543197632;1.0;;;;;;;;;;;;;;0;0;0;0;0;20;4;0;0;();(-2000.0, -2000.0);
03:31:39:343;03:31:39:306;1448461894.12;(0.45876708030700686, 0.18832660251193578);60.1543197632;1.0;;;;;;;;;;;;;;0;0;0;0;0;20;4;0;0;();(-2000.0, -2000.0);
03:31:39:360;03:31:39:347;1448461894.15;(0.4589317798614502, 0.18778288099500873);60.1142463684;1.0;;;;;;;;;;;;;;0;0;0;0;0;20;4;0;0;();(-2000.0, -2000.0);
03:31:39:376;03:31:39:347;1448461894.15;(0.4589317798614502, 0.18778288099500873);60.1142463684;1.0;;;;;;;;;;;;;;0;0;0;0;0;20;4;0;0;();(-2000.0, -2000.0);
03:31:39:394;03:31:39:386;1448461894.18;(0.4589395523071289, 0.18782552083333337);60.098274231;1.0;;;;;;;;;;;;;;0;0;0;0;0;20;4;0;0;();(-2000.0, -2000.0);
03:31:39:410;03:31:39:386;1448461894.18;(0.4589395523071289, 0.18782552083333337);60.098274231;1.0;;;;;;;;;;;;;;0;0;0;0;0;20;4;0;0;();(-2000.0, -2000.0);
03:31:39:444;03:31:39:430;1448461894.22;(0.4589130401611328, 0.18713912963867185);59.7088508606;1.0;;;;;;;;;;;;;;0;0;0;0;0;20;4;0;0;();(-2000.0, -2000.0);
03:31:39:460;03:31:39:430;1448461894.22;(0.4589130401611328, 0.18713912963867185);59.7088508606;1.0;;;;;;;;;;;;;;0;0;0;0;0;20;4;0;0;();(-2000.0, -2000.0);
03:31:39:477;03:31:39:472;1448461894.28;(0.6234792232513428, 0.17861311170789929);20.6273994446;0.988033160644;;;;;;;;;;;;;;0;0;0;0;0;20;4;0;0;();(-2000.0, -2000.0);
03:31:39:494;03:31:39:472;1448461894.28;(0.6234792232513428, 0.17861311170789929);20.6273994446;0.988033160644;;;;;;;;;;;;;;0;0;0;0;0;20;4;0;0;();(-2000.0, -2000.0);
03:31:39:511;03:31:39:510;1448461894.32;(0, 0);0;0;;;;;;;;;;;;;;0;0;0;0;0;20;4;0;0;();(-2000.0, -2000.0);
03:31:39:544;03:31:39:510;1448461894.32;(0, 0);0;0;;;;;;;;;;;;;;0;0;0;0;0;20;4;0;0;();(-2000.0, -2000.0);
03:31:39:562;03:31:39:554;1448461894.35;(0, 0);0;0;;;;;;;;;;;;;;0;0;0;0;0;20;4;0;0;();(-2000.0, -2000.0);
03:31:39:578;03:31:39:554;1448461894.35;(0, 0);0;0;;;;;;;;;;;;;;0;0;0;0;0;20;4;0;0;();(-2000.0, -2000.0);
03:31:39:594;03:31:39:554;1448461894.35;(0, 0);0;0;;;;;;;;;;;;;;0;0;0;0;0;20;4;0;0;();(-2000.0, -2000.0);
03:31:39:611;03:31:39:554;1448461894.35;(0, 0);0;0;;;;;;;;;;;;;;0;0;0;0;0;20;4;0;0;();(-2000.0, -2000.0);
03:31:39:645;03:31:39:640;1448461894.43;(0.349143385887146, 0.24544949001736116);64.8720855713;1.0;;;;;;;;;;;;;;0;0;0;0;0;20;4;0;0;();(-2000.0, -2000.0);
03:31:39:663;03:31:39:640;1448461894.43;(0.349143385887146, 0.24544949001736116);64.8720855713;1.0;;;;;;;;;;;;;;0;0;0;0;0;20;4;0;0;();(-2000.0, -2000.0);
03:31:39:678;03:31:39:640;1448461894.43;(0.349143385887146, 0.24544949001736116);64.8720855713;1.0;;;;;;;;;;;;;;0;0;0;0;0;20;4;0;0;();(-2000.0, -2000.0);
03:31:39:695;03:31:39:678;1448461894.45;(0.35186076164245605, 0.24785690307617192);64.4683990479;1.0;;;;;;;;;;;;;;0;0;0;0;0;20;4;0;0;();(-2000.0, -2000.0);
03:31:39:712;03:31:39:678;1448461894.45;(0.35186076164245605, 0.24785690307617192);64.4683990479;1.0;;;;;;;;;;;;;;0;0;0;0;0;20;4;0;0;();(-2000.0, -2000.0);
03:31:39:745;03:31:39:718;1448461894.48;(0.3549160957336426, 0.248598141140408);64.3713760376;1.0;;;;;;;;;;;;;;0;0;0;0;0;20;4;0;0;();(-2000.0, -2000.0);
03:31:39:762;03:31:39:718;1448461894.48;(0.3549160957336426, 0.248598141140408);64.3713760376;1.0;;;;;;;;;;;;;;0;0;0;0;0;20;4;0;0;();(-2000.0, -2000.0);
03:31:39:779;03:31:39:763;1448461894.52;(0.35761592388153074, 0.24954486423068578);64.1073303223;1.0;;;;;;;;;;;;;;0;0;0;0;0;20;4;0;0;();(-2000.0, -2000.0);
03:31:39:796;03:31:39:763;1448461894.52;(0.35761592388153074, 0.24954486423068578);64.1073303223;1.0;;;;;;;;;;;;;;0;0;0;0;0;20;4;0;0;();(-2000.0, -2000.0);
03:31:39:813;03:31:39:804;1448461894.6;(0.36384427547454834, 0.25069664849175344);63.5461120605;1.0;;;;;;;;;;;;;;0;0;0;0;0;20;4;0;0;();(-2000.0, -2000.0);
03:31:39:846;03:31:39:842;1448461894.63;(0.366959810256958, 0.2511515299479167);63.2532424927;1.0;;;;;;;;;;;;;;0;0;0;0;0;20;4;0;0;();(-2000.0, -2000.0);
03:31:39:863;03:31:39:842;1448461894.63;(0.366959810256958, 0.2511515299479167);63.2532424927;1.0;;;;;;;;;;;;;;0;0;0;0;0;20;4;0;0;();(-2000.0, -2000.0);
03:31:39:880;03:31:39:842;1448461894.63;(0.366959810256958, 0.2511515299479167);63.2532424927;1.0;;;;;;;;;;;;;;0;0;0;0;0;20;4;0;0;();(-2000.0, -2000.0);
03:31:39:897;03:31:39:842;1448461894.63;(0.366959810256958, 0.2511515299479167);63.2532424927;1.0;;;;;;;;;;;;;;0;0;0;0;0;20;4;0;0;();(-2000.0, -2000.0);
03:31:39:913;03:31:39:842;1448461894.63;(0.366959810256958, 0.2511515299479167);63.2532424927;1.0;;;;;;;;;;;;;;0;0;0;0;0;20;4;0;0;();(-2000.0, -2000.0);
03:31:39:930;03:31:39:927;1448461894.72;(0.37469470500946045, 0.25201933119032116);62.3623466492;1.0;;;;;;;;;;;;;;0;0;0;0;0;20;4;0;0;();(-2000.0, -2000.0);
03:31:39:963;03:31:39:927;1448461894.72;(0.37469470500946045, 0.25201933119032116);62.3623466492;1.0;;;;;;;;;;;;;;0;0;0;0;0;20;4;0;0;();(-2000.0, -2000.0);
03:31:39:980;03:31:39:968;1448461894.78;(0.37750399112701416, 0.2526921590169271);62.8244743347;0.967940176866;;;;;;;;;;;;;;0;0;0;0;0;20;4;0;0;();(-2000.0, -2000.0);
03:31:39:997;03:31:39:968;1448461894.78;(0.37750399112701416, 0.2526921590169271);62.8244743347;0.967940176866;;;;;;;;;;;;;;0;0;0;0;0;20;4;0;0;();(-2000.0, -2000.0);
03:31:40:014;03:31:39:968;1448461894.78;(0.37750399112701416, 0.2526921590169271);62.8244743347;0.967940176866;;;;;;;;;;;;;;0;0;0;0;0;20;4;0;0;();(-2000.0, -2000.0);
03:31:40:030;03:31:39:968;1448461894.78;(0.37750399112701416, 0.2526921590169271);62.8244743347;0.967940176866;;;;;;;;;;;;;;0;0;0;0;0;20;4;0;0;();(-2000.0, -2000.0);
03:31:40:064;03:31:40:050;1448461894.82;(0.18286077976226806, 0.3677017635769314);38.8146286011;0.659013865004;;;;;;;;;;;;;;0;0;0;0;0;20;4;0;0;();(-2000.0, -2000.0);
03:31:40:081;03:31:40:050;1448461894.82;(0.18286077976226806, 0.3677017635769314);38.8146286011;0.659013865004;;;;;;;;;;;;;;0;0;0;0;0;20;4;0;0;();(-2000.0, -2000.0);
03:31:40:097;03:31:40:096;1448461894.89;(0.47246885299682617, 0.1968032836914062);60.0950431824;1.0;;;;;;;;;;;;;;0;0;0;0;0;20;4;0;0;();(-2000.0, -2000.0);
03:31:40:114;03:31:40:096;1448461894.89;(0.47246885299682617, 0.1968032836914062);60.0950431824;1.0;;;;;;;;;;;;;;0;0;0;0;0;20;4;0;0;();(-2000.0, -2000.0);
03:31:40:131;03:31:40:096;1448461894.89;(0.47246885299682617, 0.1968032836914062);60.0950431824;1.0;;;;;;;;;;;;;;0;0;0;0;0;20;4;0;0;();(-2000.0, -2000.0);
03:31:40:165;03:31:40:135;1448461894.92;(0.4839475154876709, 0.17314300537109373);60.3727722168;1.0;;;;;;;;;;;;;;0;0;0;0;0;20;4;0;0;();(-2000.0, -2000.0);
03:31:40:183;03:31:40:181;1448461894.98;(0.4831560134887695, 0.1767444186740451);60.2747306824;1.0;;;;;;;;;;;;;;0;0;0;0;0;20;4;0;0;();(-2000.0, -2000.0);
03:31:40:198;03:31:40:181;1448461894.98;(0.4831560134887695, 0.1767444186740451);60.2747306824;1.0;;;;;;;;;;;;;;0;0;0;0;0;20;4;0;0;();(-2000.0, -2000.0);
03:31:40:215;03:31:40:181;1448461894.98;(0.4831560134887695, 0.1767444186740451);60.2747306824;1.0;;;;;;;;;;;;;;0;0;0;0;0;20;4;0;0;();(-2000.0, -2000.0);
03:31:40:232;03:31:40:219;1448461895.02;(0.482530403137207, 0.17828682793511286);59.662689209;1.0;;;;;;;;;;;;;;0;0;0;0;0;20;4;0;0;();(-2000.0, -2000.0);
03:31:40:265;03:31:40:258;1448461895.05;(0.48172969818115235, 0.17938401963975692);59.3198661804;1.0;;;;;;;;;;;;;;0;0;0;0;0;20;4;0;0;();(-2000.0, -2000.0);
03:31:40:282;03:31:40:258;1448461895.05;(0.48172969818115235, 0.17938401963975692);59.3198661804;1.0;;;;;;;;;;;;;;0;0;0;0;0;20;4;0;0;();(-2000.0, -2000.0);
03:31:40:299;03:31:40:258;1448461895.05;(0.48172969818115235, 0.17938401963975692);59.3198661804;1.0;;;;;;;;;;;;;;0;0;0;0;0;20;4;0;0;();(-2000.0, -2000.0);
03:31:40:316;03:31:40:298;1448461895.08;(0.48099780082702637, 0.18059141370985243);59.0102806091;1.0;;;;;;;;;;;;;;0;0;0;0;0;20;4;0;0;();(-2000.0, -2000.0);
03:31:40:332;03:31:40:298;1448461895.08;(0.48099780082702637, 0.18059141370985243);59.0102806091;1.0;;;;;;;;;;;;;;0;0;0;0;0;20;4;0;0;();(-2000.0, -2000.0);
03:31:40:366;03:31:40:342;1448461895.12;(0.483781623840332, 0.18034472995334205);58.4546470642;1.0;;;;;;;;;;;;;;0;0;0;0;0;20;4;0;0;();(-2000.0, -2000.0);
03:31:40:383;03:31:40:382;1448461895.15;(0.48282723426818847, 0.18160400390624998);58.2763557434;0.944745490245;;;;;;;;;;;;;;0;0;0;0;0;20;4;0;0;();(-2000.0, -2000.0);
03:31:40:399;03:31:40:384;1448461895.18;(0.4818873405456543, 0.18252470228407114);57.4664459229;1.0;;;;;;;;;;;;;;0;0;0;0;0;20;4;0;0;();(-2000.0, -2000.0);
03:31:40:416;03:31:40:384;1448461895.18;(0.4818873405456543, 0.18252470228407114);57.4664459229;1.0;;;;;;;;;;;;;;0;0;0;0;0;20;4;0;0;();(-2000.0, -2000.0);
03:31:40:433;03:31:40:426;1448461895.22;(0.48111920356750487, 0.1834432813856337);57.1381454468;1.0;;;;;;;;;;;;;;0;0;0;0;0;20;4;0;0;();(-2000.0, -2000.0);
03:31:40:450;03:31:40:426;1448461895.22;(0.48111920356750487, 0.1834432813856337);57.1381454468;1.0;;;;;;;;;;;;;;0;0;0;0;0;20;4;0;0;();(-2000.0, -2000.0);
03:31:40:483;03:31:40:468;1448461895.28;(0.4797510623931885, 0.1847210354275174);56.528842926;1.0;;;;;;;;;;;;;;0;0;0;0;0;20;4;0;0;();(-2000.0, -2000.0);
03:31:40:500;03:31:40:468;1448461895.28;(0.4797510623931885, 0.1847210354275174);56.528842926;1.0;;;;;;;;;;;;;;0;0;0;0;0;20;4;0;0;();(-2000.0, -2000.0);
03:31:40:517;03:31:40:506;1448461895.32;(0.47937893867492676, 0.18545362684461808);56.0665206909;1.0;;;;;;;;;;;;;;0;0;0;0;0;20;4;0;0;();(-2000.0, -2000.0);
03:31:40:533;03:31:40:506;1448461895.32;(0.47937893867492676, 0.18545362684461808);56.0665206909;1.0;;;;;;;;;;;;;;0;0;0;0;0;20;4;0;0;();(-2000.0, -2000.0);
03:31:40:550;03:31:40:506;1448461895.32;(0.47937893867492676, 0.18545362684461808);56.0665206909;1.0;;;;;;;;;;;;;;0;0;0;0;0;20;4;0;0;();(-2000.0, -2000.0);
03:31:40:584;03:31:40:550;1448461895.35;(0.479111385345459, 0.18588333129882817);55.6686134338;1.0;;;;;;;;;;;;;;0;0;0;0;0;20;4;0;0;();(-2000.0, -2000.0);
03:31:40:601;03:31:40:590;1448461895.38;(0.4788699150085449, 0.18599878946940107);55.5873756409;1.0;;;;;;;;;;;;;;0;0;0;0;0;20;4;0;0;();(-2000.0, -2000.0);
03:31:40:618;03:31:40:590;1448461895.38;(0.4788699150085449, 0.18599878946940107);55.5873756409;1.0;;;;;;;;;;;;;;0;0;0;0;0;20;4;0;0;();(-2000.0, -2000.0);
03:31:40:634;03:31:40:590;1448461895.38;(0.4788699150085449, 0.18599878946940107);55.5873756409;1.0;;;;;;;;;;;;;;0;0;0;0;0;20;4;0;0;();(-2000.0, -2000.0);
03:31:40:651;03:31:40:638;1448461895.45;(0.4785298347473145, 0.1863469441731771);55.2625541687;1.0;;;;;;;;;;;;;;0;0;0;0;0;20;4;0;0;();(-2000.0, -2000.0);
03:31:40:684;03:31:40:674;1448461895.48;(0.47847738265991213, 0.1865649753146701);55.0499229431;1.0;;;;;;;;;;;;;;0;0;0;0;0;20;4;0;0;();(-2000.0, -2000.0);
03:31:40:701;03:31:40:674;1448461895.48;(0.47847738265991213, 0.1865649753146701);55.0499229431;1.0;;;;;;;;;;;;;;0;0;0;0;0;20;4;0;0;();(-2000.0, -2000.0);
03:31:40:718;03:31:40:714;1448461895.52;(0.47852611541748047, 0.1867828369140625);54.9618225098;1.0;;;;;;;;;;;;;;0;0;0;0;0;20;4;0;0;();(-2000.0, -2000.0);
03:31:40:735;03:31:40:714;1448461895.52;(0.47852611541748047, 0.1867828369140625);54.9618225098;1.0;;;;;;;;;;;;;;0;0;0;0;0;20;4;0;0;();(-2000.0, -2000.0);
03:31:40:752;03:31:40:714;1448461895.52;(0.47852611541748047, 0.1867828369140625);54.9618225098;1.0;;;;;;;;;;;;;;0;0;0;0;0;20;4;0;0;();(-2000.0, -2000.0);
03:31:40:785;03:31:40:758;1448461895.55;(0.4783305644989014, 0.18692415025499132);55.0506477356;1.0;;;;;;;;;;;;;;0;0;0;0;0;20;4;0;0;();(-2000.0, -2000.0);
03:31:40:802;03:31:40:800;1448461895.62;(0.4782094955444336, 0.18756417168511286);55.1312675476;1.0;;;;;;;;;;;;;;0;0;0;0;0;20;4;0;0;();(-2000.0, -2000.0);
03:31:40:819;03:31:40:800;1448461895.62;(0.4782094955444336, 0.18756417168511286);55.1312675476;1.0;;;;;;;;;;;;;;0;0;0;0;0;20;4;0;0;();(-2000.0, -2000.0);
03:31:40:835;03:31:40:800;1448461895.62;(0.4782094955444336, 0.18756417168511286);55.1312675476;1.0;;;;;;;;;;;;;;0;0;0;0;0;20;4;0;0;();(-2000.0, -2000.0);
03:31:40:852;03:31:40:838;1448461895.65;(0.47821750640869143, 0.18717634412977435);55.1190605164;1.0;;;;;;;;;;;;;;0;0;0;0;0;20;4;0;0;();(-2000.0, -2000.0);
03:31:40:886;03:31:40:882;1448461895.68;(0.4782555103302002, 0.1868744744194879);55.4305000305;1.0;;;;;;;;;;;;;;0;0;0;0;0;20;4;0;0;();(-2000.0, -2000.0);
03:31:40:903;03:31:40:882;1448461895.68;(0.4782555103302002, 0.1868744744194879);55.4305000305;1.0;;;;;;;;;;;;;;0;0;0;0;0;20;4;0;0;();(-2000.0, -2000.0);
03:31:40:920;03:31:40:882;1448461895.68;(0.4782555103302002, 0.1868744744194879);55.4305000305;1.0;;;;;;;;;;;;;;0;0;0;0;0;20;4;0;0;();(-2000.0, -2000.0);
03:31:40:936;03:31:40:923;1448461895.72;(0.47832226753234863, 0.1869637383355035);55.5971870422;1.0;;;;;;;;;;;;;;0;0;0;0;0;20;4;0;0;();(-2000.0, -2000.0);
03:31:40:953;03:31:40:923;1448461895.72;(0.47832226753234863, 0.1869637383355035);55.5971870422;1.0;;;;;;;;;;;;;;0;0;0;0;0;20;4;0;0;();(-2000.0, -2000.0);
03:31:40:970;03:31:40:963;1448461895.78;(0.47854022979736327, 0.187018076578776);55.7290153503;1.0;;;;;;;;;;;;;;0;0;0;0;0;20;4;0;0;();(-2000.0, -2000.0);
03:31:41:003;03:31:40:963;1448461895.78;(0.47854022979736327, 0.187018076578776);55.7290153503;1.0;;;;;;;;;;;;;;0;0;0;0;0;20;4;0;0;();(-2000.0, -2000.0);
03:31:41:020;03:31:41:006;1448461895.82;(0.47852153778076173, 0.18724992540147567);55.8805541992;1.0;;;;;;;;;;;;;;0;0;0;0;0;20;4;0;0;();(-2000.0, -2000.0);
03:31:41:037;03:31:41:006;1448461895.82;(0.47852153778076173, 0.18724992540147567);55.8805541992;1.0;;;;;;;;;;;;;;0;0;0;0;0;20;4;0;0;();(-2000.0, -2000.0);
03:31:41:053;03:31:41:046;1448461895.85;(0.47840290069580077, 0.18700188530815975);56.0329322815;1.0;;;;;;;;;;;;;;0;0;0;0;0;20;4;0;0;();(-2000.0, -2000.0);
03:31:41:070;03:31:41:046;1448461895.85;(0.47840290069580077, 0.18700188530815975);56.0329322815;1.0;;;;;;;;;;;;;;0;0;0;0;0;20;4;0;0;();(-2000.0, -2000.0);
03:31:41:104;03:31:41:090;1448461895.88;(0.47824416160583494, 0.18729036119249132);56.0395393372;1.0;;;;;;;;;;;;;;0;0;0;0;0;20;4;0;0;();(-2000.0, -2000.0);
03:31:41:121;03:31:41:090;1448461895.88;(0.47824416160583494, 0.18729036119249132);56.0395393372;1.0;;;;;;;;;;;;;;0;0;0;0;0;20;4;0;0;();(-2000.0, -2000.0);
03:31:41:137;03:31:41:130;1448461895.92;(0.4782126426696777, 0.1875719706217448);56.2510185242;1.0;;;;;;;;;;;;;;0;0;0;0;0;20;4;0;0;();(-2000.0, -2000.0);
03:31:41:154;03:31:41:130;1448461895.92;(0.4782126426696777, 0.1875719706217448);56.2510185242;1.0;;;;;;;;;;;;;;0;0;0;0;0;20;4;0;0;();(-2000.0, -2000.0);
03:31:41:171;03:31:41:170;1448461895.95;(0.47145094871521, 0.20762134128146703);54.5622596741;1.0;;;;;;;;;;;;;;0;0;0;0;0;20;4;0;0;();(-2000.0, -2000.0);
03:31:41:204;03:31:41:170;1448461895.95;(0.47145094871521, 0.20762134128146703);54.5622596741;1.0;;;;;;;;;;;;;;0;0;0;0;0;20;4;0;0;();(-2000.0, -2000.0);
03:31:41:221;03:31:41:216;1448461896.02;(0.4699875354766846, 0.21701312594943578);55.9786148071;1.0;;;;;;;;;;;;;;0;0;0;0;0;20;4;0;0;();(-2000.0, -2000.0);
03:31:41:238;03:31:41:216;1448461896.02;(0.4699875354766846, 0.21701312594943578);55.9786148071;1.0;;;;;;;;;;;;;;0;0;0;0;0;20;4;0;0;();(-2000.0, -2000.0);
03:31:41:255;03:31:41:254;1448461896.05;(0.4699413776397705, 0.21733686659071183);55.9512557983;1.0;;;;;;;;;;;;;;0;0;0;0;0;20;4;0;0;();(-2000.0, -2000.0);
03:31:41:271;03:31:41:254;1448461896.05;(0.4699413776397705, 0.21733686659071183);55.9512557983;1.0;;;;;;;;;;;;;;0;0;0;0;0;20;4;0;0;();(-2000.0, -2000.0);
03:31:41:305;03:31:41:294;1448461896.08;(0.4698154449462891, 0.2179172092013889);55.9313430786;1.0;;;;;;;;;;;;;;0;0;0;0;0;20;4;0;0;();(-2000.0, -2000.0);
03:31:41:322;03:31:41:294;1448461896.08;(0.4698154449462891, 0.2179172092013889);55.9313430786;1.0;;;;;;;;;;;;;;0;0;0;0;0;20;4;0;0;();(-2000.0, -2000.0);
03:31:41:338;03:31:41:294;1448461896.08;(0.4698154449462891, 0.2179172092013889);55.9313430786;1.0;;;;;;;;;;;;;;0;0;0;0;0;20;4;0;0;();(-2000.0, -2000.0);
03:31:41:355;03:31:41:342;1448461896.15;(0.46972126960754396, 0.21814142862955732);55.7750282288;1.0;;;;;;;;;;;;;;0;0;0;0;0;20;4;0;0;();(-2000.0, -2000.0);
03:31:41:372;03:31:41:342;1448461896.15;(0.46972126960754396, 0.21814142862955732);55.7750282288;1.0;;;;;;;;;;;;;;0;0;0;0;0;20;4;0;0;();(-2000.0, -2000.0);
03:31:41:405;03:31:41:378;1448461896.18;(0.46982927322387696, 0.21816847059461808);55.5778427124;1.0;;;;;;;;;;;;;;0;0;0;0;0;20;4;0;0;();(-2000.0, -2000.0);
03:31:41:422;03:31:41:378;1448461896.18;(0.46982927322387696, 0.21816847059461808);55.5778427124;1.0;;;;;;;;;;;;;;0;0;0;0;0;20;4;0;0;();(-2000.0, -2000.0);
03:31:41:439;03:31:41:423;1448461896.22;(0.46940045356750487, 0.2189333597819011);55.1725578308;1.0;;;;;;;;;;;;;;0;0;0;0;0;20;4;0;0;();(-2000.0, -2000.0);
03:31:41:456;03:31:41:423;1448461896.22;(0.46940045356750487, 0.2189333597819011);55.1725578308;1.0;;;;;;;;;;;;;;0;0;0;0;0;20;4;0;0;();(-2000.0, -2000.0);
03:31:41:473;03:31:41:462;1448461896.25;(0.4626443386077881, 0.23527577718098958);55.2473983765;1.0;;;;;;;;;;;;;;0;0;0;0;0;20;4;0;0;();(-2000.0, -2000.0);
03:31:41:506;03:31:41:503;1448461896.32;(0.46286907196044924, 0.2358004252115885);55.3609695435;1.0;;;;;;;;;;;;;;0;0;0;0;0;20;4;0;0;();(-2000.0, -2000.0);
03:31:41:523;03:31:41:503;1448461896.32;(0.46286907196044924, 0.2358004252115885);55.3609695435;1.0;;;;;;;;;;;;;;0;0;0;0;0;20;4;0;0;();(-2000.0, -2000.0);
03:31:41:540;03:31:41:503;1448461896.32;(0.46286907196044924, 0.2358004252115885);55.3609695435;1.0;;;;;;;;;;;;;;0;0;0;0;0;20;4;0;0;();(-2000.0, -2000.0);
03:31:41:557;03:31:41:546;1448461896.35;(0.4628938674926758, 0.23593605889214408);55.4460830688;1.0;;;;;;;;;;;;;;0;0;0;0;0;20;4;0;0;();(-2000.0, -2000.0);
03:31:41:573;03:31:41:546;1448461896.35;(0.4628938674926758, 0.23593605889214408);55.4460830688;1.0;;;;;;;;;;;;;;0;0;0;0;0;20;4;0;0;();(-2000.0, -2000.0);
03:31:41:590;03:31:41:586;1448461896.38;(0.46280694007873535, 0.2361100938585069);55.7226104736;1.0;;;;;;;;;;;;;;0;0;0;0;0;20;4;0;0;();(-2000.0, -2000.0);
03:31:41:625;03:31:41:586;1448461896.38;(0.46280694007873535, 0.2361100938585069);55.7226104736;1.0;;;;;;;;;;;;;;0;0;0;0;0;20;4;0;0;();(-2000.0, -2000.0);
03:31:41:640;03:31:41:626;1448461896.42;(0.4629952430725098, 0.23622631496853297);55.6570854187;1.0;;;;;;;;;;;;;;0;0;0;0;0;20;4;0;0;();(-2000.0, -2000.0);
03:31:41:657;03:31:41:626;1448461896.42;(0.4629952430725098, 0.23622631496853297);55.6570854187;1.0;;;;;;;;;;;;;;0;0;0;0;0;20;4;0;0;();(-2000.0, -2000.0);
03:31:41:674;03:31:41:670;1448461896.45;(0.4633656978607178, 0.2356920030381945);55.9264564514;1.0;;;;;;;;;;;;;;0;0;0;0;0;20;4;0;0;();(-2000.0, -2000.0);
03:31:41:691;03:31:41:670;1448461896.45;(0.4633656978607178, 0.2356920030381945);55.9264564514;1.0;;;;;;;;;;;;;;0;0;0;0;0;20;4;0;0;();(-2000.0, -2000.0);
03:31:41:724;03:31:41:712;1448461896.52;(0.46536569595336913, 0.2274846394856771);56.0929069519;1.0;;;;;;;;;;;;;;0;0;0;0;0;20;4;0;0;();(-2000.0, -2000.0);
03:31:41:741;03:31:41:712;1448461896.52;(0.46536569595336913, 0.2274846394856771);56.0929069519;1.0;;;;;;;;;;;;;;0;0;0;0;0;20;4;0;0;();(-2000.0, -2000.0);
03:31:41:758;03:31:41:750;1448461896.55;(0.4655346393585205, 0.22798860337999127);55.9122886658;1.0;;;;;;;;;;;;;;0;0;0;0;0;20;4;0;0;();(-2000.0, -2000.0);
03:31:41:775;03:31:41:750;1448461896.55;(0.4655346393585205, 0.22798860337999127);55.9122886658;1.0;;;;;;;;;;;;;;0;0;0;0;0;20;4;0;0;();(-2000.0, -2000.0);
03:31:41:791;03:31:41:750;1448461896.55;(0.4655346393585205, 0.22798860337999127);55.9122886658;1.0;;;;;;;;;;;;;;0;0;0;0;0;20;4;0;0;();(-2000.0, -2000.0);
03:31:41:825;03:31:41:795;1448461896.58;(0.46571741104125974, 0.2278135511610243);55.9526481628;1.0;;;;;;;;;;;;;;0;0;0;0;0;20;4;0;0;();(-2000.0, -2000.0);
03:31:41:842;03:31:41:835;1448461896.65;(0.26906373500823977, 0.1591664632161458);19.9639854431;0.744141623592;;;;;;;;;;;;;;0;0;0;0;0;20;4;0;0;();(-2000.0, -2000.0);
03:31:41:858;03:31:41:835;1448461896.65;(0.26906373500823977, 0.1591664632161458);19.9639854431;0.744141623592;;;;;;;;;;;;;;0;0;0;0;0;20;4;0;0;();(-2000.0, -2000.0);
03:31:41:875;03:31:41:874;1448461896.68;(0, 0);0;0;;;;;;;;;;;;;;0;0;0;0;0;20;4;0;0;();(-2000.0, -2000.0);
03:31:41:892;03:31:41:874;1448461896.68;(0, 0);0;0;;;;;;;;;;;;;;0;0;0;0;0;20;4;0;0;();(-2000.0, -2000.0);
03:31:41:926;03:31:41:918;1448461896.72;(0, 0);0;0;;;;;;;;;;;;;;0;0;0;0;0;20;4;0;0;();(-2000.0, -2000.0);
03:31:41:942;03:31:41:918;1448461896.72;(0, 0);0;0;;;;;;;;;;;;;;0;0;0;0;0;20;4;0;0;();(-2000.0, -2000.0);
03:31:41:960;03:31:41:958;1448461896.75;(0.2284621238708496, 0.17539816962348087);23.9532222748;0.872078008627;;;;;;;;;;;;;;0;0;0;0;0;20;4;0;0;();(-2000.0, -2000.0);
03:31:41:976;03:31:41:958;1448461896.75;(0.2284621238708496, 0.17539816962348087);23.9532222748;0.872078008627;;;;;;;;;;;;;;0;0;0;0;0;20;4;0;0;();(-2000.0, -2000.0);
03:31:41:992;03:31:41:958;1448461896.75;(0.2284621238708496, 0.17539816962348087);23.9532222748;0.872078008627;;;;;;;;;;;;;;0;0;0;0;0;20;4;0;0;();(-2000.0, -2000.0);
03:31:42:026;03:31:42:002;1448461896.78;(0.3643455982208252, 0.22699093288845484);60.1424217224;1.0;;;;;;;;;;;;;;0;0;0;0;0;20;4;0;0;();(-2000.0, -2000.0);
03:31:42:043;03:31:42:042;1448461896.82;(0.36645846366882323, 0.23025436401367183);59.8078079224;1.0;;;;;;;;;;;;;;0;0;0;0;0;20;4;0;0;();(-2000.0, -2000.0);
03:31:42:061;03:31:42:044;1448461896.85;(0.36911075115203856, 0.23066406250000004);59.7707633972;1.0;;;;;;;;;;;;;;0;0;0;0;0;20;4;0;0;();(-2000.0, -2000.0);
03:31:42:076;03:31:42:044;1448461896.85;(0.36911075115203856, 0.23066406250000004);59.7707633972;1.0;;;;;;;;;;;;;;0;0;0;0;0;20;4;0;0;();(-2000.0, -2000.0);
03:31:42:093;03:31:42:083;1448461896.88;(0.3720941305160522, 0.23068839179144962);59.7171287537;1.0;;;;;;;;;;;;;;0;0;0;0;0;20;4;0;0;();(-2000.0, -2000.0);
03:31:42:110;03:31:42:083;1448461896.88;(0.3720941305160522, 0.23068839179144962);59.7171287537;1.0;;;;;;;;;;;;;;0;0;0;0;0;20;4;0;0;();(-2000.0, -2000.0);
03:31:42:143;03:31:42:126;1448461896.92;(0.37531044483184817, 0.23068720499674478);59.5794906616;1.0;;;;;;;;;;;;;;0;0;0;0;0;20;4;0;0;();(-2000.0, -2000.0);
03:31:42:160;03:31:42:126;1448461896.92;(0.37531044483184817, 0.23068720499674478);59.5794906616;1.0;;;;;;;;;;;;;;0;0;0;0;0;20;4;0;0;();(-2000.0, -2000.0);
03:31:42:178;03:31:42:166;1448461896.95;(0.3784891843795776, 0.23116361829969623);59.2276306152;1.0;;;;;;;;;;;;;;0;0;0;0;0;20;4;0;0;();(-2000.0, -2000.0);
03:31:42:194;03:31:42:166;1448461896.95;(0.3784891843795776, 0.23116361829969623);59.2276306152;1.0;;;;;;;;;;;;;;0;0;0;0;0;20;4;0;0;();(-2000.0, -2000.0);
03:31:42:210;03:31:42:206;1448461896.98;(0.3815962553024292, 0.23192003038194442);59.0563011169;1.0;;;;;;;;;;;;;;0;0;0;0;0;20;4;0;0;();(-2000.0, -2000.0);
03:31:42:244;03:31:42:206;1448461896.98;(0.3815962553024292, 0.23192003038194442);59.0563011169;1.0;;;;;;;;;;;;;;0;0;0;0;0;20;4;0;0;();(-2000.0, -2000.0);
03:31:42:261;03:31:42:251;1448461897.05;(0.3866281986236572, 0.22151107788085933);58.7356300354;1.0;;;;;;;;;;;;;;0;0;0;0;0;20;4;0;0;();(-2000.0, -2000.0);
03:31:42:278;03:31:42:251;1448461897.05;(0.3866281986236572, 0.22151107788085933);58.7356300354;1.0;;;;;;;;;;;;;;0;0;0;0;0;20;4;0;0;();(-2000.0, -2000.0);
03:31:42:294;03:31:42:290;1448461897.08;(0.3878556966781616, 0.22119064331054683);59.0231323242;0.96082665279;;;;;;;;;;;;;;0;0;0;0;0;20;4;0;0;();(-2000.0, -2000.0);
03:31:42:311;03:31:42:290;1448461897.08;(0.3878556966781616, 0.22119064331054683);59.0231323242;0.96082665279;;;;;;;;;;;;;;0;0;0;0;0;20;4;0;0;();(-2000.0, -2000.0);
03:31:42:345;03:31:42:336;1448461897.15;(0.39119749069213866, 0.2216035630967882);58.8663902283;0.835724650227;;;;;;;;;;;;;;0;0;0;0;0;20;4;0;0;();(-2000.0, -2000.0);
03:31:42:361;03:31:42:336;1448461897.15;(0.39119749069213866, 0.2216035630967882);58.8663902283;0.835724650227;;;;;;;;;;;;;;0;0;0;0;0;20;4;0;0;();(-2000.0, -2000.0);
03:31:42:378;03:31:42:374;1448461897.18;(0.39268519878387453, 0.22136086357964413);58.9376449585;0.903561002523;;;;;;;;;;;;;;0;0;0;0;0;20;4;0;0;();(-2000.0, -2000.0);
03:31:42:396;03:31:42:374;1448461897.18;(0.39268519878387453, 0.22136086357964413);58.9376449585;0.903561002523;;;;;;;;;;;;;;0;0;0;0;0;20;4;0;0;();(-2000.0, -2000.0);
03:31:42:412;03:31:42:374;1448461897.18;(0.39268519878387453, 0.22136086357964413);58.9376449585;0.903561002523;;;;;;;;;;;;;;0;0;0;0;0;20;4;0;0;();(-2000.0, -2000.0);
03:31:42:445;03:31:42:414;1448461897.22;(0.3938394069671631, 0.2202518039279514);58.6995010376;1.0;;;;;;;;;;;;;;0;0;0;0;0;20;4;0;0;();(-2000.0, -2000.0);
03:31:42:462;03:31:42:459;1448461897.25;(0.39530489444732664, 0.22180209689670138);58.6959190369;0.940718616126;;;;;;;;;;;;;;0;0;0;0;0;20;4;0;0;();(-2000.0, -2000.0);
03:31:42:481;03:31:42:459;1448461897.25;(0.39530489444732664, 0.22180209689670138);58.6959190369;0.940718616126;;;;;;;;;;;;;;0;51,40;0;0;0;20;4;0;0;();(-2000.0, -2000.0);
03:31:42:497;03:31:42:459;1448461897.25;(0.39530489444732664, 0.22180209689670138);58.6959190369;0.940718616126;;;;;;;;;;;;;;0;51,40;0;0;0;20;4;0;0;();(-2000.0, -2000.0);
03:31:42:512;03:31:42:500;1448461897.28;(0.3949699401855469, 0.22073957655164933);58.5859642029;1.0;;;;;;;;;;;;;;0;40;0;0;0;25;5;0;0;();(-2000.0, -2000.0);
03:31:42:530;03:31:42:500;1448461897.28;(0.3949699401855469, 0.22073957655164933);58.5859642029;1.0;;;;;;;;;;;;;;0;40;0;0;0;25;5;0;0;();(-2000.0, -2000.0);
03:31:42:564;03:31:42:538;1448461897.32;(0.39432101249694823, 0.21817338731553815);59.0116691589;0.871408836937;;;;;;;;;;;;;;0;40;0;0;0;25;5;0;0;();(-2000.0, -2000.0);
03:31:42:581;03:31:42:538;1448461897.32;(0.39432101249694823, 0.21817338731553815);59.0116691589;0.871408836937;;;;;;;;;;;;;;0;40;0;0;0;25;5;0;0;();(-2000.0, -2000.0);
03:31:42:597;03:31:42:585;1448461897.38;(0.3911003351211548, 0.21062655978732636);59.7527999878;1.0;;;;;;;;;;;;;;0;40;0;0;0;25;5;0;0;();(-2000.0, -2000.0);
03:31:42:614;03:31:42:585;1448461897.38;(0.3911003351211548, 0.21062655978732636);59.7527999878;1.0;;;;;;;;;;;;;;0;40;0;0;0;25;5;0;0;();(-2000.0, -2000.0);
03:31:42:631;03:31:42:622;1448461897.42;(0.390311074256897, 0.20858196682400176);60.2862968445;0.905945973649;;;;;;;;;;;;;;0;40;0;0;0;25;5;0;0;();(-2000.0, -2000.0);
03:31:42:663;03:31:42:662;1448461897.45;(0.38941004276275637, 0.20641547309027775);60.1699295044;0.915598188325;;;;;;;;;;;;;;0;40;0;0;0;25;5;0;0;();(-2000.0, -2000.0);
03:31:42:681;03:31:42:664;1448461897.48;(0.3887303829193115, 0.20468936496310763);60.2962379456;0.996925156687;;;;;;;;;;;;;;0;40;0;0;0;25;5;0;0;();(-2000.0, -2000.0);
03:31:42:698;03:31:42:664;1448461897.48;(0.3887303829193115, 0.20468936496310763);60.2962379456;0.996925156687;;;;;;;;;;;;;;0;40;0;0;0;25;5;0;0;();(-2000.0, -2000.0);
03:31:42:715;03:31:42:706;1448461897.52;(0.387918496131897, 0.20235926310221353);60.1915817261;0.860061605735;;;;;;;;;;;;;;0;40;0;0;0;25;5;0;0;();(-2000.0, -2000.0);
03:31:42:732;03:31:42:706;1448461897.52;(0.387918496131897, 0.20235926310221353);60.1915817261;0.860061605735;;;;;;;;;;;;;;0;40;0;0;0;25;5;0;0;();(-2000.0, -2000.0);
03:31:42:765;03:31:42:746;1448461897.55;(0.38716988563537597, 0.20013529459635415);60.4787330627;0.876232333084;;;;;;;;;;;;;;0;40;0;0;0;25;5;0;0;();(-2000.0, -2000.0);
03:31:42:782;03:31:42:746;1448461897.55;(0.38716988563537597, 0.20013529459635415);60.4787330627;0.876232333084;;;;;;;;;;;;;;0;40;0;0;0;25;5;0;0;();(-2000.0, -2000.0);
03:31:42:797;03:31:42:790;1448461897.58;(0.38611655235290526, 0.19739134046766493);60.7591171265;0.819379283114;;;;;;;;;;;;;;0;40;0;0;0;25;5;0;0;();(-2000.0, -2000.0);
03:31:42:815;03:31:42:790;1448461897.58;(0.38611655235290526, 0.19739134046766493);60.7591171265;0.819379283114;;;;;;;;;;;;;;0;40;0;0;0;25;5;0;0;();(-2000.0, -2000.0);
03:31:42:832;03:31:42:830;1448461897.62;(0.38516011238098147, 0.1954672071668837);61.0987243652;0.910647121331;;;;;;;;;;;;;;0;40;0;0;0;25;5;0;0;();(-2000.0, -2000.0);
03:31:42:864;03:31:42:830;1448461897.62;(0.38516011238098147, 0.1954672071668837);61.0987243652;0.910647121331;;;;;;;;;;;;;;0;40;0;0;0;25;5;0;0;();(-2000.0, -2000.0);
03:31:42:882;03:31:42:830;1448461897.62;(0.38516011238098147, 0.1954672071668837);61.0987243652;0.910647121331;;;;;;;;;;;;;;0;40;0;0;0;25;5;0;0;();(-2000.0, -2000.0);
03:31:42:899;03:31:42:830;1448461897.62;(0.38516011238098147, 0.1954672071668837);61.0987243652;0.910647121331;;;;;;;;;;;;;;0;40;0;0;0;25;5;0;0;();(-2000.0, -2000.0);
03:31:42:916;03:31:42:914;1448461897.65;(0.3806734085083008, 0.20417709350585933);61.7043418884;0.845340365478;;;;;;;;;;;;;;0;40;0;0;0;25;5;0;0;();(-2000.0, -2000.0);
03:31:42:933;03:31:42:918;1448461897.72;(0.3666271448135376, 0.2346061706542969);61.6628646851;1.0;;;;;;;;;;;;;;0;40;0;0;0;25;5;0;0;();(-2000.0, -2000.0);
03:31:42:966;03:31:42:954;1448461897.75;(0.36762375831604005, 0.23347159491644964);61.9707221985;1.0;;;;;;;;;;;;;;0;40;0;0;0;25;5;0;0;();(-2000.0, -2000.0);
03:31:42:983;03:31:42:954;1448461897.75;(0.36762375831604005, 0.23347159491644964);61.9707221985;1.0;;;;;;;;;;;;;;0;40;0;0;0;25;5;0;0;();(-2000.0, -2000.0);
03:31:43:000;03:31:42:994;1448461897.78;(0.3687865972518921, 0.23262761433919266);61.966709137;1.0;;;;;;;;;;;;;;0;40;0;0;0;25;5;0;0;();(-2000.0, -2000.0);
03:31:43:015;03:31:42:994;1448461897.78;(0.3687865972518921, 0.23262761433919266);61.966709137;1.0;;;;;;;;;;;;;;0;40;0;0;0;25;5;0;0;();(-2000.0, -2000.0);
03:31:43:033;03:31:42:994;1448461897.78;(0.3687865972518921, 0.23262761433919266);61.966709137;1.0;;;;;;;;;;;;;;0;40;0;0;0;25;5;0;0;();(-2000.0, -2000.0);
03:31:43:067;03:31:43:039;1448461897.85;(0.37126741409301756, 0.23235117594401045);62.0151519775;1.0;;;;;;;;;;;;;;0;40;0;0;0;25;5;0;0;();(-2000.0, -2000.0);
03:31:43:082;03:31:43:078;1448461897.88;(0.37157604694366453, 0.2306866115993924);62.5102615356;1.0;;;;;;;;;;;;;;0;40;0;0;0;25;5;0;0;();(-2000.0, -2000.0);
03:31:43:100;03:31:43:078;1448461897.88;(0.37157604694366453, 0.2306866115993924);62.5102615356;1.0;;;;;;;;;;;;;;0;40;0;0;0;25;5;0;0;();(-2000.0, -2000.0);
03:31:43:117;03:31:43:078;1448461897.88;(0.37157604694366453, 0.2306866115993924);62.5102615356;1.0;;;;;;;;;;;;;;0;40;0;0;0;25;5;0;0;();(-2000.0, -2000.0);
03:31:43:134;03:31:43:123;1448461897.92;(0.3724735021591187, 0.2320405748155382);62.3455657959;1.0;;;;;;;;;;;;;;0;40;0;0;0;25;5;0;0;();(-2000.0, -2000.0);
03:31:43:151;03:31:43:123;1448461897.92;(0.3724735021591187, 0.2320405748155382);62.3455657959;1.0;;;;;;;;;;;;;;0;40;0;0;0;25;5;0;0;();(-2000.0, -2000.0);
03:31:43:184;03:31:43:163;1448461897.98;(0.374534010887146, 0.23706410725911453);62.5818214417;0.840241313114;;;;;;;;;;;;;;0;40;0;0;0;25;5;0;0;();(-2000.0, -2000.0);
03:31:43:201;03:31:43:163;1448461897.98;(0.374534010887146, 0.23706410725911453);62.5818214417;0.840241313114;;;;;;;;;;;;;;0;40;0;0;0;25;5;0;0;();(-2000.0, -2000.0);
03:31:43:217;03:31:43:163;1448461897.98;(0.374534010887146, 0.23706410725911453);62.5818214417;0.840241313114;;;;;;;;;;;;;;0;40;0;0;0;25;5;0;0;();(-2000.0, -2000.0);
03:31:43:233;03:31:43:163;1448461897.98;(0.374534010887146, 0.23706410725911453);62.5818214417;0.840241313114;;;;;;;;;;;;;;0;40;0;0;0;25;5;0;0;();(-2000.0, -2000.0);
03:31:43:251;03:31:43:246;1448461898.02;(0.375961446762085, 0.24045554267035585);62.7092666626;1.0;;;;;;;;;;;;;;0;40;0;0;0;25;5;0;0;();(-2000.0, -2000.0);
03:31:43:285;03:31:43:246;1448461898.02;(0.375961446762085, 0.24045554267035585);62.7092666626;1.0;;;;;;;;;;;;;;0;40;0;0;0;25;5;0;0;();(-2000.0, -2000.0);
03:31:43:300;03:31:43:286;1448461898.05;(0.37706139087677004, 0.24305436876085074);62.9146232605;1.0;;;;;;;;;;;;;;0;40;0;0;0;25;5;0;0;();(-2000.0, -2000.0);
03:31:43:317;03:31:43:286;1448461898.05;(0.37706139087677004, 0.24305436876085074);62.9146232605;1.0;;;;;;;;;;;;;;0;40;0;0;0;25;5;0;0;();(-2000.0, -2000.0);
03:31:43:335;03:31:43:327;1448461898.12;(0.37930252552032473, 0.24781714545355904);62.96717453;1.0;;;;;;;;;;;;;;0;40;0;0;0;25;5;0;0;();(-2000.0, -2000.0);
03:31:43:352;03:31:43:327;1448461898.12;(0.37930252552032473, 0.24781714545355904);62.96717453;1.0;;;;;;;;;;;;;;0;40;0;0;0;25;5;0;0;();(-2000.0, -2000.0);
03:31:43:386;03:31:43:370;1448461898.15;(0.379975700378418, 0.24925638834635422);63.1134796143;1.0;;;;;;;;;;;;;;0;40;0;0;0;25;5;0;0;();(-2000.0, -2000.0);
03:31:43:402;03:31:43:370;1448461898.15;(0.379975700378418, 0.24925638834635422);63.1134796143;1.0;;;;;;;;;;;;;;0;40;0;0;0;25;5;0;0;();(-2000.0, -2000.0);
03:31:43:419;03:31:43:411;1448461898.22;(0.38034164905548096, 0.2522713555230035);63.5268821716;1.0;;;;;;;;;;;;;;0;40;0;0;0;25;5;0;0;();(-2000.0, -2000.0);
03:31:43:436;03:31:43:411;1448461898.22;(0.38034164905548096, 0.2522713555230035);63.5268821716;1.0;;;;;;;;;;;;;;0;40;0;0;0;25;5;0;0;();(-2000.0, -2000.0);
03:31:43:453;03:31:43:411;1448461898.22;(0.38034164905548096, 0.2522713555230035);63.5268821716;1.0;;;;;;;;;;;;;;0;40;0;0;0;25;5;0;0;();(-2000.0, -2000.0);
03:31:43:486;03:31:43:455;1448461898.25;(0.38019576072692873, 0.2539232889811198);63.6300811768;1.0;;;;;;;;;;;;;;0;40;0;0;0;25;5;0;0;();(-2000.0, -2000.0);
03:31:43:503;03:31:43:495;1448461898.28;(0.3799786329269409, 0.25577994452582464);63.8048019409;1.0;;;;;;;;;;;;;;0;40;0;0;0;25;5;0;0;();(-2000.0, -2000.0);
03:31:43:520;03:31:43:495;1448461898.28;(0.3799786329269409, 0.25577994452582464);63.8048019409;1.0;;;;;;;;;;;;;;0;40;0;0;0;25;5;0;0;();(-2000.0, -2000.0);
03:31:43:535;03:31:43:534;1448461898.32;(0.3827977657318115, 0.2525570339626736);63.6408882141;1.0;;;;;;;;;;;;;;0;40;0;0;0;25;5;0;0;();(-2000.0, -2000.0);
03:31:43:553;03:31:43:534;1448461898.32;(0.3827977657318115, 0.2525570339626736);63.6408882141;1.0;;;;;;;;;;;;;;0;40;0;0;0;25;5;0;0;();(-2000.0, -2000.0);
03:31:43:570;03:31:43:534;1448461898.32;(0.3827977657318115, 0.2525570339626736);63.6408882141;1.0;;;;;;;;;;;;;;0;40;0;0;0;25;5;0;0;();(-2000.0, -2000.0);
03:31:43:602;03:31:43:579;1448461898.38;(0.40379924774169923, 0.213071780734592);63.1198577881;1.0;;;;;;;;;;;;;;0;40;0;0;0;25;5;0;0;();(-2000.0, -2000.0);
03:31:43:620;03:31:43:618;1448461898.42;(0.4027956247329712, 0.2134795294867622);63.4225463867;0.985104744486;;;;;;;;;;;;;;0;40;0;0;0;25;5;0;0;();(-2000.0, -2000.0);
03:31:43:637;03:31:43:618;1448461898.42;(0.4027956247329712, 0.2134795294867622);63.4225463867;0.985104744486;;;;;;;;;;;;;;0;40;0;0;0;25;5;0;0;();(-2000.0, -2000.0);
03:31:43:654;03:31:43:618;1448461898.42;(0.4027956247329712, 0.2134795294867622);63.4225463867;0.985104744486;;;;;;;;;;;;;;0;40;0;0;0;25;5;0;0;();(-2000.0, -2000.0);
03:31:43:670;03:31:43:658;1448461898.45;(0.40187413692474366, 0.21456442938910592);63.3496704102;1.0;;;;;;;;;;;;;;0;40;0;0;0;25;5;0;0;();(-2000.0, -2000.0);
03:31:43:704;03:31:43:702;1448461898.48;(0.4008814334869385, 0.21468531290690107);63.5478553772;1.0;;;;;;;;;;;;;;0;40;0;0;0;25;5;0;0;();(-2000.0, -2000.0);
03:31:43:721;03:31:43:703;1448461898.52;(0.40019495487213136, 0.21506576538085942);63.5707130432;1.0;;;;;;;;;;;;;;0;40;0;0;0;25;5;0;0;();(-2000.0, -2000.0);
03:31:43:738;03:31:43:703;1448461898.52;(0.40019495487213136, 0.21506576538085942);63.5707130432;1.0;;;;;;;;;;;;;;0;40;0;0;0;25;5;0;0;();(-2000.0, -2000.0);
03:31:43:753;03:31:43:742;1448461898.55;(0.3995633602142334, 0.21476660834418404);63.8254623413;1.0;;;;;;;;;;;;;;0;40;0;0;0;25;5;0;0;();(-2000.0, -2000.0);
03:31:43:771;03:31:43:742;1448461898.55;(0.3995633602142334, 0.21476660834418404);63.8254623413;1.0;;;;;;;;;;;;;;0;40;0;0;0;25;5;0;0;();(-2000.0, -2000.0);
03:31:43:805;03:31:43:782;1448461898.58;(0.39573187828063966, 0.21351089477539065);64.0500869751;1.0;;;;;;;;;;;;;;0;40;0;0;0;25;5;0;0;();(-2000.0, -2000.0);
03:31:43:820;03:31:43:782;1448461898.58;(0.39573187828063966, 0.21351089477539065);64.0500869751;1.0;;;;;;;;;;;;;;0;40;0;0;0;25;5;0;0;();(-2000.0, -2000.0);
03:31:43:837;03:31:43:827;1448461898.62;(0.3952961444854736, 0.2126617431640625);64.2763519287;1.0;;;;;;;;;;;;;;0;40;0;0;0;25;5;0;0;();(-2000.0, -2000.0);
03:31:43:855;03:31:43:827;1448461898.62;(0.3952961444854736, 0.2126617431640625);64.2763519287;1.0;;;;;;;;;;;;;;0;40;0;0;0;25;5;0;0;();(-2000.0, -2000.0);
03:31:43:872;03:31:43:867;1448461898.68;(0.3942629337310791, 0.21162940131293406);64.4569091797;1.0;;;;;;;;;;;;;;0;40;0;0;0;25;5;0;0;();(-2000.0, -2000.0);
03:31:43:905;03:31:43:867;1448461898.68;(0.3942629337310791, 0.21162940131293406);64.4569091797;1.0;;;;;;;;;;;;;;0;40;0;0;0;25;5;0;0;();(-2000.0, -2000.0);
03:31:43:922;03:31:43:910;1448461898.72;(0.3933215856552124, 0.21094156901041672);64.4259338379;1.0;;;;;;;;;;;;;;0;40;0;0;0;25;5;0;0;();(-2000.0, -2000.0);
03:31:43:939;03:31:43:910;1448461898.72;(0.3933215856552124, 0.21094156901041672);64.4259338379;1.0;;;;;;;;;;;;;;0;40;0;0;0;25;5;0;0;();(-2000.0, -2000.0);
03:31:43:954;03:31:43:950;1448461898.75;(0.39247472286224366, 0.21046947903103297);64.7048492432;1.0;;;;;;;;;;;;;;0;40;0;0;0;25;5;0;0;();(-2000.0, -2000.0);
03:31:43:972;03:31:43:950;1448461898.75;(0.39247472286224366, 0.21046947903103297);64.7048492432;1.0;;;;;;;;;;;;;;0;40;0;0;0;25;5;0;0;();(-2000.0, -2000.0);
03:31:44:006;03:31:43:991;1448461898.78;(0.39125020503997804, 0.21010140313042536);64.7976608276;1.0;;;;;;;;;;;;;;0;40;0;0;0;25;5;0;0;();(-2000.0, -2000.0);
03:31:44:021;03:31:43:991;1448461898.78;(0.39125020503997804, 0.21010140313042536);64.7976608276;1.0;;;;;;;;;;;;;;0;40;0;0;0;25;5;0;0;();(-2000.0, -2000.0);
03:31:44:038;03:31:44:035;1448461898.85;(0.38894784450531006, 0.2091477288140191);65.3199768066;1.0;;;;;;;;;;;;;;0;40;0;0;0;25;5;0;0;();(-2000.0, -2000.0);
03:31:44:056;03:31:44:035;1448461898.85;(0.38894784450531006, 0.2091477288140191);65.3199768066;1.0;;;;;;;;;;;;;;0;40;0;0;0;25;5;0;0;();(-2000.0, -2000.0);
03:31:44:073;03:31:44:035;1448461898.85;(0.38894784450531006, 0.2091477288140191);65.3199768066;1.0;;;;;;;;;;;;;;0;40;0;0;0;25;5;0;0;();(-2000.0, -2000.0);
03:31:44:105;03:31:44:035;1448461898.85;(0.38894784450531006, 0.2091477288140191);65.3199768066;1.0;;;;;;;;;;;;;;0;40;0;0;0;25;5;0;0;();(-2000.0, -2000.0);
03:31:44:123;03:31:44:114;1448461898.88;(0.41081340312957765, 0.21285934448242183);64.3294067383;0.986543919638;;;;;;;;;;;;;;0;40;0;0;0;25;5;0;0;();(-2000.0, -2000.0);
03:31:44:140;03:31:44:114;1448461898.88;(0.41081340312957765, 0.21285934448242183);64.3294067383;0.986543919638;;;;;;;;;;;;;;0;40;0;0;0;25;5;0;0;();(-2000.0, -2000.0);
03:31:44:157;03:31:44:114;1448461898.88;(0.41081340312957765, 0.21285934448242183);64.3294067383;0.986543919638;;;;;;;;;;;;;;0;40;0;0;0;25;5;0;0;();(-2000.0, -2000.0);
03:31:44:204;03:31:44:158;1448461898.92;(0.4116220235824585, 0.21398595174153645);63.9617881775;1.0;;;;;;;;;;;;;;0;40;0;0;0;25;5;0;0;();(-2000.0, -2000.0);
03:31:44:208;03:31:44:204;1448461898.95;(0.41044280529022215, 0.21477305094401045);64.1012802124;1.0;;;;;;;;;;;;;;0;40;0;0;0;25;5;0;0;();(-2000.0, -2000.0);
03:31:44:214;03:31:44:211;1448461899.02;(0.408649206161499, 0.21575987074110248);64.370010376;1.0;;;;;;;;;;;;;;0;40;0;0;0;25;5;0;0;();(-2000.0, -2000.0);
03:31:44:241;03:31:44:211;1448461899.02;(0.408649206161499, 0.21575987074110248);64.370010376;1.0;;;;;;;;;;;;;;0;40;0;0;0;25;5;0;0;();(-2000.0, -2000.0);
03:31:44:257;03:31:44:242;1448461899.05;(0.40791759490966795, 0.21600206163194446);64.3799133301;1.0;;;;;;;;;;;;;;0;40;0;0;0;25;5;0;0;();(-2000.0, -2000.0);
03:31:44:274;03:31:44:242;1448461899.05;(0.40791759490966795, 0.21600206163194446);64.3799133301;1.0;;;;;;;;;;;;;;0;40;0;0;0;25;5;0;0;();(-2000.0, -2000.0);
03:31:44:291;03:31:44:282;1448461899.08;(0.4074058771133423, 0.21582404242621522);64.5423355103;1.0;;;;;;;;;;;;;;0;40;0;0;0;25;5;0;0;();(-2000.0, -2000.0);
03:31:44:324;03:31:44:322;1448461899.12;(0.40697364807128905, 0.21551513671875);64.5944595337;1.0;;;;;;;;;;;;;;0;40;0;0;0;25;5;0;0;();(-2000.0, -2000.0);
03:31:44:341;03:31:44:322;1448461899.12;(0.40697364807128905, 0.21551513671875);64.5944595337;1.0;;;;;;;;;;;;;;0;40;0;0;0;25;5;0;0;();(-2000.0, -2000.0);
03:31:44:358;03:31:44:322;1448461899.12;(0.40697364807128905, 0.21551513671875);64.5944595337;1.0;;;;;;;;;;;;;;0;40;0;0;0;25;5;0;0;();(-2000.0, -2000.0);
03:31:44:375;03:31:44:367;1448461899.18;(0.4183468818664551, 0.21566492716471353);64.5981521606;0.905357999595;;;;;;;;;;;;;;0;40;0;0;0;25;5;0;0;();(-2000.0, -2000.0);
03:31:44:391;03:31:44:367;1448461899.18;(0.4183468818664551, 0.21566492716471353);64.5981521606;0.905357999595;;;;;;;;;;;;;;0;40;0;0;0;25;5;0;0;();(-2000.0, -2000.0);
03:31:44:425;03:31:44:406;1448461899.22;(0.4181829452514648, 0.21579318576388884);63.8815002441;1.0;;;;;;;;;;;;;;0;40;0;0;0;25;5;0;0;();(-2000.0, -2000.0);
03:31:44:442;03:31:44:406;1448461899.22;(0.4181829452514648, 0.21579318576388884);63.8815002441;1.0;;;;;;;;;;;;;;0;40;0;0;0;25;5;0;0;();(-2000.0, -2000.0);
03:31:44:459;03:31:44:446;1448461899.25;(0.4176092863082886, 0.21539874606662324);63.6470184326;1.0;;;;;;;;;;;;;;0;40;0;0;0;25;5;0;0;();(-2000.0, -2000.0);
03:31:44:474;03:31:44:446;1448461899.25;(0.4176092863082886, 0.21539874606662324);63.6470184326;1.0;;;;;;;;;;;;;;0;40;0;0;0;25;5;0;0;();(-2000.0, -2000.0);
03:31:44:492;03:31:44:490;1448461899.28;(0.41707801818847656, 0.21564475165473085);63.7095336914;1.0;;;;;;;;;;;;;;0;40;0;0;0;25;5;0;0;();(-2000.0, -2000.0);
03:31:44:526;03:31:44:490;1448461899.28;(0.41707801818847656, 0.21564475165473085);63.7095336914;1.0;;;;;;;;;;;;;;0;40;0;0;0;25;5;0;0;();(-2000.0, -2000.0);
03:31:44:541;03:31:44:530;1448461899.32;(0.4165281534194946, 0.21566170586480038);63.575553894;1.0;;;;;;;;;;;;;;0;40;0;0;0;25;5;0;0;();(-2000.0, -2000.0);
03:31:44:558;03:31:44:530;1448461899.32;(0.4165281534194946, 0.21566170586480038);63.575553894;1.0;;;;;;;;;;;;;;0;40;0;0;0;25;5;0;0;();(-2000.0, -2000.0);
03:31:44:576;03:31:44:571;1448461899.38;(0.41640024185180663, 0.21576665242513016);63.548034668;1.0;;;;;;;;;;;;;;0;40;0;0;0;25;5;0;0;();(-2000.0, -2000.0);
03:31:44:593;03:31:44:571;1448461899.38;(0.41640024185180663, 0.21576665242513016);63.548034668;1.0;;;;;;;;;;;;;;0;40;0;0;0;25;5;0;0;();(-2000.0, -2000.0);
03:31:44:626;03:31:44:614;1448461899.42;(0.4220176935195923, 0.21620034111870656);63.1270370483;1.0;;;;;;;;;;;;;;0;40;0;0;0;25;5;0;0;();(-2000.0, -2000.0);
03:31:44:643;03:31:44:614;1448461899.42;(0.4220176935195923, 0.21620034111870656);63.1270370483;1.0;;;;;;;;;;;;;;0;40;0;0;0;25;5;0;0;();(-2000.0, -2000.0);
03:31:44:660;03:31:44:655;1448461899.45;(0.4219470739364624, 0.2156591627332899);62.9957313538;1.0;;;;;;;;;;;;;;0;40;0;0;0;25;5;0;0;();(-2000.0, -2000.0);
03:31:44:676;03:31:44:655;1448461899.45;(0.4219470739364624, 0.2156591627332899);62.9957313538;1.0;;;;;;;;;;;;;;0;40;0;0;0;25;5;0;0;();(-2000.0, -2000.0);
03:31:44:693;03:31:44:655;1448461899.45;(0.4219470739364624, 0.2156591627332899);62.9957313538;1.0;;;;;;;;;;;;;;0;40;0;0;0;25;5;0;0;();(-2000.0, -2000.0);
03:31:44:727;03:31:44:699;1448461899.52;(0.4211245536804199, 0.21584904988606768);62.9313087463;1.0;;;;;;;;;;;;;;0;40;0;0;0;25;5;0;0;();(-2000.0, -2000.0);
03:31:44:744;03:31:44:738;1448461899.55;(0.42084517478942873, 0.21578801472981768);62.8679618835;1.0;;;;;;;;;;;;;;0;40;0;0;0;25;5;0;0;();(-2000.0, -2000.0);
03:31:44:759;03:31:44:738;1448461899.55;(0.42084517478942873, 0.21578801472981768);62.8679618835;1.0;;;;;;;;;;;;;;0;40;0;0;0;25;5;0;0;();(-2000.0, -2000.0);
03:31:44:777;03:31:44:738;1448461899.55;(0.42084517478942873, 0.21578801472981768);62.8679618835;1.0;;;;;;;;;;;;;;0;40;0;0;0;25;5;0;0;();(-2000.0, -2000.0);
03:31:44:794;03:31:44:778;1448461899.58;(0.42072420120239257, 0.21616600884331594);63.1510772705;1.0;;;;;;;;;;;;;;0;40;0;0;0;25;5;0;0;();(-2000.0, -2000.0);
03:31:44:811;03:31:44:778;1448461899.58;(0.42072420120239257, 0.21616600884331594);63.1510772705;1.0;;;;;;;;;;;;;;0;40;0;0;0;25;5;0;0;();(-2000.0, -2000.0);
03:31:44:843;03:31:44:822;1448461899.62;(0.4216907978057861, 0.2162779066297743);63.3458747864;1.0;;;;;;;;;;;;;;0;40;0;0;0;25;5;0;0;();(-2000.0, -2000.0);
03:31:44:861;03:31:44:822;1448461899.62;(0.4216907978057861, 0.2162779066297743);63.3458747864;1.0;;;;;;;;;;;;;;0;40;0;0;0;25;5;0;0;();(-2000.0, -2000.0);
03:31:44:878;03:31:44:862;1448461899.65;(0.42665867805480956, 0.21765764024522571);63.0024604797;1.0;;;;;;;;;;;;;;0;40;0;0;0;25;5;0;0;();(-2000.0, -2000.0);
03:31:44:895;03:31:44:862;1448461899.65;(0.42665867805480956, 0.21765764024522571);63.0024604797;1.0;;;;;;;;;;;;;;0;40;0;0;0;25;5;0;0;();(-2000.0, -2000.0);
03:31:44:910;03:31:44:903;1448461899.72;(0.4263409376144409, 0.21846491495768228);62.7305793762;1.0;;;;;;;;;;;;;;0;40;0;0;0;25;5;0;0;();(-2000.0, -2000.0);
03:31:44:945;03:31:44:903;1448461899.72;(0.4263409376144409, 0.21846491495768228);62.7305793762;1.0;;;;;;;;;;;;;;0;40;0;0;0;25;5;0;0;();(-2000.0, -2000.0);
03:31:44:962;03:31:44:946;1448461899.75;(0.4259340286254883, 0.21927252875434022);62.7170906067;1.0;;;;;;;;;;;;;;0;40;0;0;0;25;5;0;0;();(-2000.0, -2000.0);
03:31:44:977;03:31:44:946;1448461899.75;(0.4259340286254883, 0.21927252875434022);62.7170906067;1.0;;;;;;;;;;;;;;0;40;0;0;0;25;5;0;0;();(-2000.0, -2000.0);
03:31:44:995;03:31:44:987;1448461899.78;(0.4257000207901001, 0.21958965725368929);62.4453277588;1.0;;;;;;;;;;;;;;0;40;0;0;0;25;5;0;0;();(-2000.0, -2000.0);
03:31:45:012;03:31:44:987;1448461899.78;(0.4257000207901001, 0.21958965725368929);62.4453277588;1.0;;;;;;;;;;;;;;0;40;0;0;0;25;5;0;0;();(-2000.0, -2000.0);
03:31:45:046;03:31:45:031;1448461899.85;(0.4257839202880859, 0.22024858262803815);62.412437439;1.0;;;;;;;;;;;;;;0;40;0;0;0;25;5;0;0;();(-2000.0, -2000.0);
03:31:45:062;03:31:45:031;1448461899.85;(0.4257839202880859, 0.22024858262803815);62.412437439;1.0;;;;;;;;;;;;;;0;40;0;0;0;25;5;0;0;();(-2000.0, -2000.0);
03:31:45:079;03:31:45:070;1448461899.88;(0.4260756731033325, 0.21980124579535587);62.5629081726;1.0;;;;;;;;;;;;;;0;40;0;0;0;25;5;0;0;();(-2000.0, -2000.0);
03:31:45:096;03:31:45:070;1448461899.88;(0.4260756731033325, 0.21980124579535587);62.5629081726;1.0;;;;;;;;;;;;;;0;40;0;0;0;25;5;0;0;();(-2000.0, -2000.0);
03:31:45:113;03:31:45:111;1448461899.92;(0.4266016721725464, 0.2199117872450087);62.485660553;1.0;;;;;;;;;;;;;;0;40;0;0;0;25;5;0;0;();(-2000.0, -2000.0);
03:31:45:146;03:31:45:111;1448461899.92;(0.4266016721725464, 0.2199117872450087);62.485660553;1.0;;;;;;;;;;;;;;0;40;0;0;0;25;5;0;0;();(-2000.0, -2000.0);
03:31:45:164;03:31:45:154;1448461899.95;(0.42691032886505126, 0.22050620185004344);62.7023353577;1.0;;;;;;;;;;;;;;0;40;0;0;0;25;5;0;0;();(-2000.0, -2000.0);
03:31:45:178;03:31:45:154;1448461899.95;(0.42691032886505126, 0.22050620185004344);62.7023353577;1.0;;;;;;;;;;;;;;0;40;0;0;0;25;5;0;0;();(-2000.0, -2000.0);
03:31:45:196;03:31:45:194;1448461899.98;(0.42723281383514405, 0.2198924594455295);62.7724723816;1.0;;;;;;;;;;;;;;0;40;0;0;0;25;5;0;0;();(-2000.0, -2000.0);
03:31:45:214;03:31:45:194;1448461899.98;(0.42723281383514405, 0.2198924594455295);62.7724723816;1.0;;;;;;;;;;;;;;0;40;0;0;0;25;5;0;0;();(-2000.0, -2000.0);
03:31:45:231;03:31:45:194;1448461899.98;(0.42723281383514405, 0.2198924594455295);62.7724723816;1.0;;;;;;;;;;;;;;0;40;0;0;0;25;5;0;0;();(-2000.0, -2000.0);
03:31:45:264;03:31:45:235;1448461900.02;(0.42752723693847655, 0.2183031717936198);62.8546791077;1.0;;;;;;;;;;;;;;0;40;0;0;0;25;5;0;0;();(-2000.0, -2000.0);
03:31:45:280;03:31:45:279;1448461900.05;(0, 0);0;0;;;;;;;;;;;;;;0;40;0;0;0;25;5;0;0;();(-2000.0, -2000.0);
03:31:45:298;03:31:45:279;1448461900.05;(0, 0);0;0;;;;;;;;;;;;;;0;40;0;0;0;25;5;0;0;();(-2000.0, -2000.0);
03:31:45:315;03:31:45:279;1448461900.05;(0, 0);0;0;;;;;;;;;;;;;;0;40;0;0;0;25;5;0;0;();(-2000.0, -2000.0);
03:31:45:332;03:31:45:319;1448461900.09;(0.39783310890197754, 0.20966551038953996);64.1865234375;1.0;;;;;;;;;;;;;;0;40;0;0;0;25;5;0;0;();(-2000.0, -2000.0);
03:31:45:365;03:31:45:363;1448461900.12;(0.39719185829162595, 0.20965415106879337);64.5316085815;1.0;;;;;;;;;;;;;;0;40;0;0;0;25;5;0;0;();(-2000.0, -2000.0);
03:31:45:382;03:31:45:367;1448461900.18;(0.3959491491317749, 0.21085196601019962);64.9895629883;1.0;;;;;;;;;;;;;;0;40;0;0;0;25;5;0;0;();(-2000.0, -2000.0);
03:31:45:399;03:31:45:367;1448461900.18;(0.3959491491317749, 0.21085196601019962);64.9895629883;1.0;;;;;;;;;;;;;;0;40;0;0;0;25;5;0;0;();(-2000.0, -2000.0);
03:31:45:414;03:31:45:403;1448461900.22;(0.39601874351501465, 0.21159405178493929);65.2420501709;1.0;;;;;;;;;;;;;;0;40;0;0;0;25;5;0;0;();(-2000.0, -2000.0);
03:31:45:431;03:31:45:403;1448461900.22;(0.39601874351501465, 0.21159405178493929);65.2420501709;1.0;;;;;;;;;;;;;;0;40;0;0;0;25;5;0;0;();(-2000.0, -2000.0);
03:31:45:466;03:31:45:443;1448461900.25;(0.39623949527740476, 0.21236402723524306);65.2002716064;1.0;;;;;;;;;;;;;;0;40;0;0;0;25;5;0;0;();(-2000.0, -2000.0);
03:31:45:481;03:31:45:443;1448461900.25;(0.39623949527740476, 0.21236402723524306);65.2002716064;1.0;;;;;;;;;;;;;;0;40;0;0;0;25;5;0;0;();(-2000.0, -2000.0);
03:31:45:499;03:31:45:487;1448461900.28;(0.3902531862258911, 0.21205062866210933);66.0738525391;1.0;;;;;;;;;;;;;;0;40;0;0;0;25;5;0;0;();(-2000.0, -2000.0);
03:31:45:516;03:31:45:487;1448461900.28;(0.3902531862258911, 0.21205062866210933);66.0738525391;1.0;;;;;;;;;;;;;;0;40;0;0;0;25;5;0;0;();(-2000.0, -2000.0);
03:31:45:533;03:31:45:527;1448461900.32;(0.39069113731384275, 0.21288918389214406);65.5901184082;1.0;;;;;;;;;;;;;;0;40;0;0;0;25;5;0;0;();(-2000.0, -2000.0);
03:31:45:566;03:31:45:527;1448461900.32;(0.39069113731384275, 0.21288918389214406);65.5901184082;1.0;;;;;;;;;;;;;;0;40;0;0;0;25;5;0;0;();(-2000.0, -2000.0);
03:31:45:584;03:31:45:570;1448461900.38;(0.39129064083099363, 0.21350267198350692);65.5271530151;1.0;;;;;;;;;;;;;;0;40,10,87;0;0;0;25;5;0;0;();(-2000.0, -2000.0);
03:31:45:600;03:31:45:570;1448461900.38;(0.39129064083099363, 0.21350267198350692);65.5271530151;1.0;;;;;;;;;;;;;;0;40,10,87;0;0;0;25;5;0;0;();(-2000.0, -2000.0);
03:31:45:617;03:31:45:611;1448461900.42;(0.39151716232299805, 0.21395501030815978);65.583770752;1.0;;;;;;;;;;;;;;0;40,10;0;0;0;30;6;0;0;();(-2000.0, -2000.0);
03:31:45:632;03:31:45:611;1448461900.42;(0.39151716232299805, 0.21395501030815978);65.583770752;1.0;;;;;;;;;;;;;;0;40,10;0;0;0;30;6;0;0;();(-2000.0, -2000.0);
03:31:45:667;03:31:45:652;1448461900.45;(0.3898090600967407, 0.21386845906575525);65.5077438354;0.841744562962;;;;;;;;;;;;;;0;40,10;0;0;0;30;6;0;0;();(-2000.0, -2000.0);
03:31:45:684;03:31:45:652;1448461900.45;(0.3898090600967407, 0.21386845906575525);65.5077438354;0.841744562962;;;;;;;;;;;;;;0;40,10;0;0;0;30;6;0;0;();(-2000.0, -2000.0);
03:31:45:699;03:31:45:691;1448461900.48;(0.3863762140274048, 0.21549699571397574);66.2100296021;1.0;;;;;;;;;;;;;;0;40,10;0;0;0;30;6;0;0;();(-2000.0, -2000.0);
03:31:45:717;03:31:45:691;1448461900.48;(0.3863762140274048, 0.21549699571397574);66.2100296021;1.0;;;;;;;;;;;;;;0;40,10;0;0;0;30;6;0;0;();(-2000.0, -2000.0);
03:31:45:734;03:31:45:691;1448461900.48;(0.3863762140274048, 0.21549699571397574);66.2100296021;1.0;;;;;;;;;;;;;;0;40,10;0;0;0;30;6;0;0;();(-2000.0, -2000.0);
03:31:45:751;03:31:45:739;1448461900.55;(0.3872361660003662, 0.21625518798828125);66.3029785156;1.0;;;;;;;;;;;;;;0;40,10;0;0;0;30;6;0;0;();(-2000.0, -2000.0);
03:31:45:784;03:31:45:775;1448461900.58;(0.3878359794616699, 0.21727362738715272);66.1484069824;1.0;;;;;;;;;;;;;;0;40,10;0;0;0;30;6;0;0;();(-2000.0, -2000.0);
03:31:45:801;03:31:45:775;1448461900.58;(0.3878359794616699, 0.21727362738715272);66.1484069824;1.0;;;;;;;;;;;;;;0;40,10;0;0;0;30;6;0;0;();(-2000.0, -2000.0);
03:31:45:818;03:31:45:775;1448461900.58;(0.3878359794616699, 0.21727362738715272);66.1484069824;1.0;;;;;;;;;;;;;;0;40,10;0;0;0;30;6;0;0;();(-2000.0, -2000.0);
03:31:45:833;03:31:45:819;1448461900.62;(0.3879834175109863, 0.2172915988498264);66.4317245483;1.0;;;;;;;;;;;;;;0;40,10;0;0;0;30;6;0;0;();(-2000.0, -2000.0);
03:31:45:868;03:31:45:859;1448461900.65;(0.3821669340133667, 0.21648228963216143);66.7520217896;1.0;;;;;;;;;;;;;;0;40,10;0;0;0;30;6;0;0;();(-2000.0, -2000.0);
03:31:45:885;03:31:45:859;1448461900.65;(0.3821669340133667, 0.21648228963216143);66.7520217896;1.0;;;;;;;;;;;;;;0;40,10;0;0;0;30;6;0;0;();(-2000.0, -2000.0);
03:31:45:902;03:31:45:900;1448461900.68;(0.38211584091186523, 0.21642006768120658);67.0857925415;1.0;;;;;;;;;;;;;;0;40,10;0;0;0;30;6;0;0;();(-2000.0, -2000.0);
03:31:45:917;03:31:45:901;1448461900.72;(0.38206455707550047, 0.21665056016710071);67.351272583;1.0;;;;;;;;;;;;;;0;40,10;0;0;0;30;6;0;0;();(-2000.0, -2000.0);
03:31:45:934;03:31:45:901;1448461900.72;(0.38206455707550047, 0.21665056016710071);67.351272583;1.0;;;;;;;;;;;;;;0;40,10;0;0;0;30;6;0;0;();(-2000.0, -2000.0);
03:31:45:952;03:31:45:943;1448461900.75;(0.38154704570770265, 0.21662868923611112);67.5582046509;1.0;;;;;;;;;;;;;;0;40,10;0;0;0;30;6;0;0;();(-2000.0, -2000.0);
03:31:45:985;03:31:45:983;1448461900.78;(0.3812433958053589, 0.21628562079535585);67.7703552246;1.0;;;;;;;;;;;;;;0;40,10;0;0;0;30;6;0;0;();(-2000.0, -2000.0);
03:31:46:002;03:31:45:983;1448461900.78;(0.3812433958053589, 0.21628562079535585);67.7703552246;1.0;;;;;;;;;;;;;;0;40,10;0;0;0;30;6;0;0;();(-2000.0, -2000.0);
03:31:46:019;03:31:45:983;1448461900.78;(0.3812433958053589, 0.21628562079535585);67.7703552246;1.0;;;;;;;;;;;;;;0;40,10;0;0;0;30;6;0;0;();(-2000.0, -2000.0);
03:31:46:036;03:31:46:023;1448461900.82;(0.3810336828231812, 0.21591339111328123);68.1838531494;1.0;;;;;;;;;;;;;;0;40,10;0;0;0;30;6;0;0;();(-2000.0, -2000.0);
03:31:46:053;03:31:46:023;1448461900.82;(0.3810336828231812, 0.21591339111328123);68.1838531494;1.0;;;;;;;;;;;;;;0;40,10;0;0;0;30;6;0;0;();(-2000.0, -2000.0);
03:31:46:086;03:31:46:023;1448461900.82;(0.3810336828231812, 0.21591339111328123);68.1838531494;1.0;;;;;;;;;;;;;;0;40,10;0;0;0;30;6;0;0;();(-2000.0, -2000.0);
03:31:46:103;03:31:46:023;1448461900.82;(0.3810336828231812, 0.21591339111328123);68.1838531494;1.0;;;;;;;;;;;;;;0;40,10;0;0;0;30;6;0;0;();(-2000.0, -2000.0);
03:31:46:120;03:31:46:109;1448461900.92;(0.3654594659805298, 0.26013726128472225);68.5479049683;1.0;;;;;;;;;;;;;;0;40,10;0;0;0;30;6;0;0;();(-2000.0, -2000.0);
03:31:46:135;03:31:46:109;1448461900.92;(0.3654594659805298, 0.26013726128472225);68.5479049683;1.0;;;;;;;;;;;;;;0;40,10;0;0;0;30;6;0;0;();(-2000.0, -2000.0);
03:31:46:152;03:31:46:151;1448461900.95;(0.36570448875427247, 0.26101531982421877);69.0345840454;1.0;;;;;;;;;;;;;;0;40,10;0;0;0;30;6;0;0;();(-2000.0, -2000.0);
03:31:46:188;03:31:46:151;1448461900.95;(0.36570448875427247, 0.26101531982421877);69.0345840454;1.0;;;;;;;;;;;;;;0;40,10;0;0;0;30;6;0;0;();(-2000.0, -2000.0);
03:31:46:220;03:31:46:192;1448461900.98;(0.36593868732452395, 0.26170022752549915);69.1445617676;1.0;;;;;;;;;;;;;;0;40,10;0;0;0;30;6;0;0;();(-2000.0, -2000.0);
03:31:46:223;03:31:46:192;1448461900.98;(0.36593868732452395, 0.26170022752549915);69.1445617676;1.0;;;;;;;;;;;;;;0;40,10;0;0;0;30;6;0;0;();(-2000.0, -2000.0);
03:31:46:237;03:31:46:232;1448461901.05;(0.36635851860046387, 0.2617401546902127);69.2967987061;1.0;;;;;;;;;;;;;;0;40,10;0;0;0;30;6;0;0;();(-2000.0, -2000.0);
03:31:46:254;03:31:46:232;1448461901.05;(0.36635851860046387, 0.2617401546902127);69.2967987061;1.0;;;;;;;;;;;;;;0;40,10;0;0;0;30;6;0;0;();(-2000.0, -2000.0);
03:31:46:271;03:31:46:232;1448461901.05;(0.36635851860046387, 0.2617401546902127);69.2967987061;1.0;;;;;;;;;;;;;;0;40,10;0;0;0;30;6;0;0;();(-2000.0, -2000.0);
03:31:46:304;03:31:46:275;1448461901.08;(0.36655216217041015, 0.2613000233968099);69.7318725586;1.0;;;;;;;;;;;;;;0;40,10;0;0;0;30;6;0;0;();(-2000.0, -2000.0);
03:31:46:321;03:31:46:315;1448461901.12;(0.3669114589691162, 0.2610516866048177);69.598526001;1.0;;;;;;;;;;;;;;0;40,10;0;0;0;30;6;0;0;();(-2000.0, -2000.0);
03:31:46:338;03:31:46:315;1448461901.12;(0.3669114589691162, 0.2610516866048177);69.598526001;1.0;;;;;;;;;;;;;;0;40,10;0;0;0;30;6;0;0;();(-2000.0, -2000.0);
03:31:46:353;03:31:46:315;1448461901.12;(0.3669114589691162, 0.2610516866048177);69.598526001;1.0;;;;;;;;;;;;;;0;40,10;0;0;0;30;6;0;0;();(-2000.0, -2000.0);
03:31:46:371;03:31:46:355;1448461901.15;(0.3672666072845459, 0.2608078002929688);69.5883178711;1.0;;;;;;;;;;;;;;0;40,10;0;0;0;30;6;0;0;();(-2000.0, -2000.0);
03:31:46:405;03:31:46:400;1448461901.22;(0.36777544021606445, 0.2611504024929471);69.5540161133;1.0;;;;;;;;;;;;;;0;40,10;0;0;0;30;6;0;0;();(-2000.0, -2000.0);
03:31:46:421;03:31:46:400;1448461901.22;(0.36777544021606445, 0.2611504024929471);69.5540161133;1.0;;;;;;;;;;;;;;0;40,10;0;0;0;30;6;0;0;();(-2000.0, -2000.0);
03:31:46:439;03:31:46:400;1448461901.22;(0.36777544021606445, 0.2611504024929471);69.5540161133;1.0;;;;;;;;;;;;;;0;40,10;0;0;0;30;6;0;0;();(-2000.0, -2000.0);
03:31:46:455;03:31:46:439;1448461901.25;(0.36806373596191405, 0.261699464586046);69.4052352905;1.0;;;;;;;;;;;;;;0;40,10;0;0;0;30;6;0;0;();(-2000.0, -2000.0);
03:31:46:472;03:31:46:439;1448461901.25;(0.36806373596191405, 0.261699464586046);69.4052352905;1.0;;;;;;;;;;;;;;0;40,10;0;0;0;30;6;0;0;();(-2000.0, -2000.0);
03:31:46:505;03:31:46:439;1448461901.25;(0.36806373596191405, 0.261699464586046);69.4052352905;1.0;;;;;;;;;;;;;;0;40,10;0;0;0;30;6;0;0;();(-2000.0, -2000.0);
03:31:46:522;03:31:46:439;1448461901.25;(0.36806373596191405, 0.261699464586046);69.4052352905;1.0;;;;;;;;;;;;;;0;40,10;0;0;0;30;6;0;0;();(-2000.0, -2000.0);
03:31:46:539;03:31:46:526;1448461901.32;(0.3710409879684448, 0.25981470743815105);69.5460128784;1.0;;;;;;;;;;;;;;0;40,10;0;0;0;30;6;0;0;();(-2000.0, -2000.0);
03:31:46:556;03:31:46:526;1448461901.32;(0.3710409879684448, 0.25981470743815105);69.5460128784;1.0;;;;;;;;;;;;;;0;40,10;0;0;0;30;6;0;0;();(-2000.0, -2000.0);
03:31:46:572;03:31:46:564;1448461901.38;(0.3721808433532715, 0.2608733283148872);68.9062347412;1.0;;;;;;;;;;;;;;0;40,10;0;0;0;30;6;0;0;();(-2000.0, -2000.0);
03:31:46:606;03:31:46:564;1448461901.38;(0.3721808433532715, 0.2608733283148872);68.9062347412;1.0;;;;;;;;;;;;;;0;40,10;0;0;0;30;6;0;0;();(-2000.0, -2000.0);
03:31:46:623;03:31:46:608;1448461901.42;(0, 0);0;0;;;;;;;;;;;;;;0;40,10;0;0;0;30;6;0;0;();(-2000.0, -2000.0);
03:31:46:638;03:31:46:608;1448461901.42;(0, 0);0;0;;;;;;;;;;;;;;0;40,10;0;0;0;30;6;0;0;();(-2000.0, -2000.0);
03:31:46:656;03:31:46:647;1448461901.45;(0, 0);0;0;;;;;;;;;;;;;;0;40,10;0;0;0;30;6;0;0;();(-2000.0, -2000.0);
03:31:46:673;03:31:46:647;1448461901.45;(0, 0);0;0;;;;;;;;;;;;;;0;40,10;0;0;0;30;6;0;0;();(-2000.0, -2000.0);
03:31:46:707;03:31:46:687;1448461901.48;(0.22278861999511718, 0.15090535481770828);25.2329483032;0.618005330818;;;;;;;;;;;;;;0;40,10;0;0;0;30;6;0;0;();(-2000.0, -2000.0);
03:31:46:722;03:31:46:687;1448461901.48;(0.22278861999511718, 0.15090535481770828);25.2329483032;0.618005330818;;;;;;;;;;;;;;0;40,10;0;0;0;30;6;0;0;();(-2000.0, -2000.0);
03:31:46:740;03:31:46:731;1448461901.52;(0.24584994316101075, 0.240962643093533);20.4618682861;0.898484020211;;;;;;;;;;;;;;0;40,10;0;0;0;30;6;0;0;();(-2000.0, -2000.0);
03:31:46:757;03:31:46:731;1448461901.52;(0.24584994316101075, 0.240962643093533);20.4618682861;0.898484020211;;;;;;;;;;;;;;0;40,10;0;0;0;30;6;0;0;();(-2000.0, -2000.0);
03:31:46:774;03:31:46:771;1448461901.55;(0, 0);0;0;;;;;;;;;;;;;;0;40,10;0;0;0;30;6;0;0;();(-2000.0, -2000.0);
03:31:46:808;03:31:46:771;1448461901.55;(0, 0);0;0;;;;;;;;;;;;;;0;40,10;0;0;0;30;6;0;0;();(-2000.0, -2000.0);
03:31:46:824;03:31:46:771;1448461901.55;(0, 0);0;0;;;;;;;;;;;;;;0;40,10;0;0;0;30;6;0;0;();(-2000.0, -2000.0);
03:31:46:841;03:31:46:771;1448461901.55;(0, 0);0;0;;;;;;;;;;;;;;0;40,10;0;0;0;30;6;0;0;();(-2000.0, -2000.0);
03:31:46:856;03:31:46:771;1448461901.55;(0, 0);0;0;;;;;;;;;;;;;;0;40,10;0;0;0;30;6;0;0;();(-2000.0, -2000.0);
03:31:46:873;03:31:46:771;1448461901.55;(0, 0);0;0;;;;;;;;;;;;;;0;40,10;0;0;0;30;6;0;0;();(-2000.0, -2000.0);
03:31:46:891;03:31:46:771;1448461901.55;(0, 0);0;0;;;;;;;;;;;;;;0;40,10;0;0;0;30;6;0;0;();(-2000.0, -2000.0);
03:31:46:925;03:31:46:895;1448461901.58;(0.36043391227722166, 0.1883391486273871);70.7000961304;0.936866358436;;;;;;;;;;;;;;0;40,10;0;0;0;30;6;0;0;();(-2000.0, -2000.0);
03:31:46:942;03:31:46:939;1448461901.72;(0.36913509368896485, 0.19200541178385422);69.8234939575;0.986341643453;;;;;;;;;;;;;;0;40,10;0;0;0;30;6;0;0;();(-2000.0, -2000.0);
03:31:46:958;03:31:46:939;1448461901.72;(0.36913509368896485, 0.19200541178385422);69.8234939575;0.986341643453;;;;;;;;;;;;;;0;40,10;0;0;0;30;6;0;0;();(-2000.0, -2000.0);
03:31:46:975;03:31:46:939;1448461901.72;(0.36913509368896485, 0.19200541178385422);69.8234939575;0.986341643453;;;;;;;;;;;;;;0;40,10;0;0;0;30;6;0;0;();(-2000.0, -2000.0);
03:31:46:992;03:31:46:939;1448461901.72;(0.36913509368896485, 0.19200541178385422);69.8234939575;0.986341643453;;;;;;;;;;;;;;0;40,10;0;0;0;30;6;0;0;();(-2000.0, -2000.0);
03:31:47:025;03:31:47:019;1448461901.74;(0.3764951229095459, 0.1887140062120226);69.399230957;0.979538078735;;;;;;;;;;;;;;0;40,10;0;0;0;30;6;0;0;();(-2000.0, -2000.0);
03:31:47:042;03:31:47:019;1448461901.74;(0.3764951229095459, 0.1887140062120226);69.399230957;0.979538078735;;;;;;;;;;;;;;0;40,10;0;0;0;30;6;0;0;();(-2000.0, -2000.0);
03:31:47:059;03:31:47:019;1448461901.74;(0.3764951229095459, 0.1887140062120226);69.399230957;0.979538078735;;;;;;;;;;;;;;0;40,10;0;0;0;30;6;0;0;();(-2000.0, -2000.0);
03:31:47:076;03:31:47:019;1448461901.74;(0.3764951229095459, 0.1887140062120226);69.399230957;0.979538078735;;;;;;;;;;;;;;0;40,10;0;0;0;30;6;0;0;();(-2000.0, -2000.0);
03:31:47:092;03:31:47:019;1448461901.74;(0.3764951229095459, 0.1887140062120226);69.399230957;0.979538078735;;;;;;;;;;;;;;0;40,10;0;0;0;30;6;0;0;();(-2000.0, -2000.0);
03:31:47:126;03:31:47:105;1448461901.92;(0.3804192304611206, 0.18732291327582462);69.5121841431;1.0;;;;;;;;;;;;;;0;40,10;0;0;0;30;6;0;0;();(-2000.0, -2000.0);
03:31:47:141;03:31:47:105;1448461901.92;(0.3804192304611206, 0.18732291327582462);69.5121841431;1.0;;;;;;;;;;;;;;0;40,10;0;0;0;30;6;0;0;();(-2000.0, -2000.0);
03:31:47:160;03:31:47:143;1448461901.95;(0.395285439491272, 0.23271094428168404);66.6209793091;0.789647928527;;;;;;;;;;;;;;0;40,10;0;0;0;30;6;0;0;();(-2000.0, -2000.0);
03:31:47:176;03:31:47:143;1448461901.95;(0.395285439491272, 0.23271094428168404);66.6209793091;0.789647928527;;;;;;;;;;;;;;0;40,10;0;0;0;30;6;0;0;();(-2000.0, -2000.0);
03:31:47:193;03:31:47:143;1448461901.95;(0.395285439491272, 0.23271094428168404);66.6209793091;0.789647928527;;;;;;;;;;;;;;0;40,10;0;0;0;30;6;0;0;();(-2000.0, -2000.0);
03:31:47:227;03:31:47:143;1448461901.95;(0.395285439491272, 0.23271094428168404);66.6209793091;0.789647928527;;;;;;;;;;;;;;0;40,10;0;0;0;30;6;0;0;();(-2000.0, -2000.0);
03:31:47:243;03:31:47:230;1448461902.02;(0.41636178493499754, 0.270026355319553);66.9505004883;1.0;;;;;;;;;;;;;;0;40,10;0;0;0;30;6;0;0;();(-2000.0, -2000.0);
03:31:47:260;03:31:47:230;1448461902.02;(0.41636178493499754, 0.270026355319553);66.9505004883;1.0;;;;;;;;;;;;;;0;40,10;0;0;0;30;6;0;0;();(-2000.0, -2000.0);
03:31:47:276;03:31:47:268;1448461902.08;(0.41484746932983396, 0.27230733235677085);67.642036438;1.0;;;;;;;;;;;;;;0;40,10;0;0;0;30;6;0;0;();(-2000.0, -2000.0);
03:31:47:292;03:31:47:268;1448461902.08;(0.41484746932983396, 0.27230733235677085);67.642036438;1.0;;;;;;;;;;;;;;0;40,10;0;0;0;30;6;0;0;();(-2000.0, -2000.0);
03:31:47:327;03:31:47:311;1448461902.12;(0.413675332069397, 0.27267612881130643);68.290435791;1.0;;;;;;;;;;;;;;0;40,10;0;0;0;30;6;0;0;();(-2000.0, -2000.0);
03:31:47:344;03:31:47:311;1448461902.12;(0.413675332069397, 0.27267612881130643);68.290435791;1.0;;;;;;;;;;;;;;0;40,10;0;0;0;30;6;0;0;();(-2000.0, -2000.0);
03:31:47:361;03:31:47:351;1448461902.15;(0.4125970363616943, 0.27307243347167964);68.4531097412;1.0;;;;;;;;;;;;;;0;40,10;0;0;0;30;6;0;0;();(-2000.0, -2000.0);
03:31:47:376;03:31:47:351;1448461902.15;(0.4125970363616943, 0.27307243347167964);68.4531097412;1.0;;;;;;;;;;;;;;0;40,10;0;0;0;30;6;0;0;();(-2000.0, -2000.0);
03:31:47:393;03:31:47:351;1448461902.15;(0.4125970363616943, 0.27307243347167964);68.4531097412;1.0;;;;;;;;;;;;;;0;40,10;0;0;0;30;6;0;0;();(-2000.0, -2000.0);
03:31:47:411;03:31:47:396;1448461902.18;(0.4116311311721802, 0.2734220716688368);68.4027023315;1.0;;;;;;;;;;;;;;0;40,10;0;0;0;30;6;0;0;();(-2000.0, -2000.0);
03:31:47:443;03:31:47:435;1448461902.22;(0.4106900691986084, 0.27389856974283855);68.607673645;1.0;;;;;;;;;;;;;;0;40,10;0;0;0;30;6;0;0;();(-2000.0, -2000.0);
03:31:47:461;03:31:47:435;1448461902.22;(0.4106900691986084, 0.27389856974283855);68.607673645;1.0;;;;;;;;;;;;;;0;40,10;0;0;0;30;6;0;0;();(-2000.0, -2000.0);
03:31:47:478;03:31:47:476;1448461902.25;(0.40964343547821047, 0.2743077172173394);68.4501495361;1.0;;;;;;;;;;;;;;0;40,10;0;0;0;30;6;0;0;();(-2000.0, -2000.0);
03:31:47:495;03:31:47:477;1448461902.28;(0.40881326198577883, 0.2750506930881076);68.526802063;1.0;;;;;;;;;;;;;;0;40,10;0;0;0;30;6;0;0;();(-2000.0, -2000.0);
03:31:47:511;03:31:47:477;1448461902.28;(0.40881326198577883, 0.2750506930881076);68.526802063;1.0;;;;;;;;;;;;;;0;40,10;0;0;0;30;6;0;0;();(-2000.0, -2000.0);
03:31:47:545;03:31:47:519;1448461902.32;(0.40804643630981446, 0.2755343967013889);68.6736755371;1.0;;;;;;;;;;;;;;0;40,10;0;0;0;30;6;0;0;();(-2000.0, -2000.0);
03:31:47:562;03:31:47:560;1448461902.35;(0.4073378086090088, 0.2760277218288846);68.5635070801;1.0;;;;;;;;;;;;;;0;40,10;0;0;0;30;6;0;0;();(-2000.0, -2000.0);
03:31:47:579;03:31:47:560;1448461902.35;(0.4073378086090088, 0.2760277218288846);68.5635070801;1.0;;;;;;;;;;;;;;0;40,10;0;0;0;30;6;0;0;();(-2000.0, -2000.0);
03:31:47:594;03:31:47:560;1448461902.35;(0.4073378086090088, 0.2760277218288846);68.5635070801;1.0;;;;;;;;;;;;;;0;40,10;0;0;0;30;6;0;0;();(-2000.0, -2000.0);
03:31:47:612;03:31:47:600;1448461902.42;(0.40586254596710203, 0.27592129177517366);68.2592926025;1.0;;;;;;;;;;;;;;0;40,10;0;0;0;30;6;0;0;();(-2000.0, -2000.0);
03:31:47:646;03:31:47:643;1448461902.45;(0.4044884443283081, 0.2751028696695964);68.1005554199;0.941576570492;;;;;;;;;;;;;;0;40,10;0;0;0;30;6;0;0;();(-2000.0, -2000.0);
03:31:47:661;03:31:47:643;1448461902.45;(0.4044884443283081, 0.2751028696695964);68.1005554199;0.941576570492;;;;;;;;;;;;;;0;40,10;0;0;0;30;6;0;0;();(-2000.0, -2000.0);
03:31:47:678;03:31:47:643;1448461902.45;(0.4044884443283081, 0.2751028696695964);68.1005554199;0.941576570492;;;;;;;;;;;;;;0;40,10;0;0;0;30;6;0;0;();(-2000.0, -2000.0);
03:31:47:696;03:31:47:683;1448461902.48;(0.39697744846343996, 0.2677134195963542);68.0305709839;1.0;;;;;;;;;;;;;;0;40,10;0;0;0;30;6;0;0;();(-2000.0, -2000.0);
03:31:47:713;03:31:47:683;1448461902.48;(0.39697744846343996, 0.2677134195963542);68.0305709839;1.0;;;;;;;;;;;;;;0;40,10;0;0;0;30;6;0;0;();(-2000.0, -2000.0);
03:31:47:746;03:31:47:727;1448461902.52;(0.39589216709136965, 0.2677527957492405);68.2837677002;1.0;;;;;;;;;;;;;;0;40,10;0;0;0;30;6;0;0;();(-2000.0, -2000.0);
03:31:47:763;03:31:47:727;1448461902.52;(0.39589216709136965, 0.2677527957492405);68.2837677002;1.0;;;;;;;;;;;;;;0;40,10;0;0;0;30;6;0;0;();(-2000.0, -2000.0);
03:31:47:780;03:31:47:769;1448461902.58;(0.39466664791107176, 0.2684568193223741);67.9504776001;1.0;;;;;;;;;;;;;;0;40,10;0;0;0;30;6;0;0;();(-2000.0, -2000.0);
03:31:47:797;03:31:47:769;1448461902.58;(0.39466664791107176, 0.2684568193223741);67.9504776001;1.0;;;;;;;;;;;;;;0;40,10;0;0;0;30;6;0;0;();(-2000.0, -2000.0);
03:31:47:812;03:31:47:807;1448461902.62;(0.3942108631134033, 0.26846800910102);67.8835906982;1.0;;;;;;;;;;;;;;0;40,10;0;0;0;30;6;0;0;();(-2000.0, -2000.0);
03:31:47:847;03:31:47:807;1448461902.62;(0.3942108631134033, 0.26846800910102);67.8835906982;1.0;;;;;;;;;;;;;;0;40,10;0;0;0;30;6;0;0;();(-2000.0, -2000.0);
03:31:47:864;03:31:47:851;1448461902.65;(0.39416592121124266, 0.26887452867296);67.7208251953;1.0;;;;;;;;;;;;;;0;40,10;0;0;0;30;6;0;0;();(-2000.0, -2000.0);
03:31:47:881;03:31:47:851;1448461902.65;(0.39416592121124266, 0.26887452867296);67.7208251953;1.0;;;;;;;;;;;;;;0;40,10;0;0;0;30;6;0;0;();(-2000.0, -2000.0);
03:31:47:897;03:31:47:891;1448461902.68;(0.39412314891815187, 0.2691561381022135);67.551651001;1.0;;;;;;;;;;;;;;0;40,10;0;0;0;30;6;0;0;();(-2000.0, -2000.0);
03:31:47:914;03:31:47:891;1448461902.68;(0.39412314891815187, 0.2691561381022135);67.551651001;1.0;;;;;;;;;;;;;;0;40,10;0;0;0;30;6;0;0;();(-2000.0, -2000.0);
03:31:47:931;03:31:47:891;1448461902.68;(0.39412314891815187, 0.2691561381022135);67.551651001;1.0;;;;;;;;;;;;;;0;40,10;0;0;0;30;6;0;0;();(-2000.0, -2000.0);
03:31:47:963;03:31:47:936;1448461902.75;(0.39408838748931885, 0.26995743645562065);67.2863616943;1.0;;;;;;;;;;;;;;0;40,10;0;0;0;30;6;0;0;();(-2000.0, -2000.0);
03:31:47:981;03:31:47:975;1448461902.78;(0.3940407752990723, 0.2703618791368273);66.9793243408;1.0;;;;;;;;;;;;;;0;40,10;0;0;0;30;6;0;0;();(-2000.0, -2000.0);
03:31:47:998;03:31:47:975;1448461902.78;(0.3940407752990723, 0.2703618791368273);66.9793243408;1.0;;;;;;;;;;;;;;0;40,10;0;0;0;30;6;0;0;();(-2000.0, -2000.0);
03:31:48:013;03:31:47:975;1448461902.78;(0.3940407752990723, 0.2703618791368273);66.9793243408;1.0;;;;;;;;;;;;;;0;40,10;0;0;0;30;6;0;0;();(-2000.0, -2000.0);
03:31:48:048;03:31:48:016;1448461902.82;(0.39396493434906005, 0.2704988267686632);67.1669540405;1.0;;;;;;;;;;;;;;0;40,10;0;0;0;30;6;0;0;();(-2000.0, -2000.0);
03:31:48:065;03:31:48:059;1448461902.85;(0.3938848257064819, 0.2726394229465061);66.9562835693;1.0;;;;;;;;;;;;;;0;40,10;0;0;0;30;6;0;0;();(-2000.0, -2000.0);
03:31:48:082;03:31:48:059;1448461902.85;(0.3938848257064819, 0.2726394229465061);66.9562835693;1.0;;;;;;;;;;;;;;0;40,10;0;0;0;30;6;0;0;();(-2000.0, -2000.0);
03:31:48:099;03:31:48:059;1448461902.85;(0.3938848257064819, 0.2726394229465061);66.9562835693;1.0;;;;;;;;;;;;;;0;40,10;0;0;0;30;6;0;0;();(-2000.0, -2000.0);
03:31:48:115;03:31:48:101;1448461902.92;(0.39381561279296873, 0.27339765760633683);66.5253372192;1.0;;;;;;;;;;;;;;0;40,10;0;0;0;30;6;0;0;();(-2000.0, -2000.0);
03:31:48:132;03:31:48:101;1448461902.92;(0.39381561279296873, 0.27339765760633683);66.5253372192;1.0;;;;;;;;;;;;;;0;40,10;0;0;0;30;6;0;0;();(-2000.0, -2000.0);
03:31:48:164;03:31:48:139;1448461902.95;(0.3938851833343506, 0.2738470713297526);66.666847229;1.0;;;;;;;;;;;;;;0;40,10;0;0;0;30;6;0;0;();(-2000.0, -2000.0);
03:31:48:182;03:31:48:139;1448461902.95;(0.3938851833343506, 0.2738470713297526);66.666847229;1.0;;;;;;;;;;;;;;0;40,10;0;0;0;30;6;0;0;();(-2000.0, -2000.0);
03:31:48:199;03:31:48:183;1448461902.98;(0.3936744451522827, 0.2740059746636285);66.1426696777;1.0;;;;;;;;;;;;;;0;40,10;0;0;0;30;6;0;0;();(-2000.0, -2000.0);
03:31:48:216;03:31:48:183;1448461902.98;(0.3936744451522827, 0.2740059746636285);66.1426696777;1.0;;;;;;;;;;;;;;0;40,10;0;0;0;30;6;0;0;();(-2000.0, -2000.0);
03:31:48:233;03:31:48:223;1448461903.02;(0.39360032081604, 0.274270502726237);65.9194946289;1.0;;;;;;;;;;;;;;0;40,10;0;0;0;30;6;0;0;();(-2000.0, -2000.0);
03:31:48:266;03:31:48:223;1448461903.02;(0.39360032081604, 0.274270502726237);65.9194946289;1.0;;;;;;;;;;;;;;0;40,10;0;0;0;30;6;0;0;();(-2000.0, -2000.0);
03:31:48:283;03:31:48:270;1448461903.08;(0.39341795444488525, 0.2749766455756293);65.3274307251;1.0;;;;;;;;;;;;;;0;40,10;0;0;0;30;6;0;0;();(-2000.0, -2000.0);
03:31:48:300;03:31:48:270;1448461903.08;(0.39341795444488525, 0.2749766455756293);65.3274307251;1.0;;;;;;;;;;;;;;0;40,10;0;0;0;30;6;0;0;();(-2000.0, -2000.0);
03:31:48:316;03:31:48:307;1448461903.12;(0.39336190223693845, 0.275313737657335);64.9245147705;1.0;;;;;;;;;;;;;;0;40,10;0;0;0;30;6;0;0;();(-2000.0, -2000.0);
03:31:48:333;03:31:48:307;1448461903.12;(0.39336190223693845, 0.275313737657335);64.9245147705;1.0;;;;;;;;;;;;;;0;40,10;0;0;0;30;6;0;0;();(-2000.0, -2000.0);
03:31:48:367;03:31:48:347;1448461903.15;(0.39346415996551515, 0.2752991146511502);64.9402694702;1.0;;;;;;;;;;;;;;0;40,10;0;0;0;30;6;0;0;();(-2000.0, -2000.0);
03:31:48:382;03:31:48:347;1448461903.15;(0.39346415996551515, 0.2752991146511502);64.9402694702;1.0;;;;;;;;;;;;;;0;40,10;0;0;0;30;6;0;0;();(-2000.0, -2000.0);
03:31:48:399;03:31:48:391;1448461903.18;(0.3932088851928711, 0.27519548204210065);64.9573745728;1.0;;;;;;;;;;;;;;0;40,10;0;0;0;30;6;0;0;();(-2000.0, -2000.0);
03:31:48:417;03:31:48:391;1448461903.18;(0.3932088851928711, 0.27519548204210065);64.9573745728;1.0;;;;;;;;;;;;;;0;40,10;0;0;0;30;6;0;0;();(-2000.0, -2000.0);
03:31:48:434;03:31:48:433;1448461903.25;(0.39284396171569824, 0.2759789784749349);64.674079895;1.0;;;;;;;;;;;;;;0;40,10;0;0;0;30;6;0;0;();(-2000.0, -2000.0);
03:31:48:451;03:31:48:433;1448461903.25;(0.39284396171569824, 0.2759789784749349);64.674079895;1.0;;;;;;;;;;;;;;0;40,10;0;0;0;30;6;0;0;();(-2000.0, -2000.0);
03:31:48:484;03:31:48:471;1448461903.28;(0.39283185005187987, 0.27624588012695317);64.4255371094;1.0;;;;;;;;;;;;;;0;40,10;0;0;0;30;6;0;0;();(-2000.0, -2000.0);
03:31:48:501;03:31:48:471;1448461903.28;(0.39283185005187987, 0.27624588012695317);64.4255371094;1.0;;;;;;;;;;;;;;0;40,10;0;0;0;30;6;0;0;();(-2000.0, -2000.0);
03:31:48:518;03:31:48:515;1448461903.32;(0.392680287361145, 0.27625715467664935);64.5367355347;1.0;;;;;;;;;;;;;;0;40,10;0;0;0;30;6;0;0;();(-2000.0, -2000.0);
03:31:48:533;03:31:48:515;1448461903.32;(0.392680287361145, 0.27625715467664935);64.5367355347;1.0;;;;;;;;;;;;;;0;40,10;0;0;0;30;6;0;0;();(-2000.0, -2000.0);
03:31:48:551;03:31:48:515;1448461903.32;(0.392680287361145, 0.27625715467664935);64.5367355347;1.0;;;;;;;;;;;;;;0;40,10;0;0;0;30;6;0;0;();(-2000.0, -2000.0);
03:31:48:585;03:31:48:555;1448461903.35;(0.3925776958465576, 0.2757128397623698);64.5855941772;1.0;;;;;;;;;;;;;;0;40,10;0;0;0;30;6;0;0;();(-2000.0, -2000.0);
03:31:48:600;03:31:48:595;1448461903.38;(0.3924581527709961, 0.2758223639594184);64.4875488281;1.0;;;;;;;;;;;;;;0;40,10;0;0;0;30;6;0;0;();(-2000.0, -2000.0);
03:31:48:618;03:31:48:595;1448461903.38;(0.3924581527709961, 0.2758223639594184);64.4875488281;1.0;;;;;;;;;;;;;;0;40,10;0;0;0;30;6;0;0;();(-2000.0, -2000.0);
03:31:48:635;03:31:48:595;1448461903.38;(0.3924581527709961, 0.2758223639594184);64.4875488281;1.0;;;;;;;;;;;;;;0;40,10;0;0;0;30;6;0;0;();(-2000.0, -2000.0);
03:31:48:652;03:31:48:640;1448461903.45;(0.3921792984008789, 0.27702891031901045);64.7116241455;1.0;;;;;;;;;;;;;;0;40,10;0;0;0;30;6;0;0;();(-2000.0, -2000.0);
03:31:48:684;03:31:48:679;1448461903.48;(0.39207186698913576, 0.27730767991807725);64.3539352417;1.0;;;;;;;;;;;;;;0;40,10;0;0;0;30;6;0;0;();(-2000.0, -2000.0);
03:31:48:702;03:31:48:679;1448461903.48;(0.39207186698913576, 0.27730767991807725);64.3539352417;1.0;;;;;;;;;;;;;;0;40,10;0;0;0;30;6;0;0;();(-2000.0, -2000.0);
03:31:48:719;03:31:48:679;1448461903.48;(0.39207186698913576, 0.27730767991807725);64.3539352417;1.0;;;;;;;;;;;;;;0;40,10;0;0;0;30;6;0;0;();(-2000.0, -2000.0);
03:31:48:736;03:31:48:723;1448461903.52;(0.391888689994812, 0.27734688652886286);64.3167114258;1.0;;;;;;;;;;;;;;0;40,10;0;0;0;30;6;0;0;();(-2000.0, -2000.0);
03:31:48:751;03:31:48:723;1448461903.52;(0.391888689994812, 0.27734688652886286);64.3167114258;1.0;;;;;;;;;;;;;;0;40,10;0;0;0;30;6;0;0;();(-2000.0, -2000.0);
03:31:48:786;03:31:48:765;1448461903.58;(0.3919609308242798, 0.27773043314615886);64.3154754639;1.0;;;;;;;;;;;;;;0;40,10;0;0;0;30;6;0;0;();(-2000.0, -2000.0);
03:31:48:803;03:31:48:765;1448461903.58;(0.3919609308242798, 0.27773043314615886);64.3154754639;1.0;;;;;;;;;;;;;;0;40,10;0;0;0;30;6;0;0;();(-2000.0, -2000.0);
03:31:48:818;03:31:48:804;1448461903.62;(0.391805362701416, 0.277820799085829);64.5762176514;1.0;;;;;;;;;;;;;;0;40,10;0;0;0;30;6;0;0;();(-2000.0, -2000.0);
03:31:48:836;03:31:48:804;1448461903.62;(0.391805362701416, 0.277820799085829);64.5762176514;1.0;;;;;;;;;;;;;;0;40,10;0;0;0;30;6;0;0;();(-2000.0, -2000.0);
03:31:48:853;03:31:48:847;1448461903.65;(0.39205379486083985, 0.27801844278971355);64.4353866577;1.0;;;;;;;;;;;;;;0;40,10;0;0;0;30;6;0;0;();(-2000.0, -2000.0);
03:31:48:887;03:31:48:847;1448461903.65;(0.39205379486083985, 0.27801844278971355);64.4353866577;1.0;;;;;;;;;;;;;;0;40,10;0;0;0;30;6;0;0;();(-2000.0, -2000.0);
03:31:48:903;03:31:48:887;1448461903.68;(0.3922314405441284, 0.2782462649875217);64.4381332397;1.0;;;;;;;;;;;;;;0;40,10;0;0;0;30;6;0;0;();(-2000.0, -2000.0);
03:31:48:920;03:31:48:887;1448461903.68;(0.3922314405441284, 0.2782462649875217);64.4381332397;1.0;;;;;;;;;;;;;;0;40,10;0;0;0;30;6;0;0;();(-2000.0, -2000.0);
03:31:48:937;03:31:48:927;1448461903.72;(0.3923807144165039, 0.27851715087890627);64.6094207764;1.0;;;;;;;;;;;;;;0;40,10;0;0;0;30;6;0;0;();(-2000.0, -2000.0);
03:31:48:954;03:31:48:927;1448461903.72;(0.3923807144165039, 0.27851715087890627);64.6094207764;1.0;;;;;;;;;;;;;;0;40,10;0;0;0;30;6;0;0;();(-2000.0, -2000.0);
03:31:48:987;03:31:48:973;1448461903.78;(0.39247052669525145, 0.2797307332356771);64.7851867676;1.0;;;;;;;;;;;;;;0;40,10;0;0;0;30;6;0;0;();(-2000.0, -2000.0);
03:31:49:004;03:31:48:973;1448461903.78;(0.39247052669525145, 0.2797307332356771);64.7851867676;1.0;;;;;;;;;;;;;;0;40,10;0;0;0;30;6;0;0;();(-2000.0, -2000.0);
03:31:49:021;03:31:49:011;1448461903.82;(0.3927702188491821, 0.27970966762966576);64.8873443604;1.0;;;;;;;;;;;;;;0;40,10;0;0;0;30;6;0;0;();(-2000.0, -2000.0);
03:31:49:037;03:31:49:011;1448461903.82;(0.3927702188491821, 0.27970966762966576);64.8873443604;1.0;;;;;;;;;;;;;;0;40,10;0;0;0;30;6;0;0;();(-2000.0, -2000.0);
03:31:49:054;03:31:49:011;1448461903.82;(0.3927702188491821, 0.27970966762966576);64.8873443604;1.0;;;;;;;;;;;;;;0;40,10;0;0;0;30;6;0;0;();(-2000.0, -2000.0);
03:31:49:071;03:31:49:055;1448461903.85;(0.3927391529083252, 0.2798284742567274);64.8328704834;1.0;;;;;;;;;;;;;;0;40,10;0;0;0;30;6;0;0;();(-2000.0, -2000.0);
03:31:49:105;03:31:49:095;1448461903.88;(0.39266440868377683, 0.2795610639784071);64.9775619507;1.0;;;;;;;;;;;;;;0;40,10;0;0;0;30;6;0;0;();(-2000.0, -2000.0);
03:31:49:121;03:31:49:095;1448461903.88;(0.39266440868377683, 0.2795610639784071);64.9775619507;1.0;;;;;;;;;;;;;;0;40,10;0;0;0;30;6;0;0;();(-2000.0, -2000.0);
03:31:49:139;03:31:49:136;1448461903.95;(0.39285979270935056, 0.2800297631157769);64.9904785156;1.0;;;;;;;;;;;;;;0;40,10;0;0;0;30;6;0;0;();(-2000.0, -2000.0);
03:31:49:155;03:31:49:136;1448461903.95;(0.39285979270935056, 0.2800297631157769);64.9904785156;1.0;;;;;;;;;;;;;;0;40,10;0;0;0;30;6;0;0;();(-2000.0, -2000.0);
03:31:49:172;03:31:49:136;1448461903.95;(0.39285979270935056, 0.2800297631157769);64.9904785156;1.0;;;;;;;;;;;;;;0;40,10;0;0;0;30;6;0;0;();(-2000.0, -2000.0);
03:31:49:205;03:31:49:179;1448461903.98;(0.3930383205413818, 0.28000806172688797);64.9494857788;1.0;;;;;;;;;;;;;;0;40,10;0;0;0;30;6;0;0;();(-2000.0, -2000.0);
03:31:49:222;03:31:49:219;1448461904.02;(0.3931934595108032, 0.28025737338595924);65.1767349243;1.0;;;;;;;;;;;;;;0;40,10;0;0;0;30;6;0;0;();(-2000.0, -2000.0);
03:31:49:238;03:31:49:219;1448461904.02;(0.3931934595108032, 0.28025737338595924);65.1767349243;1.0;;;;;;;;;;;;;;0;40,10;0;0;0;30;6;0;0;();(-2000.0, -2000.0);
03:31:49:254;03:31:49:219;1448461904.02;(0.3931934595108032, 0.28025737338595924);65.1767349243;1.0;;;;;;;;;;;;;;0;40,10;0;0;0;30;6;0;0;();(-2000.0, -2000.0);
03:31:49:272;03:31:49:259;1448461904.05;(0.39308130741119385, 0.2808613671196831);65.1638717651;1.0;;;;;;;;;;;;;;0;40,10;0;0;0;30;6;0;0;();(-2000.0, -2000.0);
03:31:49:306;03:31:49:304;1448461904.12;(0.39344134330749514, 0.2812975141737196);65.574508667;1.0;;;;;;;;;;;;;;0;40,10;0;0;0;30;6;0;0;();(-2000.0, -2000.0);
03:31:49:323;03:31:49:304;1448461904.12;(0.39344134330749514, 0.2812975141737196);65.574508667;1.0;;;;;;;;;;;;;;0;40,10;0;0;0;30;6;0;0;();(-2000.0, -2000.0);
03:31:49:340;03:31:49:304;1448461904.12;(0.39344134330749514, 0.2812975141737196);65.574508667;1.0;;;;;;;;;;;;;;0;40,10;0;0;0;30;6;0;0;();(-2000.0, -2000.0);
03:31:49:356;03:31:49:343;1448461904.15;(0.3934885740280151, 0.28123635186089413);65.5883102417;1.0;;;;;;;;;;;;;;0;40,10;0;0;0;30;6;0;0;();(-2000.0, -2000.0);
03:31:49:373;03:31:49:343;1448461904.15;(0.3934885740280151, 0.28123635186089413);65.5883102417;1.0;;;;;;;;;;;;;;0;40,10;0;0;0;30;6;0;0;();(-2000.0, -2000.0);
03:31:49:405;03:31:49:386;1448461904.18;(0.3935155153274536, 0.28077396816677513);65.9356231689;1.0;;;;;;;;;;;;;;0;40,10;0;0;0;30;6;0;0;();(-2000.0, -2000.0);
03:31:49:423;03:31:49:386;1448461904.18;(0.3935155153274536, 0.28077396816677513);65.9356231689;1.0;;;;;;;;;;;;;;0;40,10;0;0;0;30;6;0;0;();(-2000.0, -2000.0);
03:31:49:440;03:31:49:427;1448461904.22;(0.3934468269348145, 0.28047773573133683);66.0515594482;1.0;;;;;;;;;;;;;;0;40,10;0;0;0;30;6;0;0;();(-2000.0, -2000.0);
03:31:49:457;03:31:49:427;1448461904.22;(0.3934468269348145, 0.28047773573133683);66.0515594482;1.0;;;;;;;;;;;;;;0;40,10;0;0;0;30;6;0;0;();(-2000.0, -2000.0);
03:31:49:472;03:31:49:468;1448461904.28;(0.39359326362609864, 0.2813507080078125);66.0247421265;1.0;;;;;;;;;;;;;;0;40,10;0;0;0;30;6;0;0;();(-2000.0, -2000.0);
03:31:49:507;03:31:49:468;1448461904.28;(0.39359326362609864, 0.2813507080078125);66.0247421265;1.0;;;;;;;;;;;;;;0;40,10;0;0;0;30;6;0;0;();(-2000.0, -2000.0);
03:31:49:524;03:31:49:511;1448461904.32;(0.3936129093170166, 0.28146235148111975);66.1038208008;1.0;;;;;;;;;;;;;;0;40,10;0;0;0;30;6;0;0;();(-2000.0, -2000.0);
03:31:49:541;03:31:49:511;1448461904.32;(0.3936129093170166, 0.28146235148111975);66.1038208008;1.0;;;;;;;;;;;;;;0;40,10;0;0;0;30;6;0;0;();(-2000.0, -2000.0);
03:31:49:556;03:31:49:551;1448461904.35;(0.3935108184814453, 0.28166944715711806);66.1309661865;1.0;;;;;;;;;;;;;;0;40,10;0;0;0;30;6;0;0;();(-2000.0, -2000.0);
03:31:49:574;03:31:49:551;1448461904.35;(0.3935108184814453, 0.28166944715711806);66.1309661865;1.0;;;;;;;;;;;;;;0;40,10;0;0;0;30;6;0;0;();(-2000.0, -2000.0);
03:31:49:591;03:31:49:551;1448461904.35;(0.3935108184814453, 0.28166944715711806);66.1309661865;1.0;;;;;;;;;;;;;;0;40,10;0;0;0;30;6;0;0;();(-2000.0, -2000.0);
03:31:49:625;03:31:49:591;1448461904.38;(0.3934513330459595, 0.28197475009494355);66.4671325684;1.0;;;;;;;;;;;;;;0;40,10;0;0;0;30;6;0;0;();(-2000.0, -2000.0);
03:31:49:641;03:31:49:636;1448461904.45;(0.3940309524536133, 0.28232337103949656);66.1810073853;1.0;;;;;;;;;;;;;;0;40,10;0;0;0;30;6;0;0;();(-2000.0, -2000.0);
