%Timestamp,timestamp_write;timestamp_gotpupil;eyeTrackerTime;normPos;diameter;confidence;timestamp_gotbitdata;CRC;SEQ;AnalogOutp1;AnalogOutp2;AnalogOutp3;AnalogOutp4;AnalogOutp5;AnalogOutp6;DigitalOutp1;DigitalOutp2;DigitalOutp3;DigitalOutp4;nplanes;listofAirplanesonScreen;lastAction;lastActionDetails;lastActionAirplaneNumber;calculatedScore;positiveScore;negativeScore;collidedAirplaneNumbers;targetPositions;collisionPoint
08:48:21:313;08:48:21:308;1448480895.9;(0.42702374458312986, 0.5215803782145183);54.552066803;0.872484836453;;;;;;;;;;;;;;0;0;0;0;0;0;0;0;0;();(0.0, 0.0);
08:48:21:320;08:48:21:308;1448480895.9;(0.42702374458312986, 0.5215803782145183);54.552066803;0.872484836453;;;;;;;;;;;;;;0;0;0;0;0;0;0;0;0;();(-2000.0, -2000.0);
08:48:21:322;08:48:21:308;1448480895.9;(0.42702374458312986, 0.5215803782145183);54.552066803;0.872484836453;;;;;;;;;;;;;;0;0;0;0;0;0;0;0;0;();(-2000.0, -2000.0);
08:48:21:322;08:48:21:308;1448480895.9;(0.42702374458312986, 0.5215803782145183);54.552066803;0.872484836453;;;;;;;;;;;;;;0;0;0;0;0;0;0;0;0;();(-2000.0, -2000.0);
08:48:21:322;08:48:21:308;1448480895.9;(0.42702374458312986, 0.5215803782145183);54.552066803;0.872484836453;;;;;;;;;;;;;;0;0;0;0;0;0;0;0;0;();(-2000.0, -2000.0);
08:48:21:322;08:48:21:308;1448480895.9;(0.42702374458312986, 0.5215803782145183);54.552066803;0.872484836453;;;;;;;;;;;;;;0;0;0;0;0;0;0;0;0;();(-2000.0, -2000.0);
08:48:21:323;08:48:21:308;1448480895.9;(0.42702374458312986, 0.5215803782145183);54.552066803;0.872484836453;;;;;;;;;;;;;;0;0;0;0;0;0;0;0;0;();(-2000.0, -2000.0);
08:48:21:323;08:48:21:308;1448480895.9;(0.42702374458312986, 0.5215803782145183);54.552066803;0.872484836453;;;;;;;;;;;;;;0;0;0;0;0;0;0;0;0;();(-2000.0, -2000.0);
08:48:21:323;08:48:21:308;1448480895.9;(0.42702374458312986, 0.5215803782145183);54.552066803;0.872484836453;;;;;;;;;;;;;;0;0;0;0;0;0;0;0;0;();(-2000.0, -2000.0);
08:48:21:323;08:48:21:308;1448480895.9;(0.42702374458312986, 0.5215803782145183);54.552066803;0.872484836453;;;;;;;;;;;;;;0;0;0;0;0;0;0;0;0;();(-2000.0, -2000.0);
08:48:21:324;08:48:21:308;1448480895.9;(0.42702374458312986, 0.5215803782145183);54.552066803;0.872484836453;;;;;;;;;;;;;;0;0;0;0;0;0;0;0;0;();(-2000.0, -2000.0);
08:48:21:324;08:48:21:308;1448480895.9;(0.42702374458312986, 0.5215803782145183);54.552066803;0.872484836453;;;;;;;;;;;;;;0;0;0;0;0;0;0;0;0;();(-2000.0, -2000.0);
08:48:21:324;08:48:21:308;1448480895.9;(0.42702374458312986, 0.5215803782145183);54.552066803;0.872484836453;;;;;;;;;;;;;;0;0;0;0;0;0;0;0;0;();(-2000.0, -2000.0);
08:48:21:326;08:48:21:308;1448480895.9;(0.42702374458312986, 0.5215803782145183);54.552066803;0.872484836453;;;;;;;;;;;;;;0;0;0;0;0;0;0;0;0;();(-2000.0, -2000.0);
08:48:21:326;08:48:21:308;1448480895.9;(0.42702374458312986, 0.5215803782145183);54.552066803;0.872484836453;;;;;;;;;;;;;;0;0;0;0;0;0;0;0;0;();(-2000.0, -2000.0);
08:48:21:326;08:48:21:308;1448480895.9;(0.42702374458312986, 0.5215803782145183);54.552066803;0.872484836453;;;;;;;;;;;;;;0;0;0;0;0;0;0;0;0;();(-2000.0, -2000.0);
08:48:21:327;08:48:21:308;1448480895.9;(0.42702374458312986, 0.5215803782145183);54.552066803;0.872484836453;;;;;;;;;;;;;;0;0;0;0;0;0;0;0;0;();(-2000.0, -2000.0);
08:48:21:345;08:48:21:308;1448480895.9;(0.42702374458312986, 0.5215803782145183);54.552066803;0.872484836453;;;;;;;;;;;;;;0;0;0;0;0;0;0;0;0;();(-2000.0, -2000.0);
08:48:21:378;08:48:21:348;1448480895.94;(0.4284067630767822, 0.5220723046196831);54.5763282776;1.0;;;;;;;;;;;;;;0;0;0;0;0;0;0;0;0;();(-2000.0, -2000.0);
08:48:21:378;08:48:21:348;1448480895.94;(0.4284067630767822, 0.5220723046196831);54.5763282776;1.0;;;;;;;;;;;;;;0;0;0;0;0;0;0;0;0;();(-2000.0, -2000.0);
08:48:21:411;08:48:21:388;1448480895.97;(0.39811458587646487, 0.5240965525309245);56.5416374207;1.0;;;;;;;;;;;;;;0;0;0;0;0;0;0;0;0;();(-2000.0, -2000.0);
08:48:21:428;08:48:21:388;1448480895.97;(0.39811458587646487, 0.5240965525309245);56.5416374207;1.0;;;;;;;;;;;;;;0;0;0;0;0;0;0;0;0;();(-2000.0, -2000.0);
08:48:21:444;08:48:21:432;1448480896.04;(0.3998631238937378, 0.5251077863905165);56.5853652954;0.968940500732;;;;;;;;;;;;;;0;0;0;0;0;0;0;0;0;();(-2000.0, -2000.0);
08:48:21:461;08:48:21:432;1448480896.04;(0.3998631238937378, 0.5251077863905165);56.5853652954;0.968940500732;;;;;;;;;;;;;;0;0;0;0;0;0;0;0;0;();(-2000.0, -2000.0);
08:48:23:031;08:48:23:006;1448480897.6;(0.46866817474365235, 0.5002471499972874);55.4182014465;1.0;;;;;;;;;;;;;;0;0;0;0;0;0;0;0;0;();(-2000.0, -2000.0);
08:48:23:032;08:48:23:006;1448480897.6;(0.46866817474365235, 0.5002471499972874);55.4182014465;1.0;;;;;;;;;;;;;;0;0;0;0;0;0;0;0;0;();(-2000.0, -2000.0);
08:48:23:032;08:48:23:006;1448480897.6;(0.46866817474365235, 0.5002471499972874);55.4182014465;1.0;;;;;;;;;;;;;;0;0;0;0;0;0;0;0;0;();(-2000.0, -2000.0);
08:48:23:032;08:48:23:006;1448480897.6;(0.46866817474365235, 0.5002471499972874);55.4182014465;1.0;;;;;;;;;;;;;;0;0;0;0;0;0;0;0;0;();(-2000.0, -2000.0);
08:48:23:032;08:48:23:006;1448480897.6;(0.46866817474365235, 0.5002471499972874);55.4182014465;1.0;;;;;;;;;;;;;;0;0;0;0;0;0;0;0;0;();(-2000.0, -2000.0);
08:48:23:033;08:48:23:006;1448480897.6;(0.46866817474365235, 0.5002471499972874);55.4182014465;1.0;;;;;;;;;;;;;;0;0;0;0;0;0;0;0;0;();(-2000.0, -2000.0);
08:48:23:033;08:48:23:006;1448480897.6;(0.46866817474365235, 0.5002471499972874);55.4182014465;1.0;;;;;;;;;;;;;;0;0;0;0;0;0;0;0;0;();(-2000.0, -2000.0);
08:48:23:033;08:48:23:006;1448480897.6;(0.46866817474365235, 0.5002471499972874);55.4182014465;1.0;;;;;;;;;;;;;;0;0;0;0;0;0;0;0;0;();(-2000.0, -2000.0);
08:48:23:034;08:48:23:006;1448480897.6;(0.46866817474365235, 0.5002471499972874);55.4182014465;1.0;;;;;;;;;;;;;;0;0;0;0;0;0;0;0;0;();(-2000.0, -2000.0);
08:48:23:034;08:48:23:006;1448480897.6;(0.46866817474365235, 0.5002471499972874);55.4182014465;1.0;;;;;;;;;;;;;;0;0;0;0;0;0;0;0;0;();(-2000.0, -2000.0);
08:48:23:034;08:48:23:006;1448480897.6;(0.46866817474365235, 0.5002471499972874);55.4182014465;1.0;;;;;;;;;;;;;;0;0;0;0;0;0;0;0;0;();(-2000.0, -2000.0);
08:48:23:034;08:48:23:006;1448480897.6;(0.46866817474365235, 0.5002471499972874);55.4182014465;1.0;;;;;;;;;;;;;;0;0;0;0;0;0;0;0;0;();(-2000.0, -2000.0);
08:48:23:035;08:48:23:006;1448480897.6;(0.46866817474365235, 0.5002471499972874);55.4182014465;1.0;;;;;;;;;;;;;;0;0;0;0;0;0;0;0;0;();(-2000.0, -2000.0);
08:48:23:035;08:48:23:006;1448480897.6;(0.46866817474365235, 0.5002471499972874);55.4182014465;1.0;;;;;;;;;;;;;;0;0;0;0;0;0;0;0;0;();(-2000.0, -2000.0);
08:48:23:036;08:48:23:006;1448480897.6;(0.46866817474365235, 0.5002471499972874);55.4182014465;1.0;;;;;;;;;;;;;;0;0;0;0;0;0;0;0;0;();(-2000.0, -2000.0);
08:48:23:037;08:48:23:006;1448480897.6;(0.46866817474365235, 0.5002471499972874);55.4182014465;1.0;;;;;;;;;;;;;;0;0;0;0;0;0;0;0;0;();(-2000.0, -2000.0);
08:48:23:038;08:48:23:006;1448480897.6;(0.46866817474365235, 0.5002471499972874);55.4182014465;1.0;;;;;;;;;;;;;;0;0;0;0;0;0;0;0;0;();(-2000.0, -2000.0);
08:48:23:056;08:48:23:006;1448480897.6;(0.46866817474365235, 0.5002471499972874);55.4182014465;1.0;;;;;;;;;;;;;;0;0;0;0;0;0;0;0;0;();(-2000.0, -2000.0);
08:48:23:089;08:48:23:006;1448480897.6;(0.46866817474365235, 0.5002471499972874);55.4182014465;1.0;;;;;;;;;;;;;;0;0;0;0;0;0;0;0;0;();(-2000.0, -2000.0);
08:48:23:106;08:48:23:090;1448480897.64;(0.4768041133880615, 0.49666553073459196);55.2779769897;1.0;;;;;;;;;;;;;;0;0;0;0;0;0;0;0;0;();(-2000.0, -2000.0);
08:48:23:137;08:48:23:129;1448480897.7;(0.4763960838317871, 0.49705433315700953);55.1797447205;1.0;;;;;;;;;;;;;;0;0;0;0;0;0;0;0;0;();(-2000.0, -2000.0);
08:48:23:137;08:48:23:129;1448480897.7;(0.4763960838317871, 0.49705433315700953);55.1797447205;1.0;;;;;;;;;;;;;;0;0;0;0;0;0;0;0;0;();(-2000.0, -2000.0);
08:48:23:156;08:48:23:129;1448480897.7;(0.4763960838317871, 0.49705433315700953);55.1797447205;1.0;;;;;;;;;;;;;;0;0;0;0;0;0;0;0;0;();(-2000.0, -2000.0);
08:48:23:190;08:48:23:174;1448480897.77;(0.4764470100402832, 0.49716957939995665);55.2063179016;1.0;;;;;;;;;;;;;;0;0;0;0;0;0;0;0;0;();(-2000.0, -2000.0);
08:48:23:205;08:48:23:174;1448480897.77;(0.4764470100402832, 0.49716957939995665);55.2063179016;1.0;;;;;;;;;;;;;;0;0;0;0;0;0;0;0;0;();(-2000.0, -2000.0);
08:48:23:223;08:48:23:213;1448480897.8;(0.47631635665893557, 0.49739617241753475);55.2227668762;1.0;;;;;;;;;;;;;;0;0;0;0;0;0;0;0;0;();(-2000.0, -2000.0);
08:48:23:239;08:48:23:213;1448480897.8;(0.47631635665893557, 0.49739617241753475);55.2227668762;1.0;;;;;;;;;;;;;;0;0;0;0;0;0;0;0;0;();(-2000.0, -2000.0);
08:48:23:257;08:48:23:213;1448480897.8;(0.47631635665893557, 0.49739617241753475);55.2227668762;1.0;;;;;;;;;;;;;;0;0;0;0;0;0;0;0;0;();(-2000.0, -2000.0);
08:48:23:289;08:48:23:258;1448480897.84;(0.4766047477722168, 0.49706666734483507);55.034160614;1.0;;;;;;;;;;;;;;0;0;0;0;0;0;0;0;0;();(-2000.0, -2000.0);
08:48:23:308;08:48:23:297;1448480897.87;(0.47639174461364747, 0.497087648179796);54.9647064209;1.0;;;;;;;;;;;;;;0;0;0;0;0;0;0;0;0;();(-2000.0, -2000.0);
08:48:23:322;08:48:23:297;1448480897.87;(0.47639174461364747, 0.497087648179796);54.9647064209;1.0;;;;;;;;;;;;;;0;0;0;0;0;0;0;0;0;();(-2000.0, -2000.0);
08:48:23:340;08:48:23:297;1448480897.87;(0.47639174461364747, 0.497087648179796);54.9647064209;1.0;;;;;;;;;;;;;;0;0;0;0;0;0;0;0;0;();(-2000.0, -2000.0);
08:48:23:357;08:48:23:342;1448480897.94;(0.4764686584472656, 0.4967803107367621);54.6042480469;1.0;;;;;;;;;;;;;;0;0;0;0;0;0;0;0;0;();(-2000.0, -2000.0);
08:48:23:389;08:48:23:342;1448480897.94;(0.4764686584472656, 0.4967803107367621);54.6042480469;1.0;;;;;;;;;;;;;;0;0;0;0;0;0;0;0;0;();(-2000.0, -2000.0);
08:48:23:408;08:48:23:342;1448480897.94;(0.4764686584472656, 0.4967803107367621);54.6042480469;1.0;;;;;;;;;;;;;;0;0;0;0;0;0;0;0;0;();(-2000.0, -2000.0);
08:48:23:424;08:48:23:342;1448480897.94;(0.4764686584472656, 0.4967803107367621);54.6042480469;1.0;;;;;;;;;;;;;;0;0;0;0;0;0;0;0;0;();(-2000.0, -2000.0);
08:48:23:441;08:48:23:425;1448480898.0;(0.44727864265441897, 0.503576193915473);55.3584060669;1.0;;;;;;;;;;;;;;0;0;0;0;0;0;0;0;0;();(-2000.0, -2000.0);
08:48:23:458;08:48:23:425;1448480898.0;(0.44727864265441897, 0.503576193915473);55.3584060669;1.0;;;;;;;;;;;;;;0;0;0;0;0;0;0;0;0;();(-2000.0, -2000.0);
08:48:23:492;08:48:23:466;1448480898.07;(0.49591774940490724, 0.8504931873745388);28.5848751068;0.988494024889;;;;;;;;;;;;;;0;0;0;0;0;0;0;0;0;();(-2000.0, -2000.0);
08:48:23:508;08:48:23:505;1448480898.1;(0.4960783004760742, 0.8505362404717339);29.062707901;0.967413559047;;;;;;;;;;;;;;0;0;0;0;0;0;0;0;0;();(-2000.0, -2000.0);
08:48:23:524;08:48:23:505;1448480898.1;(0.4960783004760742, 0.8505362404717339);29.062707901;0.967413559047;;;;;;;;;;;;;;0;0;0;0;0;0;0;0;0;();(-2000.0, -2000.0);
08:48:23:540;08:48:23:505;1448480898.1;(0.4960783004760742, 0.8505362404717339);29.062707901;0.967413559047;;;;;;;;;;;;;;0;0;0;0;0;0;0;0;0;();(-2000.0, -2000.0);
08:48:23:558;08:48:23:545;1448480898.14;(0.4960621356964111, 0.8506805419921875);29.6970272064;0.938015753284;;;;;;;;;;;;;;0;0;0;0;0;0;0;0;0;();(-2000.0, -2000.0);
08:48:23:575;08:48:23:545;1448480898.14;(0.4960621356964111, 0.8506805419921875);29.6970272064;0.938015753284;;;;;;;;;;;;;;0;0;0;0;0;0;0;0;0;();(-2000.0, -2000.0);
08:48:23:607;08:48:23:589;1448480898.17;(0.49602603912353516, 0.8511399269104004);29.5290088654;0.967498862062;;;;;;;;;;;;;;0;0;0;0;0;0;0;0;0;();(-2000.0, -2000.0);
08:48:23:625;08:48:23:589;1448480898.17;(0.49602603912353516, 0.8511399269104004);29.5290088654;0.967498862062;;;;;;;;;;;;;;0;0;0;0;0;0;0;0;0;();(-2000.0, -2000.0);
08:48:23:642;08:48:23:629;1448480898.2;(0.49617505073547363, 0.8515513102213541);29.5559196472;0.845160077407;;;;;;;;;;;;;;0;0;0;0;0;0;0;0;0;();(-2000.0, -2000.0);
08:48:23:659;08:48:23:629;1448480898.2;(0.49617505073547363, 0.8515513102213541);29.5559196472;0.845160077407;;;;;;;;;;;;;;0;0;0;0;0;0;0;0;0;();(-2000.0, -2000.0);
08:48:23:676;08:48:23:674;1448480898.27;(0.4963974952697754, 0.8525391896565755);28.9452877045;0.93064468578;;;;;;;;;;;;;;0;0;0;0;0;0;0;0;0;();(-2000.0, -2000.0);
08:48:23:709;08:48:23:674;1448480898.27;(0.4963974952697754, 0.8525391896565755);28.9452877045;0.93064468578;;;;;;;;;;;;;;0;0;0;0;0;0;0;0;0;();(-2000.0, -2000.0);
08:48:24:257;08:48:24:213;1448480898.8;(0.40634703636169434, 0.515217039320204);56.3976097107;1.0;08:48:24:251;0;10;-0.974193548387097;1.94117647058824;1.46627565982405;0;0;0;1;1;1;1;0;0;0;0;0;0;0;0;0;();(-2000.0, -2000.0);
08:48:24:258;08:48:24:253;1448480898.84;(0, 0);0;0;08:48:24:258;0;5;-0.974193548387097;2.05835010060362;1.46627565982405;0;0;0;1;1;1;1;0;0;0;0;0;0;0;0;0;();(-2000.0, -2000.0);
08:48:24:258;08:48:24:253;1448480898.84;(0, 0);0;0;08:48:24:258;0;5;-0.974193548387097;2.05835010060362;1.46627565982405;0;0;0;1;1;1;1;0;0;0;0;0;0;0;0;0;();(-2000.0, -2000.0);
08:48:24:258;08:48:24:253;1448480898.84;(0, 0);0;0;08:48:24:258;0;5;-0.974193548387097;2.05835010060362;1.46627565982405;0;0;0;1;1;1;1;0;0;0;0;0;0;0;0;0;();(-2000.0, -2000.0);
08:48:24:258;08:48:24:253;1448480898.84;(0, 0);0;0;08:48:24:258;0;5;-0.974193548387097;2.05835010060362;1.46627565982405;0;0;0;1;1;1;1;0;0;0;0;0;0;0;0;0;();(-2000.0, -2000.0);
08:48:24:258;08:48:24:253;1448480898.84;(0, 0);0;0;08:48:24:258;0;5;-0.974193548387097;2.05835010060362;1.46627565982405;0;0;0;1;1;1;1;0;0;0;0;0;0;0;0;0;();(-2000.0, -2000.0);
08:48:24:260;08:48:24:253;1448480898.84;(0, 0);0;0;08:48:24:260;0;5;-0.974193548387097;2.05835010060362;1.46627565982405;0;0;0;1;1;1;1;0;0;0;0;0;0;0;0;0;();(-2000.0, -2000.0);
08:48:24:260;08:48:24:253;1448480898.84;(0, 0);0;0;08:48:24:260;0;5;-0.974193548387097;2.05835010060362;1.46627565982405;0;0;0;1;1;1;1;0;0;0;0;0;0;0;0;0;();(-2000.0, -2000.0);
08:48:24:260;08:48:24:253;1448480898.84;(0, 0);0;0;08:48:24:260;0;5;-0.974193548387097;2.05835010060362;1.46627565982405;0;0;0;1;1;1;1;0;0;0;0;0;0;0;0;0;();(-2000.0, -2000.0);
08:48:24:260;08:48:24:253;1448480898.84;(0, 0);0;0;08:48:24:260;0;5;-0.974193548387097;2.05835010060362;1.46627565982405;0;0;0;1;1;1;1;0;0;0;0;0;0;0;0;0;();(-2000.0, -2000.0);
08:48:24:261;08:48:24:253;1448480898.84;(0, 0);0;0;08:48:24:261;0;5;-0.974193548387097;2.05835010060362;1.46627565982405;0;0;0;1;1;1;1;0;0;0;0;0;0;0;0;0;();(-2000.0, -2000.0);
08:48:24:261;08:48:24:253;1448480898.84;(0, 0);0;0;08:48:24:261;0;5;-0.974193548387097;2.05835010060362;1.46627565982405;0;0;0;1;1;1;1;0;0;0;0;0;0;0;0;0;();(-2000.0, -2000.0);
08:48:24:261;08:48:24:253;1448480898.84;(0, 0);0;0;08:48:24:261;0;5;-0.974193548387097;2.05835010060362;1.46627565982405;0;0;0;1;1;1;1;0;0;0;0;0;0;0;0;0;();(-2000.0, -2000.0);
08:48:24:261;08:48:24:253;1448480898.84;(0, 0);0;0;08:48:24:261;0;5;-0.974193548387097;2.05835010060362;1.46627565982405;0;0;0;1;1;1;1;0;0;0;0;0;0;0;0;0;();(-2000.0, -2000.0);
08:48:24:261;08:48:24:253;1448480898.84;(0, 0);0;0;08:48:24:261;0;5;-0.974193548387097;2.05835010060362;1.46627565982405;0;0;0;1;1;1;1;0;0;0;0;0;0;0;0;0;();(-2000.0, -2000.0);
08:48:24:261;08:48:24:253;1448480898.84;(0, 0);0;0;08:48:24:261;0;5;-0.974193548387097;2.05835010060362;1.46627565982405;0;0;0;1;1;1;1;0;0;0;0;0;0;0;0;0;();(-2000.0, -2000.0);
08:48:24:262;08:48:24:253;1448480898.84;(0, 0);0;0;08:48:24:261;0;5;-0.974193548387097;2.05835010060362;1.46627565982405;0;0;0;1;1;1;1;0;0;0;0;0;0;0;0;0;();(-2000.0, -2000.0);
08:48:24:262;08:48:24:253;1448480898.84;(0, 0);0;0;08:48:24:262;0;5;-0.974193548387097;2.05835010060362;1.46627565982405;0;0;0;1;1;1;1;0;0;0;0;0;0;0;0;0;();(-2000.0, -2000.0);
08:48:24:296;08:48:24:293;1448480898.87;(0.318095064163208, 0.42007577684190534);34.8348617554;0.602717308858;08:48:24:296;0;4;-0.987096774193548;2.16737288135593;1.46627565982405;0;0;0;1;1;1;1;0;0;0;0;0;0;0;0;0;();(-2000.0, -2000.0);
08:48:24:313;08:48:24:293;1448480898.87;(0.318095064163208, 0.42007577684190534);34.8348617554;0.602717308858;08:48:24:313;0;9;-0.987096774193548;2.21428571428571;1.46627565982405;0;0;0;1;1;1;1;0;0;0;0;0;0;0;0;0;();(-2000.0, -2000.0);
08:48:24:331;08:48:24:293;1448480898.87;(0.318095064163208, 0.42007577684190534);34.8348617554;0.602717308858;08:48:24:331;0;15;-0.987096774193548;2.28348214285714;1.85728250244379;0;0;0;1;1;1;1;0;0;0;0;0;0;0;0;0;();(-2000.0, -2000.0);
08:48:24:345;08:48:24:337;1448480898.9;(0, 0);0;0;08:48:24:345;0;10;-0.987096774193548;2.22391304347826;1.85728250244379;0;0;0;1;1;1;1;0;0;0;0;0;0;0;0;0;();(-2000.0, -2000.0);
08:48:24:363;08:48:24:337;1448480898.9;(0, 0);0;0;08:48:24:362;0;15;-0.990322580645161;2.26829268292683;1.66177908113392;0;0;0;1;1;1;1;0;0;0;0;0;0;0;0;0;();(-2000.0, -2000.0);
08:48:24:505;08:48:24:505;1448480899.1;(0.4167881727218628, 0.5600013309054904);57.960811615;1.0;08:48:24:505;0;14;-1.00967741935484;2.2;1.46627565982405;0;0;0;1;1;1;1;0;0;0;0;0;0;0;0;0;();(-2000.0, -2000.0);
08:48:24:506;08:48:24:505;1448480899.1;(0.4167881727218628, 0.5600013309054904);57.960811615;1.0;08:48:24:506;0;8;-1.00967741935484;2.25330396475771;1.85728250244379;0;0;0;1;1;1;1;0;0;0;0;0;0;0;0;0;();(-2000.0, -2000.0);
08:48:24:506;08:48:24:505;1448480899.1;(0.4167881727218628, 0.5600013309054904);57.960811615;1.0;08:48:24:506;0;14;-1.00967741935484;2.19057815845824;1.46627565982405;0;0;0;1;1;1;1;0;0;0;0;0;0;0;0;0;();(-2000.0, -2000.0);
08:48:24:506;08:48:24:505;1448480899.1;(0.4167881727218628, 0.5600013309054904);57.960811615;1.0;08:48:24:506;0;4;-1.01612903225806;2.16737288135593;1.85728250244379;0;0;0;1;1;1;1;0;0;0;0;0;0;0;0;0;();(-2000.0, -2000.0);
08:48:24:506;08:48:24:505;1448480899.1;(0.4167881727218628, 0.5600013309054904);57.960811615;1.0;08:48:24:506;0;13;-1.01612903225806;2.23851203501094;1.46627565982405;0;0;0;1;1;1;1;0;0;0;0;0;0;0;0;0;();(-2000.0, -2000.0);
08:48:24:506;08:48:24:505;1448480899.1;(0.4167881727218628, 0.5600013309054904);57.960811615;1.0;08:48:24:506;0;6;-1.0258064516129;2.20950323974082;1.46627565982405;0;0;0;1;1;1;1;0;0;0;0;0;0;0;0;0;();(-2000.0, -2000.0);
08:48:24:507;08:48:24:505;1448480899.1;(0.4167881727218628, 0.5600013309054904);57.960811615;1.0;08:48:24:507;0;15;-1.0258064516129;2.28348214285714;1.46627565982405;0;0;0;1;1;1;1;0;0;0;0;0;0;0;0;0;();(-2000.0, -2000.0);
08:48:24:531;08:48:24:505;1448480899.1;(0.4167881727218628, 0.5600013309054904);57.960811615;1.0;08:48:24:531;0;15;-1.03870967741935;2.16279069767442;1.46627565982405;0;0;0;1;1;1;1;0;0;0;0;0;0;0;0;0;();(-2000.0, -2000.0);
08:48:24:546;08:48:24:545;1448480899.14;(0.41764509677886963, 0.5600600348578559);58.1271972656;1.0;08:48:24:546;0;10;-1.03870967741935;2.24835164835165;1.85728250244379;0;0;0;1;1;1;1;0;0;0;0;0;0;0;0;0;();(-2000.0, -2000.0);
08:48:24:564;08:48:24:545;1448480899.14;(0.41764509677886963, 0.5600600348578559);58.1271972656;1.0;08:48:24:564;0;0;-1.03870967741935;2.19057815845824;2.1505376344086;0;0;0;1;1;1;1;0;0;0;0;0;0;0;0;0;();(-2000.0, -2000.0);
08:48:24:581;08:48:24:545;1448480899.14;(0.41764509677886963, 0.5600600348578559);58.1271972656;1.0;08:48:24:581;0;5;-1.04838709677419;2.24835164835165;1.46627565982405;0;0;0;1;1;1;1;0;0;0;0;0;0;0;0;0;();(-2000.0, -2000.0);
08:48:24:616;08:48:24:585;1448480899.17;(0.4181002855300903, 0.5592469533284505);58.1314964294;1.0;08:48:24:616;0;4;-1.04838709677419;2.20950323974082;1.85728250244379;0;0;0;1;1;1;1;0;0;0;0;0;0;0;0;0;();(-2000.0, -2000.0);
08:48:24:632;08:48:24:626;1448480899.2;(0.41866183280944824, 0.5588506910536024);58.2376785278;1.0;08:48:24:632;0;10;-1.05806451612903;2.28348214285714;1.85728250244379;0;0;0;1;1;1;1;0;0;0;0;0;0;0;0;0;();(-2000.0, -2000.0);
08:48:24:647;08:48:24:626;1448480899.2;(0.41866183280944824, 0.5588506910536024);58.2376785278;1.0;08:48:24:647;0;5;-1.06451612903226;2.24835164835165;1.46627565982405;0;0;0;1;1;1;1;0;0;0;0;0;0;0;0;0;();(-2000.0, -2000.0);
08:48:24:666;08:48:24:665;1448480899.24;(0.4191987752914429, 0.5582332611083984);58.1885986328;1.0;08:48:24:666;0;10;-1.06451612903226;2.14915966386555;1.46627565982405;0;0;0;1;1;1;1;0;0;0;0;0;0;0;0;0;();(-2000.0, -2000.0);
08:48:24:682;08:48:24:666;1448480899.27;(0.41939382553100585, 0.5576305813259549);57.8509597778;1.0;08:48:24:682;0;10;-1.06451612903226;2.14915966386555;1.46627565982405;0;0;0;1;1;1;1;0;0;0;0;0;0;0;0;0;();(-2000.0, -2000.0);
08:48:24:731;08:48:24:709;1448480899.3;(0.41941354274749754, 0.5575514475504557);57.556930542;1.0;08:48:24:731;0;10;-1.07741935483871;2.22391304347826;1.46627565982405;0;0;0;1;1;1;1;0;0;0;0;0;0;0;0;0;();(-2000.0, -2000.0);
08:48:24:731;08:48:24:709;1448480899.3;(0.41941354274749754, 0.5575514475504557);57.556930542;1.0;08:48:24:731;0;10;-1.07741935483871;2.22391304347826;1.46627565982405;0;0;0;1;1;1;1;0;0;0;0;0;0;0;0;0;();(-2000.0, -2000.0);
08:48:24:746;08:48:24:709;1448480899.3;(0.41941354274749754, 0.5575514475504557);57.556930542;1.0;08:48:24:746;0;5;-1.07741935483871;2.20950323974082;1.46627565982405;0;0;0;1;1;1;1;0;0;0;0;0;0;0;0;0;();(-2000.0, -2000.0);
08:48:24:776;08:48:24:749;1448480899.34;(0.4196869611740112, 0.5573821173773872);57.7936935425;1.0;08:48:24:776;0;4;-1.09032258064516;2.14915966386555;1.46627565982405;0;0;0;1;1;1;1;0;0;0;0;0;0;0;0;0;();(-2000.0, -2000.0);
08:48:24:791;08:48:24:749;1448480899.34;(0.4196869611740112, 0.5573821173773872);57.7936935425;1.0;08:48:24:791;0;15;-1.07741935483871;2.12681912681913;1.46627565982405;0;0;0;1;1;1;1;0;0;0;0;0;0;0;0;0;();(-2000.0, -2000.0);
08:48:24:806;08:48:24:793;1448480899.37;(0.41947362422943113, 0.5566980573866103);57.9484138489;1.0;08:48:24:806;0;5;-1.09032258064516;2.1006160164271;1.46627565982405;0;0;0;1;1;1;1;0;0;0;0;0;0;0;0;0;();(-2000.0, -2000.0);
08:48:24:836;08:48:24:833;1448480899.44;(0.41980791091918945, 0.5557830386691623);58.1953353882;1.0;08:48:24:836;0;4;-1.09032258064516;2.20950323974082;2.1505376344086;0;0;0;1;1;1;1;0;0;0;0;0;0;0;0;0;();(-2000.0, -2000.0);
08:48:24:850;08:48:24:833;1448480899.44;(0.41980791091918945, 0.5557830386691623);58.1953353882;1.0;08:48:24:850;0;15;-1.07741935483871;2.20950323974082;1.46627565982405;0;0;0;1;1;1;1;0;0;0;0;0;0;0;0;0;();(-2000.0, -2000.0);
08:48:24:866;08:48:24:833;1448480899.44;(0.41980791091918945, 0.5557830386691623);58.1953353882;1.0;08:48:24:866;0;10;-1.07741935483871;2.41843971631206;1.66177908113392;0;0;0;1;1;1;1;0;0;0;0;0;0;0;0;0;();(-2000.0, -2000.0);
08:48:24:883;08:48:24:833;1448480899.44;(0.41980791091918945, 0.5557830386691623);58.1953353882;1.0;08:48:24:883;0;0;-1.07741935483871;2.19057815845824;1.46627565982405;0;0;0;1;1;1;1;0;0;0;0;0;0;0;0;0;();(-2000.0, -2000.0);
08:48:24:916;08:48:24:833;1448480899.44;(0.41980791091918945, 0.5557830386691623);58.1953353882;1.0;08:48:24:916;0;15;-1.09032258064516;1.54066265060241;0.684261974584555;0;0;0;1;1;1;1;0;0;0;0;0;0;0;0;0;();(-2000.0, -2000.0);
08:48:24:934;08:48:24:918;1448480899.5;(0.41652913093566896, 0.5446230146620008);58.6442108154;1.0;08:48:24:933;0;4;-1.09032258064516;2.01377952755906;1.46627565982405;0;0;0;1;1;1;1;0;0;0;0;0;0;0;0;0;();(-2000.0, -2000.0);
08:48:24:950;08:48:24:918;1448480899.5;(0.41652913093566896, 0.5446230146620008);58.6442108154;1.0;08:48:24:950;0;0;-1.09354838709677;2.20950323974082;1.46627565982405;0;0;0;1;1;1;1;0;0;0;0;0;0;0;0;0;();(-2000.0, -2000.0);
08:48:24:967;08:48:24:957;1448480899.54;(0.4163106918334961, 0.5441080729166667);58.6087112427;1.0;08:48:24:967;0;5;-1.1;2.22391304347826;1.46627565982405;0;0;0;1;1;1;1;0;0;0;0;0;0;0;0;0;();(-2000.0, -2000.0);
08:48:24:982;08:48:24:957;1448480899.54;(0.4163106918334961, 0.5441080729166667);58.6087112427;1.0;08:48:24:982;0;10;-1.11290322580645;2.21428571428571;1.85728250244379;0;0;0;1;1;1;1;0;0;0;0;0;0;0;0;0;();(-2000.0, -2000.0);
08:48:25:017;08:48:24:997;1448480899.57;(0.4164591789245605, 0.5433322058783637);58.807144165;1.0;08:48:25:017;0;10;-1.11290322580645;2.30405405405405;1.66177908113392;0;0;0;1;1;1;1;0;0;0;0;0;0;0;0;0;();(-2000.0, -2000.0);
08:48:25:034;08:48:24:997;1448480899.57;(0.4164591789245605, 0.5433322058783637);58.807144165;1.0;08:48:25:034;0;5;-1.11290322580645;2.25330396475771;1.46627565982405;0;0;0;1;1;1;1;0;0;0;0;0;0;0;0;0;();(-2000.0, -2000.0);
08:48:25:051;08:48:25:041;1448480899.64;(0.41688516139984133, 0.5426136864556206);59.2477455139;1.0;08:48:25:051;0;10;-1.11935483870968;2.20950323974082;1.46627565982405;0;0;0;1;1;1;1;0;0;0;0;0;0;0;0;0;();(-2000.0, -2000.0);
08:48:25:067;08:48:25:041;1448480899.64;(0.41688516139984133, 0.5426136864556206);59.2477455139;1.0;08:48:25:067;0;5;-1.11935483870968;2.22391304347826;1.46627565982405;0;0;0;1;1;1;1;0;0;0;0;0;0;0;0;0;();(-2000.0, -2000.0);
08:48:25:085;08:48:25:081;1448480899.67;(0.4169657230377197, 0.5436596340603299);59.2331848145;1.0;08:48:25:085;0;9;-1.12903225806452;2.20950323974082;1.85728250244379;0;0;0;1;1;1;1;0;0;0;0;0;0;0;0;0;();(-2000.0, -2000.0);
08:48:25:101;08:48:25:081;1448480899.67;(0.4169657230377197, 0.5436596340603299);59.2331848145;1.0;08:48:25:101;0;15;-1.13548387096774;2.14915966386555;1.46627565982405;0;0;0;1;1;1;1;0;0;0;0;0;0;0;0;0;();(-2000.0, -2000.0);
08:48:25:133;08:48:25:121;1448480899.7;(0.41700148582458496, 0.5449591318766276);59.6267623901;1.0;08:48:25:133;0;0;-1.13870967741935;2.16737288135593;1.66177908113392;0;0;0;1;1;1;1;0;0;0;0;0;0;0;0;0;();(-2000.0, -2000.0);
08:48:25:152;08:48:25:121;1448480899.7;(0.41700148582458496, 0.5449591318766276);59.6267623901;1.0;08:48:25:152;0;4;-1.13870967741935;2.10493827160494;1.66177908113392;0;0;0;1;1;1;1;0;0;0;0;0;0;0;0;0;();(-2000.0, -2000.0);
08:48:25:169;08:48:25:165;1448480899.74;(0.41688032150268556, 0.5450097825792101);59.6891937256;1.0;08:48:25:169;0;15;-1.13870967741935;2.0501002004008;1.46627565982405;0;0;0;1;1;1;1;0;0;0;0;0;0;0;0;0;();(-2000.0, -2000.0);
08:48:25:186;08:48:25:165;1448480899.74;(0.41688032150268556, 0.5450097825792101);59.6891937256;1.0;08:48:25:186;0;4;-1.13870967741935;2.01377952755906;1.46627565982405;0;0;0;1;1;1;1;0;0;0;0;0;0;0;0;0;();(-2000.0, -2000.0);
08:48:25:218;08:48:25:209;1448480899.8;(0.4167789936065674, 0.5436474270290799);59.9108810425;1.0;08:48:25:218;0;10;-1.13870967741935;1.98640776699029;1.36852394916911;0;0;0;1;1;1;1;0;0;0;0;0;0;0;0;0;();(-2000.0, -2000.0);
08:48:25:235;08:48:25:209;1448480899.8;(0.4167789936065674, 0.5436474270290799);59.9108810425;1.0;08:48:25:235;0;15;-1.13870967741935;1.98640776699029;1.85728250244379;0;0;0;1;1;1;1;0;0;0;0;0;0;0;0;0;();(-2000.0, -2000.0);
08:48:25:252;08:48:25:249;1448480899.84;(0.41683928966522216, 0.5424065907796224);60.0764350891;1.0;08:48:25:252;0;4;-1.14193548387097;2.1006160164271;1.46627565982405;0;0;0;1;1;1;1;0;0;0;0;0;0;0;0;0;();(-2000.0, -2000.0);
08:48:25:269;08:48:25:249;1448480899.84;(0.41683928966522216, 0.5424065907796224);60.0764350891;1.0;08:48:25:269;0;15;-1.13870967741935;2.2;1.46627565982405;0;0;0;1;1;1;1;0;0;0;0;0;0;0;0;0;();(-2000.0, -2000.0);
08:48:25:284;08:48:25:249;1448480899.84;(0.41683928966522216, 0.5424065907796224);60.0764350891;1.0;08:48:25:284;0;5;-1.13870967741935;2.24835164835165;1.85728250244379;0;0;0;1;1;1;1;0;0;0;0;0;0;0;0;0;();(-2000.0, -2000.0);
08:48:25:302;08:48:25:289;1448480899.87;(0.40889906883239746, 0.5171869066026475);60.5522460938;1.0;08:48:25:302;0;10;-1.13870967741935;2.26829268292683;1.66177908113392;0;0;0;1;1;1;1;0;0;0;0;0;0;0;0;0;();(-2000.0, -2000.0);
08:48:25:336;08:48:25:289;1448480899.87;(0.40889906883239746, 0.5171869066026475);60.5522460938;1.0;08:48:25:336;0;10;-1.13870967741935;2.325;2.34604105571848;0;0;0;1;1;1;1;0;0;0;0;0;0;0;0;0;();(-2000.0, -2000.0);
08:48:25:351;08:48:25:289;1448480899.87;(0.40889906883239746, 0.5171869066026475);60.5522460938;1.0;08:48:25:351;0;4;-1.13548387096774;2.26829268292683;1.56402737047898;0;0;0;1;1;1;1;0;0;0;0;0;0;0;0;0;();(-2000.0, -2000.0);
08:48:25:369;08:48:25:289;1448480899.87;(0.40889906883239746, 0.5171869066026475);60.5522460938;1.0;08:48:25:369;0;10;-1.12903225806452;2.20950323974082;1.46627565982405;0;0;0;1;1;1;1;0;0;0;0;0;0;0;0;0;();(-2000.0, -2000.0);
08:48:25:386;08:48:25:369;1448480899.95;(0.4817938804626465, 0.866612614525689);31.6362800598;0.871470316093;08:48:25:386;0;5;-1.12903225806452;2.24835164835165;1.46627565982405;0;0;0;1;1;1;1;0;0;0;0;0;0;0;0;0;();(-2000.0, -2000.0);
08:48:25:403;08:48:25:369;1448480899.95;(0.4817938804626465, 0.866612614525689);31.6362800598;0.871470316093;08:48:25:403;0;9;-1.11290322580645;2.28348214285714;1.46627565982405;0;0;0;1;1;1;1;0;0;0;0;0;0;0;0;0;();(-2000.0, -2000.0);
08:48:25:436;08:48:25:413;1448480899.97;(0.41017024517059325, 0.5113516489664713);60.4349899292;1.0;08:48:25:436;0;10;-1.11290322580645;2.20950323974082;1.46627565982405;0;0;0;1;1;1;1;0;0;0;0;0;0;0;0;0;();(-2000.0, -2000.0);
08:48:25:453;08:48:25:413;1448480899.97;(0.41017024517059325, 0.5113516489664713);60.4349899292;1.0;08:48:25:453;0;5;-1.11290322580645;2.20950323974082;1.85728250244379;0;0;0;1;1;1;1;0;0;0;0;0;0;0;0;0;();(-2000.0, -2000.0);
08:48:25:471;08:48:25:458;1448480900.04;(0.41030287742614746, 0.5129584418402777);60.3444595337;1.0;08:48:25:471;0;10;-1.10967741935484;2.14915966386555;1.46627565982405;0;0;0;1;1;1;1;0;0;0;0;0;0;0;0;0;();(-2000.0, -2000.0);
08:48:25:487;08:48:25:458;1448480900.04;(0.41030287742614746, 0.5129584418402777);60.3444595337;1.0;08:48:25:487;0;15;-1.1;2.26829268292683;1.46627565982405;0;0;0;1;1;1;1;0;0;0;0;0;0;0;0;0;();(-2000.0, -2000.0);
08:48:25:504;08:48:25:497;1448480900.07;(0.41050965785980226, 0.5141988118489583);60.319442749;1.0;08:48:25:504;0;5;-1.09354838709677;2.19057815845824;1.85728250244379;0;0;0;1;1;1;1;0;0;0;0;0;0;0;0;0;();(-2000.0, -2000.0);
08:48:25:537;08:48:25:497;1448480900.07;(0.41050965785980226, 0.5141988118489583);60.319442749;1.0;08:48:25:537;0;10;-1.09032258064516;2.19057815845824;1.46627565982405;0;0;0;1;1;1;1;0;0;0;0;0;0;0;0;0;();(-2000.0, -2000.0);
08:48:25:554;08:48:25:537;1448480900.14;(0.4107084274291992, 0.5153311411539714);60.3000335693;1.0;08:48:25:554;0;15;-1.09032258064516;2.24835164835165;1.46627565982405;0;0;0;1;1;1;1;0;0;0;0;0;0;0;0;0;();(-2000.0, -2000.0);
08:48:25:569;08:48:25:537;1448480900.14;(0.4107084274291992, 0.5153311411539714);60.3000335693;1.0;08:48:25:569;0;10;-1.07741935483871;2.19057815845824;1.66177908113392;0;0;0;1;1;1;1;0;0;0;0;0;0;0;0;0;();(-2000.0, -2000.0);
08:48:25:587;08:48:25:581;1448480900.17;(0.4106306552886963, 0.5148456573486329);60.3039665222;1.0;08:48:25:587;0;15;-1.06774193548387;2.19057815845824;1.46627565982405;0;0;0;1;1;1;1;0;0;0;0;0;0;0;0;0;();(-2000.0, -2000.0);
08:48:25:604;08:48:25:581;1448480900.17;(0.4106306552886963, 0.5148456573486329);60.3039665222;1.0;08:48:25:604;0;5;-1.06451612903226;2.20950323974082;1.85728250244379;0;0;0;1;1;1;1;0;0;0;0;0;0;0;0;0;();(-2000.0, -2000.0);
08:48:25:622;08:48:25:621;1448480900.2;(0.41024396419525144, 0.5144844055175781);60.0236091614;1.0;08:48:25:622;0;10;-1.0741935483871;2.16737288135593;1.46627565982405;0;0;0;1;1;1;1;0;0;0;0;0;0;0;0;0;();(-2000.0, -2000.0);
08:48:25:654;08:48:25:621;1448480900.2;(0.41024396419525144, 0.5144844055175781);60.0236091614;1.0;08:48:25:654;0;10;-1.11290322580645;2.27839643652561;1.85728250244379;0;0;0;1;1;1;1;0;0;0;0;0;0;0;0;0;();(-2000.0, -2000.0);
08:48:25:671;08:48:25:661;1448480900.24;(0.4111019134521484, 0.5124954647488065);60.2018699646;1.0;08:48:25:671;0;4;-1.12903225806452;2.14915966386555;1.46627565982405;0;0;0;1;1;1;1;0;0;0;0;0;0;0;0;0;();(-2000.0, -2000.0);
08:48:25:688;08:48:25:661;1448480900.24;(0.4111019134521484, 0.5124954647488065);60.2018699646;1.0;08:48:25:688;0;10;-1.15161290322581;2.20950323974082;1.46627565982405;0;0;0;1;1;1;1;0;0;0;0;0;0;0;0;0;();(-2000.0, -2000.0);
08:48:25:705;08:48:25:661;1448480900.24;(0.4111019134521484, 0.5124954647488065);60.2018699646;1.0;08:48:25:705;0;5;-1.15161290322581;2.14016736401674;1.66177908113392;0;0;0;1;1;1;1;0;0;0;0;0;0;0;0;0;();(-2000.0, -2000.0);
08:48:25:721;08:48:25:706;1448480900.3;(0.41154770851135253, 0.5107476128472221);60.0985412598;1.0;08:48:25:720;0;9;-1.14516129032258;2.24835164835165;1.46627565982405;0;0;0;1;1;1;1;0;0;0;0;0;0;0;0;0;();(-2000.0, -2000.0);
08:48:25:784;08:48:25:745;1448480900.34;(0.41143224239349363, 0.5113260481092665);60.00390625;1.0;08:48:25:784;0;10;-1.04838709677419;2.0625;1.46627565982405;0;0;0;1;1;1;1;0;0;0;0;0;0;0;0;0;();(-2000.0, -2000.0);
08:48:25:784;08:48:25:745;1448480900.34;(0.41143224239349363, 0.5113260481092665);60.00390625;1.0;08:48:25:784;0;10;-1.04838709677419;2.0625;1.46627565982405;0;0;0;1;1;1;1;0;0;0;0;0;0;0;0;0;();(-2000.0, -2000.0);
08:48:25:784;08:48:25:745;1448480900.34;(0.41143224239349363, 0.5113260481092665);60.00390625;1.0;08:48:25:784;0;10;-1.04838709677419;2.0625;1.46627565982405;0;0;0;1;1;1;1;0;0;0;0;0;0;0;0;0;();(-2000.0, -2000.0);
08:48:25:805;08:48:25:789;1448480900.37;(0.4113123655319214, 0.5120235443115234);60.0730781555;1.0;08:48:25:805;0;8;-1.03225806451613;2.11801242236025;1.46627565982405;0;0;0;1;1;1;1;0;0;0;0;0;0;0;0;0;();(-2000.0, -2000.0);
08:48:25:823;08:48:25:789;1448480900.37;(0.4113123655319214, 0.5120235443115234);60.0730781555;1.0;08:48:25:823;0;10;-1.00967741935484;2.14016736401674;1.66177908113392;0;0;0;1;1;1;1;0;0;0;0;0;0;0;0;0;();(-2000.0, -2000.0);
08:48:25:856;08:48:25:829;1448480900.4;(0.4114285707473755, 0.5128139919704862);60.1093940735;1.0;08:48:25:856;0;10;-1.00967741935484;2.14915966386555;1.66177908113392;0;0;0;1;1;1;1;0;0;0;0;0;0;0;0;0;();(-2000.0, -2000.0);
08:48:25:872;08:48:25:869;1448480900.47;(0.41140174865722656, 0.5135665893554687);60.3344917297;1.0;08:48:25:872;0;15;-1.00967741935484;2.26829268292683;1.46627565982405;0;0;0;1;1;1;1;0;0;0;0;0;0;0;0;0;();(-2000.0, -2000.0);
08:48:25:889;08:48:25:869;1448480900.47;(0.41140174865722656, 0.5135665893554687);60.3344917297;1.0;08:48:25:889;0;9;-1.00967741935484;2.24835164835165;1.46627565982405;0;0;0;1;1;1;1;0;0;0;0;0;0;0;0;0;();(-2000.0, -2000.0);
08:48:25:906;08:48:25:869;1448480900.47;(0.41140174865722656, 0.5135665893554687);60.3344917297;1.0;08:48:25:906;0;15;-1.04193548387097;2.00588235294118;1.36852394916911;0;0;0;1;1;1;1;0;0;0;0;0;0;0;0;0;();(-2000.0, -2000.0);
08:48:25:921;08:48:25:909;1448480900.5;(0.41125802993774413, 0.5138475630018446);60.5654449463;1.0;08:48:25:921;0;5;-1.09032258064516;1.5314371257485;0.684261974584555;0;0;0;1;1;1;1;0;0;0;0;0;0;0;0;0;();(-2000.0, -2000.0);
08:48:25:956;08:48:25:949;1448480900.54;(0.4113588571548462, 0.5134501563178169);60.310546875;1.0;08:48:25:956;0;0;-1.11290322580645;1.82678571428571;1.17302052785924;0;0;0;1;1;1;1;0;0;0;0;0;0;0;0;0;();(-2000.0, -2000.0);
08:48:25:973;08:48:25:949;1448480900.54;(0.4113588571548462, 0.5134501563178169);60.310546875;1.0;08:48:25:973;0;9;-1.31935483870968;2.15368421052632;1.66177908113392;0;0;0;1;1;1;1;0;0;0;0;0;0;0;0;0;();(-2000.0, -2000.0);
08:48:25:990;08:48:25:949;1448480900.54;(0.4113588571548462, 0.5134501563178169);60.310546875;1.0;08:48:25:990;0;5;-1.3741935483871;2.22391304347826;1.46627565982405;0;0;0;1;1;1;1;0;0;0;0;0;0;0;0;0;();(-2000.0, -2000.0);
08:48:26:007;08:48:25:993;1448480900.57;(0.411307692527771, 0.5131457010904947);60.5659217834;1.0;08:48:26:007;0;10;-1.42258064516129;2.325;1.46627565982405;0;0;0;1;1;1;1;0;0;0;0;0;0;0;0;0;();(-2000.0, -2000.0);
08:48:26:024;08:48:25:993;1448480900.57;(0.411307692527771, 0.5131457010904947);60.5659217834;1.0;08:48:26:024;0;15;-1.47741935483871;2.24835164835165;1.46627565982405;0;0;0;1;1;1;1;0;0;0;0;0;0;0;0;0;();(-2000.0, -2000.0);
08:48:26:057;08:48:26:033;1448480900.64;(0.41127116680145265, 0.5131836785210504);60.4816436768;1.0;08:48:26:057;0;15;-1.5;2.13125;1.46627565982405;0;0;0;1;1;1;1;0;0;0;0;0;0;0;0;0;();(-2000.0, -2000.0);
08:48:26:072;08:48:26:033;1448480900.64;(0.41127116680145265, 0.5131836785210504);60.4816436768;1.0;08:48:26:072;0;15;-1.5;2.13125;1.46627565982405;0;0;0;1;1;1;1;0;0;0;0;0;0;0;0;0;();(-2000.0, -2000.0);
08:48:26:090;08:48:26:073;1448480900.67;(0.411204195022583, 0.5134356180826822);60.6249389648;1.0;08:48:26:090;0;8;-1.46129032258065;2.19057815845824;1.46627565982405;0;0;0;1;1;1;1;0;0;0;0;0;0;0;0;0;();(-2000.0, -2000.0);
08:48:26:107;08:48:26:073;1448480900.67;(0.411204195022583, 0.5134356180826822);60.6249389648;1.0;08:48:26:107;0;10;-1.4;2.16737288135593;1.46627565982405;0;0;0;1;1;1;1;0;0;0;0;0;0;0;0;0;();(-2000.0, -2000.0);
08:48:26:124;08:48:26:117;1448480900.7;(0.4114460229873657, 0.5134340498182508);60.5635757446;1.0;08:48:26:124;0;6;-1.34516129032258;2.20950323974082;1.46627565982405;0;0;0;1;1;1;1;0;0;0;0;0;0;0;0;0;();(-2000.0, -2000.0);
08:48:26:157;08:48:26:117;1448480900.7;(0.4114460229873657, 0.5134340498182508);60.5635757446;1.0;08:48:26:157;0;0;-1.15161290322581;2.16737288135593;1.46627565982405;0;0;0;1;1;1;1;0;0;0;0;0;0;0;0;0;();(-2000.0, -2000.0);
08:48:26:175;08:48:26:157;1448480900.74;(0.41157443523406984, 0.5134718577067057);60.4720840454;1.0;08:48:26:175;0;5;-1.07741935483871;2.0625;1.46627565982405;0;0;0;1;1;1;1;0;0;0;0;0;0;0;0;0;();(-2000.0, -2000.0);
08:48:26:191;08:48:26:157;1448480900.74;(0.41157443523406984, 0.5134718577067057);60.4720840454;1.0;08:48:26:191;0;5;-1.07741935483871;2.0625;1.46627565982405;0;0;0;1;1;1;1;0;0;0;0;0;0;0;0;0;();(-2000.0, -2000.0);
08:48:26:209;08:48:26:197;1448480900.77;(0.4116590738296509, 0.5139074113633897);60.6693496704;1.0;08:48:26:209;0;4;-1.00967741935484;1.97109826589595;1.36852394916911;0;0;0;1;1;1;1;0;0;0;0;0;0;0;0;0;();(-2000.0, -2000.0);
08:48:26:225;08:48:26:197;1448480900.77;(0.4116590738296509, 0.5139074113633897);60.6693496704;1.0;08:48:26:225;0;0;-0.996774193548387;1.98640776699029;1.36852394916911;0;0;0;1;1;1;1;0;0;0;0;0;0;0;0;0;();(-2000.0, -2000.0);
08:48:26:241;08:48:26:197;1448480900.77;(0.4116590738296509, 0.5139074113633897);60.6693496704;1.0;08:48:26:241;0;5;-0.996774193548387;2.0297619047619;1.46627565982405;0;0;0;1;1;1;1;0;0;0;0;0;0;0;0;0;();(-2000.0, -2000.0);
08:48:26:275;08:48:26:241;1448480900.84;(0.41206333637237547, 0.514228524102105);60.5086860657;1.0;08:48:26:275;0;4;-1.00967741935484;2.24835164835165;1.46627565982405;0;0;0;1;1;1;1;0;0;0;0;0;0;0;0;0;();(-2000.0, -2000.0);
08:48:26:290;08:48:26:281;1448480900.87;(0.4119528532028198, 0.5142543368869358);60.2087745667;1.0;08:48:26:290;0;10;-1.0258064516129;2.27839643652561;1.46627565982405;0;0;0;1;1;1;1;0;0;0;0;0;0;0;0;0;();(-2000.0, -2000.0);
08:48:26:308;08:48:26:281;1448480900.87;(0.4119528532028198, 0.5142543368869358);60.2087745667;1.0;08:48:26:308;0;4;-1.03870967741935;2.24835164835165;1.46627565982405;0;0;0;1;1;1;1;0;0;0;0;0;0;0;0;0;();(-2000.0, -2000.0);
08:48:26:325;08:48:26:281;1448480900.87;(0.4119528532028198, 0.5142543368869358);60.2087745667;1.0;08:48:26:325;0;10;-1.04838709677419;2.22391304347826;1.46627565982405;0;0;0;1;1;1;1;0;0;0;0;0;0;0;0;0;();(-2000.0, -2000.0);
08:48:26:342;08:48:26:325;1448480900.9;(0.4180842638015747, 0.5045478820800782);60.5870857239;1.0;08:48:26:342;0;4;-1.06451612903226;2.35172413793103;1.66177908113392;0;0;0;1;1;1;1;0;0;0;0;0;0;0;0;0;();(-2000.0, -2000.0);
08:48:26:376;08:48:26:365;1448480900.94;(0.4222219705581665, 0.49488402472602);59.7996482849;1.0;08:48:26:376;0;4;-1.09032258064516;2.27839643652561;2.34604105571848;0;0;0;1;1;1;1;0;0;0;0;0;0;0;0;0;();(-2000.0, -2000.0);
08:48:26:392;08:48:26:365;1448480900.94;(0.4222219705581665, 0.49488402472602);59.7996482849;1.0;08:48:26:392;0;10;-1.09032258064516;2.30405405405405;1.66177908113392;0;0;0;1;1;1;1;0;0;0;0;0;0;0;0;0;();(-2000.0, -2000.0);
08:48:26:408;08:48:26:405;1448480901.0;(0.42189223766326905, 0.4959296332465277);59.75440979;1.0;08:48:26:408;0;5;-1.09032258064516;2.24835164835165;1.46627565982405;0;0;0;1;1;1;1;0;0;0;0;0;0;0;0;0;();(-2000.0, -2000.0);
08:48:26:427;08:48:26:405;1448480901.0;(0.42189223766326905, 0.4959296332465277);59.75440979;1.0;08:48:26:427;0;10;-1.11935483870968;2.20950323974082;1.85728250244379;0;0;0;1;1;1;1;0;0;0;0;0;0;0;0;0;();(-2000.0, -2000.0);
08:48:26:442;08:48:26:405;1448480901.0;(0.42189223766326905, 0.4959296332465277);59.75440979;1.0;08:48:26:442;0;4;-1.15161290322581;2.2;1.46627565982405;0;0;0;1;1;1;1;0;0;0;0;0;0;0;0;0;();(-2000.0, -2000.0);
08:48:26:477;08:48:26:449;1448480901.04;(0.42178523540496826, 0.4959190368652344);59.5331039429;1.0;08:48:26:477;0;4;-1.25483870967742;2.14915966386555;1.95503421309873;0;0;0;1;1;1;1;0;0;0;0;0;0;0;0;0;();(-2000.0, -2000.0);
08:48:26:493;08:48:26:489;1448480901.07;(0.4215059518814087, 0.4960762447781033);59.8857040405;1.0;08:48:26:493;0;10;-1.30645161290323;2.2;1.46627565982405;0;0;0;1;1;1;1;0;0;0;0;0;0;0;0;0;();(-2000.0, -2000.0);
08:48:26:510;08:48:26:489;1448480901.07;(0.4215059518814087, 0.4960762447781033);59.8857040405;1.0;08:48:26:510;0;15;-1.33548387096774;2.16737288135593;1.46627565982405;0;0;0;1;1;1;1;0;0;0;0;0;0;0;0;0;();(-2000.0, -2000.0);
08:48:26:543;08:48:26:533;1448480901.14;(0.4215752601623535, 0.4969673156738281);59.3666725159;1.0;08:48:26:543;0;15;-1.34516129032258;2.22391304347826;1.85728250244379;0;0;0;1;1;1;1;0;0;0;0;0;0;0;0;0;();(-2000.0, -2000.0);
08:48:26:543;08:48:26:533;1448480901.14;(0.4215752601623535, 0.4969673156738281);59.3666725159;1.0;08:48:26:543;0;15;-1.34516129032258;2.22391304347826;1.85728250244379;0;0;0;1;1;1;1;0;0;0;0;0;0;0;0;0;();(-2000.0, -2000.0);
08:48:26:572;08:48:26:533;1448480901.14;(0.4215752601623535, 0.4969673156738281);59.3666725159;1.0;08:48:26:572;0;5;-1.34516129032258;2.16737288135593;1.46627565982405;0;0;0;1;1;1;1;0;0;0;0;0;0;0;0;0;();(-2000.0, -2000.0);
08:48:26:586;08:48:26:573;1448480901.17;(0.42111988067626954, 0.49628232320149734);59.4335899353;1.0;08:48:26:586;0;10;-1.35161290322581;2.14915966386555;1.46627565982405;0;0;0;1;1;1;1;0;0;0;0;0;0;0;0;0;();(-2000.0, -2000.0);
08:48:26:602;08:48:26:573;1448480901.17;(0.42111988067626954, 0.49628232320149734);59.4335899353;1.0;08:48:26:602;0;4;-1.35806451612903;2.16737288135593;1.46627565982405;0;0;0;1;1;1;1;0;0;0;0;0;0;0;0;0;();(-2000.0, -2000.0);
08:48:26:632;08:48:26:612;1448480901.2;(0, 0);0;0;08:48:26:632;0;5;-1.4;2.19057815845824;1.46627565982405;0;0;0;1;1;1;1;0;0;0;0;0;0;0;0;0;();(-2000.0, -2000.0);
08:48:26:645;08:48:26:612;1448480901.2;(0, 0);0;0;08:48:26:644;0;0;-1.41935483870968;2.13125;1.66177908113392;0;0;0;1;1;1;1;0;0;0;0;0;0;0;0;0;();(-2000.0, -2000.0);
08:48:26:678;08:48:26:653;1448480901.24;(0, 0);0;0;08:48:26:678;0;6;-1.46129032258065;2.13125;1.46627565982405;0;0;0;1;1;1;1;0;0;0;0;0;0;0;0;0;();(-2000.0, -2000.0);
08:48:26:695;08:48:26:653;1448480901.24;(0, 0);0;0;08:48:26:695;0;4;-1.47741935483871;2.24835164835165;1.46627565982405;0;0;0;1;1;1;1;0;0;0;0;0;0;0;0;0;();(-2000.0, -2000.0);
08:48:26:712;08:48:26:697;1448480901.27;(0.2737973690032959, 0.4306294759114583);18.8250293732;0.782196228728;08:48:26:712;0;9;-1.49032258064516;2.325;1.66177908113392;0;0;0;1;1;1;1;0;0;0;0;0;0;0;0;0;();(-2000.0, -2000.0);
08:48:26:726;08:48:26:697;1448480901.27;(0.2737973690032959, 0.4306294759114583);18.8250293732;0.782196228728;08:48:26:726;0;5;-1.49677419354839;2.28348214285714;1.85728250244379;0;0;0;1;1;1;1;0;0;0;0;0;0;0;0;0;();(-2000.0, -2000.0);
08:48:26:744;08:48:26:737;1448480901.3;(0.40954830646514895, 0.5368519677056207);59.0926856995;0.741142002362;08:48:26:744;0;10;-1.5;2.20950323974082;1.46627565982405;0;0;0;1;1;1;1;0;0;0;0;0;0;0;0;0;();(-2000.0, -2000.0);
08:48:26:762;08:48:26:737;1448480901.3;(0.40954830646514895, 0.5368519677056207);59.0926856995;0.741142002362;08:48:26:762;0;4;-1.5;2.25330396475771;1.46627565982405;0;0;0;1;1;1;1;0;0;0;0;0;0;0;0;0;();(-2000.0, -2000.0);
08:48:26:795;08:48:26:781;1448480901.37;(0.41361613273620607, 0.526546859741211);59.494884491;1.0;08:48:26:795;0;15;-1.5;2.22391304347826;1.85728250244379;0;0;0;1;1;1;1;0;0;0;0;0;0;0;0;0;();(-2000.0, -2000.0);
08:48:26:812;08:48:26:781;1448480901.37;(0.41361613273620607, 0.526546859741211);59.494884491;1.0;08:48:26:812;0;9;-1.5;2.22391304347826;1.46627565982405;0;0;0;1;1;1;1;0;0;0;0;0;0;0;0;0;();(-2000.0, -2000.0);
08:48:26:828;08:48:26:821;1448480901.4;(0.41365928649902345, 0.5273175981309679);59.4562721252;1.0;08:48:26:828;0;12;-1.5;2.0625;1.46627565982405;0;0;0;1;1;1;1;0;0;0;0;0;0;0;0;0;();(-2000.0, -2000.0);
08:48:26:845;08:48:26:821;1448480901.4;(0.41365928649902345, 0.5273175981309679);59.4562721252;1.0;08:48:26:845;0;9;-1.5;2.12681912681913;1.46627565982405;0;0;0;1;1;1;1;0;0;0;0;0;0;0;0;0;();(-2000.0, -2000.0);
08:48:26:878;08:48:26:861;1448480901.44;(0.4141338586807251, 0.5276291741265191);59.6234283447;1.0;08:48:26:878;0;5;-1.5;2.07926829268293;1.46627565982405;0;0;0;1;1;1;1;0;0;0;0;0;0;0;0;0;();(-2000.0, -2000.0);
08:48:26:895;08:48:26:861;1448480901.44;(0.4141338586807251, 0.5276291741265191);59.6234283447;1.0;08:48:26:895;0;15;-1.5;1.92655367231638;1.36852394916911;0;0;0;1;1;1;1;0;0;0;0;0;0;0;0;0;();(-2000.0, -2000.0);
08:48:26:913;08:48:26:905;1448480901.5;(0.41472344398498534, 0.5276390499538846);59.5796279907;1.0;08:48:26:913;0;4;-1.5;1.82678571428571;1.17302052785924;0;0;0;1;1;1;1;0;0;0;0;0;0;0;0;0;();(-2000.0, -2000.0);
08:48:26:928;08:48:26:905;1448480901.5;(0.41472344398498534, 0.5276390499538846);59.5796279907;1.0;08:48:26:928;0;15;-1.5;2.11801242236025;1.46627565982405;0;0;0;1;1;1;1;0;0;0;0;0;0;0;0;0;();(-2000.0, -2000.0);
08:48:26:945;08:48:26:905;1448480901.5;(0.41472344398498534, 0.5276390499538846);59.5796279907;1.0;08:48:26:944;0;5;-1.5;2.16279069767442;1.66177908113392;0;0;0;1;1;1;1;0;0;0;0;0;0;0;0;0;();(-2000.0, -2000.0);
08:48:26:963;08:48:26:945;1448480901.54;(0.4148560523986816, 0.5276084476047092);59.6437530518;1.0;08:48:26:963;0;10;-1.5;2.1006160164271;1.46627565982405;0;0;0;1;1;1;1;0;0;0;0;0;0;0;0;0;();(-2000.0, -2000.0);
08:48:26:996;08:48:26:989;1448480901.57;(0.4152172565460205, 0.5273356543646919);59.6630592346;1.0;08:48:26:996;0;9;-1.48064516129032;2.20950323974082;1.46627565982405;0;0;0;1;1;1;1;0;0;0;0;0;0;0;0;0;();(-2000.0, -2000.0);
08:48:27:013;08:48:26:989;1448480901.57;(0.4152172565460205, 0.5273356543646919);59.6630592346;1.0;08:48:27:013;0;4;-1.47741935483871;2.19057815845824;1.85728250244379;0;0;0;1;1;1;1;0;0;0;0;0;0;0;0;0;();(-2000.0, -2000.0);
08:48:27:029;08:48:27:029;1448480901.6;(0.4156310558319092, 0.5273535834418404);60.0565986633;1.0;08:48:27:029;0;6;-1.45161290322581;2.16737288135593;2.1505376344086;0;0;0;1;1;1;1;0;0;0;0;0;0;0;0;0;();(-2000.0, -2000.0);
08:48:27:046;08:48:27:029;1448480901.6;(0.4156310558319092, 0.5273535834418404);60.0565986633;1.0;08:48:27:046;0;5;-1.42258064516129;2.14915966386555;1.46627565982405;0;0;0;1;1;1;1;0;0;0;0;0;0;0;0;0;();(-2000.0, -2000.0);
08:48:27:064;08:48:27:029;1448480901.6;(0.4156310558319092, 0.5273535834418404);60.0565986633;1.0;08:48:27:064;0;10;-1.3741935483871;2.10493827160494;1.46627565982405;0;0;0;1;1;1;1;0;0;0;0;0;0;0;0;0;();(-2000.0, -2000.0);
08:48:27:096;08:48:27:069;1448480901.67;(0.4160855770111084, 0.5271087222629123);60.0931930542;1.0;08:48:27:096;0;10;-1.30645161290323;2.14915966386555;1.46627565982405;0;0;0;1;1;1;1;0;0;0;0;0;0;0;0;0;();(-2000.0, -2000.0);
08:48:27:114;08:48:27:113;1448480901.7;(0.4162283897399902, 0.5266805860731336);59.9390029907;1.0;08:48:27:114;0;4;-1.29677419354839;2.07926829268293;1.46627565982405;0;0;0;1;1;1;1;0;0;0;0;0;0;0;0;0;();(-2000.0, -2000.0);
08:48:27:130;08:48:27:113;1448480901.7;(0.4162283897399902, 0.5266805860731336);59.9390029907;1.0;08:48:27:130;0;10;-1.2741935483871;2.0625;1.46627565982405;0;0;0;1;1;1;1;0;0;0;0;0;0;0;0;0;();(-2000.0, -2000.0);
08:48:27:147;08:48:27:113;1448480901.7;(0.4162283897399902, 0.5266805860731336);59.9390029907;1.0;08:48:27:147;0;15;-1.27096774193548;2.0297619047619;1.46627565982405;0;0;0;1;1;1;1;0;0;0;0;0;0;0;0;0;();(-2000.0, -2000.0);
08:48:27:162;08:48:27:153;1448480901.74;(0.41622860431671144, 0.52626584370931);60.1205940247;1.0;08:48:27:162;0;9;-1.26451612903226;2.0297619047619;1.46627565982405;0;0;0;1;1;1;1;0;0;0;0;0;0;0;0;0;();(-2000.0, -2000.0);
08:48:27:197;08:48:27:193;1448480901.77;(0.4163975715637207, 0.52646484375);60.331073761;1.0;08:48:27:197;0;9;-1.24516129032258;1.97109826589595;1.46627565982405;0;0;0;1;1;1;1;0;0;0;0;0;0;0;0;0;();(-2000.0, -2000.0);
08:48:27:214;08:48:27:193;1448480901.77;(0.4163975715637207, 0.52646484375);60.331073761;1.0;08:48:27:214;0;15;-1.23225806451613;1.92655367231638;1.17302052785924;0;0;0;1;1;1;1;0;0;0;0;0;0;0;0;0;();(-2000.0, -2000.0);
08:48:27:230;08:48:27:193;1448480901.77;(0.4163975715637207, 0.52646484375);60.331073761;1.0;08:48:27:229;0;15;-1.23225806451613;1.92655367231638;1.17302052785924;0;0;0;1;1;1;1;0;0;0;0;0;0;0;0;0;();(-2000.0, -2000.0);
08:48:27:248;08:48:27:237;1448480901.84;(0.4166358470916748, 0.5264844258626302);60.4604072571;1.0;08:48:27:248;0;15;-1.19354838709677;2.0625;1.36852394916911;0;0;0;1;1;1;1;0;0;0;0;0;0;0;0;0;();(-2000.0, -2000.0);
08:48:27:265;08:48:27:237;1448480901.84;(0.4166358470916748, 0.5264844258626302);60.4604072571;1.0;08:48:27:265;0;5;-1.16774193548387;2.15368421052632;1.46627565982405;0;0;0;1;1;1;1;0;0;0;0;0;0;0;0;0;();(-2000.0, -2000.0);
08:48:27:281;08:48:27:277;1448480901.87;(0.416707181930542, 0.5258845859103732);60.6349029541;1.0;08:48:27:281;0;0;-1.15161290322581;2.28348214285714;1.46627565982405;0;0;0;1;1;1;1;0;0;0;0;0;0;0;0;0;();(-2000.0, -2000.0);
08:48:27:314;08:48:27:277;1448480901.87;(0.416707181930542, 0.5258845859103732);60.6349029541;1.0;08:48:27:314;0;15;-1.10967741935484;2.24835164835165;1.85728250244379;0;0;0;1;1;1;1;0;0;0;0;0;0;0;0;0;();(-2000.0, -2000.0);
08:48:27:332;08:48:27:317;1448480901.9;(0.4167992115020752, 0.5257989247639974);60.8438720703;1.0;08:48:27:332;0;4;-1.09032258064516;2.24835164835165;1.46627565982405;0;0;0;1;1;1;1;0;0;0;0;0;0;0;0;0;();(-2000.0, -2000.0);
08:48:27:348;08:48:27:317;1448480901.9;(0.4167992115020752, 0.5257989247639974);60.8438720703;1.0;08:48:27:348;0;9;-1.06451612903226;2.28348214285714;1.46627565982405;0;0;0;1;1;1;1;0;0;0;0;0;0;0;0;0;();(-2000.0, -2000.0);
08:48:27:365;08:48:27:361;1448480901.94;(0.4169732093811035, 0.5257836235894098);60.9327964783;1.0;08:48:27:365;0;5;-1.04838709677419;2.16737288135593;1.46627565982405;0;0;0;1;1;1;1;0;0;0;0;0;0;0;0;0;();(-2000.0, -2000.0);
08:48:27:382;08:48:27:361;1448480901.94;(0.4169732093811035, 0.5257836235894098);60.9327964783;1.0;08:48:27:381;0;10;-1.03870967741935;2.24835164835165;1.46627565982405;0;0;0;1;1;1;1;0;0;0;0;0;0;0;0;0;();(-2000.0, -2000.0);
08:48:27:428;08:48:27:401;1448480901.97;(0.4169649124145508, 0.5254344516330295);60.6979598999;1.0;08:48:27:428;0;5;-1.0258064516129;2.20950323974082;1.46627565982405;0;0;0;1;1;1;1;2;38,10;0;0;0;0;0;0;0;();(-2000.0, -2000.0);
08:48:27:460;08:48:27:445;1448480902.04;(0.2798448085784912, 0.6709932963053385);21.067024231;0.903030131751;08:48:27:460;0;5;-1.00967741935484;2.22391304347826;1.46627565982405;0;0;0;1;1;1;1;2;38,10;0;0;0;0;0;0;0;();(-2000.0, -2000.0);
08:48:27:463;08:48:27:445;1448480902.04;(0.2798448085784912, 0.6709932963053385);21.067024231;0.903030131751;08:48:27:463;0;15;-1.00967741935484;2.24835164835165;1.85728250244379;0;0;0;1;1;1;1;1;10;0;0;0;5;1;0;0;();(-2000.0, -2000.0);
08:48:27:464;08:48:27:445;1448480902.04;(0.2798448085784912, 0.6709932963053385);21.067024231;0.903030131751;08:48:27:464;0;15;-1.00967741935484;2.24835164835165;1.85728250244379;0;0;0;1;1;1;1;1;10;0;0;0;5;1;0;0;();(-2000.0, -2000.0);
08:48:27:482;08:48:27:445;1448480902.04;(0.2798448085784912, 0.6709932963053385);21.067024231;0.903030131751;08:48:27:482;0;9;-1.00967741935484;2.21428571428571;2.1505376344086;0;0;0;1;1;1;1;1;10;0;0;0;5;1;0;0;();(-2000.0, -2000.0);
08:48:27:515;08:48:27:445;1448480902.04;(0.2798448085784912, 0.6709932963053385);21.067024231;0.903030131751;08:48:27:515;0;10;-1.00967741935484;2.24835164835165;1.46627565982405;0;0;0;1;1;1;1;1;10;0;0;0;5;1;0;0;();(-2000.0, -2000.0);
08:48:27:532;08:48:27:529;1448480902.12;(0.3526371240615845, 0.5047736273871528);63.3238105774;1.0;08:48:27:532;0;5;-1.00967741935484;2.24835164835165;1.46627565982405;0;0;0;1;1;1;1;1;10;0;0;0;5;1;0;0;();(-2000.0, -2000.0);
08:48:27:549;08:48:27:529;1448480902.12;(0.3526371240615845, 0.5047736273871528);63.3238105774;1.0;08:48:27:549;0;10;-1.00967741935484;2.21428571428571;1.46627565982405;0;0;0;1;1;1;1;1;10;0;0;0;5;1;0;0;();(-2000.0, -2000.0);
08:48:27:566;08:48:27:529;1448480902.12;(0.3526371240615845, 0.5047736273871528);63.3238105774;1.0;08:48:27:566;0;15;-1.00967741935484;2.2;1.46627565982405;0;0;0;1;1;1;1;1;10;0;0;0;5;1;0;0;();(-2000.0, -2000.0);
08:48:27:583;08:48:27:569;1448480902.17;(0.352775502204895, 0.5055042266845703);63.1627922058;1.0;08:48:27:583;0;10;-1.00967741935484;2.30405405405405;1.85728250244379;0;0;0;1;1;1;1;1;10;0;0;0;5;1;0;0;();(-2000.0, -2000.0);
08:48:27:616;08:48:27:613;1448480902.2;(0.35273764133453367, 0.5057720184326172);63.2051315308;1.0;08:48:27:616;0;10;-1.0258064516129;2.20950323974082;1.85728250244379;0;0;0;1;1;1;1;1;10;0;0;0;5;1;0;0;();(-2000.0, -2000.0);
08:48:27:634;08:48:27:613;1448480902.2;(0.35273764133453367, 0.5057720184326172);63.2051315308;1.0;08:48:27:634;0;15;-1.03225806451613;2.22391304347826;1.46627565982405;0;0;0;1;1;1;1;1;10;0;0;0;5;1;0;0;();(-2000.0, -2000.0);
08:48:27:649;08:48:27:613;1448480902.2;(0.35273764133453367, 0.5057720184326172);63.2051315308;1.0;08:48:27:649;0;9;-1.03870967741935;2.20950323974082;1.85728250244379;0;0;0;1;1;1;1;1;10;0;0;0;5;1;0;0;();(-2000.0, -2000.0);
08:48:27:666;08:48:27:653;1448480902.24;(0.34296908378601076, 0.5074160681830513);62.9482307434;1.0;08:48:27:666;0;15;-1.03870967741935;2.22391304347826;1.46627565982405;0;0;0;1;1;1;1;1;10;0;0;0;5;1;0;0;();(-2000.0, -2000.0);
08:48:27:684;08:48:27:653;1448480902.24;(0.34296908378601076, 0.5074160681830513);62.9482307434;1.0;08:48:27:684;0;5;-1.04838709677419;2.20950323974082;1.46627565982405;0;0;0;1;1;1;1;1;10;0;0;0;5;1;0;0;();(-2000.0, -2000.0);
08:48:27:717;08:48:27:697;1448480902.27;(0.34302101135253904, 0.5075033823649089);62.690536499;1.0;08:48:27:717;0;4;-1.06451612903226;2.2;1.46627565982405;0;0;0;1;1;1;1;1;10;0;0;0;5;1;0;0;();(-2000.0, -2000.0);
08:48:27:734;08:48:27:697;1448480902.27;(0.34302101135253904, 0.5075033823649089);62.690536499;1.0;08:48:27:734;0;10;-1.06774193548387;2.24835164835165;1.85728250244379;0;0;0;1;1;1;1;1;10;0;0;0;5;1;0;0;();(-2000.0, -2000.0);
08:48:27:751;08:48:27:737;1448480902.34;(0.34520678520202636, 0.5073031955295139);62.5542297363;1.0;08:48:27:751;0;5;-1.07741935483871;2.19057815845824;1.46627565982405;0;0;0;1;1;1;1;1;10;0;0;0;5;1;0;0;();(-2000.0, -2000.0);
08:48:27:767;08:48:27:737;1448480902.34;(0.34520678520202636, 0.5073031955295139);62.5542297363;1.0;08:48:27:767;0;10;-1.09032258064516;2.0501002004008;1.46627565982405;0;0;0;1;1;1;1;1;10;0;0;0;5;1;0;0;();(-2000.0, -2000.0);
08:48:27:784;08:48:27:777;1448480902.37;(0.34670562744140626, 0.5073537614610459);62.357170105;0.923908591007;08:48:27:784;0;15;-1.09032258064516;2.16737288135593;1.66177908113392;0;0;0;1;1;1;1;1;10;0;0;0;5;1;0;0;();(-2000.0, -2000.0);
08:48:27:801;08:48:27:777;1448480902.37;(0.34670562744140626, 0.5073537614610459);62.357170105;0.923908591007;08:48:27:801;0;9;-1.09354838709677;2.20950323974082;1.46627565982405;0;0;0;1;1;1;1;1;10;0;0;0;5;1;0;0;();(-2000.0, -2000.0);
08:48:27:835;08:48:27:821;1448480902.4;(0.3481360673904419, 0.5080296834309896);62.0977554321;0.947553931851;08:48:27:835;0;10;-1.1;2.24835164835165;1.46627565982405;0;0;0;1;1;1;1;1;10;0;0;0;5;1;0;0;();(-2000.0, -2000.0);
08:48:27:851;08:48:27:821;1448480902.4;(0.3481360673904419, 0.5080296834309896);62.0977554321;0.947553931851;08:48:27:851;0;5;-1.1;2.19057815845824;1.46627565982405;0;0;0;1;1;1;1;1;10;0;0;0;5;1;0;0;();(-2000.0, -2000.0);
08:48:27:868;08:48:27:860;1448480902.44;(0.39343581199645994, 0.5134673648410373);68.0547561646;0.678147209223;08:48:27:868;0;10;-1.10967741935484;2.14915966386555;1.46627565982405;0;0;0;1;1;1;1;1;10;0;0;0;5;1;0;0;();(-2000.0, -2000.0);
08:48:27:884;08:48:27:860;1448480902.44;(0.39343581199645994, 0.5134673648410373);68.0547561646;0.678147209223;08:48:27:884;0;4;-1.10967741935484;2.02574257425743;1.46627565982405;0;0;0;1;1;1;1;1;10;0;0;0;5;1;0;0;();(-2000.0, -2000.0);
08:48:27:901;08:48:27:901;1448480902.47;(0.30048694610595705, 0.6738875283135308);19.4555149078;0.773981085646;08:48:27:901;0;10;-1.10967741935484;1.64469453376206;0.684261974584555;0;0;0;1;1;1;1;1;10;0;0;0;5;1;0;0;();(-2000.0, -2000.0);
08:48:27:935;08:48:27:901;1448480902.47;(0.30048694610595705, 0.6738875283135308);19.4555149078;0.773981085646;08:48:27:935;0;5;-1.11290322580645;2.19057815845824;1.46627565982405;0;0;0;1;1;1;1;1;10;0;0;0;5;1;0;0;();(-2000.0, -2000.0);
08:48:27:951;08:48:27:945;1448480902.54;(0.4785820960998535, 0.48664262559678817);57.1608924866;0.8287921001;08:48:27:950;0;15;-1.11290322580645;2.27839643652561;1.85728250244379;0;0;0;1;1;1;1;1;10;0;0;0;5;1;0;0;();(-2000.0, -2000.0);
08:48:27:968;08:48:27:945;1448480902.54;(0.4785820960998535, 0.48664262559678817);57.1608924866;0.8287921001;08:48:27:968;0;4;-1.11290322580645;2.24835164835165;1.46627565982405;0;0;0;1;1;1;1;1;10;0;0;0;5;1;0;0;();(-2000.0, -2000.0);
08:48:27:986;08:48:27:985;1448480902.57;(0.47783360481262205, 0.4888869815402561);56.9830780029;1.0;08:48:27:986;0;0;-1.10967741935484;2.16737288135593;1.95503421309873;0;0;0;1;1;1;1;1;10;0;0;0;5;1;0;0;();(-2000.0, -2000.0);
08:48:28:002;08:48:27:985;1448480902.57;(0.47783360481262205, 0.4888869815402561);56.9830780029;1.0;08:48:28:002;0;5;-1.10967741935484;2.21428571428571;1.85728250244379;0;0;0;1;1;1;1;1;10;0;0;0;5;1;0;0;();(-2000.0, -2000.0);
08:48:28:036;08:48:28:029;1448480902.6;(0.47685766220092773, 0.490380605061849);56.8583145142;1.0;08:48:28:036;0;4;-1.11290322580645;2.2;1.46627565982405;0;0;0;1;1;1;1;1;10;0;0;0;5;1;0;0;();(-2000.0, -2000.0);
08:48:28:052;08:48:28:029;1448480902.6;(0.47685766220092773, 0.490380605061849);56.8583145142;1.0;08:48:28:052;0;10;-1.11290322580645;2.20950323974082;1.46627565982405;0;0;0;1;1;1;1;1;10;0;0;0;5;1;0;0;();(-2000.0, -2000.0);
08:48:28:069;08:48:28:069;1448480902.64;(0.4759031295776367, 0.4916469997829861);56.9553642273;1.0;08:48:28:069;0;5;-1.11290322580645;2.13125;1.66177908113392;0;0;0;1;1;1;1;1;10;0;0;0;5;1;0;0;();(-2000.0, -2000.0);
08:48:28:086;08:48:28:070;1448480902.67;(0.47510476112365724, 0.4924048529730902);56.5790710449;1.0;08:48:28:086;0;10;-1.11290322580645;2.11801242236025;1.85728250244379;0;0;0;1;1;1;1;1;10;0;0;0;5;1;0;0;();(-2000.0, -2000.0);
08:48:28:103;08:48:28:070;1448480902.67;(0.47510476112365724, 0.4924048529730902);56.5790710449;1.0;08:48:28:103;0;15;-1.11935483870968;2.13125;1.46627565982405;0;0;0;1;1;1;1;1;10;0;0;0;5;1;0;0;();(-2000.0, -2000.0);
08:48:28:136;08:48:28:109;1448480902.7;(0.4741522312164307, 0.4930618286132813);56.4795837402;1.0;08:48:28:136;0;4;-1.12903225806452;2.11801242236025;1.66177908113392;0;0;0;1;1;1;1;1;10;0;0;0;5;1;0;0;();(-2000.0, -2000.0);
08:48:28:153;08:48:28:153;1448480902.74;(0.47866482734680177, 0.49146274990505645);56.2633476257;1.0;08:48:28:153;0;10;-1.13548387096774;1.998046875;1.46627565982405;0;0;0;1;1;1;1;1;10;0;0;0;5;1;0;0;();(-2000.0, -2000.0);
08:48:28:169;08:48:28:153;1448480902.74;(0.47866482734680177, 0.49146274990505645);56.2633476257;1.0;08:48:28:168;0;5;-1.13548387096774;2.0297619047619;1.46627565982405;0;0;0;1;1;1;1;1;10;0;0;0;5;1;0;0;();(-2000.0, -2000.0);
08:48:28:201;08:48:28:192;1448480902.77;(0.4782561302185059, 0.4923224131266276);56.2834892273;1.0;08:48:28:201;0;15;-1.14193548387097;1.95229007633588;1.36852394916911;0;0;0;1;1;1;1;1;10;0;0;0;5;1;0;0;();(-2000.0, -2000.0);
08:48:28:202;08:48:28:192;1448480902.77;(0.4782561302185059, 0.4923224131266276);56.2834892273;1.0;08:48:28:202;0;15;-1.14193548387097;1.95229007633588;1.36852394916911;0;0;0;1;1;1;1;1;10;0;0;0;5;1;0;0;();(-2000.0, -2000.0);
08:48:28:237;08:48:28:234;1448480902.84;(0.4765326499938965, 0.49311765034993493);55.8401184082;1.0;08:48:28:237;0;5;-1.15161290322581;2.00588235294118;1.46627565982405;0;0;0;1;1;1;1;1;10;0;0;0;5;1;0;0;();(-2000.0, -2000.0);
08:48:28:253;08:48:28:234;1448480902.84;(0.4765326499938965, 0.49311765034993493);55.8401184082;1.0;08:48:28:253;0;10;-1.15161290322581;2.19057815845824;1.46627565982405;0;0;0;1;1;1;1;1;10;0;0;0;5;1;0;0;();(-2000.0, -2000.0);
08:48:28:270;08:48:28:234;1448480902.84;(0.4765326499938965, 0.49311765034993493);55.8401184082;1.0;08:48:28:270;0;15;-1.15161290322581;2.26829268292683;1.46627565982405;0;0;0;1;1;1;1;1;10;0;0;0;5;1;0;0;();(-2000.0, -2000.0);
08:48:28:287;08:48:28:276;1448480902.87;(0.47567176818847656, 0.49350098503960504);55.8336486816;1.0;08:48:28:287;0;9;-1.15161290322581;2.28348214285714;1.85728250244379;0;0;0;1;1;1;1;1;10;0;0;0;5;1;0;0;();(-2000.0, -2000.0);
08:48:28:304;08:48:28:276;1448480902.87;(0.47567176818847656, 0.49350098503960504);55.8336486816;1.0;08:48:28:304;0;0;-1.15161290322581;2.22391304347826;1.85728250244379;0;0;0;1;1;1;1;1;10;0;0;0;5;1;0;0;();(-2000.0, -2000.0);
08:48:28:338;08:48:28:317;1448480902.9;(0.47484359741210935, 0.4940313127305772);55.6770973206;1.0;08:48:28:338;0;15;-1.16129032258065;2.27839643652561;1.46627565982405;0;0;0;1;1;1;1;1;10;0;0;0;5;1;0;0;();(-2000.0, -2000.0);
08:48:28:354;08:48:28:317;1448480902.9;(0.47484359741210935, 0.4940313127305772);55.6770973206;1.0;08:48:28:354;0;4;-1.16774193548387;2.27839643652561;2.34604105571848;0;0;0;1;1;1;1;1;10;0;0;0;5;1;0;0;();(-2000.0, -2000.0);
08:48:28:371;08:48:28:361;1448480902.94;(0.4739099979400635, 0.49473457336425786);55.8377304077;1.0;08:48:28:371;0;10;-1.16774193548387;2.22391304347826;1.46627565982405;0;0;0;1;1;1;1;1;10;0;0;0;5;1;0;0;();(-2000.0, -2000.0);
08:48:28:389;08:48:28:361;1448480902.94;(0.4739099979400635, 0.49473457336425786);55.8377304077;1.0;08:48:28:389;0;5;-1.16774193548387;2.22875816993464;2.34604105571848;0;0;0;1;1;1;1;1;10;0;0;0;5;1;0;0;();(-2000.0, -2000.0);
08:48:28:404;08:48:28:400;1448480902.97;(0.4732378959655762, 0.4952541351318359);55.8954086304;1.0;08:48:28:404;0;10;-1.16774193548387;2.16737288135593;1.46627565982405;0;0;0;1;1;1;1;1;10;0;0;0;5;1;0;0;();(-2000.0, -2000.0);
08:48:28:422;08:48:28:400;1448480902.97;(0.4732378959655762, 0.4952541351318359);55.8954086304;1.0;08:48:28:422;0;5;-1.17096774193548;2.26829268292683;1.46627565982405;0;0;0;1;1;1;1;1;10;0;0;0;5;1;0;0;();(-2000.0, -2000.0);
08:48:28:455;08:48:28:441;1448480903.0;(0.464573335647583, 0.5001751793755425);56.572467804;1.0;08:48:28:455;0;4;-1.18064516129032;2.19057815845824;1.46627565982405;0;0;0;1;1;1;1;1;10;0;0;0;5;1;0;0;();(-2000.0, -2000.0);
08:48:28:472;08:48:28:441;1448480903.0;(0.464573335647583, 0.5001751793755425);56.572467804;1.0;08:48:28:472;0;9;-1.18709677419355;2.24835164835165;1.46627565982405;0;0;0;1;1;1;1;1;10;0;0;0;5;1;0;0;();(-2000.0, -2000.0);
08:48:28:489;08:48:28:481;1448480903.07;(0.49195499420166017, 0.8649035453796386);28.6493988037;0.940514836776;08:48:28:489;0;15;-1.18709677419355;2.24835164835165;1.46627565982405;0;0;0;1;1;1;1;1;10;0;0;0;5;1;0;0;();(-2000.0, -2000.0);
08:48:28:505;08:48:28:481;1448480903.07;(0.49195499420166017, 0.8649035453796386);28.6493988037;0.940514836776;08:48:28:505;0;15;-1.18709677419355;2.24835164835165;1.46627565982405;0;0;0;1;1;1;1;1;10;0;0;0;5;1;0;0;();(-2000.0, -2000.0);
08:48:28:522;08:48:28:481;1448480903.07;(0.49195499420166017, 0.8649035453796386);28.6493988037;0.940514836776;08:48:28:522;0;10;-1.18709677419355;2.21428571428571;1.46627565982405;0;0;0;1;1;1;1;1;10;0;0;0;5;1;0;0;();(-2000.0, -2000.0);
08:48:28:555;08:48:28:525;1448480903.1;(0.4921375274658203, 0.8646645334031846);28.4776725769;0.89432015486;08:48:28:555;0;5;-1.18709677419355;2.16737288135593;1.46627565982405;0;0;0;1;1;1;1;1;10;0;0;0;5;1;0;0;();(-2000.0, -2000.0);
08:48:28:572;08:48:28:565;1448480903.17;(0.49305152893066406, 0.8635905159844293);30.1125774384;0.87083241566;08:48:28:572;0;10;-1.18709677419355;2.21428571428571;1.46627565982405;0;0;0;1;1;1;1;1;10;0;0;0;5;1;0;0;();(-2000.0, -2000.0);
08:48:28:589;08:48:28:565;1448480903.17;(0.49305152893066406, 0.8635905159844293);30.1125774384;0.87083241566;08:48:28:589;0;15;-1.18064516129032;2.2;1.85728250244379;0;0;0;1;1;1;1;1;10;0;0;0;5;1;0;0;();(-2000.0, -2000.0);
08:48:28:605;08:48:28:565;1448480903.17;(0.49305152893066406, 0.8635905159844293);30.1125774384;0.87083241566;08:48:28:605;0;9;-1.18064516129032;2.22391304347826;1.46627565982405;0;0;0;1;1;1;1;1;10;0;0;0;5;1;0;0;();(-2000.0, -2000.0);
08:48:28:622;08:48:28:605;1448480903.2;(0.49338459968566895, 0.8632881800333658);30.766254425;0.86402936517;08:48:28:622;0;15;-1.18064516129032;2.20950323974082;1.46627565982405;0;0;0;1;1;1;1;1;10;0;0;0;5;1;0;0;();(-2000.0, -2000.0);
08:48:28:656;08:48:28:649;1448480903.24;(0.4936577320098877, 0.8631311204698351);30.8233222961;0.85113197093;08:48:28:656;0;0;-1.18064516129032;2.20950323974082;1.46627565982405;0;0;0;1;1;1;1;1;10;0;0;0;5;1;0;0;();(-2000.0, -2000.0);
08:48:28:672;08:48:28:649;1448480903.24;(0.4936577320098877, 0.8631311204698351);30.8233222961;0.85113197093;08:48:28:672;0;9;-1.17096774193548;2.0297619047619;1.46627565982405;0;0;0;1;1;1;1;1;10;0;0;0;5;1;0;0;();(-2000.0, -2000.0);
08:48:28:689;08:48:28:689;1448480903.27;(0.4942794322967529, 0.8626103825039334);30.6617927551;0.828387611174;08:48:28:689;0;15;-1.17741935483871;2.11801242236025;1.46627565982405;0;0;0;1;1;1;1;1;10;0;0;0;5;1;0;0;();(-2000.0, -2000.0);
08:48:28:707;08:48:28:689;1448480903.27;(0.4942794322967529, 0.8626103825039334);30.6617927551;0.828387611174;08:48:28:707;0;4;-1.18064516129032;2.22391304347826;1.46627565982405;0;0;0;1;1;1;1;1;10;0;0;0;5;1;0;0;();(-2000.0, -2000.0);
08:48:28:724;08:48:28:689;1448480903.27;(0.4942794322967529, 0.8626103825039334);30.6617927551;0.828387611174;08:48:28:724;0;10;-1.18064516129032;2.16737288135593;1.85728250244379;0;0;0;1;1;1;1;1;10;0;0;0;5;1;0;0;();(-2000.0, -2000.0);
08:48:28:757;08:48:28:689;1448480903.27;(0.4942794322967529, 0.8626103825039334);30.6617927551;0.828387611174;08:48:28:757;0;9;-1.18709677419355;2.14915966386555;1.46627565982405;0;0;0;1;1;1;1;1;10;0;0;0;5;1;0;0;();(-2000.0, -2000.0);
08:48:28:773;08:48:28:773;1448480903.3;(0.46262760162353517, 0.501177469889323);57.319152832;1.0;08:48:28:773;0;4;-1.19032258064516;1.998046875;1.36852394916911;0;0;0;1;1;1;1;1;10;0;0;0;5;1;0;0;();(-2000.0, -2000.0);
08:48:28:790;08:48:28:774;1448480903.37;(0.49646544456481934, 0.8578298038906521);27.6414794922;0.873173820369;08:48:28:790;0;7;-1.19032258064516;1.60849056603774;0.684261974584555;0;0;0;1;1;1;1;1;10;0;0;0;5;1;0;0;();(-2000.0, -2000.0);
08:48:28:807;08:48:28:774;1448480903.37;(0.49646544456481934, 0.8578298038906521);27.6414794922;0.873173820369;08:48:28:807;0;5;-1.19677419354839;1.76683937823834;1.17302052785924;0;0;0;1;1;1;1;1;10;0;0;0;5;1;0;0;();(-2000.0, -2000.0);
08:48:28:822;08:48:28:813;1448480903.4;(0.4614996910095215, 0.5009566413031684);57.5403785706;1.0;08:48:28:822;0;10;-1.20322580645161;2.17659574468085;1.46627565982405;0;0;0;1;1;1;1;1;10;0;0;0;5;1;0;0;();(-2000.0, -2000.0);
08:48:28:857;08:48:28:853;1448480903.44;(0, 0);0;0;08:48:28:857;0;10;-1.21290322580645;2.22391304347826;1.85728250244379;0;0;0;1;1;1;1;1;10;0;0;0;5;1;0;0;();(-2000.0, -2000.0);
08:48:28:874;08:48:28:853;1448480903.44;(0, 0);0;0;08:48:28:874;0;4;-1.21612903225806;2.20950323974082;1.46627565982405;0;0;0;1;1;1;1;1;10;0;0;0;5;1;0;0;();(-2000.0, -2000.0);
08:48:28:891;08:48:28:853;1448480903.44;(0, 0);0;0;08:48:28:891;0;10;-1.21612903225806;2.17659574468085;1.46627565982405;0;0;0;1;1;1;1;1;10;0;0;0;5;1;0;0;();(-2000.0, -2000.0);
08:48:28:907;08:48:28:896;1448480903.47;(0, 0);0;0;08:48:28:907;0;5;-1.21612903225806;2.26829268292683;1.46627565982405;0;0;0;1;1;1;1;1;10;0;0;0;5;1;0;0;();(-2000.0, -2000.0);
08:48:28:924;08:48:28:896;1448480903.47;(0, 0);0;0;08:48:28:924;0;9;-1.22258064516129;2.22391304347826;1.46627565982405;0;0;0;1;1;1;1;1;10;0;0;0;5;1;0;0;();(-2000.0, -2000.0);
08:48:28:941;08:48:28:941;1448480903.5;(0.6380856513977051, 0.42697444491916237);20.634803772;0.722233877458;08:48:28:941;0;15;-1.23225806451613;2.12681912681913;1.66177908113392;0;0;0;1;1;1;1;1;10;0;0;0;5;1;0;0;();(-2000.0, -2000.0);
08:48:28:974;08:48:28:941;1448480903.5;(0.6380856513977051, 0.42697444491916237);20.634803772;0.722233877458;08:48:28:974;0;0;-1.24516129032258;2.24835164835165;1.46627565982405;0;0;0;1;1;1;1;1;10;0;0;0;5;1;0;0;();(-2000.0, -2000.0);
08:48:28:991;08:48:28:981;1448480903.54;(0.4627080917358398, 0.4979882982042101);55.6406669617;0.68961152236;08:48:28:991;0;10;-1.24516129032258;2.13125;1.95503421309873;0;0;0;1;1;1;1;1;10;0;0;0;5;1;0;0;();(-2000.0, -2000.0);
08:48:29:008;08:48:28:981;1448480903.54;(0.4627080917358398, 0.4979882982042101);55.6406669617;0.68961152236;08:48:29:008;0;15;-1.24516129032258;2.1006160164271;1.85728250244379;0;0;0;1;1;1;1;1;10;0;0;0;5;1;0;0;();(-2000.0, -2000.0);
08:48:29:026;08:48:29:020;1448480903.61;(0.4662028789520264, 0.49895515441894533);54.591796875;0.94091772292;08:48:29:026;0;10;-1.24516129032258;2.13125;1.85728250244379;0;0;0;1;1;1;1;1;10;0;0;0;5;1;0;0;();(-2000.0, -2000.0);
08:48:29:042;08:48:29:020;1448480903.61;(0.4662028789520264, 0.49895515441894533);54.591796875;0.94091772292;08:48:29:042;0;0;-1.25483870967742;2.0625;1.46627565982405;0;0;0;1;1;1;1;1;10;0;0;0;5;1;0;0;();(-2000.0, -2000.0);
08:48:29:076;08:48:29:061;1448480903.67;(0.465912914276123, 0.5022281222873264);55.8958702087;1.0;08:48:29:076;0;15;-1.31612903225806;1.97109826589595;1.66177908113392;0;0;0;1;1;1;1;1;10;0;0;0;5;1;0;0;();(-2000.0, -2000.0);
08:48:29:092;08:48:29:061;1448480903.67;(0.465912914276123, 0.5022281222873264);55.8958702087;1.0;08:48:29:092;0;4;-1.38709677419355;2.0297619047619;1.46627565982405;0;0;0;1;1;1;1;1;10;0;0;0;5;1;0;0;();(-2000.0, -2000.0);
08:48:29:108;08:48:29:104;1448480903.7;(0.46599516868591306, 0.5022532145182292);55.9387741089;1.0;08:48:29:108;0;10;-1.45161290322581;2.0501002004008;1.46627565982405;0;0;0;1;1;1;1;1;10;0;0;0;5;1;0;0;();(-2000.0, -2000.0);
08:48:29:126;08:48:29:104;1448480903.7;(0.46599516868591306, 0.5022532145182292);55.9387741089;1.0;08:48:29:126;0;5;-1.47741935483871;2.07085020242915;1.46627565982405;0;0;0;1;1;1;1;1;10;0;0;0;5;1;0;0;();(-2000.0, -2000.0);
08:48:29:142;08:48:29:104;1448480903.7;(0.46599516868591306, 0.5022532145182292);55.9387741089;1.0;08:48:29:142;0;10;-1.5;2.14915966386555;1.66177908113392;0;0;0;1;1;1;1;1;10;0;0;0;5;1;0;0;();(-2000.0, -2000.0);
08:48:29:175;08:48:29:145;1448480903.74;(0.4660168170928955, 0.5019361284044054);56.0179901123;1.0;08:48:29:175;0;10;-1.5;2.325;1.85728250244379;0;0;0;1;1;1;1;1;10;0;0;0;5;1;0;0;();(-2000.0, -2000.0);
08:48:29:192;08:48:29:188;1448480903.77;(0.4660581111907959, 0.5016177283393013);56.0121040344;1.0;08:48:29:192;0;0;-1.5;2.325;1.66177908113392;0;0;0;1;1;1;1;1;10;0;0;0;5;1;0;0;();(-2000.0, -2000.0);
08:48:29:209;08:48:29:188;1448480903.77;(0.4660581111907959, 0.5016177283393013);56.0121040344;1.0;08:48:29:209;0;10;-1.5;2.24835164835165;1.46627565982405;0;0;0;1;1;1;1;1;10;0;0;0;5;1;0;0;();(-2000.0, -2000.0);
08:48:29:226;08:48:29:188;1448480903.77;(0.4660581111907959, 0.5016177283393013);56.0121040344;1.0;08:48:29:226;0;15;-1.5;2.28348214285714;1.46627565982405;0;0;0;1;1;1;1;1;10;0;0;0;5;1;0;0;();(-2000.0, -2000.0);
08:48:29:243;08:48:29:228;1448480903.8;(0.4660508632659912, 0.5012199401855468);55.789806366;1.0;08:48:29:243;0;9;-1.5;2.28348214285714;1.85728250244379;0;0;0;1;1;1;1;1;10;0;0;0;5;1;0;0;();(-2000.0, -2000.0);
08:48:29:276;08:48:29:269;1448480903.87;(0.46616511344909667, 0.5014397939046225);56.2008666992;1.0;08:48:29:276;0;4;-1.5;2.19057815845824;2.1505376344086;0;0;0;1;1;1;1;1;10;0;0;0;5;1;0;0;();(-2000.0, -2000.0);
08:48:29:293;08:48:29:269;1448480903.87;(0.46616511344909667, 0.5014397939046225);56.2008666992;1.0;08:48:29:293;0;15;-1.5;2.28348214285714;1.46627565982405;0;0;0;1;1;1;1;1;10;0;0;0;5;1;0;0;();(-2000.0, -2000.0);
08:48:29:311;08:48:29:269;1448480903.87;(0.46616511344909667, 0.5014397939046225);56.2008666992;1.0;08:48:29:311;0;4;-1.5;2.28348214285714;1.66177908113392;0;0;0;1;1;1;1;1;10;0;0;0;5;1;0;0;();(-2000.0, -2000.0);
08:48:29:327;08:48:29:313;1448480903.9;(0.4661404609680176, 0.5012825859917535);56.221282959;1.0;08:48:29:327;0;15;-1.5;2.14915966386555;2.1505376344086;0;0;0;1;1;1;1;1;10;0;0;0;5;1;0;0;();(-2000.0, -2000.0);
08:48:29:343;08:48:29:313;1448480903.9;(0.4661404609680176, 0.5012825859917535);56.221282959;1.0;08:48:29:343;0;10;-1.5;2.16279069767442;1.46627565982405;0;0;0;1;1;1;1;1;10;0;0;0;5;1;0;0;();(-2000.0, -2000.0);
08:48:29:361;08:48:29:353;1448480903.94;(0.46610245704650877, 0.5012787712944878);56.7900924683;1.0;08:48:29:361;0;1;-1.5;2.14915966386555;1.46627565982405;0;0;0;1;1;1;1;1;10;0;0;0;5;1;0;0;();(-2000.0, -2000.0);
08:48:29:393;08:48:29:353;1448480903.94;(0.46610245704650877, 0.5012787712944878);56.7900924683;1.0;08:48:29:393;0;15;-1.5;2.22391304347826;1.85728250244379;0;0;0;1;1;1;1;1;10;0;0;0;5;1;0;0;();(-2000.0, -2000.0);
08:48:29:411;08:48:29:397;1448480903.97;(0.45470490455627444, 0.5051745944552951);57.4853439331;1.0;08:48:29:411;0;4;-1.5;2.16737288135593;1.46627565982405;0;0;0;1;1;1;1;1;10;0;0;0;5;1;0;0;();(-2000.0, -2000.0);
08:48:29:428;08:48:29:397;1448480903.97;(0.45470490455627444, 0.5051745944552951);57.4853439331;1.0;08:48:29:427;0;0;-1.5;2.2;1.46627565982405;0;0;0;1;1;1;1;1;10;0;0;0;5;1;0;0;();(-2000.0, -2000.0);
08:48:29:444;08:48:29:437;1448480904.04;(0.4549420356750488, 0.5049809773763021);57.5521316528;1.0;08:48:29:444;0;5;-1.5;2.13125;1.46627565982405;0;0;0;1;1;1;1;1;10;0;0;0;5;1;0;0;();(-2000.0, -2000.0);
08:48:29:462;08:48:29:437;1448480904.04;(0.4549420356750488, 0.5049809773763021);57.5521316528;1.0;08:48:29:462;0;10;-1.5;2.13125;1.46627565982405;0;0;0;1;1;1;1;1;10;0;0;0;5;1;0;0;();(-2000.0, -2000.0);
08:48:29:495;08:48:29:477;1448480904.07;(0.4550798416137695, 0.5052115546332465);58.0321464539;1.0;08:48:29:495;0;10;-1.5;2.22391304347826;1.46627565982405;0;0;0;1;1;1;1;1;10;0;0;0;5;1;0;0;();(-2000.0, -2000.0);
08:48:29:512;08:48:29:477;1448480904.07;(0.4550798416137695, 0.5052115546332465);58.0321464539;1.0;08:48:29:512;0;5;-1.5;2.20950323974082;2.34604105571848;0;0;0;1;1;1;1;1;10;0;0;0;5;1;0;0;();(-2000.0, -2000.0);
08:48:29:528;08:48:29:520;1448480904.1;(0.4551228046417236, 0.5052423265245225);57.9684410095;1.0;08:48:29:528;0;10;-1.5;2.16737288135593;1.66177908113392;0;0;0;1;1;1;1;1;10;0;0;0;5;1;0;0;();(-2000.0, -2000.0);
08:48:29:545;08:48:29:520;1448480904.1;(0.4551228046417236, 0.5052423265245225);57.9684410095;1.0;08:48:29:545;0;15;-1.5;2.11801242236025;1.46627565982405;0;0;0;1;1;1;1;1;10;0;0;0;5;1;0;0;();(-2000.0, -2000.0);
08:48:29:561;08:48:29:520;1448480904.1;(0.4551228046417236, 0.5052423265245225);57.9684410095;1.0;08:48:29:561;0;9;-1.5;2.13125;1.46627565982405;0;0;0;1;1;1;1;1;10;0;0;0;5;1;0;0;();(-2000.0, -2000.0);
08:48:29:595;08:48:29:561;1448480904.14;(0.45529870986938475, 0.5051504770914714);58.2454109192;1.0;08:48:29:595;0;10;-1.5;2.16737288135593;1.46627565982405;0;0;0;1;1;1;1;1;10;0;0;0;5;1;0;0;();(-2000.0, -2000.0);
08:48:29:612;08:48:29:601;1448480904.17;(0.4556860446929932, 0.5051745520697699);58.0896148682;1.0;08:48:29:612;0;15;-1.5;2.13125;1.66177908113392;0;0;0;1;1;1;1;1;10;0;0;0;5;1;0;0;();(-2000.0, -2000.0);
08:48:29:629;08:48:29:601;1448480904.17;(0.4556860446929932, 0.5051745520697699);58.0896148682;1.0;08:48:29:629;0;4;-1.5;2.27839643652561;1.85728250244379;0;0;0;1;1;1;1;1;10;0;0;0;5;1;0;0;();(-2000.0, -2000.0);
08:48:29:646;08:48:29:645;1448480904.2;(0.4558879852294922, 0.5055338117811414);58.1270980835;1.0;08:48:29:645;0;15;-1.5;2.13125;1.36852394916911;0;0;0;1;1;1;1;1;10;0;0;0;5;1;0;0;();(-2000.0, -2000.0);
08:48:29:662;08:48:29:645;1448480904.24;(0.4560610294342041, 0.5050452338324654);58.232208252;1.0;08:48:29:662;0;10;-1.5;2.01377952755906;1.46627565982405;0;0;0;1;1;1;1;1;10;0;0;0;5;1;0;0;();(-2000.0, -2000.0);
08:48:29:696;08:48:29:685;1448480904.27;(0.4561737060546875, 0.5049368540445964);58.3232841492;1.0;08:48:29:696;0;4;-1.5;2.07926829268293;1.46627565982405;0;0;0;1;1;1;1;1;10;0;0;0;5;1;0;0;();(-2000.0, -2000.0);
08:48:29:712;08:48:29:685;1448480904.27;(0.4561737060546875, 0.5049368540445964);58.3232841492;1.0;08:48:29:712;0;0;-1.5;2.36258660508083;1.66177908113392;0;0;0;1;1;1;1;1;10;0;0;0;5;1;0;0;();(-2000.0, -2000.0);
08:48:29:730;08:48:29:729;1448480904.3;(0.45604329109191893, 0.504623540242513);58.3329925537;1.0;08:48:29:730;0;4;-1.5;2.42417061611374;1.85728250244379;0;0;0;1;1;1;1;1;10;0;0;0;5;1;0;0;();(-2000.0, -2000.0);
08:48:29:747;08:48:29:729;1448480904.3;(0.45604329109191893, 0.504623540242513);58.3329925537;1.0;08:48:29:747;0;0;-1.5;2.16737288135593;1.46627565982405;0;0;0;1;1;1;1;1;10;0;0;0;5;1;0;0;();(-2000.0, -2000.0);
08:48:29:762;08:48:29:729;1448480904.3;(0.45604329109191893, 0.504623540242513);58.3329925537;1.0;08:48:29:762;0;5;-1.5;1.94117647058824;1.36852394916911;0;0;0;1;1;1;1;1;10;0;0;0;5;1;0;0;();(-2000.0, -2000.0);
08:48:29:796;08:48:29:768;1448480904.34;(0.4560122489929199, 0.5051447126600477);58.4597702026;1.0;08:48:29:796;0;15;-1.5;2.30405405405405;1.66177908113392;0;0;0;1;1;1;1;1;10;0;0;0;5;1;0;0;();(-2000.0, -2000.0);
08:48:29:813;08:48:29:808;1448480904.4;(0.44704813957214357, 0.5067744361029731);58.8897743225;1.0;08:48:29:813;0;10;-1.5;2.17659574468085;1.46627565982405;0;0;0;1;1;1;1;1;10;0;0;0;5;1;0;0;();(-2000.0, -2000.0);
08:48:29:830;08:48:29:808;1448480904.4;(0.44704813957214357, 0.5067744361029731);58.8897743225;1.0;08:48:29:830;0;4;-1.5;2.57035175879397;1.85728250244379;0;0;0;1;1;1;1;1;10;0;0;0;5;1;0;0;();(-2000.0, -2000.0);
08:48:29:846;08:48:29:808;1448480904.4;(0.44704813957214357, 0.5067744361029731);58.8897743225;1.0;08:48:29:845;0;10;-1.5;2.48300970873786;1.85728250244379;0;0;0;1;1;1;1;1;10;0;0;0;5;1;0;0;();(-2000.0, -2000.0);
08:48:29:863;08:48:29:848;1448480904.44;(0.44676885604858396, 0.5066778394911025);58.6228256226;1.0;08:48:29:863;0;5;-1.5;2.325;1.66177908113392;0;0;0;1;1;1;1;1;10;0;0;0;5;1;0;0;();(-2000.0, -2000.0);
08:48:29:897;08:48:29:892;1448480904.47;(0.446791410446167, 0.5064839257134331);58.6650695801;1.0;08:48:29:897;0;15;-1.5;2.30405405405405;1.85728250244379;0;0;0;1;1;1;1;1;10;0;0;0;5;1;0;0;();(-2000.0, -2000.0);
08:48:29:913;08:48:29:892;1448480904.47;(0.446791410446167, 0.5064839257134331);58.6650695801;1.0;08:48:29:913;0;9;-1.5;2.44152744630072;1.85728250244379;0;0;0;1;1;1;1;1;10;0;0;0;5;1;0;0;();(-2000.0, -2000.0);
08:48:29:930;08:48:29:892;1448480904.47;(0.446791410446167, 0.5064839257134331);58.6650695801;1.0;08:48:29:930;0;15;-1.5;2.2;1.46627565982405;0;0;0;1;1;1;1;1;10;0;0;0;5;1;0;0;();(-2000.0, -2000.0);
08:48:29:947;08:48:29:937;1448480904.54;(0.44633026123046876, 0.5066160413953993);58.7015113831;1.0;08:48:29:947;0;10;-1.5;2.30405405405405;1.46627565982405;0;0;0;1;1;1;1;1;10;0;0;0;5;1;0;0;();(-2000.0, -2000.0);
08:48:29:964;08:48:29:937;1448480904.54;(0.44633026123046876, 0.5066160413953993);58.7015113831;1.0;08:48:29:964;0;15;-1.5;2.35172413793103;1.66177908113392;0;0;0;1;1;1;1;1;10;0;0;0;5;1;0;0;();(-2000.0, -2000.0);
08:48:29:981;08:48:29:976;1448480904.57;(0.44608440399169924, 0.5059395260281033);58.6535491943;1.0;08:48:29:981;0;4;-1.5;2.27839643652561;1.85728250244379;0;0;0;1;1;1;1;1;10;0;0;0;5;1;0;0;();(-2000.0, -2000.0);
08:48:30:014;08:48:29:976;1448480904.57;(0.44608440399169924, 0.5059395260281033);58.6535491943;1.0;08:48:30:014;0;10;-1.5;2.24835164835165;1.46627565982405;0;0;0;1;1;1;1;1;10;0;0;0;5;1;0;0;();(-2000.0, -2000.0);
08:48:30:031;08:48:30:016;1448480904.6;(0.4457611083984375, 0.5055491129557292);58.8398590088;1.0;08:48:30:031;0;15;-1.5;2.02574257425743;1.46627565982405;0;0;0;1;1;1;1;1;10;0;0;0;5;1;0;0;();(-2000.0, -2000.0);
08:48:30:049;08:48:30:016;1448480904.6;(0.4457611083984375, 0.5055491129557292);58.8398590088;1.0;08:48:30:049;0;4;-1.5;1.97109826589595;1.36852394916911;0;0;0;1;1;1;1;1;10;0;0;0;5;1;0;0;();(-2000.0, -2000.0);
08:48:30:064;08:48:30:060;1448480904.64;(0.465347146987915, 0.4957862854003906);58.1010780334;1.0;08:48:30:064;0;15;-1.5;2.0501002004008;1.46627565982405;0;0;0;1;1;1;1;1;10;0;0;0;5;1;0;0;();(-2000.0, -2000.0);
08:48:30:081;08:48:30:060;1448480904.64;(0.465347146987915, 0.4957862854003906);58.1010780334;1.0;08:48:30:081;0;9;-1.5;1.94117647058824;1.36852394916911;0;0;0;1;1;1;1;1;10;0;0;0;5;1;0;0;();(-2000.0, -2000.0);
08:48:30:114;08:48:30:101;1448480904.67;(0.4640796184539795, 0.4962181939019097);58.2837677002;1.0;08:48:30:114;0;4;-1.5;2.24835164835165;1.85728250244379;0;0;0;1;1;1;1;1;10;0;0;0;5;1;0;0;();(-2000.0, -2000.0);
08:48:30:132;08:48:30:101;1448480904.67;(0.4640796184539795, 0.4962181939019097);58.2837677002;1.0;08:48:30:132;0;10;-1.5;2.46506024096386;1.85728250244379;0;0;0;1;1;1;1;1;10;0;0;0;5;1;0;0;();(-2000.0, -2000.0);
08:48:30:149;08:48:30:140;1448480904.74;(0.46161251068115233, 0.49713859558105467);58.4696540833;1.0;08:48:30:149;0;5;-1.5;2.14915966386555;1.46627565982405;0;0;0;1;1;1;1;1;10;0;0;0;5;1;0;0;();(-2000.0, -2000.0);
08:48:30:165;08:48:30:140;1448480904.74;(0.46161251068115233, 0.49713859558105467);58.4696540833;1.0;08:48:30:165;0;10;-1.5;2.28348214285714;1.66177908113392;0;0;0;1;1;1;1;1;10;0;0;0;5;1;0;0;();(-2000.0, -2000.0);
08:48:30:205;08:48:30:185;1448480904.77;(0.46021666526794436, 0.4966604868570964);58.5844993591;0.974258274408;08:48:30:205;0;9;-1.5;2.36258660508083;1.66177908113392;0;0;0;1;1;1;1;1;10;0;0;0;5;1;0;0;();(-2000.0, -2000.0);
08:48:30:205;08:48:30:185;1448480904.77;(0.46021666526794436, 0.4966604868570964);58.5844993591;0.974258274408;08:48:30:205;0;9;-1.5;2.36258660508083;1.66177908113392;0;0;0;1;1;1;1;1;10;0;0;0;5;1;0;0;();(-2000.0, -2000.0);
08:48:30:232;08:48:30:224;1448480904.8;(0.45921807289123534, 0.49640820821126297);58.6564788818;1.0;08:48:30:232;0;9;-1.5;2.28348214285714;1.85728250244379;0;0;0;1;1;1;1;1;10;0;0;0;5;1;0;0;();(-2000.0, -2000.0);
08:48:30:249;08:48:30:224;1448480904.8;(0.45921807289123534, 0.49640820821126297);58.6564788818;1.0;08:48:30:249;0;5;-1.5;2.20950323974082;1.85728250244379;0;0;0;1;1;1;1;1;10;0;0;0;5;1;0;0;();(-2000.0, -2000.0);
08:48:30:266;08:48:30:224;1448480904.8;(0.45921807289123534, 0.49640820821126297);58.6564788818;1.0;08:48:30:266;0;10;-1.5;2.13125;1.46627565982405;0;0;0;1;1;1;1;1;10;0;0;0;5;1;0;0;();(-2000.0, -2000.0);
08:48:30:282;08:48:30:269;1448480904.87;(0.4577029705047607, 0.4969261593288845);58.8696136475;1.0;08:48:30:282;0;15;-1.5;2.35172413793103;1.66177908113392;0;0;0;1;1;1;1;1;10;0;0;0;5;1;0;0;();(-2000.0, -2000.0);
08:48:30:316;08:48:30:308;1448480904.9;(0, 0);0;0;08:48:30:316;0;0;-1.5;1.99415204678363;1.46627565982405;0;0;0;1;1;1;1;1;10;0;0;0;5;1;0;0;();(-2000.0, -2000.0);
08:48:30:334;08:48:30:308;1448480904.9;(0, 0);0;0;08:48:30:334;0;10;-1.5;1.88397790055249;1.17302052785924;0;0;0;1;1;1;1;1;10;0;0;0;5;1;0;0;();(-2000.0, -2000.0);
08:48:30:350;08:48:30:348;1448480904.94;(0, 0);0;0;08:48:30:350;0;15;-1.5;1.53834586466165;0.684261974584555;0;0;0;1;1;1;1;1;10;0;0;0;5;1;0;0;();(-2000.0, -2000.0);
08:48:30:366;08:48:30:348;1448480904.94;(0, 0);0;0;08:48:30:366;0;9;-1.5;1.38994565217391;0.684261974584555;0;0;0;1;1;1;1;1;10;0;0;0;5;1;0;0;();(-2000.0, -2000.0);
08:48:30:383;08:48:30:348;1448480904.94;(0, 0);0;0;08:48:30:383;0;15;-1.5;1.81705150976909;1.17302052785924;0;0;0;1;1;1;1;1;10;0;0;0;5;1;0;0;();(-2000.0, -2000.0);
08:48:30:401;08:48:30:392;1448480904.97;(0.6326396942138672, 0.45952178107367625);28.6111030579;0.609445292159;08:48:30:401;0;5;-1.5;2.48300970873786;1.85728250244379;0;0;0;1;1;1;1;1;10;0;0;0;5;1;0;0;();(-2000.0, -2000.0);
08:48:30:434;08:48:30:432;1448480905.0;(0.4596909523010254, 0.48960346645779085);52.2210426331;0.783066538314;08:48:30:434;0;4;-1.5;1.55235204855842;0.684261974584555;0;0;0;1;1;1;1;1;10;0;0;0;5;1;0;0;();(-2000.0, -2000.0);
08:48:30:451;08:48:30:432;1448480905.0;(0.4596909523010254, 0.48960346645779085);52.2210426331;0.783066538314;08:48:30:451;0;10;-1.5;1.30651340996169;0.293255131964809;0;0;0;1;1;1;1;1;10;0;0;0;5;1;0;0;();(-2000.0, -2000.0);
08:48:30:468;08:48:30:432;1448480905.0;(0.4596909523010254, 0.48960346645779085);52.2210426331;0.783066538314;08:48:30:468;0;4;-1.5;2.41843971631206;1.85728250244379;0;0;0;1;1;1;1;1;10;0;0;0;5;1;0;0;();(-2000.0, -2000.0);
08:48:30:484;08:48:30:473;1448480905.07;(0.45880417823791503, 0.4984002007378472);56.9358215332;0.915904811342;08:48:30:484;0;10;-1.5;2.325;1.85728250244379;0;0;0;1;1;1;1;1;10;0;0;0;5;1;0;0;();(-2000.0, -2000.0);
08:48:30:501;08:48:30:473;1448480905.07;(0.45880417823791503, 0.4984002007378472);56.9358215332;0.915904811342;08:48:30:501;0;5;-1.5;1.8499095840868;1.17302052785924;0;0;0;1;1;1;1;1;10;0;0;0;5;1;0;0;();(-2000.0, -2000.0);
08:48:30:534;08:48:30:517;1448480905.1;(0.4587491512298584, 0.49912698533799915);57.7637901306;1.0;08:48:30:534;0;4;-1.5;5.55978260869565;3.81231671554252;0;0;0;1;1;1;1;1;10;0;0;0;5;1;0;0;();(-2000.0, -2000.0);
08:48:30:551;08:48:30:517;1448480905.1;(0.4587491512298584, 0.49912698533799915);57.7637901306;1.0;08:48:30:551;0;10;-1.5;5.55978260869565;4.69208211143695;0;0;0;1;1;1;1;1;10;0;0;0;5;1;0;0;();(-2000.0, -2000.0);
08:48:30:567;08:48:30:556;1448480905.14;(0.4589262008666992, 0.49838350084092886);57.8624801636;1.0;08:48:30:567;0;5;-1.5;3.77490774907749;3.03030303030303;0;0;0;1;1;1;1;1;10;0;0;0;5;1;0;0;();(-2000.0, -2000.0);
08:48:30:584;08:48:30:556;1448480905.14;(0.4589262008666992, 0.49838350084092886);57.8624801636;1.0;08:48:30:584;0;10;-1.5;3.27884615384615;2.73704789833822;0;0;0;1;1;1;1;1;10;0;0;0;5;1;0;0;();(-2000.0, -2000.0);
08:48:30:601;08:48:30:601;1448480905.2;(0.4606500148773193, 0.4963331858317057);58.6688995361;0.814689783077;08:48:30:601;0;4;-1.5;16.2380952380953;6.158357771261;0;0;0;1;1;1;1;1;10;0;0;0;5;1;0;0;();(-2000.0, -2000.0);
08:48:30:634;08:48:30:601;1448480905.2;(0.4606500148773193, 0.4963331858317057);58.6688995361;0.814689783077;08:48:30:634;0;5;-1.5;4.01176470588235;3.03030303030303;0;0;0;1;1;1;1;1;10;0;0;0;5;1;0;0;();(-2000.0, -2000.0);
08:48:30:651;08:48:30:640;1448480905.24;(0.46148052215576174, 0.4951624128553602);58.7248191833;1.0;08:48:30:651;0;10;-1.5;4.84834123222749;3.71456500488759;0;0;0;1;1;1;1;1;10;0;0;0;5;1;0;0;();(-2000.0, -2000.0);
08:48:30:669;08:48:30:640;1448480905.24;(0.46148052215576174, 0.4951624128553602);58.7248191833;1.0;08:48:30:669;0;15;-1.5;5.71508379888268;4.69208211143695;0;0;0;1;1;1;1;1;10;0;0;0;5;1;0;0;();(-2000.0, -2000.0);
08:48:30:685;08:48:30:680;1448480905.27;(0.4619123935699463, 0.49475203620062935);58.7805328369;1.0;08:48:30:685;0;9;-1.5;6.82;4.3010752688172;0;0;0;1;1;1;1;1;10;0;0;0;5;1;0;0;();(-2000.0, -2000.0);
08:48:30:702;08:48:30:680;1448480905.27;(0.4619123935699463, 0.49475203620062935);58.7805328369;1.0;08:48:30:702;0;0;-1.5;4.56696428571428;3.42130987292278;0;0;0;1;1;1;1;1;10;0;0;0;5;1;0;0;();(-2000.0, -2000.0);
08:48:30:735;08:48:30:725;1448480905.3;(0.4622969627380371, 0.49507488674587674);58.892124176;1.0;08:48:30:735;0;15;-1.5;15.2686567164179;5.37634408602151;0;0;0;1;1;1;1;1;10;0;0;0;5;1;0;0;();(-2000.0, -2000.0);
08:48:30:753;08:48:30:725;1448480905.3;(0.4622969627380371, 0.49507488674587674);58.892124176;1.0;08:48:30:753;0;4;-1.5;1.16780821917808;0.0977517106549365;0;0;0;1;1;1;1;1;10;0;0;0;5;1;0;0;();(-2000.0, -2000.0);
08:48:30:769;08:48:30:764;1448480905.37;(0.4630478858947754, 0.49679912990993924);59.4566917419;1.0;08:48:30:769;0;15;-1.5;2.88169014084507;2.34604105571848;0;0;0;1;1;1;1;1;10;0;0;0;5;1;0;0;();(-2000.0, -2000.0);
08:48:30:786;08:48:30:764;1448480905.37;(0.4630478858947754, 0.49679912990993924);59.4566917419;1.0;08:48:30:786;0;4;-1.5;2.03784860557769;1.46627565982405;0;0;0;1;1;1;1;1;10;0;0;0;5;1;0;0;();(-2000.0, -2000.0);
08:48:30:802;08:48:30:764;1448480905.37;(0.4630478858947754, 0.49679912990993924);59.4566917419;1.0;08:48:30:802;0;0;-1.5;1.68256578947368;0.879765395894428;0;0;0;1;1;1;1;1;10;0;0;0;5;1;0;0;();(-2000.0, -2000.0);
08:48:30:836;08:48:30:804;1448480905.4;(0.4636499881744385, 0.496980963812934);59.3797950745;1.0;08:48:30:836;0;9;-1.5;1.93383742911153;1.36852394916911;0;0;0;1;1;1;1;1;10;0;0;0;5;1;0;0;();(-2000.0, -2000.0);
08:48:30:852;08:48:30:848;1448480905.44;(0.3568050622940063, 0.6221713383992513);28.9774055481;0.696605980213;08:48:30:852;0;4;-1.5;2.0501002004008;1.46627565982405;0;0;0;1;1;1;1;1;10;0;0;0;5;1;0;0;();(-2000.0, -2000.0);
08:48:30:870;08:48:30:848;1448480905.44;(0.3568050622940063, 0.6221713383992513);28.9774055481;0.696605980213;08:48:30:870;0;7;-1.5;1.68256578947368;0.879765395894428;0;0;0;1;1;1;1;1;10;0;0;0;5;1;0;0;();(-2000.0, -2000.0);
08:48:30:886;08:48:30:848;1448480905.44;(0.3568050622940063, 0.6221713383992513);28.9774055481;0.696605980213;08:48:30:886;0;5;-1.5;2.56390977443609;2.34604105571848;0;0;0;1;1;1;1;1;10;0;0;0;5;1;0;0;();(-2000.0, -2000.0);
08:48:30:904;08:48:30:888;1448480905.47;(0, 0);0;0;08:48:30:904;0;10;-1.5;2.45323741007194;2.1505376344086;0;0;0;1;1;1;1;1;10;0;0;0;5;1;0;0;();(-2000.0, -2000.0);
08:48:30:937;08:48:30:888;1448480905.47;(0, 0);0;0;08:48:30:937;0;9;-1.5;170.5;5.86510263929619;0;0;0;1;1;1;1;1;10;0;0;0;5;1;0;0;();(-2000.0, -2000.0);
08:48:30:953;08:48:30:888;1448480905.47;(0, 0);0;0;08:48:30:953;0;5;-1.5;7.57777777777778;4.59433040078201;0;0;0;1;1;1;1;1;10;0;0;0;5;1;0;0;();(-2000.0, -2000.0);
08:48:30:970;08:48:30:888;1448480905.47;(0, 0);0;0;08:48:30:970;0;10;-1.5;31;6.54936461388074;0;0;0;1;1;1;1;1;10;0;0;0;5;1;0;0;();(-2000.0, -2000.0);
08:48:30:987;08:48:30:888;1448480905.47;(0, 0);0;0;08:48:30:987;0;15;-1.5;33;6.54936461388074;0;0;0;1;1;1;1;1;10;0;0;0;5;1;0;0;();(-2000.0, -2000.0);
08:48:31:003;08:48:30:888;1448480905.47;(0, 0);0;0;08:48:31:002;0;9;-1.5;85.2500000000001;7.72238514173998;0;0;0;1;1;1;1;1;10;0;0;0;5;1;0;0;();(-2000.0, -2000.0);
08:48:31:021;08:48:31:012;1448480905.5;(0.3996962785720825, 0.4384917789035373);61.8644790649;0.971450701624;08:48:31:021;0;0;-1.5;9.3;5.47409579667644;0;0;0;1;1;1;1;1;10;0;0;0;5;1;0;0;();(-2000.0, -2000.0);
08:48:31:055;08:48:31:052;1448480905.62;(0.41135196685791015, 0.44764565361870656);61.594291687;1.0;08:48:31:055;0;15;-1.5;170.5;6.06060606060606;0;0;0;1;1;1;1;1;10;0;0;0;5;1;0;0;();(-2000.0, -2000.0);
08:48:31:071;08:48:31:052;1448480905.62;(0.41135196685791015, 0.44764565361870656);61.594291687;1.0;08:48:31:071;0;15;-1.5;170.5;6.06060606060606;0;0;0;1;1;1;1;1;10;0;0;0;5;1;0;0;();(-2000.0, -2000.0);
08:48:31:088;08:48:31:052;1448480905.62;(0.41135196685791015, 0.44764565361870656);61.594291687;1.0;08:48:31:088;0;15;-1.5;3.47959183673469;2.93255131964809;0;0;0;1;1;1;1;1;10;0;0;0;5;1;0;0;();(-2000.0, -2000.0);
08:48:31:105;08:48:31:096;1448480905.67;(0.390720272064209, 0.6197514851888021);20.466878891;1.0;08:48:31:105;0;4;-1.5;2.89801699716714;2.73704789833822;0;0;0;1;1;1;1;1;10;0;0;0;5;1;0;0;();(-2000.0, -2000.0);
08:48:31:121;08:48:31:096;1448480905.67;(0.390720272064209, 0.6197514851888021);20.466878891;1.0;08:48:31:121;0;0;-1.5;31;5.47409579667644;0;0;0;1;1;1;1;1;10;0;0;0;5;1;0;0;();(-2000.0, -2000.0);
08:48:31:154;08:48:31:137;1448480905.74;(0.3927596569061279, 0.6195866478814018);20.988527298;0.957259685792;08:48:31:154;0;15;-1.5;26.921052631579;5.57184750733138;0;0;0;1;1;1;1;1;10;0;0;0;5;1;0;0;();(-2000.0, -2000.0);
08:48:31:172;08:48:31:137;1448480905.74;(0.3927596569061279, 0.6195866478814018);20.988527298;0.957259685792;08:48:31:172;0;4;-1.5;146.142857142857;6.84261974584555;0;0;0;1;1;1;1;1;10;0;0;0;5;1;0;0;();(-2000.0, -2000.0);
08:48:31:188;08:48:31:180;1448480905.77;(0.4087939500808716, 0.45928014119466143);61.6036872864;1.0;08:48:31:188;0;0;-1.5;2.61636828644501;1.85728250244379;0;0;0;1;1;1;1;1;10;0;0;0;5;1;0;0;();(-2000.0, -2000.0);
08:48:31:206;08:48:31:180;1448480905.77;(0.4087939500808716, 0.45928014119466143);61.6036872864;1.0;08:48:31:206;0;5;-1.5;2.84958217270195;2.34604105571848;0;0;0;1;1;1;1;1;10;0;0;0;5;1;0;0;();(-2000.0, -2000.0);
08:48:31:223;08:48:31:220;1448480905.8;(0.4100072383880615, 0.4594033983018663);61.7954673767;0.898367687599;08:48:31:222;0;9;-1.5;3.57692307692308;3.03030303030303;0;0;0;1;1;1;1;1;10;0;0;0;5;1;0;0;();(-2000.0, -2000.0);
08:48:31:256;08:48:31:220;1448480905.8;(0.4100072383880615, 0.4594033983018663);61.7954673767;0.898367687599;08:48:31:256;0;10;-1.5;170.5;5.86510263929619;0;0;0;1;1;1;1;1;10;0;0;0;5;1;0;0;();(-2000.0, -2000.0);
08:48:31:272;08:48:31:260;1448480905.84;(0.41139793395996094, 0.4593326568603515);61.544670105;0.939651395374;08:48:31:272;0;5;-1.5;2.58987341772152;1.95503421309873;0;0;0;1;1;1;1;1;10;0;0;0;5;1;0;0;();(-2000.0, -2000.0);
08:48:31:288;08:48:31:260;1448480905.84;(0.41139793395996094, 0.4593326568603515);61.544670105;0.939651395374;08:48:31:288;0;10;-1.5;3.05373134328358;3.2258064516129;0;0;0;1;1;1;1;1;10;0;0;0;5;1;0;0;();(-2000.0, -2000.0);
08:48:31:306;08:48:31:304;1448480905.9;(0.4122636079788208, 0.45869793362087674);61.0770721436;1.0;08:48:31:306;0;4;-1.5;6.73026315789474;4.3010752688172;0;0;0;1;1;1;1;1;10;0;0;0;5;1;0;0;();(-2000.0, -2000.0);
08:48:31:322;08:48:31:304;1448480905.9;(0.4122636079788208, 0.45869793362087674);61.0770721436;1.0;08:48:31:322;0;9;-1.5;5.71508379888268;4.69208211143695;0;0;0;1;1;1;1;1;10;0;0;0;5;1;0;0;();(-2000.0, -2000.0);
08:48:31:355;08:48:31:345;1448480905.94;(0.41169693470001223, 0.4581958346896702);61.1330490112;1.0;08:48:31:355;0;9;-1.5;53.8421052631579;5.86510263929619;0;0;0;1;1;1;1;1;10;0;0;0;5;1;0;0;();(-2000.0, -2000.0);
08:48:31:372;08:48:31:345;1448480905.94;(0.41169693470001223, 0.4581958346896702);61.1330490112;1.0;08:48:31:372;0;15;-1.5;85.2500000000001;7.72238514173998;0;0;0;1;1;1;1;1;10;0;0;0;5;1;0;0;();(-2000.0, -2000.0);
08:48:31:391;08:48:31:388;1448480905.97;(0.41116907596588137, 0.45862346225314665);61.2883110046;1.0;08:48:31:391;0;9;-1.5;1.79789103690685;1.17302052785924;0;0;0;1;1;1;1;1;10;0;0;0;5;1;0;0;();(-2000.0, -2000.0);
08:48:31:406;08:48:31:388;1448480905.97;(0.41116907596588137, 0.45862346225314665);61.2883110046;1.0;08:48:31:406;0;15;-1.5;1.63157894736842;0.684261974584555;0;0;0;1;1;1;1;1;10;0;0;0;5;1;0;0;();(-2000.0, -2000.0);
08:48:31:423;08:48:31:388;1448480905.97;(0.41116907596588137, 0.45862346225314665);61.2883110046;1.0;08:48:31:423;0;5;-1.5;2.03784860557769;1.46627565982405;0;0;0;1;1;1;1;1;10;0;0;0;5;1;0;0;();(-2000.0, -2000.0);
08:48:31:457;08:48:31:428;1448480906.0;(0.41093244552612307, 0.4593286302354601);61.3004188538;1.0;08:48:31:457;0;10;-1.5;2.36258660508083;1.95503421309873;0;0;0;1;1;1;1;1;10;0;0;0;5;1;0;0;();(-2000.0, -2000.0);
08:48:31:473;08:48:31:468;1448480906.04;(0.4103919744491577, 0.4597409142388238);61.2482528687;1.0;08:48:31:473;0;15;-1.5;2.35172413793103;1.66177908113392;0;0;0;1;1;1;1;1;10;0;0;0;5;1;0;0;();(-2000.0, -2000.0);
08:48:31:490;08:48:31:468;1448480906.04;(0.4103919744491577, 0.4597409142388238);61.2482528687;1.0;08:48:31:490;0;1;-1.5;2.0297619047619;1.85728250244379;0;0;0;1;1;1;1;1;10;0;0;0;5;1;0;0;();(-2000.0, -2000.0);
08:48:31:507;08:48:31:468;1448480906.04;(0.4103919744491577, 0.4597409142388238);61.2482528687;1.0;08:48:31:507;0;0;-1.5;1.80742049469965;1.17302052785924;0;0;0;1;1;1;1;1;10;0;0;0;5;1;0;0;();(-2000.0, -2000.0);
08:48:31:523;08:48:31:512;1448480906.07;(0.4244124174118042, 0.4750150468614366);61.7999267578;0.705219027264;08:48:31:523;0;5;-1.5;1.37870619946092;0.586510263929619;0;0;0;1;1;1;1;1;10;0;0;0;5;1;0;0;();(-2000.0, -2000.0);
08:48:31:557;08:48:31:552;1448480906.14;(0.25519750118255613, 0.47237646314832904);20.7112751007;0.756700023661;08:48:31:557;0;4;-1.5;170.5;6.06060606060606;0;0;0;1;1;1;1;1;10;0;0;0;5;1;0;0;();(-2000.0, -2000.0);
08:48:31:575;08:48:31:552;1448480906.14;(0.25519750118255613, 0.47237646314832904);20.7112751007;0.756700023661;08:48:31:575;0;10;-1.5;20.0588235294118;5.47409579667644;0;0;0;1;1;1;1;1;10;0;0;0;5;1;0;0;();(-2000.0, -2000.0);
08:48:31:590;08:48:31:552;1448480906.14;(0.25519750118255613, 0.47237646314832904);20.7112751007;0.756700023661;08:48:31:590;0;5;-1.5;1.50220264317181;0.684261974584555;0;0;0;1;1;1;1;1;10;0;0;0;5;1;0;0;();(-2000.0, -2000.0);
08:48:31:607;08:48:31:592;1448480906.17;(0.4669130802154541, 0.5152706570095487);58.6191711426;1.0;08:48:31:607;0;10;-1.5;1.89444444444444;1.17302052785924;0;0;0;1;1;1;1;1;10;0;0;0;5;1;0;0;();(-2000.0, -2000.0);
08:48:31:625;08:48:31:592;1448480906.17;(0.4669130802154541, 0.5152706570095487);58.6191711426;1.0;08:48:31:625;0;15;-1.5;2.11801242236025;1.66177908113392;0;0;0;1;1;1;1;1;10;0;0;0;5;1;0;0;();(-2000.0, -2000.0);
08:48:31:657;08:48:31:636;1448480906.2;(0.46439642906188966, 0.5189088185628254);59.5795478821;1.0;08:48:31:657;0;5;-1.5;4.33474576271186;3.81231671554252;0;0;0;1;1;1;1;1;10;0;0;0;5;1;0;0;();(-2000.0, -2000.0);
08:48:31:674;08:48:31:636;1448480906.2;(0.46439642906188966, 0.5189088185628254);59.5795478821;1.0;08:48:31:674;0;10;-1.5;5.55978260869565;3.81231671554252;0;0;0;1;1;1;1;1;10;0;0;0;5;1;0;0;();(-2000.0, -2000.0);
08:48:31:691;08:48:31:676;1448480906.24;(0.4617462635040283, 0.5212414211697048);60.2091751099;1.0;08:48:31:691;0;5;-1.5;1.12294182217344;0;0;0;0;1;1;1;1;1;10;0;0;0;5;1;0;0;();(-2000.0, -2000.0);
08:48:31:709;08:48:31:676;1448480906.24;(0.4617462635040283, 0.5212414211697048);60.2091751099;1.0;08:48:31:709;0;9;-1.5;1.33029908972692;0.684261974584555;0;0;0;1;1;1;1;1;10;0;0;0;5;1;0;0;();(-2000.0, -2000.0);
08:48:31:725;08:48:31:716;1448480906.3;(0.45740180015563964, 0.5246160719129774);60.4576911926;0.828113757474;08:48:31:725;0;5;-1.5;5.94767441860465;3.81231671554252;0;0;0;1;1;1;1;1;10;0;0;0;5;1;0;0;();(-2000.0, -2000.0);
08:48:31:742;08:48:31:716;1448480906.3;(0.45740180015563964, 0.5246160719129774);60.4576911926;0.828113757474;08:48:31:742;0;10;-1.5;10.65625;5.57184750733138;0;0;0;1;1;1;1;1;10;0;0;0;5;1;0;0;();(-2000.0, -2000.0);
08:48:31:775;08:48:31:716;1448480906.3;(0.45740180015563964, 0.5246160719129774);60.4576911926;0.828113757474;08:48:31:775;0;3;-1.5;3.78888888888889;3.42130987292278;0;0;0;1;1;1;1;1;10;0;0;0;5;1;0;0;();(-2000.0, -2000.0);
08:48:31:792;08:48:31:716;1448480906.3;(0.45740180015563964, 0.5246160719129774);60.4576911926;0.828113757474;08:48:31:792;0;15;-1.5;2.24835164835165;1.85728250244379;0;0;0;1;1;1;1;1;10;0;0;0;5;1;0;0;();(-2000.0, -2000.0);
08:48:31:808;08:48:31:801;1448480906.38;(0.5042988777160644, 0.8511396514044868);27.1185894012;0.972841174972;08:48:31:808;0;4;-1.5;2.14915966386555;1.66177908113392;0;0;0;1;1;1;1;1;10;0;0;0;5;1;0;0;();(-2000.0, -2000.0);
08:48:31:825;08:48:31:801;1448480906.38;(0.5042988777160644, 0.8511396514044868);27.1185894012;0.972841174972;08:48:31:825;0;15;-1.5;1.71932773109244;1.17302052785924;0;0;0;1;1;1;1;1;10;0;0;0;5;1;0;0;();(-2000.0, -2000.0);
08:48:31:842;08:48:31:801;1448480906.38;(0.5042988777160644, 0.8511396514044868);27.1185894012;0.972841174972;08:48:31:842;0;10;-1.5;10.3333333333333;4.78983382209189;0;0;0;1;1;1;1;1;10;0;0;0;5;1;0;0;();(-2000.0, -2000.0);
08:48:31:875;08:48:31:844;1448480906.44;(0, 0);0;0;08:48:31:875;0;4;-1.5;10.65625;4.98533724340176;0;0;0;1;1;1;1;1;10;0;0;0;5;1;0;0;();(-2000.0, -2000.0);
08:48:31:892;08:48:31:884;1448480906.47;(0, 0);0;0;08:48:31:892;0;15;-1.5;1.19509345794393;0.293255131964809;0;0;0;1;1;1;1;1;10;0;0;0;5;1;0;0;();(-2000.0, -2000.0);
08:48:31:909;08:48:31:884;1448480906.47;(0, 0);0;0;08:48:31:909;0;5;-1.5;1.32;0.293255131964809;0;0;0;1;1;1;1;1;10;0;0;0;5;1;0;0;();(-2000.0, -2000.0);
08:48:31:926;08:48:31:924;1448480906.5;(0.4566816329956055, 0.5247918870713976);58.1978111267;0.659151878001;08:48:31:926;0;10;-1.5;1.60093896713615;0.684261974584555;0;0;0;1;1;1;1;1;10;0;0;0;5;1;0;0;();(-2000.0, -2000.0);
08:48:31:942;08:48:31:924;1448480906.5;(0.4566816329956055, 0.5247918870713976);58.1978111267;0.659151878001;08:48:31:941;0;5;-1.5;2.41843971631206;1.66177908113392;0;0;0;1;1;1;1;1;10;0;0;0;5;1;0;0;();(-2000.0, -2000.0);
08:48:31:976;08:48:31:969;1448480906.54;(0.4595653533935547, 0.5242962731255425);57.3980064392;0.923114371266;08:48:31:976;0;4;-1.5;2.0297619047619;1.46627565982405;0;0;0;1;1;1;1;1;10;0;0;0;5;1;0;0;();(-2000.0, -2000.0);
08:48:31:993;08:48:31:969;1448480906.54;(0.4595653533935547, 0.5242962731255425);57.3980064392;0.923114371266;08:48:31:993;0;10;-1.5;3.05373134328358;2.93255131964809;0;0;0;1;1;1;1;1;10;0;0;0;5;1;0;0;();(-2000.0, -2000.0);
08:48:32:011;08:48:32:009;1448480906.6;(0.46015095710754395, 0.5287720150417752);60.2481002808;1.0;08:48:32:010;0;15;-1.5;4.94202898550725;3.81231671554252;0;0;0;1;1;1;1;1;10;0;0;0;5;1;0;0;();(-2000.0, -2000.0);
08:48:32:026;08:48:32:009;1448480906.6;(0.46015095710754395, 0.5287720150417752);60.2481002808;1.0;08:48:32:026;0;10;-1.5;1.18265895953757;0.0977517106549365;0;0;0;1;1;1;1;1;10;0;0;0;5;1;0;0;();(-2000.0, -2000.0);
08:48:32:043;08:48:32:009;1448480906.6;(0.46015095710754395, 0.5287720150417752);60.2481002808;1.0;08:48:32:043;0;15;-1.5;1.10714285714286;0;0;0;0;1;1;1;1;1;10;0;0;0;5;1;0;0;();(-2000.0, -2000.0);
08:48:32:077;08:48:32:048;1448480906.64;(0.46108155250549315, 0.529375966389974);60.1673583984;1.0;08:48:32:077;0;15;-1.5;5.01470588235294;4.3010752688172;0;0;0;1;1;1;1;1;10;0;0;0;5;1;0;0;();(-2000.0, -2000.0);
08:48:32:093;08:48:32:048;1448480906.64;(0.46108155250549315, 0.529375966389974);60.1673583984;1.0;08:48:32:093;0;10;-1.5;1.48046309696093;0.684261974584555;0;0;0;1;1;1;1;1;10;0;0;0;5;1;0;0;();(-2000.0, -2000.0);
08:48:32:111;08:48:32:093;1448480906.67;(0.46172270774841306, 0.5298847198486328);60.0659484863;1.0;08:48:32:111;0;15;-1.5;1.705;1.0752688172043;0;0;0;1;1;1;1;1;10;0;0;0;5;1;0;0;();(-2000.0, -2000.0);
08:48:32:127;08:48:32:093;1448480906.67;(0.46172270774841306, 0.5298847198486328);60.0659484863;1.0;08:48:32:127;0;4;-1.5;2.72074468085106;2.44379276637341;0;0;0;1;1;1;1;1;10;0;0;0;5;1;0;0;();(-2000.0, -2000.0);
08:48:32:145;08:48:32:133;1448480906.74;(0.46361336708068845, 0.5306998782687717);60.0514945984;1.0;08:48:32:145;0;0;-1.5;1.32684824902724;0.293255131964809;0;0;0;1;1;1;1;1;10;0;0;0;5;1;0;0;();(-2000.0, -2000.0);
08:48:32:161;08:48:32:133;1448480906.74;(0.46361336708068845, 0.5306998782687717);60.0514945984;1.0;08:48:32:161;0;5;-1.5;1.27397260273973;0.293255131964809;0;0;0;1;1;1;1;1;10;0;0;0;5;1;0;0;();(-2000.0, -2000.0);
08:48:32:194;08:48:32:172;1448480906.77;(0.46486220359802244, 0.530603535970052);60.0228385925;1.0;08:48:32:194;0;4;-1.5;4.50660792951542;3.42130987292278;0;0;0;1;1;1;1;1;10;0;0;0;5;1;0;0;();(-2000.0, -2000.0);
08:48:32:211;08:48:32:172;1448480906.77;(0.46486220359802244, 0.530603535970052);60.0228385925;1.0;08:48:32:211;0;15;-1.5;1.32170542635659;0.586510263929619;0;0;0;1;1;1;1;1;10;0;0;0;5;1;0;0;();(-2000.0, -2000.0);
08:48:32:228;08:48:32:216;1448480906.8;(0.4663227558135986, 0.5302537706163195);60.2868881226;0.883521743943;08:48:32:228;0;5;-1.5;1.48046309696093;0.684261974584555;0;0;0;1;1;1;1;1;10;0;0;0;5;1;0;0;();(-2000.0, -2000.0);
08:48:32:244;08:48:32:216;1448480906.8;(0.4663227558135986, 0.5302537706163195);60.2868881226;0.883521743943;08:48:32:244;0;10;-1.5;1.5618320610687;1.17302052785924;0;0;0;1;1;1;1;1;10;0;0;0;5;1;0;0;();(-2000.0, -2000.0);
08:48:32:261;08:48:32:256;1448480906.84;(0.4938045024871826, 0.8695953475104438);26.5176391602;0.956776348807;08:48:32:261;0;5;-1.5;2.20950323974082;1.46627565982405;0;0;0;1;1;1;1;1;10;0;0;0;5;1;0;0;();(-2000.0, -2000.0);
08:48:32:295;08:48:32:256;1448480906.84;(0.4938045024871826, 0.8695953475104438);26.5176391602;0.956776348807;08:48:32:295;0;4;-1.5;2.48300970873786;1.85728250244379;0;0;0;1;1;1;1;1;10;0;0;0;5;1;0;0;();(-2000.0, -2000.0);
08:48:32:311;08:48:32:256;1448480906.84;(0.4938045024871826, 0.8695953475104438);26.5176391602;0.956776348807;08:48:32:311;0;10;-1.5;3.56445993031359;2.93255131964809;0;0;0;1;1;1;1;1;10;0;0;0;5;1;0;0;();(-2000.0, -2000.0);
08:48:32:328;08:48:32:256;1448480906.84;(0.4938045024871826, 0.8695953475104438);26.5176391602;0.956776348807;08:48:32:328;0;5;-1.5;1.23104693140794;0.293255131964809;0;0;0;1;1;1;1;1;10;0;0;0;5;1;0;0;();(-2000.0, -2000.0);
08:48:32:346;08:48:32:256;1448480906.84;(0.4938045024871826, 0.8695953475104438);26.5176391602;0.956776348807;08:48:32:346;0;10;-1.5;1.30651340996169;0.586510263929619;0;0;0;1;1;1;1;1;10;0;0;0;5;1;0;0;();(-2000.0, -2000.0);
08:48:32:362;08:48:32:256;1448480906.84;(0.4938045024871826, 0.8695953475104438);26.5176391602;0.956776348807;08:48:32:362;0;10;-1.5;1.30651340996169;0.586510263929619;0;0;0;1;1;1;1;1;10;0;0;0;5;1;0;0;();(-2000.0, -2000.0);
08:48:32:395;08:48:32:256;1448480906.84;(0.4938045024871826, 0.8695953475104438);26.5176391602;0.956776348807;08:48:32:395;0;5;-1.5;1.29166666666667;0.293255131964809;0;0;0;1;1;1;1;1;10;0;0;0;5;1;0;0;();(-2000.0, -2000.0);
08:48:32:412;08:48:32:256;1448480906.84;(0.4938045024871826, 0.8695953475104438);26.5176391602;0.956776348807;08:48:32:412;0;10;-1.5;1.65;1.17302052785924;0;0;0;1;1;1;1;1;10;0;0;0;5;1;0;0;();(-2000.0, -2000.0);
08:48:32:431;08:48:32:424;1448480907.0;(0.4089369535446167, 0.47097850375705297);61.3925361633;1.0;08:48:32:429;0;15;-1.5;1.72512647554806;1.17302052785924;0;0;0;1;1;1;1;1;10;0;0;0;5;1;0;0;();(-2000.0, -2000.0);
08:48:32:453;08:48:32:424;1448480907.0;(0.4089369535446167, 0.47097850375705297);61.3925361633;1.0;08:48:32:453;0;4;-1.5;2.25330396475771;1.46627565982405;0;0;0;1;1;1;1;3;10,05,74;0;0;0;5;1;0;0;();(-2000.0, -2000.0);
08:48:32:463;08:48:32:424;1448480907.0;(0.4089369535446167, 0.47097850375705297);61.3925361633;1.0;08:48:32:462;0;15;-1.5;1.4698275862069;0.684261974584555;0;0;0;1;1;1;1;3;10,05,74;0;0;0;5;1;0;0;();(-2000.0, -2000.0);
08:48:32:497;08:48:32:424;1448480907.0;(0.4089369535446167, 0.47097850375705297);61.3925361633;1.0;08:48:32:497;0;15;-1.5;3.20689655172414;3.03030303030303;0;0;0;1;1;1;1;1;10;0;0;0;15;3;0;0;();(-2000.0, -2000.0);
08:48:32:512;08:48:32:504;1448480907.03;(0.41154088973999026, 0.4712243398030599);61.6672172546;1.0;08:48:32:512;0;10;-1.5;1.33029908972692;0.391006842619746;0;0;0;1;1;1;1;1;10;0;0;0;15;3;0;0;();(-2000.0, -2000.0);
08:48:32:529;08:48:32:504;1448480907.03;(0.41154088973999026, 0.4712243398030599);61.6672172546;1.0;08:48:32:529;0;15;-1.5;1.18402777777778;0.293255131964809;0;0;0;1;1;1;1;1;10;0;0;0;15;3;0;0;();(-2000.0, -2000.0);
08:48:32:547;08:48:32:504;1448480907.03;(0.41154088973999026, 0.4712243398030599);61.6672172546;1.0;08:48:32:547;0;5;-1.5;1.29493670886076;0.293255131964809;0;0;0;1;1;1;1;1;10;0;0;0;15;3;0;0;();(-2000.0, -2000.0);
08:48:32:563;08:48:32:548;1448480907.12;(0.49997873306274415, 0.7973957591586642);25.9682388306;0.812001123159;08:48:32:563;0;0;-1.5;2.44152744630072;2.34604105571848;0;0;0;1;1;1;1;1;10;0;0;0;15;3;0;0;();(-2000.0, -2000.0);
08:48:32:581;08:48:32:548;1448480907.12;(0.49997873306274415, 0.7973957591586642);25.9682388306;0.812001123159;08:48:32:581;0;4;-1.5;1.66612377850163;0.879765395894428;0;0;0;1;1;1;1;1;10;0;0;0;15;3;0;0;();(-2000.0, -2000.0);
08:48:32:613;08:48:32:588;1448480907.14;(0.41728987693786623, 0.4697726779513889);60.9400558472;1.0;08:48:32:613;0;5;-1.5;2.90625;2.34604105571848;0;0;0;1;1;1;1;1;10;0;0;0;15;3;0;0;();(-2000.0, -2000.0);
08:48:32:630;08:48:32:588;1448480907.14;(0.41728987693786623, 0.4697726779513889);60.9400558472;1.0;08:48:32:630;0;15;-1.5;1.79789103690685;1.17302052785924;0;0;0;1;1;1;1;1;10;0;0;0;15;3;0;0;();(-2000.0, -2000.0);
08:48:32:648;08:48:32:633;1448480907.24;(0.4133664608001709, 0.4663018544514974);60.21900177;0.995244792302;08:48:32:648;0;5;-1.5;1.52005943536404;0.684261974584555;0;0;0;1;1;1;1;1;10;0;0;0;15;3;0;0;();(-2000.0, -2000.0);
08:48:32:664;08:48:32:633;1448480907.24;(0.4133664608001709, 0.4663018544514974);60.21900177;0.995244792302;08:48:32:664;0;5;-1.5;2.21428571428571;1.46627565982405;0;0;0;1;1;1;1;1;10;0;0;0;15;3;0;0;();(-2000.0, -2000.0);
08:48:32:681;08:48:32:672;1448480907.27;(0.41177098751068114, 0.4647940317789714);60.1564292908;0.863576210336;08:48:32:681;0;4;-1.5;2.99122807017544;2.73704789833822;0;0;0;1;1;1;1;1;10;0;0;0;15;3;0;0;();(-2000.0, -2000.0);
08:48:32:714;08:48:32:712;1448480907.3;(0.4102134704589844, 0.46371188693576393);60.1135787964;0.904303352015;08:48:32:714;0;0;-1.5;2.62307692307692;2.1505376344086;0;0;0;1;1;1;1;1;10;0;0;0;15;3;0;0;();(-2000.0, -2000.0);
08:48:32:731;08:48:32:712;1448480907.3;(0.4102134704589844, 0.46371188693576393);60.1135787964;0.904303352015;08:48:32:731;0;10;-1.5;1.6368;0.684261974584555;0;0;0;1;1;1;1;1;10;0;0;0;15;3;0;0;();(-2000.0, -2000.0);
08:48:32:747;08:48:32:712;1448480907.3;(0.4102134704589844, 0.46371188693576393);60.1135787964;0.904303352015;08:48:32:747;0;4;-1.5;2.48300970873786;2.24828934506354;0;0;0;1;1;1;1;1;10;0;0;0;15;3;0;0;();(-2000.0, -2000.0);
08:48:32:764;08:48:32:756;1448480907.34;(0.40858590602874756, 0.46261062622070315);60.1758270264;0.88836390049;08:48:32:764;0;9;-1.5;1.92655367231638;1.46627565982405;0;0;0;1;1;1;1;1;10;0;0;0;15;3;0;0;();(-2000.0, -2000.0);
08:48:32:782;08:48:32:756;1448480907.34;(0.40858590602874756, 0.46261062622070315);60.1758270264;0.88836390049;08:48:32:782;0;0;-1.5;1.36037234042553;0.586510263929619;0;0;0;1;1;1;1;1;10;0;0;0;15;3;0;0;();(-2000.0, -2000.0);
08:48:32:814;08:48:32:797;1448480907.4;(0.4057323694229126, 0.46118753221299913);60.3848114014;1.0;08:48:32:813;0;15;-1.5;2.90625;2.34604105571848;0;0;0;1;1;1;1;1;10;0;0;0;15;3;0;0;();(-2000.0, -2000.0);
08:48:32:832;08:48:32:797;1448480907.4;(0.4057323694229126, 0.46118753221299913);60.3848114014;1.0;08:48:32:832;0;4;-1.5;3.26837060702875;3.03030303030303;0;0;0;1;1;1;1;1;10;0;0;0;15;3;0;0;();(-2000.0, -2000.0);
08:48:32:849;08:48:32:797;1448480907.4;(0.4057323694229126, 0.46118753221299913);60.3848114014;1.0;08:48:32:849;0;5;-1.5;2.0920245398773;1.46627565982405;0;0;0;1;1;1;1;1;10;0;0;0;15;3;0;0;();(-2000.0, -2000.0);
08:48:32:865;08:48:32:797;1448480907.4;(0.4057323694229126, 0.46118753221299913);60.3848114014;1.0;08:48:32:865;0;10;-1.5;2.36805555555556;1.95503421309873;0;0;0;1;1;1;1;1;10;0;0;0;15;3;0;0;();(-2000.0, -2000.0);
08:48:32:882;08:48:32:881;1448480907.47;(0.45813808441162107, 0.4491534339057075);58.2690467834;1.0;08:48:32:882;0;0;-1.5;2.2;1.46627565982405;0;0;0;1;1;1;1;1;10;0;0;0;15;3;0;0;();(-2000.0, -2000.0);
08:48:32:915;08:48:32:881;1448480907.47;(0.45813808441162107, 0.4491534339057075);58.2690467834;1.0;08:48:32:915;0;15;-1.5;1.71070234113712;1.0752688172043;0;0;0;1;1;1;1;1;10;0;0;0;15;3;0;0;();(-2000.0, -2000.0);
08:48:32:932;08:48:32:920;1448480907.5;(0.4567875385284424, 0.4501732720269097);58.9810333252;0.895382256234;08:48:32:932;0;5;-1.5;2.79508196721311;2.63929618768328;0;0;0;1;1;1;1;1;10;0;0;0;15;3;0;0;();(-2000.0, -2000.0);
08:48:32:949;08:48:32:920;1448480907.5;(0.4567875385284424, 0.4501732720269097);58.9810333252;0.895382256234;08:48:32:949;0;10;-1.5;3.77490774907749;3.03030303030303;0;0;0;1;1;1;1;1;10;0;0;0;15;3;0;0;();(-2000.0, -2000.0);
08:48:32:965;08:48:32:960;1448480907.54;(0.4551689147949219, 0.4513790554470486);58.9041748047;0.923611825044;08:48:32:965;0;5;-1.5;1.43881856540084;0.684261974584555;0;0;0;1;1;1;1;1;10;0;0;0;15;3;0;0;();(-2000.0, -2000.0);
08:48:32:982;08:48:32:960;1448480907.54;(0.4551689147949219, 0.4513790554470486);58.9041748047;0.923611825044;08:48:32:982;0;10;-1.5;1.32;0.293255131964809;0;0;0;1;1;1;1;1;10;0;0;0;15;3;0;0;();(-2000.0, -2000.0);
08:48:33:016;08:48:33:005;1448480907.6;(0.45215458869934083, 0.4538272433810764);59.2294960022;0.891812563251;08:48:33:016;0;9;-1.5;4.2448132780083;3.42130987292278;0;0;0;1;1;1;1;1;10;0;0;0;15;3;0;0;();(-2000.0, -2000.0);
08:48:33:032;08:48:33:005;1448480907.6;(0.45215458869934083, 0.4538272433810764);59.2294960022;0.891812563251;08:48:33:032;0;5;-1.5;1.56422018348624;0.684261974584555;0;0;0;1;1;1;1;1;10;0;0;0;15;3;0;0;();(-2000.0, -2000.0);
08:48:33:049;08:48:33:044;1448480907.64;(0.45074987411499023, 0.45543844434950087);59.3799324036;0.877057148034;08:48:33:049;0;10;-1.5;1.81705150976909;1.17302052785924;0;0;0;1;1;1;1;1;10;0;0;0;15;3;0;0;();(-2000.0, -2000.0);
08:48:33:066;08:48:33:044;1448480907.64;(0.45074987411499023, 0.45543844434950087);59.3799324036;0.877057148034;08:48:33:066;0;15;-1.5;2.28348214285714;1.66177908113392;0;0;0;1;1;1;1;1;10;0;0;0;15;3;0;0;();(-2000.0, -2000.0);
08:48:33:083;08:48:33:044;1448480907.64;(0.45074987411499023, 0.45543844434950087);59.3799324036;0.877057148034;08:48:33:083;0;9;-1.5;2.6640625;2.34604105571848;0;0;0;1;1;1;1;1;10;0;0;0;15;3;0;0;();(-2000.0, -2000.0);
08:48:33:117;08:48:33:088;1448480907.67;(0.44961819648742674, 0.4565904405381944);59.5250778198;1.0;08:48:33:117;0;10;-1.5;4.50660792951542;3.42130987292278;0;0;0;1;1;1;1;1;10;0;0;0;15;3;0;0;();(-2000.0, -2000.0);
08:48:33:133;08:48:33:128;1448480907.7;(0.44881324768066405, 0.45712877909342453);59.6157798767;1.0;08:48:33:133;0;5;-1.5;1.32170542635659;0.586510263929619;0;0;0;1;1;1;1;1;10;0;0;0;15;3;0;0;();(-2000.0, -2000.0);
08:48:33:150;08:48:33:128;1448480907.7;(0.44881324768066405, 0.45712877909342453);59.6157798767;1.0;08:48:33:150;0;10;-1.5;1.37870619946092;0.586510263929619;0;0;0;1;1;1;1;1;10;0;0;0;15;3;0;0;();(-2000.0, -2000.0);
08:48:33:167;08:48:33:128;1448480907.7;(0.44881324768066405, 0.45712877909342453);59.6157798767;1.0;08:48:33:167;0;15;-1.5;1.453125;0.684261974584555;0;0;0;1;1;1;1;1;10;0;0;0;15;3;0;0;();(-2000.0, -2000.0);
08:48:33:184;08:48:33:128;1448480907.7;(0.44881324768066405, 0.45712877909342453);59.6157798767;1.0;08:48:33:184;0;5;-1.5;1.55235204855842;0.684261974584555;0;0;0;1;1;1;1;1;10;0;0;0;15;3;0;0;();(-2000.0, -2000.0);
08:48:33:217;08:48:33:128;1448480907.7;(0.44881324768066405, 0.45712877909342453);59.6157798767;1.0;08:48:33:217;0;5;-1.5;2.0297619047619;1.46627565982405;0;0;0;1;1;1;1;1;10;0;0;0;15;3;0;0;();(-2000.0, -2000.0);
08:48:33:235;08:48:33:128;1448480907.7;(0.44881324768066405, 0.45712877909342453);59.6157798767;1.0;08:48:33:234;0;15;-1.5;2.28348214285714;1.66177908113392;0;0;0;1;1;1;1;1;10;0;0;0;15;3;0;0;();(-2000.0, -2000.0);
08:48:33:250;08:48:33:128;1448480907.7;(0.44881324768066405, 0.45712877909342453);59.6157798767;1.0;08:48:33:250;0;9;-1.5;2.77989130434783;2.34604105571848;0;0;0;1;1;1;1;1;10;0;0;0;15;3;0;0;();(-2000.0, -2000.0);
08:48:33:267;08:48:33:128;1448480907.7;(0.44881324768066405, 0.45712877909342453);59.6157798767;1.0;08:48:33:267;0;0;-1.5;1.56901840490798;0.879765395894428;0;0;0;1;1;1;1;1;10;0;0;0;15;3;0;0;();(-2000.0, -2000.0);
08:48:33:284;08:48:33:128;1448480907.7;(0.44881324768066405, 0.45712877909342453);59.6157798767;1.0;08:48:33:284;0;5;-1.5;1.34605263157895;0.586510263929619;0;0;0;1;1;1;1;1;10;0;0;0;15;3;0;0;();(-2000.0, -2000.0);
08:48:33:302;08:48:33:128;1448480907.7;(0.44881324768066405, 0.45712877909342453);59.6157798767;1.0;08:48:33:302;0;15;-1.5;8.89565217391304;5.47409579667644;0;0;0;1;1;1;1;1;10;0;0;0;15;3;0;0;();(-2000.0, -2000.0);
08:48:33:335;08:48:33:128;1448480907.7;(0.44881324768066405, 0.45712877909342453);59.6157798767;1.0;08:48:33:335;0;15;-1.5;1.34605263157895;0.586510263929619;0;0;0;1;1;1;1;1;10;0;0;0;15;3;0;0;();(-2000.0, -2000.0);
08:48:33:351;08:48:33:337;1448480907.91;(0.4379998207092285, 0.47338129679361984);59.9393501282;1.0;08:48:33:351;0;4;-1.5;1.705;1.17302052785924;0;0;0;1;1;1;1;1;10;0;0;0;15;3;0;0;();(-2000.0, -2000.0);
08:48:33:368;08:48:33:337;1448480907.91;(0.4379998207092285, 0.47338129679361984);59.9393501282;1.0;08:48:33:368;0;10;-1.5;1.80105633802817;1.17302052785924;0;0;0;1;1;1;1;1;10;0;0;0;15;3;0;0;();(-2000.0, -2000.0);
08:48:33:385;08:48:33:376;1448480907.94;(0.5202061653137207, 0.7729694578382704);29.1440353394;0.873140877484;08:48:33:385;0;15;-1.5;2.22391304347826;1.46627565982405;0;0;0;1;1;1;1;1;10;0;0;0;15;3;0;0;();(-2000.0, -2000.0);
08:48:33:402;08:48:33:376;1448480907.94;(0.5202061653137207, 0.7729694578382704);29.1440353394;0.873140877484;08:48:33:402;0;9;-1.5;2.0625;1.46627565982405;0;0;0;1;1;1;1;1;10;0;0;0;15;3;0;0;();(-2000.0, -2000.0);
08:48:33:435;08:48:33:421;1448480908.0;(0.46473846435546873, 0.4706055111355252);59.2223396301;0.973426626935;08:48:33:435;0;10;-1.5;3.12844036697248;2.44379276637341;0;0;0;1;1;1;1;1;10;0;0;0;15;3;0;0;();(-2000.0, -2000.0);
08:48:33:452;08:48:33:421;1448480908.0;(0.46473846435546873, 0.4706055111355252);59.2223396301;0.973426626935;08:48:33:452;0;15;-1.5;3.12844036697248;2.44379276637341;0;0;0;1;1;1;1;1;10;0;0;0;15;3;0;0;();(-2000.0, -2000.0);
08:48:33:469;08:48:33:460;1448480908.04;(0.4621719837188721, 0.47282909817165797);59.5906677246;1.0;08:48:33:467;0;9;-1.5;1.37685060565276;0.586510263929619;0;0;0;1;1;1;1;1;10;0;0;0;15;3;0;0;();(-2000.0, -2000.0);
08:48:33:485;08:48:33:460;1448480908.04;(0.4621719837188721, 0.47282909817165797);59.5906677246;1.0;08:48:33:485;0;15;-1.5;1.33203125;0.391006842619746;0;0;0;1;1;1;1;1;10;0;0;0;15;3;0;0;();(-2000.0, -2000.0);
08:48:33:504;08:48:33:500;1448480908.1;(0.4599332809448242, 0.4751173655192057);59.6953392029;1.0;08:48:33:504;0;5;-1.5;1.54066265060241;0.684261974584555;0;0;0;1;1;1;1;1;10;0;0;0;15;3;0;0;();(-2000.0, -2000.0);
08:48:33:535;08:48:33:500;1448480908.1;(0.4599332809448242, 0.4751173655192057);59.6953392029;1.0;08:48:33:535;0;10;-1.5;1.46142857142857;0.684261974584555;0;0;0;1;1;1;1;1;10;0;0;0;15;3;0;0;();(-2000.0, -2000.0);
08:48:33:553;08:48:33:544;1448480908.14;(0.4593369960784912, 0.47500529819064674);59.861579895;1.0;08:48:33:553;0;15;-1.5;1.60849056603774;1.17302052785924;0;0;0;1;1;1;1;1;10;0;0;0;15;3;0;0;();(-2000.0, -2000.0);
08:48:33:569;08:48:33:544;1448480908.14;(0.4593369960784912, 0.47500529819064674);59.861579895;1.0;08:48:33:569;0;4;-1.5;2.48300970873786;2.34604105571848;0;0;0;1;1;1;1;1;10;0;0;0;15;3;0;0;();(-2000.0, -2000.0);
08:48:33:586;08:48:33:584;1448480908.17;(0.45934553146362306, 0.47396727667914496);59.8795776367;1.0;08:48:33:586;0;0;-1.5;1.705;0.879765395894428;0;0;0;1;1;1;1;1;10;0;0;0;15;3;0;0;();(-2000.0, -2000.0);
08:48:33:603;08:48:33:584;1448480908.17;(0.45934553146362306, 0.47396727667914496);59.8795776367;1.0;08:48:33:603;0;5;-1.5;1.5618320610687;1.17302052785924;0;0;0;1;1;1;1;1;10;0;0;0;15;3;0;0;();(-2000.0, -2000.0);
08:48:33:636;08:48:33:624;1448480908.2;(0.4594064235687256, 0.4727329254150391);59.916217804;1.0;08:48:33:636;0;15;-1.5;5.16666666666667;3.81231671554252;0;0;0;1;1;1;1;1;10;0;0;0;15;3;0;0;();(-2000.0, -2000.0);
08:48:33:653;08:48:33:624;1448480908.2;(0.4594064235687256, 0.4727329254150391);59.916217804;1.0;08:48:33:653;0;10;-1.5;4.01176470588235;3.03030303030303;0;0;0;1;1;1;1;1;10;0;0;0;15;3;0;0;();(-2000.0, -2000.0);
08:48:33:671;08:48:33:668;1448480908.27;(0.46061091423034667, 0.4695701175265842);59.8338813782;1.0;08:48:33:671;0;4;-1.5;1.45106382978723;0.684261974584555;0;0;0;1;1;1;1;1;10;0;0;0;15;3;0;0;();(-2000.0, -2000.0);
08:48:33:686;08:48:33:668;1448480908.27;(0.46061091423034667, 0.4695701175265842);59.8338813782;1.0;08:48:33:686;0;10;-1.5;1.76683937823834;1.36852394916911;0;0;0;1;1;1;1;1;10;0;0;0;15;3;0;0;();(-2000.0, -2000.0);
08:48:33:703;08:48:33:668;1448480908.27;(0.46061091423034667, 0.4695701175265842);59.8338813782;1.0;08:48:33:703;0;5;-1.5;2.2;1.46627565982405;0;0;0;1;1;1;1;1;10;0;0;0;15;3;0;0;();(-2000.0, -2000.0);
08:48:33:721;08:48:33:708;1448480908.3;(0.4617177963256836, 0.4682505289713542);60.1057891846;1.0;08:48:33:721;0;9;-1.5;1.83333333333333;1.46627565982405;0;0;0;1;1;1;1;1;10;0;0;0;15;3;0;0;();(-2000.0, -2000.0);
08:48:33:754;08:48:33:708;1448480908.3;(0.4617177963256836, 0.4682505289713542);60.1057891846;1.0;08:48:33:754;0;10;-1.5;2.28348214285714;1.46627565982405;0;0;0;1;1;1;1;1;10;0;0;0;15;3;0;0;();(-2000.0, -2000.0);
08:48:33:771;08:48:33:708;1448480908.3;(0.4617177963256836, 0.4682505289713542);60.1057891846;1.0;08:48:33:769;0;5;-1.5;1.4149377593361;0.684261974584555;0;0;0;1;1;1;1;1;10;0;0;0;15;3;0;0;();(-2000.0, -2000.0);
08:48:33:787;08:48:33:708;1448480908.3;(0.4617177963256836, 0.4682505289713542);60.1057891846;1.0;08:48:33:787;0;9;-1.5;1.24150485436893;0.293255131964809;0;0;0;1;1;1;1;1;10;0;0;0;15;3;0;0;();(-2000.0, -2000.0);
08:48:33:804;08:48:33:792;1448480908.34;(0.4343729496002197, 0.46663860744900176);59.3299751282;0.786015841708;08:48:33:804;0;15;-1.5;1.23550724637681;0.293255131964809;0;0;0;1;1;1;1;1;10;0;0;0;15;3;0;0;();(-2000.0, -2000.0);
08:48:33:822;08:48:33:792;1448480908.34;(0.4343729496002197, 0.46663860744900176);59.3299751282;0.786015841708;08:48:33:822;0;10;-1.5;3.12844036697248;2.44379276637341;0;0;0;1;1;1;1;1;10;0;0;0;15;3;0;0;();(-2000.0, -2000.0);
08:48:33:854;08:48:33:834;1448480908.41;(0.40978317260742186, 0.4639592912462023);61.6101913452;1.0;08:48:33:854;0;10;-1.5;1.4698275862069;0.684261974584555;0;0;0;1;1;1;1;1;10;0;0;0;15;3;0;0;();(-2000.0, -2000.0);
08:48:33:871;08:48:33:834;1448480908.41;(0.40978317260742186, 0.4639592912462023);61.6101913452;1.0;08:48:33:871;0;15;-1.5;1.85662431941924;1.17302052785924;0;0;0;1;1;1;1;1;10;0;0;0;15;3;0;0;();(-2000.0, -2000.0);
08:48:33:887;08:48:33:877;1448480908.47;(0.41226725578308104, 0.461764144897461);62.1231994629;1.0;08:48:33:887;0;4;-1.5;3.12844036697248;2.44379276637341;0;0;0;1;1;1;1;1;10;0;0;0;15;3;0;0;();(-2000.0, -2000.0);
08:48:33:904;08:48:33:877;1448480908.47;(0.41226725578308104, 0.461764144897461);62.1231994629;1.0;08:48:33:903;0;15;-1.5;1.55235204855842;1.17302052785924;0;0;0;1;1;1;1;1;10;0;0;0;15;3;0;0;();(-2000.0, -2000.0);
08:48:33:922;08:48:33:916;1448480908.5;(0.41308419704437255, 0.461924574110243);61.8958892822;1.0;08:48:33:922;0;10;-1.5;3.88973384030418;4.3010752688172;0;0;0;1;1;1;1;1;10;0;0;0;15;3;0;0;();(-2000.0, -2000.0);
08:48:33:956;08:48:33:916;1448480908.5;(0.41308419704437255, 0.461924574110243);61.8958892822;1.0;08:48:33:956;0;4;-1.5;3.88973384030418;3.03030303030303;0;0;0;1;1;1;1;1;10;0;0;0;15;3;0;0;();(-2000.0, -2000.0);
