%Timestamp,timestamp_write;timestamp_gotpupil;eyeTrackerTime;normPos;diameter;confidence;timestamp_gotbitdata;CRC;SEQ;AnalogOutp1;AnalogOutp2;AnalogOutp3;AnalogOutp4;AnalogOutp5;AnalogOutp6;DigitalOutp1;DigitalOutp2;DigitalOutp3;DigitalOutp4;nplanes;listofAirplanesonScreen;lastAction;lastActionDetails;lastActionAirplaneNumber;calculatedScore;positiveScore;negativeScore;collidedAirplaneNumbers;targetPositions;collisionPoint
12:22:50:910;12:22:50:896;1448408329.48;(0.5790465831756592, 0.8413423008388943);77.0245132446;0.856201203398;;;;;;;;;;;;;;0;0;0;0;0;0;0;0;0;();(-2000.0, -2000.0);
12:22:50:922;12:22:50:896;1448408329.48;(0.5790465831756592, 0.8413423008388943);77.0245132446;0.856201203398;;;;;;;;;;;;;;0;0;0;0;0;0;0;0;0;();(-2000.0, -2000.0);
12:22:50:928;12:22:50:896;1448408329.48;(0.5790465831756592, 0.8413423008388943);77.0245132446;0.856201203398;;;;;;;;;;;;;;0;0;0;0;0;0;0;0;0;();(-2000.0, -2000.0);
12:22:50:932;12:22:50:896;1448408329.48;(0.5790465831756592, 0.8413423008388943);77.0245132446;0.856201203398;;;;;;;;;;;;;;0;0;0;0;0;0;0;0;0;();(-2000.0, -2000.0);
12:22:50:936;12:22:50:896;1448408329.48;(0.5790465831756592, 0.8413423008388943);77.0245132446;0.856201203398;;;;;;;;;;;;;;0;0;0;0;0;0;0;0;0;();(-2000.0, -2000.0);
12:22:50:940;12:22:50:896;1448408329.48;(0.5790465831756592, 0.8413423008388943);77.0245132446;0.856201203398;;;;;;;;;;;;;;0;0;0;0;0;0;0;0;0;();(-2000.0, -2000.0);
12:22:50:944;12:22:50:896;1448408329.48;(0.5790465831756592, 0.8413423008388943);77.0245132446;0.856201203398;;;;;;;;;;;;;;0;0;0;0;0;0;0;0;0;();(-2000.0, -2000.0);
12:22:50:948;12:22:50:896;1448408329.48;(0.5790465831756592, 0.8413423008388943);77.0245132446;0.856201203398;;;;;;;;;;;;;;0;0;0;0;0;0;0;0;0;();(-2000.0, -2000.0);
12:22:50:953;12:22:50:896;1448408329.48;(0.5790465831756592, 0.8413423008388943);77.0245132446;0.856201203398;;;;;;;;;;;;;;0;0;0;0;0;0;0;0;0;();(-2000.0, -2000.0);
12:22:50:957;12:22:50:896;1448408329.48;(0.5790465831756592, 0.8413423008388943);77.0245132446;0.856201203398;;;;;;;;;;;;;;0;0;0;0;0;0;0;0;0;();(-2000.0, -2000.0);
12:22:50:961;12:22:50:896;1448408329.48;(0.5790465831756592, 0.8413423008388943);77.0245132446;0.856201203398;;;;;;;;;;;;;;0;0;0;0;0;0;0;0;0;();(-2000.0, -2000.0);
12:22:50:964;12:22:50:896;1448408329.48;(0.5790465831756592, 0.8413423008388943);77.0245132446;0.856201203398;;;;;;;;;;;;;;0;0;0;0;0;0;0;0;0;();(-2000.0, -2000.0);
12:22:50:968;12:22:50:896;1448408329.48;(0.5790465831756592, 0.8413423008388943);77.0245132446;0.856201203398;;;;;;;;;;;;;;0;0;0;0;0;0;0;0;0;();(-2000.0, -2000.0);
12:22:50:971;12:22:50:896;1448408329.48;(0.5790465831756592, 0.8413423008388943);77.0245132446;0.856201203398;;;;;;;;;;;;;;0;0;0;0;0;0;0;0;0;();(-2000.0, -2000.0);
12:22:50:975;12:22:50:896;1448408329.48;(0.5790465831756592, 0.8413423008388943);77.0245132446;0.856201203398;;;;;;;;;;;;;;0;0;0;0;0;0;0;0;0;();(-2000.0, -2000.0);
12:22:50:979;12:22:50:896;1448408329.48;(0.5790465831756592, 0.8413423008388943);77.0245132446;0.856201203398;;;;;;;;;;;;;;0;0;0;0;0;0;0;0;0;();(-2000.0, -2000.0);
12:22:50:983;12:22:50:896;1448408329.48;(0.5790465831756592, 0.8413423008388943);77.0245132446;0.856201203398;;;;;;;;;;;;;;0;0;0;0;0;0;0;0;0;();(-2000.0, -2000.0);
12:22:50:986;12:22:50:896;1448408329.48;(0.5790465831756592, 0.8413423008388943);77.0245132446;0.856201203398;;;;;;;;;;;;;;0;0;0;0;0;0;0;0;0;();(-2000.0, -2000.0);
12:22:50:990;12:22:50:896;1448408329.48;(0.5790465831756592, 0.8413423008388943);77.0245132446;0.856201203398;;;;;;;;;;;;;;0;0;0;0;0;0;0;0;0;();(-2000.0, -2000.0);
12:22:50:993;12:22:50:896;1448408329.48;(0.5790465831756592, 0.8413423008388943);77.0245132446;0.856201203398;;;;;;;;;;;;;;0;0;0;0;0;0;0;0;0;();(-2000.0, -2000.0);
12:22:50:997;12:22:50:896;1448408329.48;(0.5790465831756592, 0.8413423008388943);77.0245132446;0.856201203398;;;;;;;;;;;;;;0;0;0;0;0;0;0;0;0;();(-2000.0, -2000.0);
12:22:51:006;12:22:51:005;1448408329.55;(0.5925234317779541, 0.838792355855306);76.4810333252;0.851198081364;;;;;;;;;;;;;;0;0;0;0;0;0;0;0;0;();(-2000.0, -2000.0);
12:22:51:038;12:22:51:029;1448408329.58;(0.5976567268371582, 0.8346189075046115);77.0453491211;0.934399283683;;;;;;;;;;;;;;0;0;0;0;0;0;0;0;0;();(-2000.0, -2000.0);
12:22:51:057;12:22:51:029;1448408329.58;(0.5976567268371582, 0.8346189075046115);77.0453491211;0.934399283683;;;;;;;;;;;;;;0;0;0;0;0;0;0;0;0;();(-2000.0, -2000.0);
12:22:51:074;12:22:51:029;1448408329.58;(0.5976567268371582, 0.8346189075046115);77.0453491211;0.934399283683;;;;;;;;;;;;;;0;0;0;0;0;0;0;0;0;();(-2000.0, -2000.0);
12:22:51:090;12:22:51:029;1448408329.58;(0.5976567268371582, 0.8346189075046115);77.0453491211;0.934399283683;;;;;;;;;;;;;;0;0;0;0;0;0;0;0;0;();(-2000.0, -2000.0);
12:22:51:107;12:22:51:099;1448408329.65;(0.28942854404449464, 0.6387016932169596);26.6235561371;0.653633253775;;;;;;;;;;;;;;0;0;0;0;0;0;0;0;0;();(-2000.0, -2000.0);
12:22:51:139;12:22:51:099;1448408329.65;(0.28942854404449464, 0.6387016932169596);26.6235561371;0.653633253775;;;;;;;;;;;;;;0;0;0;0;0;0;0;0;0;();(-2000.0, -2000.0);
12:22:51:156;12:22:51:099;1448408329.65;(0.28942854404449464, 0.6387016932169596);26.6235561371;0.653633253775;;;;;;;;;;;;;;0;0;0;0;0;0;0;0;0;();(-2000.0, -2000.0);
12:22:51:173;12:22:51:166;1448408329.72;(0.5674172878265381, 0.8460593011644151);77.4299316406;0.801117042959;;;;;;;;;;;;;;0;0;0;0;0;0;0;0;0;();(-2000.0, -2000.0);
12:22:51:191;12:22:51:166;1448408329.72;(0.5674172878265381, 0.8460593011644151);77.4299316406;0.801117042959;;;;;;;;;;;;;;0;0;0;0;0;0;0;0;0;();(-2000.0, -2000.0);
12:22:51:206;12:22:51:166;1448408329.72;(0.5674172878265381, 0.8460593011644151);77.4299316406;0.801117042959;;;;;;;;;;;;;;0;0;0;0;0;0;0;0;0;();(-2000.0, -2000.0);
12:22:51:238;12:22:51:166;1448408329.72;(0.5674172878265381, 0.8460593011644151);77.4299316406;0.801117042959;;;;;;;;;;;;;;0;0;0;0;0;0;0;0;0;();(-2000.0, -2000.0);
12:22:51:255;12:22:51:166;1448408329.72;(0.5674172878265381, 0.8460593011644151);77.4299316406;0.801117042959;;;;;;;;;;;;;;0;0;0;0;0;0;0;0;0;();(-2000.0, -2000.0);
12:22:51:272;12:22:51:166;1448408329.72;(0.5674172878265381, 0.8460593011644151);77.4299316406;0.801117042959;;;;;;;;;;;;;;0;0;0;0;0;0;0;0;0;();(-2000.0, -2000.0);
12:22:51:289;12:22:51:166;1448408329.72;(0.5674172878265381, 0.8460593011644151);77.4299316406;0.801117042959;;;;;;;;;;;;;;0;0;0;0;0;0;0;0;0;();(-2000.0, -2000.0);
12:22:51:305;12:22:51:298;1448408329.85;(0.5833786010742188, 0.8436275058322482);78.0824890137;0.814564361853;;;;;;;;;;;;;;0;0;0;0;0;0;0;0;0;();(-2000.0, -2000.0);
12:22:51:339;12:22:51:298;1448408329.85;(0.5833786010742188, 0.8436275058322482);78.0824890137;0.814564361853;;;;;;;;;;;;;;0;0;0;0;0;0;0;0;0;();(-2000.0, -2000.0);
12:22:51:356;12:22:51:298;1448408329.85;(0.5833786010742188, 0.8436275058322482);78.0824890137;0.814564361853;;;;;;;;;;;;;;0;0;0;0;0;0;0;0;0;();(-2000.0, -2000.0);
12:22:51:372;12:22:51:361;1448408329.92;(0.5866366863250733, 0.8431240929497613);79.8848190308;0.806340984169;;;;;;;;;;;;;;0;0;0;0;0;0;0;0;0;();(-2000.0, -2000.0);
12:22:51:389;12:22:51:361;1448408329.92;(0.5866366863250733, 0.8431240929497613);79.8848190308;0.806340984169;;;;;;;;;;;;;;0;0;0;0;0;0;0;0;0;();(-2000.0, -2000.0);
12:22:51:406;12:22:51:361;1448408329.92;(0.5866366863250733, 0.8431240929497613);79.8848190308;0.806340984169;;;;;;;;;;;;;;0;0;0;0;0;0;0;0;0;();(-2000.0, -2000.0);
12:22:51:439;12:22:51:430;1448408329.98;(0.5880530834197998, 0.8409027099609375);79.8302841187;1.0;;;;;;;;;;;;;;0;0;0;0;0;0;0;0;0;();(-2000.0, -2000.0);
12:22:51:456;12:22:51:430;1448408329.98;(0.5880530834197998, 0.8409027099609375);79.8302841187;1.0;;;;;;;;;;;;;;0;0;0;0;0;0;0;0;0;();(-2000.0, -2000.0);
12:22:51:473;12:22:51:430;1448408329.98;(0.5880530834197998, 0.8409027099609375);79.8302841187;1.0;;;;;;;;;;;;;;0;0;0;0;0;0;0;0;0;();(-2000.0, -2000.0);
12:22:51:489;12:22:51:430;1448408329.98;(0.5880530834197998, 0.8409027099609375);79.8302841187;1.0;;;;;;;;;;;;;;0;0;0;0;0;0;0;0;0;();(-2000.0, -2000.0);
12:22:51:505;12:22:51:430;1448408329.98;(0.5880530834197998, 0.8409027099609375);79.8302841187;1.0;;;;;;;;;;;;;;0;0;0;0;0;0;0;0;0;();(-2000.0, -2000.0);
12:22:51:539;12:22:51:430;1448408329.98;(0.5880530834197998, 0.8409027099609375);79.8302841187;1.0;;;;;;;;;;;;;;0;0;0;0;0;0;0;0;0;();(-2000.0, -2000.0);
12:22:51:556;12:22:51:430;1448408329.98;(0.5880530834197998, 0.8409027099609375);79.8302841187;1.0;;;;;;;;;;;;;;0;0;0;0;0;0;0;0;0;();(-2000.0, -2000.0);
12:22:51:573;12:22:51:430;1448408329.98;(0.5880530834197998, 0.8409027099609375);79.8302841187;1.0;;;;;;;;;;;;;;0;0;0;0;0;0;0;0;0;();(-2000.0, -2000.0);
12:22:51:589;12:22:51:583;1448408330.12;(0.21319738626480103, 0.6990011003282335);26.2335700989;0.746723366243;;;;;;;;;;;;;;0;0;0;0;0;0;0;0;0;();(-2000.0, -2000.0);
12:22:51:606;12:22:51:583;1448408330.12;(0.21319738626480103, 0.6990011003282335);26.2335700989;0.746723366243;;;;;;;;;;;;;;0;0;0;0;0;0;0;0;0;();(-2000.0, -2000.0);
12:22:51:639;12:22:51:636;1448408330.15;(0, 0);0;0;;;;;;;;;;;;;;0;0;0;0;0;0;0;0;0;();(-2000.0, -2000.0);
12:22:51:656;12:22:51:636;1448408330.15;(0, 0);0;0;;;;;;;;;;;;;;0;0;0;0;0;0;0;0;0;();(-2000.0, -2000.0);
12:22:51:673;12:22:51:636;1448408330.15;(0, 0);0;0;;;;;;;;;;;;;;0;0;0;0;0;0;0;0;0;();(-2000.0, -2000.0);
12:22:51:689;12:22:51:636;1448408330.15;(0, 0);0;0;;;;;;;;;;;;;;0;0;0;0;0;0;0;0;0;();(-2000.0, -2000.0);
12:22:51:706;12:22:51:695;1448408330.19;(0.4594991207122803, 0.8842008166842991);30.4760131836;0.800955442648;;;;;;;;;;;;;;0;0;0;0;0;0;0;0;0;();(-2000.0, -2000.0);
12:22:51:741;12:22:51:695;1448408330.19;(0.4594991207122803, 0.8842008166842991);30.4760131836;0.800955442648;;;;;;;;;;;;;;0;0;0;0;0;0;0;0;0;();(-2000.0, -2000.0);
12:22:51:757;12:22:51:695;1448408330.19;(0.4594991207122803, 0.8842008166842991);30.4760131836;0.800955442648;;;;;;;;;;;;;;0;0;0;0;0;0;0;0;0;();(-2000.0, -2000.0);
12:22:51:774;12:22:51:769;1448408330.32;(0.6616196155548095, 0.7905649185180664);81.9740142822;0.92575691656;;;;;;;;;;;;;;0;0;0;0;0;0;0;0;0;();(-2000.0, -2000.0);
12:22:51:790;12:22:51:769;1448408330.32;(0.6616196155548095, 0.7905649185180664);81.9740142822;0.92575691656;;;;;;;;;;;;;;0;0;0;0;0;0;0;0;0;();(-2000.0, -2000.0);
12:22:51:807;12:22:51:769;1448408330.32;(0.6616196155548095, 0.7905649185180664);81.9740142822;0.92575691656;;;;;;;;;;;;;;0;0;0;0;0;0;0;0;0;();(-2000.0, -2000.0);
12:22:51:841;12:22:51:769;1448408330.32;(0.6616196155548095, 0.7905649185180664);81.9740142822;0.92575691656;;;;;;;;;;;;;;0;0;0;0;0;0;0;0;0;();(-2000.0, -2000.0);
12:22:51:858;12:22:51:769;1448408330.32;(0.6616196155548095, 0.7905649185180664);81.9740142822;0.92575691656;;;;;;;;;;;;;;0;0;0;0;0;0;0;0;0;();(-2000.0, -2000.0);
12:22:51:874;12:22:51:870;1448408330.38;(0.6608880996704102, 0.7902699152628581);82.0662689209;0.823227015841;;;;;;;;;;;;;;0;0;0;0;0;0;0;0;0;();(-2000.0, -2000.0);
12:22:51:890;12:22:51:870;1448408330.38;(0.6608880996704102, 0.7902699152628581);82.0662689209;0.823227015841;;;;;;;;;;;;;;0;0;0;0;0;0;0;0;0;();(-2000.0, -2000.0);
12:22:51:907;12:22:51:899;1448408330.45;(0, 0);0;0;;;;;;;;;;;;;;0;0;0;0;0;0;0;0;0;();(-2000.0, -2000.0);
12:22:51:940;12:22:51:899;1448408330.45;(0, 0);0;0;;;;;;;;;;;;;;0;0;0;0;0;0;0;0;0;();(-2000.0, -2000.0);
12:22:51:957;12:22:51:899;1448408330.45;(0, 0);0;0;;;;;;;;;;;;;;0;0;0;0;0;0;0;0;0;();(-2000.0, -2000.0);
12:22:51:974;12:22:51:965;1448408330.52;(0.7133362770080567, 0.7766359541151259);83.2632141113;0.959798166792;;;;;;;;;;;;;;0;0;0;0;0;0;0;0;0;();(-2000.0, -2000.0);
12:22:51:991;12:22:51:965;1448408330.52;(0.7133362770080567, 0.7766359541151259);83.2632141113;0.959798166792;;;;;;;;;;;;;;0;0;0;0;0;0;0;0;0;();(-2000.0, -2000.0);
12:22:52:006;12:22:51:965;1448408330.52;(0.7133362770080567, 0.7766359541151259);83.2632141113;0.959798166792;;;;;;;;;;;;;;0;0;0;0;0;0;0;0;0;();(-2000.0, -2000.0);
12:22:52:039;12:22:52:026;1448408330.58;(0.7123147964477539, 0.778662469651964);83.2532806396;0.80950636643;;;;;;;;;;;;;;0;0;0;0;0;0;0;0;0;();(-2000.0, -2000.0);
12:22:52:056;12:22:52:026;1448408330.58;(0.7123147964477539, 0.778662469651964);83.2532806396;0.80950636643;;;;;;;;;;;;;;0;0;0;0;0;0;0;0;0;();(-2000.0, -2000.0);
12:22:52:073;12:22:52:026;1448408330.58;(0.7123147964477539, 0.778662469651964);83.2532806396;0.80950636643;;;;;;;;;;;;;;0;0;0;0;0;0;0;0;0;();(-2000.0, -2000.0);
12:22:52:090;12:22:52:026;1448408330.58;(0.7123147964477539, 0.778662469651964);83.2532806396;0.80950636643;;;;;;;;;;;;;;0;0;0;0;0;0;0;0;0;();(-2000.0, -2000.0);
12:22:52:107;12:22:52:026;1448408330.58;(0.7123147964477539, 0.778662469651964);83.2532806396;0.80950636643;;;;;;;;;;;;;;0;0;0;0;0;0;0;0;0;();(-2000.0, -2000.0);
12:22:52:139;12:22:52:026;1448408330.58;(0.7123147964477539, 0.778662469651964);83.2532806396;0.80950636643;;;;;;;;;;;;;;0;0;0;0;0;0;0;0;0;();(-2000.0, -2000.0);
12:22:52:162;12:22:52:160;1448408330.73;(0.708914852142334, 0.7829658508300781);80.9840011597;0.794715721602;;;;;;;;;;;;;;0;0;0;0;0;0;0;0;0;();(-2000.0, -2000.0);
12:22:52:173;12:22:52:160;1448408330.73;(0.708914852142334, 0.7829658508300781);80.9840011597;0.794715721602;;;;;;;;;;;;;;0;0;0;0;0;0;0;0;0;();(-2000.0, -2000.0);
12:22:52:190;12:22:52:160;1448408330.73;(0.708914852142334, 0.7829658508300781);80.9840011597;0.794715721602;;;;;;;;;;;;;;0;0;0;0;0;0;0;0;0;();(-2000.0, -2000.0);
12:22:52:207;12:22:52:160;1448408330.73;(0.708914852142334, 0.7829658508300781);80.9840011597;0.794715721602;;;;;;;;;;;;;;0;0;0;0;0;0;0;0;0;();(-2000.0, -2000.0);
12:22:52:241;12:22:52:227;1448408330.78;(0.7065558910369873, 0.7847904841105143);80.0012435913;0.892362801193;;;;;;;;;;;;;;0;0;0;0;0;0;0;0;0;();(-2000.0, -2000.0);
12:22:52:258;12:22:52:227;1448408330.78;(0.7065558910369873, 0.7847904841105143);80.0012435913;0.892362801193;;;;;;;;;;;;;;0;0;0;0;0;0;0;0;0;();(-2000.0, -2000.0);
12:22:52:275;12:22:52:227;1448408330.78;(0.7065558910369873, 0.7847904841105143);80.0012435913;0.892362801193;;;;;;;;;;;;;;0;0;0;0;0;0;0;0;0;();(-2000.0, -2000.0);
12:22:52:291;12:22:52:227;1448408330.78;(0.7065558910369873, 0.7847904841105143);80.0012435913;0.892362801193;;;;;;;;;;;;;;0;0;0;0;0;0;0;0;0;();(-2000.0, -2000.0);
12:22:52:308;12:22:52:300;1448408330.85;(0.7345510482788086, 0.7622069464789496);79.0720291138;0.929576029001;;;;;;;;;;;;;;0;0;0;0;0;0;0;0;0;();(-2000.0, -2000.0);
12:22:52:341;12:22:52:300;1448408330.85;(0.7345510482788086, 0.7622069464789496);79.0720291138;0.929576029001;;;;;;;;;;;;;;0;0;0;0;0;0;0;0;0;();(-2000.0, -2000.0);
12:22:52:357;12:22:52:300;1448408330.85;(0.7345510482788086, 0.7622069464789496);79.0720291138;0.929576029001;;;;;;;;;;;;;;0;0;0;0;0;0;0;0;0;();(-2000.0, -2000.0);
12:22:52:374;12:22:52:300;1448408330.85;(0.7345510482788086, 0.7622069464789496);79.0720291138;0.929576029001;;;;;;;;;;;;;;0;0;0;0;0;0;0;0;0;();(-2000.0, -2000.0);
12:22:52:389;12:22:52:300;1448408330.85;(0.7345510482788086, 0.7622069464789496);79.0720291138;0.929576029001;;;;;;;;;;;;;;0;0;0;0;0;0;0;0;0;();(-2000.0, -2000.0);
12:22:52:406;12:22:52:300;1448408330.85;(0.7345510482788086, 0.7622069464789496);79.0720291138;0.929576029001;;;;;;;;;;;;;;0;0;0;0;0;0;0;0;0;();(-2000.0, -2000.0);
12:22:52:440;12:22:52:300;1448408330.85;(0.7345510482788086, 0.7622069464789496);79.0720291138;0.929576029001;;;;;;;;;;;;;;0;0;0;0;0;0;0;0;0;();(-2000.0, -2000.0);
12:22:52:456;12:22:52:447;1448408330.98;(0.7283669471740722, 0.7670566134982639);79.7053756714;0.883593557644;;;;;;;;;;;;;;0;0;0;0;0;0;0;0;0;();(-2000.0, -2000.0);
12:22:52:473;12:22:52:447;1448408330.98;(0.7283669471740722, 0.7670566134982639);79.7053756714;0.883593557644;;;;;;;;;;;;;;0;0;0;0;0;0;0;0;0;();(-2000.0, -2000.0);
12:22:52:491;12:22:52:490;1448408331.05;(0.7227404117584229, 0.7683229658338759);82.1536636353;0.706651033028;;;;;;;;;;;;;;0;0;0;0;0;0;0;0;0;();(-2000.0, -2000.0);
12:22:52:507;12:22:52:490;1448408331.05;(0.7227404117584229, 0.7683229658338759);82.1536636353;0.706651033028;;;;;;;;;;;;;;0;0;0;0;0;0;0;0;0;();(-2000.0, -2000.0);
12:22:52:540;12:22:52:490;1448408331.05;(0.7227404117584229, 0.7683229658338759);82.1536636353;0.706651033028;;;;;;;;;;;;;;0;0;0;0;0;0;0;0;0;();(-2000.0, -2000.0);
12:22:52:556;12:22:52:490;1448408331.05;(0.7227404117584229, 0.7683229658338759);82.1536636353;0.706651033028;;;;;;;;;;;;;;0;0;0;0;0;0;0;0;0;();(-2000.0, -2000.0);
12:22:52:573;12:22:52:558;1448408331.12;(0.7227604866027832, 0.7722156312730577);80.3565597534;0.814901116054;;;;;;;;;;;;;;0;0;0;0;0;0;0;0;0;();(-2000.0, -2000.0);
12:22:52:590;12:22:52:558;1448408331.12;(0.7227604866027832, 0.7722156312730577);80.3565597534;0.814901116054;;;;;;;;;;;;;;0;0;0;0;0;0;0;0;0;();(-2000.0, -2000.0);
12:22:52:607;12:22:52:558;1448408331.12;(0.7227604866027832, 0.7722156312730577);80.3565597534;0.814901116054;;;;;;;;;;;;;;0;0;0;0;0;0;0;0;0;();(-2000.0, -2000.0);
12:22:52:642;12:22:52:626;1448408331.18;(0.7190308570861816, 0.7730231602986654);81.1217498779;0.674872423921;;;;;;;;;;;;;;0;0;0;0;0;0;0;0;0;();(-2000.0, -2000.0);
12:22:52:658;12:22:52:626;1448408331.18;(0.7190308570861816, 0.7730231602986654);81.1217498779;0.674872423921;;;;;;;;;;;;;;0;0;0;0;0;0;0;0;0;();(-2000.0, -2000.0);
12:22:52:674;12:22:52:626;1448408331.18;(0.7190308570861816, 0.7730231602986654);81.1217498779;0.674872423921;;;;;;;;;;;;;;0;0;0;0;0;0;0;0;0;();(-2000.0, -2000.0);
12:22:52:690;12:22:52:626;1448408331.18;(0.7190308570861816, 0.7730231602986654);81.1217498779;0.674872423921;;;;;;;;;;;;;;0;0;0;0;0;0;0;0;0;();(-2000.0, -2000.0);
12:22:52:707;12:22:52:626;1448408331.18;(0.7190308570861816, 0.7730231602986654);81.1217498779;0.674872423921;;;;;;;;;;;;;;0;0;0;0;0;0;0;0;0;();(-2000.0, -2000.0);
12:22:52:740;12:22:52:626;1448408331.18;(0.7190308570861816, 0.7730231602986654);81.1217498779;0.674872423921;;;;;;;;;;;;;;0;0;0;0;0;0;0;0;0;();(-2000.0, -2000.0);
12:22:52:757;12:22:52:626;1448408331.18;(0.7190308570861816, 0.7730231602986654);81.1217498779;0.674872423921;;;;;;;;;;;;;;0;0;0;0;0;0;0;0;0;();(-2000.0, -2000.0);
12:22:52:774;12:22:52:626;1448408331.18;(0.7190308570861816, 0.7730231602986654);81.1217498779;0.674872423921;;;;;;;;;;;;;;0;0;0;0;0;0;0;0;0;();(-2000.0, -2000.0);
12:22:52:790;12:22:52:788;1448408331.32;(0.7148318767547608, 0.7748511208428277);82.046836853;0.929362587968;;;;;;;;;;;;;;0;0;0;0;0;0;0;0;0;();(-2000.0, -2000.0);
12:22:52:807;12:22:52:788;1448408331.32;(0.7148318767547608, 0.7748511208428277);82.046836853;0.929362587968;;;;;;;;;;;;;;0;0;0;0;0;0;0;0;0;();(-2000.0, -2000.0);
12:22:52:840;12:22:52:822;1448408331.38;(0.7558677196502686, 0.7263413111368815);82.3965454102;0.90508943793;;;;;;;;;;;;;;0;0;0;0;0;0;0;0;0;();(-2000.0, -2000.0);
12:22:52:858;12:22:52:822;1448408331.38;(0.7558677196502686, 0.7263413111368815);82.3965454102;0.90508943793;;;;;;;;;;;;;;0;0;0;0;0;0;0;0;0;();(-2000.0, -2000.0);
12:22:52:875;12:22:52:822;1448408331.38;(0.7558677196502686, 0.7263413111368815);82.3965454102;0.90508943793;;;;;;;;;;;;;;0;0;0;0;0;0;0;0;0;();(-2000.0, -2000.0);
12:22:52:892;12:22:52:888;1448408331.42;(0.755382490158081, 0.7276144875420465);82.7800216675;0.879473699121;;;;;;;;;;;;;;0;0;0;0;0;0;0;0;0;();(-2000.0, -2000.0);
12:22:52:908;12:22:52:891;1448408331.45;(0.7543143272399903, 0.7288665771484375);82.6406784058;0.845962588446;;;;;;;;;;;;;;0;0;0;0;0;0;0;0;0;();(-2000.0, -2000.0);
12:22:52:941;12:22:52:891;1448408331.45;(0.7543143272399903, 0.7288665771484375);82.6406784058;0.845962588446;;;;;;;;;;;;;;0;0;0;0;0;0;0;0;0;();(-2000.0, -2000.0);
12:22:52:960;12:22:52:956;1448408331.48;(0.7514400482177734, 0.7320531845092774);82.5940933228;0.929707401495;;;;;;;;;;;;;;0;0;0;0;0;0;0;0;0;();(-2000.0, -2000.0);
12:22:52:974;12:22:52:959;1448408331.52;(0.7481779098510742, 0.7352046542697482);83.0896606445;0.874734300457;;;;;;;;;;;;;;0;0;0;0;0;0;0;0;0;();(-2000.0, -2000.0);
12:22:52:991;12:22:52:959;1448408331.52;(0.7481779098510742, 0.7352046542697482);83.0896606445;0.874734300457;;;;;;;;;;;;;;0;0;0;0;0;0;0;0;0;();(-2000.0, -2000.0);
12:22:53:007;12:22:52:959;1448408331.52;(0.7481779098510742, 0.7352046542697482);83.0896606445;0.874734300457;;;;;;;;;;;;;;0;0;0;0;0;0;0;0;0;();(-2000.0, -2000.0);
12:22:53:041;12:22:52:959;1448408331.52;(0.7481779098510742, 0.7352046542697482);83.0896606445;0.874734300457;;;;;;;;;;;;;;0;0;0;0;0;0;0;0;0;();(-2000.0, -2000.0);
12:22:53:058;12:22:52:959;1448408331.52;(0.7481779098510742, 0.7352046542697482);83.0896606445;0.874734300457;;;;;;;;;;;;;;0;0;0;0;0;0;0;0;0;();(-2000.0, -2000.0);
12:22:53:075;12:22:52:959;1448408331.52;(0.7481779098510742, 0.7352046542697482);83.0896606445;0.874734300457;;;;;;;;;;;;;;0;0;0;0;0;0;0;0;0;();(-2000.0, -2000.0);
12:22:53:091;12:22:52:959;1448408331.52;(0.7481779098510742, 0.7352046542697482);83.0896606445;0.874734300457;;;;;;;;;;;;;;0;0;0;0;0;0;0;0;0;();(-2000.0, -2000.0);
12:22:53:107;12:22:52:959;1448408331.52;(0.7481779098510742, 0.7352046542697482);83.0896606445;0.874734300457;;;;;;;;;;;;;;0;0;0;0;0;0;0;0;0;();(-2000.0, -2000.0);
12:22:53:140;12:22:53:133;1448408331.65;(0.9262509346008301, 0.4936656528049045);18.5773277283;0.738867507374;;;;;;;;;;;;;;0;0;0;0;0;0;0;0;0;();(-2000.0, -2000.0);
12:22:53:157;12:22:53:153;1448408331.72;(0.7623805999755859, 0.7185299343532986);70.5411529541;0.637783569344;;;;;;;;;;;;;;0;0;0;0;0;0;0;0;0;();(-2000.0, -2000.0);
12:22:53:174;12:22:53:153;1448408331.72;(0.7623805999755859, 0.7185299343532986);70.5411529541;0.637783569344;;;;;;;;;;;;;;0;0;0;0;0;0;0;0;0;();(-2000.0, -2000.0);
12:22:53:191;12:22:53:153;1448408331.72;(0.7623805999755859, 0.7185299343532986);70.5411529541;0.637783569344;;;;;;;;;;;;;;0;0;0;0;0;0;0;0;0;();(-2000.0, -2000.0);
12:22:53:207;12:22:53:153;1448408331.72;(0.7623805999755859, 0.7185299343532986);70.5411529541;0.637783569344;;;;;;;;;;;;;;0;0;0;0;0;0;0;0;0;();(-2000.0, -2000.0);
12:22:53:241;12:22:53:220;1448408331.75;(0.40183818340301514, 0.8096963670518663);38.3492660522;0.673139061978;;;;;;;;;;;;;;0;0;0;0;0;0;0;0;0;();(-2000.0, -2000.0);
12:22:53:258;12:22:53:220;1448408331.75;(0.40183818340301514, 0.8096963670518663);38.3492660522;0.673139061978;;;;;;;;;;;;;;0;0;0;0;0;0;0;0;0;();(-2000.0, -2000.0);
12:22:53:274;12:22:53:220;1448408331.75;(0.40183818340301514, 0.8096963670518663);38.3492660522;0.673139061978;;;;;;;;;;;;;;0;0;0;0;0;0;0;0;0;();(-2000.0, -2000.0);
12:22:53:292;12:22:53:290;1448408331.85;(0.7561087608337402, 0.734303601582845);82.1434173584;0.845981354468;;;;;;;;;;;;;;0;0;0;0;0;0;0;0;0;();(-2000.0, -2000.0);
12:22:53:307;12:22:53:290;1448408331.85;(0.7561087608337402, 0.734303601582845);82.1434173584;0.845981354468;;;;;;;;;;;;;;0;0;0;0;0;0;0;0;0;();(-2000.0, -2000.0);
12:22:53:341;12:22:53:290;1448408331.85;(0.7561087608337402, 0.734303601582845);82.1434173584;0.845981354468;;;;;;;;;;;;;;0;0;0;0;0;0;0;0;0;();(-2000.0, -2000.0);
12:22:53:357;12:22:53:290;1448408331.85;(0.7561087608337402, 0.734303601582845);82.1434173584;0.845981354468;;;;;;;;;;;;;;0;0;0;0;0;0;0;0;0;();(-2000.0, -2000.0);
12:22:53:374;12:22:53:290;1448408331.85;(0.7561087608337402, 0.734303601582845);82.1434173584;0.845981354468;;;;;;;;;;;;;;0;0;0;0;0;0;0;0;0;();(-2000.0, -2000.0);
12:22:53:391;12:22:53:290;1448408331.85;(0.7561087608337402, 0.734303601582845);82.1434173584;0.845981354468;;;;;;;;;;;;;;0;0;0;0;0;0;0;0;0;();(-2000.0, -2000.0);
12:22:53:407;12:22:53:290;1448408331.85;(0.7561087608337402, 0.734303601582845);82.1434173584;0.845981354468;;;;;;;;;;;;;;0;0;0;0;0;0;0;0;0;();(-2000.0, -2000.0);
12:22:53:441;12:22:53:290;1448408331.85;(0.7561087608337402, 0.734303601582845);82.1434173584;0.845981354468;;;;;;;;;;;;;;0;0;0;0;0;0;0;0;0;();(-2000.0, -2000.0);
12:22:53:457;12:22:53:290;1448408331.85;(0.7561087608337402, 0.734303601582845);82.1434173584;0.845981354468;;;;;;;;;;;;;;0;0;0;0;0;0;0;0;0;();(-2000.0, -2000.0);
12:22:53:474;12:22:53:469;1448408331.98;(0.7486559867858886, 0.7377726025051541);81.4096755981;0.854740731828;;;;;;;;;;;;;;0;0;0;0;0;0;0;0;0;();(-2000.0, -2000.0);
12:22:53:491;12:22:53:469;1448408331.98;(0.7486559867858886, 0.7377726025051541);81.4096755981;0.854740731828;;;;;;;;;;;;;;0;0;0;0;0;0;0;0;0;();(-2000.0, -2000.0);
12:22:53:507;12:22:53:499;1448408332.02;(0.7467134952545166, 0.7400061289469402);82.0491256714;1.0;;;;;;;;;;;;;;0;0;0;0;0;0;0;0;0;();(-2000.0, -2000.0);
12:22:53:541;12:22:53:499;1448408332.02;(0.7467134952545166, 0.7400061289469402);82.0491256714;1.0;;;;;;;;;;;;;;0;0;0;0;0;0;0;0;0;();(-2000.0, -2000.0);
12:22:53:558;12:22:53:555;1448408332.12;(0.9480539321899414, 0.7935958014594184);23.1650333405;0.702744376716;;;;;;;;;;;;;;0;0;0;0;0;0;0;0;0;();(-2000.0, -2000.0);
12:22:53:574;12:22:53:555;1448408332.12;(0.9480539321899414, 0.7935958014594184);23.1650333405;0.702744376716;;;;;;;;;;;;;;0;0;0;0;0;0;0;0;0;();(-2000.0, -2000.0);
12:22:53:591;12:22:53:555;1448408332.12;(0.9480539321899414, 0.7935958014594184);23.1650333405;0.702744376716;;;;;;;;;;;;;;0;0;0;0;0;0;0;0;0;();(-2000.0, -2000.0);
12:22:53:607;12:22:53:555;1448408332.12;(0.9480539321899414, 0.7935958014594184);23.1650333405;0.702744376716;;;;;;;;;;;;;;0;0;0;0;0;0;0;0;0;();(-2000.0, -2000.0);
12:22:53:641;12:22:53:622;1448408332.18;(0.746454381942749, 0.746699587504069);85.4428787231;0.846908146301;;;;;;;;;;;;;;0;0;0;0;0;0;0;0;0;();(-2000.0, -2000.0);
12:22:53:657;12:22:53:622;1448408332.18;(0.746454381942749, 0.746699587504069);85.4428787231;0.846908146301;;;;;;;;;;;;;;0;0;0;0;0;0;0;0;0;();(-2000.0, -2000.0);
12:22:53:674;12:22:53:622;1448408332.18;(0.746454381942749, 0.746699587504069);85.4428787231;0.846908146301;;;;;;;;;;;;;;0;0;0;0;0;0;0;0;0;();(-2000.0, -2000.0);
12:22:53:690;12:22:53:684;1448408332.22;(0.7636901378631592, 0.7425972196790906);83.9680862427;0.981163743302;;;;;;;;;;;;;;0;0;0;0;0;0;0;0;0;();(-2000.0, -2000.0);
12:22:53:707;12:22:53:684;1448408332.22;(0.7636901378631592, 0.7425972196790906);83.9680862427;0.981163743302;;;;;;;;;;;;;;0;0;0;0;0;0;0;0;0;();(-2000.0, -2000.0);
12:22:53:741;12:22:53:684;1448408332.22;(0.7636901378631592, 0.7425972196790906);83.9680862427;0.981163743302;;;;;;;;;;;;;;0;0;0;0;0;0;0;0;0;();(-2000.0, -2000.0);
12:22:53:758;12:22:53:753;1448408332.32;(0.7587583541870118, 0.7478842629326714);83.7440490723;0.980031813861;;;;;;;;;;;;;;0;0;0;0;0;0;0;0;0;();(-2000.0, -2000.0);
12:22:53:775;12:22:53:753;1448408332.32;(0.7587583541870118, 0.7478842629326714);83.7440490723;0.980031813861;;;;;;;;;;;;;;0;0;0;0;0;0;0;0;0;();(-2000.0, -2000.0);
12:22:53:791;12:22:53:753;1448408332.32;(0.7587583541870118, 0.7478842629326714);83.7440490723;0.980031813861;;;;;;;;;;;;;;0;0;0;0;0;0;0;0;0;();(-2000.0, -2000.0);
12:22:53:807;12:22:53:753;1448408332.32;(0.7587583541870118, 0.7478842629326714);83.7440490723;0.980031813861;;;;;;;;;;;;;;0;0;0;0;0;0;0;0;0;();(-2000.0, -2000.0);
12:22:53:841;12:22:53:817;1448408332.38;(0.7544522285461426, 0.7507014168633355);84.8514251709;0.854358835446;;;;;;;;;;;;;;0;0;0;0;0;0;0;0;0;();(-2000.0, -2000.0);
12:22:53:857;12:22:53:817;1448408332.38;(0.7544522285461426, 0.7507014168633355);84.8514251709;0.854358835446;;;;;;;;;;;;;;0;0;0;0;0;0;0;0;0;();(-2000.0, -2000.0);
12:22:53:875;12:22:53:817;1448408332.38;(0.7544522285461426, 0.7507014168633355);84.8514251709;0.854358835446;;;;;;;;;;;;;;0;0;0;0;0;0;0;0;0;();(-2000.0, -2000.0);
12:22:53:891;12:22:53:885;1448408332.45;(0, 0);0;0;;;;;;;;;;;;;;0;0;0;0;0;0;0;0;0;();(-2000.0, -2000.0);
12:22:53:907;12:22:53:885;1448408332.45;(0, 0);0;0;;;;;;;;;;;;;;0;0;0;0;0;0;0;0;0;();(-2000.0, -2000.0);
12:22:53:941;12:22:53:885;1448408332.45;(0, 0);0;0;;;;;;;;;;;;;;0;0;0;0;0;0;0;0;0;();(-2000.0, -2000.0);
12:22:53:958;12:22:53:953;1448408332.52;(0.7834368228912354, 0.7494116889105903);84.0054779053;0.913815756131;;;;;;;;;;;;;;0;0;0;0;0;0;0;0;0;();(-2000.0, -2000.0);
12:22:53:974;12:22:53:953;1448408332.52;(0.7834368228912354, 0.7494116889105903);84.0054779053;0.913815756131;;;;;;;;;;;;;;0;0;0;0;0;0;0;0;0;();(-2000.0, -2000.0);
12:22:53:991;12:22:53:953;1448408332.52;(0.7834368228912354, 0.7494116889105903);84.0054779053;0.913815756131;;;;;;;;;;;;;;0;0;0;0;0;0;0;0;0;();(-2000.0, -2000.0);
12:22:54:008;12:22:53:953;1448408332.52;(0.7834368228912354, 0.7494116889105903);84.0054779053;0.913815756131;;;;;;;;;;;;;;0;0;0;0;0;0;0;0;0;();(-2000.0, -2000.0);
12:22:54:042;12:22:54:017;1448408332.58;(0.7760294914245606, 0.7554474512736002);84.6537857056;0.900532360068;;;;;;;;;;;;;;0;0;0;0;0;0;0;0;0;();(-2000.0, -2000.0);
12:22:54:058;12:22:54:017;1448408332.58;(0.7760294914245606, 0.7554474512736002);84.6537857056;0.900532360068;;;;;;;;;;;;;;0;0;0;0;0;0;0;0;0;();(-2000.0, -2000.0);
12:22:54:074;12:22:54:017;1448408332.58;(0.7760294914245606, 0.7554474512736002);84.6537857056;0.900532360068;;;;;;;;;;;;;;0;0;0;0;0;0;0;0;0;();(-2000.0, -2000.0);
12:22:54:091;12:22:54:017;1448408332.58;(0.7760294914245606, 0.7554474512736002);84.6537857056;0.900532360068;;;;;;;;;;;;;;0;0;0;0;0;0;0;0;0;();(-2000.0, -2000.0);
12:22:54:108;12:22:54:093;1448408332.65;(0.7690564155578613, 0.7595113330417209);85.2049484253;1.0;;;;;;;;;;;;;;0;0;0;0;0;0;0;0;0;();(-2000.0, -2000.0);
12:22:54:142;12:22:54:093;1448408332.65;(0.7690564155578613, 0.7595113330417209);85.2049484253;1.0;;;;;;;;;;;;;;0;0;0;0;0;0;0;0;0;();(-2000.0, -2000.0);
12:22:54:159;12:22:54:151;1448408332.72;(0.7634581089019775, 0.7665964762369791);85.7463989258;0.949360391912;;;;;;;;;;;;;;0;0;0;0;0;0;0;0;0;();(-2000.0, -2000.0);
12:22:54:176;12:22:54:151;1448408332.72;(0.7634581089019775, 0.7665964762369791);85.7463989258;0.949360391912;;;;;;;;;;;;;;0;0;0;0;0;0;0;0;0;();(-2000.0, -2000.0);
12:22:54:193;12:22:54:151;1448408332.72;(0.7634581089019775, 0.7665964762369791);85.7463989258;0.949360391912;;;;;;;;;;;;;;0;0;0;0;0;0;0;0;0;();(-2000.0, -2000.0);
12:22:54:208;12:22:54:151;1448408332.72;(0.7634581089019775, 0.7665964762369791);85.7463989258;0.949360391912;;;;;;;;;;;;;;0;0;0;0;0;0;0;0;0;();(-2000.0, -2000.0);
12:22:54:241;12:22:54:217;1448408332.78;(0.7594973087310791, 0.7687167697482639);85.9932098389;0.940856549478;;;;;;;;;;;;;;0;0;0;0;0;0;0;0;0;();(-2000.0, -2000.0);
12:22:54:258;12:22:54:217;1448408332.78;(0.7594973087310791, 0.7687167697482639);85.9932098389;0.940856549478;;;;;;;;;;;;;;0;0;0;0;0;0;0;0;0;();(-2000.0, -2000.0);
12:22:54:275;12:22:54:217;1448408332.78;(0.7594973087310791, 0.7687167697482639);85.9932098389;0.940856549478;;;;;;;;;;;;;;0;0;0;0;0;0;0;0;0;();(-2000.0, -2000.0);
12:22:54:291;12:22:54:281;1448408332.85;(0.7570063591003418, 0.7697015550401476);85.941947937;0.849729210183;;;;;;;;;;;;;;0;0;0;0;0;0;0;0;0;();(-2000.0, -2000.0);
12:22:54:308;12:22:54:281;1448408332.85;(0.7570063591003418, 0.7697015550401476);85.941947937;0.849729210183;;;;;;;;;;;;;;0;0;0;0;0;0;0;0;0;();(-2000.0, -2000.0);
12:22:54:342;12:22:54:281;1448408332.85;(0.7570063591003418, 0.7697015550401476);85.941947937;0.849729210183;;;;;;;;;;;;;;0;0;0;0;0;0;0;0;0;();(-2000.0, -2000.0);
12:22:54:359;12:22:54:349;1448408332.92;(0.7711335182189941, 0.757556766933865);85.3890151978;0.813796286123;;;;;;;;;;;;;;0;0;0;0;0;0;0;0;0;();(-2000.0, -2000.0);
12:22:54:376;12:22:54:349;1448408332.92;(0.7711335182189941, 0.757556766933865);85.3890151978;0.813796286123;;;;;;;;;;;;;;0;0;0;0;0;0;0;0;0;();(-2000.0, -2000.0);
12:22:54:392;12:22:54:349;1448408332.92;(0.7711335182189941, 0.757556766933865);85.3890151978;0.813796286123;;;;;;;;;;;;;;0;0;0;0;0;0;0;0;0;();(-2000.0, -2000.0);
12:22:54:408;12:22:54:349;1448408332.92;(0.7711335182189941, 0.757556766933865);85.3890151978;0.813796286123;;;;;;;;;;;;;;0;0;0;0;0;0;0;0;0;();(-2000.0, -2000.0);
12:22:54:442;12:22:54:417;1448408332.98;(0.7808391571044921, 0.7576233334011502);87.5802001953;0.829088703543;;;;;;;;;;;;;;0;0;0;0;0;0;0;0;0;();(-2000.0, -2000.0);
12:22:54:458;12:22:54:417;1448408332.98;(0.7808391571044921, 0.7576233334011502);87.5802001953;0.829088703543;;;;;;;;;;;;;;0;0;0;0;0;0;0;0;0;();(-2000.0, -2000.0);
12:22:54:475;12:22:54:417;1448408332.98;(0.7808391571044921, 0.7576233334011502);87.5802001953;0.829088703543;;;;;;;;;;;;;;0;0;0;0;0;0;0;0;0;();(-2000.0, -2000.0);
12:22:54:492;12:22:54:481;1448408333.05;(0.7745512008666993, 0.7619153128729926);87.7342224121;0.628522664419;;;;;;;;;;;;;;0;0;0;0;0;0;0;0;0;();(-2000.0, -2000.0);
12:22:54:508;12:22:54:481;1448408333.05;(0.7745512008666993, 0.7619153128729926);87.7342224121;0.628522664419;;;;;;;;;;;;;;0;0;0;0;0;0;0;0;0;();(-2000.0, -2000.0);
12:22:54:542;12:22:54:481;1448408333.05;(0.7745512008666993, 0.7619153128729926);87.7342224121;0.628522664419;;;;;;;;;;;;;;0;0;0;0;0;0;0;0;0;();(-2000.0, -2000.0);
12:22:54:558;12:22:54:549;1448408333.12;(0.7726726531982422, 0.760484864976671);87.1312484741;1.0;;;;;;;;;;;;;;0;0;0;0;0;0;0;0;0;();(-2000.0, -2000.0);
12:22:54:575;12:22:54:549;1448408333.12;(0.7726726531982422, 0.760484864976671);87.1312484741;1.0;;;;;;;;;;;;;;0;0;0;0;0;0;0;0;0;();(-2000.0, -2000.0);
12:22:54:592;12:22:54:549;1448408333.12;(0.7726726531982422, 0.760484864976671);87.1312484741;1.0;;;;;;;;;;;;;;0;0;0;0;0;0;0;0;0;();(-2000.0, -2000.0);
12:22:54:609;12:22:54:549;1448408333.12;(0.7726726531982422, 0.760484864976671);87.1312484741;1.0;;;;;;;;;;;;;;0;0;0;0;0;0;0;0;0;();(-2000.0, -2000.0);
12:22:54:626;12:22:54:614;1448408333.18;(0.7688321590423584, 0.7620610343085394);87.9127655029;0.911170610994;;;;;;;;;;;;;;0;0;0;0;0;0;0;0;0;();(-2000.0, -2000.0);
12:22:54:659;12:22:54:614;1448408333.18;(0.7688321590423584, 0.7620610343085394);87.9127655029;0.911170610994;;;;;;;;;;;;;;0;0;0;0;0;0;0;0;0;();(-2000.0, -2000.0);
12:22:54:675;12:22:54:614;1448408333.18;(0.7688321590423584, 0.7620610343085394);87.9127655029;0.911170610994;;;;;;;;;;;;;;0;0;0;0;0;0;0;0;0;();(-2000.0, -2000.0);
12:22:54:693;12:22:54:681;1448408333.25;(0, 0);0;0;;;;;;;;;;;;;;0;0;0;0;0;0;0;0;0;();(-2000.0, -2000.0);
12:22:54:708;12:22:54:681;1448408333.25;(0, 0);0;0;;;;;;;;;;;;;;0;0;0;0;0;0;0;0;0;();(-2000.0, -2000.0);
12:22:54:742;12:22:54:681;1448408333.25;(0, 0);0;0;;;;;;;;;;;;;;0;0;0;0;0;0;0;0;0;();(-2000.0, -2000.0);
12:22:54:759;12:22:54:750;1448408333.32;(0, 0);0;0;;;;;;;;;;;;;;0;0;0;0;0;0;0;0;0;();(-2000.0, -2000.0);
12:22:54:775;12:22:54:750;1448408333.32;(0, 0);0;0;;;;;;;;;;;;;;0;0;0;0;0;0;0;0;0;();(-2000.0, -2000.0);
12:22:54:792;12:22:54:750;1448408333.32;(0, 0);0;0;;;;;;;;;;;;;;0;0;0;0;0;0;0;0;0;();(-2000.0, -2000.0);
12:22:54:809;12:22:54:750;1448408333.32;(0, 0);0;0;;;;;;;;;;;;;;0;0;0;0;0;0;0;0;0;();(-2000.0, -2000.0);
12:22:54:844;12:22:54:812;1448408333.35;(0.7223044872283936, 0.846415646870931);27.1881961823;0.710891758327;;;;;;;;;;;;;;0;0;0;0;0;0;0;0;0;();(-2000.0, -2000.0);
12:22:54:860;12:22:54:812;1448408333.35;(0.7223044872283936, 0.846415646870931);27.1881961823;0.710891758327;;;;;;;;;;;;;;0;0;0;0;0;0;0;0;0;();(-2000.0, -2000.0);
12:22:54:877;12:22:54:812;1448408333.35;(0.7223044872283936, 0.846415646870931);27.1881961823;0.710891758327;;;;;;;;;;;;;;0;0;0;0;0;0;0;0;0;();(-2000.0, -2000.0);
12:22:54:892;12:22:54:887;1448408333.45;(0.7628028392791748, 0.7536319096883138);88.1976852417;1.0;;;;;;;;;;;;;;0;0;0;0;0;0;0;0;0;();(-2000.0, -2000.0);
12:22:54:909;12:22:54:887;1448408333.45;(0.7628028392791748, 0.7536319096883138);88.1976852417;1.0;;;;;;;;;;;;;;0;0;0;0;0;0;0;0;0;();(-2000.0, -2000.0);
12:22:54:925;12:22:54:887;1448408333.45;(0.7628028392791748, 0.7536319096883138);88.1976852417;1.0;;;;;;;;;;;;;;0;0;0;0;0;0;0;0;0;();(-2000.0, -2000.0);
12:22:54:959;12:22:54:946;1448408333.52;(0.7619836807250977, 0.7539694468180338);87.98097229;0.995118537876;;;;;;;;;;;;;;0;0;0;0;0;0;0;0;0;();(-2000.0, -2000.0);
12:22:54:976;12:22:54:946;1448408333.52;(0.7619836807250977, 0.7539694468180338);87.98097229;0.995118537876;;;;;;;;;;;;;;0;0;0;0;0;0;0;0;0;();(-2000.0, -2000.0);
12:22:54:993;12:22:54:946;1448408333.52;(0.7619836807250977, 0.7539694468180338);87.98097229;0.995118537876;;;;;;;;;;;;;;0;0;0;0;0;0;0;0;0;();(-2000.0, -2000.0);
12:22:55:009;12:22:54:946;1448408333.52;(0.7619836807250977, 0.7539694468180338);87.98097229;0.995118537876;;;;;;;;;;;;;;0;0;0;0;0;0;0;0;0;();(-2000.0, -2000.0);
12:22:55:026;12:22:55:014;1448408333.58;(0.7607559204101563, 0.7540785471598307);88.5013961792;0.875434513782;;;;;;;;;;;;;;0;0;0;0;0;0;0;0;0;();(-2000.0, -2000.0);
12:22:55:058;12:22:55:014;1448408333.58;(0.7607559204101563, 0.7540785471598307);88.5013961792;0.875434513782;;;;;;;;;;;;;;0;0;0;0;0;0;0;0;0;();(-2000.0, -2000.0);
12:22:55:077;12:22:55:014;1448408333.58;(0.7607559204101563, 0.7540785471598307);88.5013961792;0.875434513782;;;;;;;;;;;;;;0;0;0;0;0;0;0;0;0;();(-2000.0, -2000.0);
12:22:55:094;12:22:55:086;1448408333.65;(0.7576529026031494, 0.7554974026150174);88.3231506348;0.910796732743;;;;;;;;;;;;;;0;0;0;0;0;0;0;0;0;();(-2000.0, -2000.0);
12:22:55:110;12:22:55:086;1448408333.65;(0.7576529026031494, 0.7554974026150174);88.3231506348;0.910796732743;;;;;;;;;;;;;;0;0;0;0;0;0;0;0;0;();(-2000.0, -2000.0);
12:22:55:126;12:22:55:086;1448408333.65;(0.7576529026031494, 0.7554974026150174);88.3231506348;0.910796732743;;;;;;;;;;;;;;0;0;0;0;0;0;0;0;0;();(-2000.0, -2000.0);
12:22:55:160;12:22:55:145;1448408333.72;(0.756812858581543, 0.7566322326660156);87.8947982788;0.861598983295;;;;;;;;;;;;;;0;0;0;0;0;0;0;0;0;();(-2000.0, -2000.0);
12:22:55:176;12:22:55:145;1448408333.72;(0.756812858581543, 0.7566322326660156);87.8947982788;0.861598983295;;;;;;;;;;;;;;0;0;0;0;0;0;0;0;0;();(-2000.0, -2000.0);
12:22:55:192;12:22:55:145;1448408333.72;(0.756812858581543, 0.7566322326660156);87.8947982788;0.861598983295;;;;;;;;;;;;;;0;0;0;0;0;0;0;0;0;();(-2000.0, -2000.0);
12:22:55:209;12:22:55:145;1448408333.72;(0.756812858581543, 0.7566322326660156);87.8947982788;0.861598983295;;;;;;;;;;;;;;0;0;0;0;0;0;0;0;0;();(-2000.0, -2000.0);
12:22:55:225;12:22:55:214;1448408333.78;(0.756165599822998, 0.7606082492404513);89.9085845947;0.879737169723;;;;;;;;;;;;;;0;0;0;0;0;0;0;0;0;();(-2000.0, -2000.0);
12:22:55:259;12:22:55:214;1448408333.78;(0.756165599822998, 0.7606082492404513);89.9085845947;0.879737169723;;;;;;;;;;;;;;0;0;0;0;0;0;0;0;0;();(-2000.0, -2000.0);
12:22:55:275;12:22:55:214;1448408333.78;(0.756165599822998, 0.7606082492404513);89.9085845947;0.879737169723;;;;;;;;;;;;;;0;0;0;0;0;0;0;0;0;();(-2000.0, -2000.0);
12:22:55:292;12:22:55:277;1448408333.85;(0.7642556667327881, 0.7332448747422959);86.2506408691;0.799070004364;;;;;;;;;;;;;;0;0;0;0;0;0;0;0;0;();(-2000.0, -2000.0);
12:22:55:309;12:22:55:277;1448408333.85;(0.7642556667327881, 0.7332448747422959);86.2506408691;0.799070004364;;;;;;;;;;;;;;0;0;0;0;0;0;0;0;0;();(-2000.0, -2000.0);
12:22:55:326;12:22:55:277;1448408333.85;(0.7642556667327881, 0.7332448747422959);86.2506408691;0.799070004364;;;;;;;;;;;;;;0;0;0;0;0;0;0;0;0;();(-2000.0, -2000.0);
12:22:55:359;12:22:55:344;1448408333.88;(0.7632297515869141, 0.735829226175944);89.0854797363;0.808376653078;;;;;;;;;;;;;;0;0;0;0;0;0;0;0;0;();(-2000.0, -2000.0);
12:22:55:377;12:22:55:344;1448408333.88;(0.7632297515869141, 0.735829226175944);89.0854797363;0.808376653078;;;;;;;;;;;;;;0;0;0;0;0;0;0;0;0;();(-2000.0, -2000.0);
12:22:55:392;12:22:55:344;1448408333.88;(0.7632297515869141, 0.735829226175944);89.0854797363;0.808376653078;;;;;;;;;;;;;;0;0;0;0;0;0;0;0;0;();(-2000.0, -2000.0);
12:22:55:409;12:22:55:344;1448408333.88;(0.7632297515869141, 0.735829226175944);89.0854797363;0.808376653078;;;;;;;;;;;;;;0;0;0;0;0;0;0;0;0;();(-2000.0, -2000.0);
12:22:55:426;12:22:55:415;1448408333.98;(0.7629270076751709, 0.7368647893269857);89.4660186768;1.0;;;;;;;;;;;;;;0;0;0;0;0;0;0;0;0;();(-2000.0, -2000.0);
12:22:55:460;12:22:55:415;1448408333.98;(0.7629270076751709, 0.7368647893269857);89.4660186768;1.0;;;;;;;;;;;;;;0;0;0;0;0;0;0;0;0;();(-2000.0, -2000.0);
12:22:55:480;12:22:55:476;1448408334.02;(0.7630247116088867, 0.7374911202324761);89.3637619019;1.0;;;;;;;;;;;;;;0;0;0;0;0;0;0;0;0;();(-2000.0, -2000.0);
12:22:55:492;12:22:55:478;1448408334.05;(0.7629559516906739, 0.7379387113783095);89.8580856323;1.0;;;;;;;;;;;;;;0;0;0;0;0;0;0;0;0;();(-2000.0, -2000.0);
12:22:55:509;12:22:55:478;1448408334.05;(0.7629559516906739, 0.7379387113783095);89.8580856323;1.0;;;;;;;;;;;;;;0;0;0;0;0;0;0;0;0;();(-2000.0, -2000.0);
12:22:55:526;12:22:55:478;1448408334.05;(0.7629559516906739, 0.7379387113783095);89.8580856323;1.0;;;;;;;;;;;;;;0;0;0;0;0;0;0;0;0;();(-2000.0, -2000.0);
12:22:55:560;12:22:55:547;1448408334.12;(0.7627304553985595, 0.7381445354885525);89.7084197998;1.0;;;;;;;;;;;;;;0;0;0;0;0;0;0;0;0;();(-2000.0, -2000.0);
12:22:55:576;12:22:55:547;1448408334.12;(0.7627304553985595, 0.7381445354885525);89.7084197998;1.0;;;;;;;;;;;;;;0;0;0;0;0;0;0;0;0;();(-2000.0, -2000.0);
12:22:55:594;12:22:55:547;1448408334.12;(0.7627304553985595, 0.7381445354885525);89.7084197998;1.0;;;;;;;;;;;;;;0;0;0;0;0;0;0;0;0;();(-2000.0, -2000.0);
12:22:55:611;12:22:55:608;1448408334.15;(0.7625843048095703, 0.7383984883626302);89.7968139648;1.0;;;;;;;;;;;;;;0;0;0;0;0;0;0;0;0;();(-2000.0, -2000.0);
12:22:55:627;12:22:55:610;1448408334.18;(0.7629741191864013, 0.7389834933810764);89.8178634644;0.972233500031;;;;;;;;;;;;;;0;0;0;0;0;0;0;0;0;();(-2000.0, -2000.0);
12:22:55:660;12:22:55:610;1448408334.18;(0.7629741191864013, 0.7389834933810764);89.8178634644;0.972233500031;;;;;;;;;;;;;;0;0;0;0;0;0;0;0;0;();(-2000.0, -2000.0);
12:22:55:679;12:22:55:677;1448408334.25;(0.7596677303314209, 0.7785649193657769);89.8912658691;0.838775150179;;;;;;;;;;;;;;0;0;0;0;0;0;0;0;0;();(-2000.0, -2000.0);
12:22:55:693;12:22:55:677;1448408334.25;(0.7596677303314209, 0.7785649193657769);89.8912658691;0.838775150179;;;;;;;;;;;;;;0;0;0;0;0;0;0;0;0;();(-2000.0, -2000.0);
12:22:55:711;12:22:55:677;1448408334.25;(0.7596677303314209, 0.7785649193657769);89.8912658691;0.838775150179;;;;;;;;;;;;;;0;0;0;0;0;0;0;0;0;();(-2000.0, -2000.0);
12:22:55:727;12:22:55:677;1448408334.25;(0.7596677303314209, 0.7785649193657769);89.8912658691;0.838775150179;;;;;;;;;;;;;;0;0;0;0;0;0;0;0;0;();(-2000.0, -2000.0);
12:22:55:760;12:22:55:744;1448408334.28;(0.7606027126312256, 0.7756439208984375);90.2231521606;0.904398404898;;;;;;;;;;;;;;0;0;0;0;0;0;0;0;0;();(-2000.0, -2000.0);
12:22:55:777;12:22:55:744;1448408334.28;(0.7606027126312256, 0.7756439208984375);90.2231521606;0.904398404898;;;;;;;;;;;;;;0;0;0;0;0;0;0;0;0;();(-2000.0, -2000.0);
12:22:55:792;12:22:55:744;1448408334.28;(0.7606027126312256, 0.7756439208984375);90.2231521606;0.904398404898;;;;;;;;;;;;;;0;0;0;0;0;0;0;0;0;();(-2000.0, -2000.0);
12:22:55:810;12:22:55:808;1448408334.32;(0.7611071586608886, 0.7749063279893663);91.3146133423;0.896534070942;;;;;;;;;;;;;;0;0;0;0;0;0;0;0;0;();(-2000.0, -2000.0);
12:22:55:827;12:22:55:815;1448408334.38;(0.7613515853881836, 0.7746422661675347);90.6073455811;1.0;;;;;;;;;;;;;;0;0;0;0;0;0;0;0;0;();(-2000.0, -2000.0);
12:22:55:860;12:22:55:815;1448408334.38;(0.7613515853881836, 0.7746422661675347);90.6073455811;1.0;;;;;;;;;;;;;;0;0;0;0;0;0;0;0;0;();(-2000.0, -2000.0);
12:22:55:879;12:22:55:875;1448408334.42;(0.7612378120422363, 0.7752505620320638);90.1687088013;0.935232906085;;;;;;;;;;;;;;0;0;0;0;0;0;0;0;0;();(-2000.0, -2000.0);
12:22:55:894;12:22:55:878;1448408334.45;(0.7610188007354737, 0.7760716968112522);89.837272644;0.951837805759;;;;;;;;;;;;;;0;0;0;0;0;0;0;0;0;();(-2000.0, -2000.0);
12:22:55:909;12:22:55:878;1448408334.45;(0.7610188007354737, 0.7760716968112522);89.837272644;0.951837805759;;;;;;;;;;;;;;0;0;0;0;0;0;0;0;0;();(-2000.0, -2000.0);
12:22:55:926;12:22:55:878;1448408334.45;(0.7610188007354737, 0.7760716968112522);89.837272644;0.951837805759;;;;;;;;;;;;;;0;0;0;0;0;0;0;0;0;();(-2000.0, -2000.0);
12:22:55:960;12:22:55:941;1448408334.52;(0.7615716934204102, 0.7777472178141276);89.9050674438;0.985942677383;;;;;;;;;;;;;;0;0;0;0;0;0;0;0;0;();(-2000.0, -2000.0);
12:22:55:976;12:22:55:941;1448408334.52;(0.7615716934204102, 0.7777472178141276);89.9050674438;0.985942677383;;;;;;;;;;;;;;0;0;0;0;0;0;0;0;0;();(-2000.0, -2000.0);
12:22:55:993;12:22:55:941;1448408334.52;(0.7615716934204102, 0.7777472178141276);89.9050674438;0.985942677383;;;;;;;;;;;;;;0;0;0;0;0;0;0;0;0;();(-2000.0, -2000.0);
12:22:56:010;12:22:56:009;1448408334.58;(0.761659574508667, 0.7777031156751845);90.2336502075;0.985034857036;;;;;;;;;;;;;;0;0;0;0;0;0;0;0;0;();(-2000.0, -2000.0);
12:22:56:027;12:22:56:009;1448408334.58;(0.761659574508667, 0.7777031156751845);90.2336502075;0.985034857036;;;;;;;;;;;;;;0;0;0;0;0;0;0;0;0;();(-2000.0, -2000.0);
12:22:56:061;12:22:56:009;1448408334.58;(0.761659574508667, 0.7777031156751845);90.2336502075;0.985034857036;;;;;;;;;;;;;;0;0;0;0;0;0;0;0;0;();(-2000.0, -2000.0);
12:22:56:080;12:22:56:076;1448408334.62;(0.7617026805877686, 0.7770341449313694);90.5691757202;1.0;;;;;;;;;;;;;;0;0;0;0;0;0;0;0;0;();(-2000.0, -2000.0);
12:22:56:093;12:22:56:078;1448408334.65;(0.7609059810638428, 0.7768414815266927);90.1394119263;0.838272302726;;;;;;;;;;;;;;0;0;0;0;0;0;0;0;0;();(-2000.0, -2000.0);
12:22:56:110;12:22:56:078;1448408334.65;(0.7609059810638428, 0.7768414815266927);90.1394119263;0.838272302726;;;;;;;;;;;;;;0;0;0;0;0;0;0;0;0;();(-2000.0, -2000.0);
12:22:56:126;12:22:56:078;1448408334.65;(0.7609059810638428, 0.7768414815266927);90.1394119263;0.838272302726;;;;;;;;;;;;;;0;0;0;0;0;0;0;0;0;();(-2000.0, -2000.0);
12:22:56:160;12:22:56:141;1448408334.72;(0.7262568473815918, 0.7872617721557618);89.4901351929;0.853018108607;;;;;;;;;;;;;;0;0;0;0;0;0;0;0;0;();(-2000.0, -2000.0);
12:22:56:177;12:22:56:141;1448408334.72;(0.7262568473815918, 0.7872617721557618);89.4901351929;0.853018108607;;;;;;;;;;;;;;0;0;0;0;0;0;0;0;0;();(-2000.0, -2000.0);
12:22:56:194;12:22:56:141;1448408334.72;(0.7262568473815918, 0.7872617721557618);89.4901351929;0.853018108607;;;;;;;;;;;;;;0;0;0;0;0;0;0;0;0;();(-2000.0, -2000.0);
12:22:56:211;12:22:56:208;1448408334.75;(0.7269295692443848, 0.7882460912068685);91.1862640381;0.82647976745;;;;;;;;;;;;;;0;0;0;0;0;0;0;0;0;();(-2000.0, -2000.0);
12:22:56:227;12:22:56:212;1448408334.78;(0.726752758026123, 0.7876976648966472);90.5872421265;1.0;;;;;;;;;;;;;;0;0;0;0;0;0;0;0;0;();(-2000.0, -2000.0);
12:22:56:261;12:22:56:212;1448408334.78;(0.726752758026123, 0.7876976648966472);90.5872421265;1.0;;;;;;;;;;;;;;0;0;0;0;0;0;0;0;0;();(-2000.0, -2000.0);
12:22:56:280;12:22:56:276;1448408334.85;(0.7266390323638916, 0.786390897962782);90.9515609741;0.931443812635;;;;;;;;;;;;;;0;0;0;0;0;0;0;0;0;();(-2000.0, -2000.0);
12:22:56:294;12:22:56:276;1448408334.85;(0.7266390323638916, 0.786390897962782);90.9515609741;0.931443812635;;;;;;;;;;;;;;0;0;0;0;0;0;0;0;0;();(-2000.0, -2000.0);
12:22:56:311;12:22:56:276;1448408334.85;(0.7266390323638916, 0.786390897962782);90.9515609741;0.931443812635;;;;;;;;;;;;;;0;0;0;0;0;0;0;0;0;();(-2000.0, -2000.0);
12:22:56:327;12:22:56:276;1448408334.85;(0.7266390323638916, 0.786390897962782);90.9515609741;0.931443812635;;;;;;;;;;;;;;0;0;0;0;0;0;0;0;0;();(-2000.0, -2000.0);
12:22:56:360;12:22:56:341;1448408334.92;(0.7272913455963135, 0.7853933970133463);91.3414459229;0.898669800486;;;;;;;;;;;;;;0;0;0;0;0;0;0;0;0;();(-2000.0, -2000.0);
12:22:56:377;12:22:56:341;1448408334.92;(0.7272913455963135, 0.7853933970133463);91.3414459229;0.898669800486;;;;;;;;;;;;;;0;0;0;0;0;0;0;0;0;();(-2000.0, -2000.0);
12:22:56:393;12:22:56:341;1448408334.92;(0.7272913455963135, 0.7853933970133463);91.3414459229;0.898669800486;;;;;;;;;;;;;;0;0;0;0;0;0;0;0;0;();(-2000.0, -2000.0);
12:22:56:411;12:22:56:409;1448408334.98;(0, 0);0;0;;;;;;;;;;;;;;0;0;0;0;0;0;0;0;0;();(-2000.0, -2000.0);
12:22:56:427;12:22:56:409;1448408334.98;(0, 0);0;0;;;;;;;;;;;;;;0;0;0;0;0;0;0;0;0;();(-2000.0, -2000.0);
12:22:56:460;12:22:56:409;1448408334.98;(0, 0);0;0;;;;;;;;;;;;;;0;0;0;0;0;0;0;0;0;();(-2000.0, -2000.0);
12:22:56:476;12:22:56:473;1448408335.05;(0, 0);0;0;;;;;;;;;;;;;;0;0;0;0;0;0;0;0;0;();(-2000.0, -2000.0);
12:22:56:493;12:22:56:473;1448408335.05;(0, 0);0;0;;;;;;;;;;;;;;0;0;0;0;0;0;0;0;0;();(-2000.0, -2000.0);
12:22:56:510;12:22:56:473;1448408335.05;(0, 0);0;0;;;;;;;;;;;;;;0;0;0;0;0;0;0;0;0;();(-2000.0, -2000.0);
12:22:56:528;12:22:56:473;1448408335.05;(0, 0);0;0;;;;;;;;;;;;;;0;0;0;0;0;0;0;0;0;();(-2000.0, -2000.0);
12:22:56:560;12:22:56:540;1448408335.08;(0, 0);0;0;;;;;;;;;;;;;;0;0;0;0;0;0;0;0;0;();(-2000.0, -2000.0);
12:22:56:577;12:22:56:540;1448408335.08;(0, 0);0;0;;;;;;;;;;;;;;0;0;0;0;0;0;0;0;0;();(-2000.0, -2000.0);
12:22:56:593;12:22:56:540;1448408335.08;(0, 0);0;0;;;;;;;;;;;;;;0;0;0;0;0;0;0;0;0;();(-2000.0, -2000.0);
12:22:56:610;12:22:56:540;1448408335.08;(0, 0);0;0;;;;;;;;;;;;;;0;0;0;0;0;0;0;0;0;();(-2000.0, -2000.0);
12:22:56:627;12:22:56:614;1448408335.15;(0, 0);0;0;;;;;;;;;;;;;;0;0;0;0;0;0;0;0;0;();(-2000.0, -2000.0);
12:22:56:660;12:22:56:614;1448408335.15;(0, 0);0;0;;;;;;;;;;;;;;0;0;0;0;0;0;0;0;0;();(-2000.0, -2000.0);
12:22:56:677;12:22:56:674;1448408335.23;(0, 0);0;0;;;;;;;;;;;;;;0;0;0;0;0;0;0;0;0;();(-2000.0, -2000.0);
12:22:56:694;12:22:56:674;1448408335.23;(0, 0);0;0;;;;;;;;;;;;;;0;0;0;0;0;0;0;0;0;();(-2000.0, -2000.0);
12:22:56:710;12:22:56:674;1448408335.23;(0, 0);0;0;;;;;;;;;;;;;;0;0;0;0;0;0;0;0;0;();(-2000.0, -2000.0);
12:22:56:727;12:22:56:674;1448408335.23;(0, 0);0;0;;;;;;;;;;;;;;0;0;0;0;0;0;0;0;0;();(-2000.0, -2000.0);
12:22:56:760;12:22:56:741;1448408335.28;(0.7250811100006104, 0.7820163938734266);90.831993103;0.726206762291;;;;;;;;;;;;;;0;0;0;0;0;0;0;0;0;();(-2000.0, -2000.0);
12:22:56:778;12:22:56:741;1448408335.28;(0.7250811100006104, 0.7820163938734266);90.831993103;0.726206762291;;;;;;;;;;;;;;0;0;0;0;0;0;0;0;0;();(-2000.0, -2000.0);
12:22:56:794;12:22:56:741;1448408335.28;(0.7250811100006104, 0.7820163938734266);90.831993103;0.726206762291;;;;;;;;;;;;;;0;0;0;0;0;0;0;0;0;();(-2000.0, -2000.0);
12:22:56:810;12:22:56:806;1448408335.35;(0.7271482467651367, 0.7791888978746202);89.2937698364;0.926357589812;;;;;;;;;;;;;;0;0;0;0;0;0;0;0;0;();(-2000.0, -2000.0);
12:22:56:827;12:22:56:806;1448408335.35;(0.7271482467651367, 0.7791888978746202);89.2937698364;0.926357589812;;;;;;;;;;;;;;0;0;0;0;0;0;0;0;0;();(-2000.0, -2000.0);
12:22:56:860;12:22:56:806;1448408335.35;(0.7271482467651367, 0.7791888978746202);89.2937698364;0.926357589812;;;;;;;;;;;;;;0;0;0;0;0;0;0;0;0;();(-2000.0, -2000.0);
12:22:56:877;12:22:56:874;1448408335.45;(0.726312255859375, 0.7790044572618273);90.5532302856;1.0;;;;;;;;;;;;;;0;0;0;0;0;0;0;0;0;();(-2000.0, -2000.0);
12:22:56:894;12:22:56:874;1448408335.45;(0.726312255859375, 0.7790044572618273);90.5532302856;1.0;;;;;;;;;;;;;;0;0;0;0;0;0;0;0;0;();(-2000.0, -2000.0);
12:22:56:910;12:22:56:874;1448408335.45;(0.726312255859375, 0.7790044572618273);90.5532302856;1.0;;;;;;;;;;;;;;0;0;0;0;0;0;0;0;0;();(-2000.0, -2000.0);
12:22:56:927;12:22:56:874;1448408335.45;(0.726312255859375, 0.7790044572618273);90.5532302856;1.0;;;;;;;;;;;;;;0;0;0;0;0;0;0;0;0;();(-2000.0, -2000.0);
12:22:56:960;12:22:56:937;1448408335.52;(0.7270747661590576, 0.7777529610527887);91.2496032715;0.914256162445;;;;;;;;;;;;;;0;0;0;0;0;0;0;0;0;();(-2000.0, -2000.0);
12:22:56:977;12:22:56:937;1448408335.52;(0.7270747661590576, 0.7777529610527887);91.2496032715;0.914256162445;;;;;;;;;;;;;;0;0;0;0;0;0;0;0;0;();(-2000.0, -2000.0);
12:22:56:994;12:22:56:937;1448408335.52;(0.7270747661590576, 0.7777529610527887);91.2496032715;0.914256162445;;;;;;;;;;;;;;0;0;0;0;0;0;0;0;0;();(-2000.0, -2000.0);
12:22:57:010;12:22:57:006;1448408335.58;(0.3421945095062256, 0.7900913874308269);21.8202629089;0.789226291372;;;;;;;;;;;;;;0;0;0;0;0;0;0;0;0;();(-2000.0, -2000.0);
12:22:57:028;12:22:57:006;1448408335.58;(0.3421945095062256, 0.7900913874308269);21.8202629089;0.789226291372;;;;;;;;;;;;;;0;0;0;0;0;0;0;0;0;();(-2000.0, -2000.0);
12:22:57:061;12:22:57:006;1448408335.58;(0.3421945095062256, 0.7900913874308269);21.8202629089;0.789226291372;;;;;;;;;;;;;;0;0;0;0;0;0;0;0;0;();(-2000.0, -2000.0);
12:22:57:077;12:22:57:074;1448408335.62;(0.7102818965911866, 0.771601062350803);91.6885681152;0.922207067653;;;;;;;;;;;;;;0;0;0;0;0;0;0;0;0;();(-2000.0, -2000.0);
12:22:57:094;12:22:57:074;1448408335.62;(0.7102818965911866, 0.771601062350803);91.6885681152;0.922207067653;;;;;;;;;;;;;;0;0;0;0;0;0;0;0;0;();(-2000.0, -2000.0);
12:22:57:110;12:22:57:074;1448408335.62;(0.7102818965911866, 0.771601062350803);91.6885681152;0.922207067653;;;;;;;;;;;;;;0;0;0;0;0;0;0;0;0;();(-2000.0, -2000.0);
12:22:57:128;12:22:57:074;1448408335.62;(0.7102818965911866, 0.771601062350803);91.6885681152;0.922207067653;;;;;;;;;;;;;;0;0;0;0;0;0;0;0;0;();(-2000.0, -2000.0);
12:22:57:160;12:22:57:139;1448408335.72;(0.709860897064209, 0.7698896408081055);92.5425109863;0.954460710257;;;;;;;;;;;;;;0;0;0;0;0;0;0;0;0;();(-2000.0, -2000.0);
12:22:57:178;12:22:57:139;1448408335.72;(0.709860897064209, 0.7698896408081055);92.5425109863;0.954460710257;;;;;;;;;;;;;;0;0;0;0;0;0;0;0;0;();(-2000.0, -2000.0);
12:22:57:193;12:22:57:139;1448408335.72;(0.709860897064209, 0.7698896408081055);92.5425109863;0.954460710257;;;;;;;;;;;;;;0;0;0;0;0;0;0;0;0;();(-2000.0, -2000.0);
12:22:57:211;12:22:57:205;1448408335.78;(0.7101968288421631, 0.7700921164618598);92.5930938721;0.952282906452;;;;;;;;;;;;;;0;0;0;0;0;0;0;0;0;();(-2000.0, -2000.0);
12:22:57:227;12:22:57:205;1448408335.78;(0.7101968288421631, 0.7700921164618598);92.5930938721;0.952282906452;;;;;;;;;;;;;;0;0;0;0;0;0;0;0;0;();(-2000.0, -2000.0);
12:22:57:262;12:22:57:205;1448408335.78;(0.7101968288421631, 0.7700921164618598);92.5930938721;0.952282906452;;;;;;;;;;;;;;0;0;0;0;0;0;0;0;0;();(-2000.0, -2000.0);
12:22:57:278;12:22:57:272;1448408335.85;(0.7113410472869873, 0.7714045630560981);92.3269348145;0.815941144944;;;;;;;;;;;;;;0;0;0;0;0;0;0;0;0;();(-2000.0, -2000.0);
12:22:57:295;12:22:57:272;1448408335.85;(0.7113410472869873, 0.7714045630560981);92.3269348145;0.815941144944;;;;;;;;;;;;;;0;0;0;0;0;0;0;0;0;();(-2000.0, -2000.0);
12:22:57:312;12:22:57:272;1448408335.85;(0.7113410472869873, 0.7714045630560981);92.3269348145;0.815941144944;;;;;;;;;;;;;;0;0;0;0;0;0;0;0;0;();(-2000.0, -2000.0);
12:22:57:328;12:22:57:272;1448408335.85;(0.7113410472869873, 0.7714045630560981);92.3269348145;0.815941144944;;;;;;;;;;;;;;0;0;0;0;0;0;0;0;0;();(-2000.0, -2000.0);
12:22:57:360;12:22:57:338;1448408335.92;(0, 0);0;0;;;;;;;;;;;;;;0;0;0;0;0;0;0;0;0;();(-2000.0, -2000.0);
12:22:57:378;12:22:57:338;1448408335.92;(0, 0);0;0;;;;;;;;;;;;;;0;0;0;0;0;0;0;0;0;();(-2000.0, -2000.0);
12:22:57:394;12:22:57:338;1448408335.92;(0, 0);0;0;;;;;;;;;;;;;;0;0;0;0;0;0;0;0;0;();(-2000.0, -2000.0);
12:22:57:411;12:22:57:400;1448408335.95;(0.30399179458618164, 0.6679662492540148);18.8857784271;0.832600503784;;;;;;;;;;;;;;0;0;0;0;0;0;0;0;0;();(-2000.0, -2000.0);
12:22:57:428;12:22:57:400;1448408335.95;(0.30399179458618164, 0.6679662492540148);18.8857784271;0.832600503784;;;;;;;;;;;;;;0;0;0;0;0;0;0;0;0;();(-2000.0, -2000.0);
12:22:57:462;12:22:57:400;1448408335.95;(0.30399179458618164, 0.6679662492540148);18.8857784271;0.832600503784;;;;;;;;;;;;;;0;0;0;0;0;0;0;0;0;();(-2000.0, -2000.0);
12:22:57:477;12:22:57:468;1448408335.98;(0, 0);0;0;;;;;;;;;;;;;;0;0;0;0;0;0;0;0;0;();(-2000.0, -2000.0);
12:22:57:494;12:22:57:468;1448408335.98;(0, 0);0;0;;;;;;;;;;;;;;0;0;0;0;0;0;0;0;0;();(-2000.0, -2000.0);
12:22:57:511;12:22:57:468;1448408335.98;(0, 0);0;0;;;;;;;;;;;;;;0;0;0;0;0;0;0;0;0;();(-2000.0, -2000.0);
12:22:57:527;12:22:57:468;1448408335.98;(0, 0);0;0;;;;;;;;;;;;;;0;0;0;0;0;0;0;0;0;();(-2000.0, -2000.0);
12:22:57:561;12:22:57:537;1448408336.08;(0.7345338344573975, 0.786430909898546);87.3131408691;0.758369789926;;;;;;;;;;;;;;0;0;0;0;0;0;0;0;0;();(-2000.0, -2000.0);
12:22:57:578;12:22:57:537;1448408336.08;(0.7345338344573975, 0.786430909898546);87.3131408691;0.758369789926;;;;;;;;;;;;;;0;0;0;0;0;0;0;0;0;();(-2000.0, -2000.0);
12:22:57:594;12:22:57:537;1448408336.08;(0.7345338344573975, 0.786430909898546);87.3131408691;0.758369789926;;;;;;;;;;;;;;0;0;0;0;0;0;0;0;0;();(-2000.0, -2000.0);
12:22:57:611;12:22:57:602;1448408336.17;(0.7369949340820312, 0.7892413669162326);88.3349151611;0.968566759851;;;;;;;;;;;;;;0;0;0;0;0;0;0;0;0;();(-2000.0, -2000.0);
12:22:57:627;12:22:57:602;1448408336.17;(0.7369949340820312, 0.7892413669162326);88.3349151611;0.968566759851;;;;;;;;;;;;;;0;0;0;0;0;0;0;0;0;();(-2000.0, -2000.0);
12:22:57:661;12:22:57:602;1448408336.17;(0.7369949340820312, 0.7892413669162326);88.3349151611;0.968566759851;;;;;;;;;;;;;;0;0;0;0;0;0;0;0;0;();(-2000.0, -2000.0);
12:22:57:677;12:22:57:671;1448408336.25;(0.7382923126220703, 0.7874388800726997);87.0523071289;0.955183617907;;;;;;;;;;;;;;0;0;0;0;0;0;0;0;0;();(-2000.0, -2000.0);
12:22:57:694;12:22:57:671;1448408336.25;(0.7382923126220703, 0.7874388800726997);87.0523071289;0.955183617907;;;;;;;;;;;;;;0;0;0;0;0;0;0;0;0;();(-2000.0, -2000.0);
12:22:57:711;12:22:57:671;1448408336.25;(0.7382923126220703, 0.7874388800726997);87.0523071289;0.955183617907;;;;;;;;;;;;;;0;0;0;0;0;0;0;0;0;();(-2000.0, -2000.0);
12:22:57:727;12:22:57:671;1448408336.25;(0.7382923126220703, 0.7874388800726997);87.0523071289;0.955183617907;;;;;;;;;;;;;;0;0;0;0;0;0;0;0;0;();(-2000.0, -2000.0);
12:22:57:762;12:22:57:737;1448408336.32;(0.7388168334960937, 0.7856568230523003);86.6469192505;1.0;;;;;;;;;;;;;;0;0;0;0;0;0;0;0;0;();(-2000.0, -2000.0);
12:22:57:777;12:22:57:737;1448408336.32;(0.7388168334960937, 0.7856568230523003);86.6469192505;1.0;;;;;;;;;;;;;;0;0;0;0;0;0;0;0;0;();(-2000.0, -2000.0);
12:22:57:795;12:22:57:737;1448408336.32;(0.7388168334960937, 0.7856568230523003);86.6469192505;1.0;;;;;;;;;;;;;;0;0;0;0;0;0;0;0;0;();(-2000.0, -2000.0);
12:22:57:810;12:22:57:801;1448408336.38;(0.7398338317871094, 0.7834360970391168);86.6951370239;1.0;;;;;;;;;;;;;;0;0;0;0;0;0;0;0;0;();(-2000.0, -2000.0);
12:22:57:828;12:22:57:801;1448408336.38;(0.7398338317871094, 0.7834360970391168);86.6951370239;1.0;;;;;;;;;;;;;;0;0;0;0;0;0;0;0;0;();(-2000.0, -2000.0);
12:22:57:861;12:22:57:801;1448408336.38;(0.7398338317871094, 0.7834360970391168);86.6951370239;1.0;;;;;;;;;;;;;;0;0;0;0;0;0;0;0;0;();(-2000.0, -2000.0);
12:22:57:877;12:22:57:869;1448408336.45;(0.7402773857116699, 0.7843644460042318);87.012336731;1.0;;;;;;;;;;;;;;0;0;0;0;0;0;0;0;0;();(-2000.0, -2000.0);
12:22:57:894;12:22:57:869;1448408336.45;(0.7402773857116699, 0.7843644460042318);87.012336731;1.0;;;;;;;;;;;;;;0;0;0;0;0;0;0;0;0;();(-2000.0, -2000.0);
12:22:57:911;12:22:57:869;1448408336.45;(0.7402773857116699, 0.7843644460042318);87.012336731;1.0;;;;;;;;;;;;;;0;0;0;0;0;0;0;0;0;();(-2000.0, -2000.0);
12:22:57:928;12:22:57:869;1448408336.45;(0.7402773857116699, 0.7843644460042318);87.012336731;1.0;;;;;;;;;;;;;;0;0;0;0;0;0;0;0;0;();(-2000.0, -2000.0);
12:22:57:962;12:22:57:933;1448408336.48;(0.7263545989990234, 0.7634290483262804);86.8568344116;0.846931069351;;;;;;;;;;;;;;0;0;0;0;0;0;0;0;0;();(-2000.0, -2000.0);
12:22:57:979;12:22:57:933;1448408336.48;(0.7263545989990234, 0.7634290483262804);86.8568344116;0.846931069351;;;;;;;;;;;;;;0;0;0;0;0;0;0;0;0;();(-2000.0, -2000.0);
12:22:57:995;12:22:57:933;1448408336.48;(0.7263545989990234, 0.7634290483262804);86.8568344116;0.846931069351;;;;;;;;;;;;;;0;0;0;0;0;0;0;0;0;();(-2000.0, -2000.0);
12:22:58:017;12:22:58:013;1448408336.58;(0.7194688796997071, 0.7488673739963108);88.2540206909;0.927889034042;;;;;;;;;;;;;;0;0;0;0;0;0;0;0;0;();(-2000.0, -2000.0);
12:22:58:029;12:22:58:013;1448408336.58;(0.7194688796997071, 0.7488673739963108);88.2540206909;0.927889034042;;;;;;;;;;;;;;0;0;0;0;0;0;0;0;0;();(-2000.0, -2000.0);
12:22:58:062;12:22:58:013;1448408336.58;(0.7194688796997071, 0.7488673739963108);88.2540206909;0.927889034042;;;;;;;;;;;;;;0;0;0;0;0;0;0;0;0;();(-2000.0, -2000.0);
12:22:58:079;12:22:58:064;1448408336.62;(0.7194414138793945, 0.7487904654608832);88.0592880249;0.971381641105;;;;;;;;;;;;;;0;0;0;0;0;0;0;0;0;();(-2000.0, -2000.0);
12:22:58:095;12:22:58:064;1448408336.62;(0.7194414138793945, 0.7487904654608832);88.0592880249;0.971381641105;;;;;;;;;;;;;;0;0;0;0;0;0;0;0;0;();(-2000.0, -2000.0);
12:22:58:111;12:22:58:064;1448408336.62;(0.7194414138793945, 0.7487904654608832);88.0592880249;0.971381641105;;;;;;;;;;;;;;0;0;0;0;0;0;0;0;0;();(-2000.0, -2000.0);
12:22:58:129;12:22:58:064;1448408336.62;(0.7194414138793945, 0.7487904654608832);88.0592880249;0.971381641105;;;;;;;;;;;;;;0;0;0;0;0;0;0;0;0;();(-2000.0, -2000.0);
12:22:58:161;12:22:58:135;1448408336.72;(0.7203876972198486, 0.7506246778700087);88.4567108154;0.945361001004;;;;;;;;;;;;;;0;0;0;0;0;0;0;0;0;();(-2000.0, -2000.0);
12:22:58:179;12:22:58:135;1448408336.72;(0.7203876972198486, 0.7506246778700087);88.4567108154;0.945361001004;;;;;;;;;;;;;;0;0;0;0;0;0;0;0;0;();(-2000.0, -2000.0);
12:22:58:196;12:22:58:135;1448408336.72;(0.7203876972198486, 0.7506246778700087);88.4567108154;0.945361001004;;;;;;;;;;;;;;0;0;0;0;0;0;0;0;0;();(-2000.0, -2000.0);
12:22:58:211;12:22:58:200;1448408336.75;(0.7210478782653809, 0.7501476499769423);88.5422286987;0.88700604955;;;;;;;;;;;;;;0;0;0;0;0;0;0;0;0;();(-2000.0, -2000.0);
12:22:58:229;12:22:58:200;1448408336.75;(0.7210478782653809, 0.7501476499769423);88.5422286987;0.88700604955;;;;;;;;;;;;;;0;0;0;0;0;0;0;0;0;();(-2000.0, -2000.0);
12:22:58:263;12:22:58:200;1448408336.75;(0.7210478782653809, 0.7501476499769423);88.5422286987;0.88700604955;;;;;;;;;;;;;;0;0;0;0;0;0;0;0;0;();(-2000.0, -2000.0);
12:22:58:279;12:22:58:269;1448408336.85;(0.7362388610839844, 0.7768399768405491);88.9959411621;0.864313938459;;;;;;;;;;;;;;0;0;0;0;0;0;0;0;0;();(-2000.0, -2000.0);
12:22:58:295;12:22:58:269;1448408336.85;(0.7362388610839844, 0.7768399768405491);88.9959411621;0.864313938459;;;;;;;;;;;;;;0;0;0;0;0;0;0;0;0;();(-2000.0, -2000.0);
12:22:58:312;12:22:58:269;1448408336.85;(0.7362388610839844, 0.7768399768405491);88.9959411621;0.864313938459;;;;;;;;;;;;;;0;0;0;0;0;0;0;0;0;();(-2000.0, -2000.0);
12:22:58:328;12:22:58:269;1448408336.85;(0.7362388610839844, 0.7768399768405491);88.9959411621;0.864313938459;;;;;;;;;;;;;;0;0;0;0;0;0;0;0;0;();(-2000.0, -2000.0);
12:22:58:363;12:22:58:334;1448408336.92;(0.7358864784240723, 0.7771506203545464);88.6947174072;1.0;;;;;;;;;;;;;;0;0;0;0;0;0;0;0;0;();(-2000.0, -2000.0);
12:22:58:378;12:22:58:334;1448408336.92;(0.7358864784240723, 0.7771506203545464);88.6947174072;1.0;;;;;;;;;;;;;;0;0;0;0;0;0;0;0;0;();(-2000.0, -2000.0);
12:22:58:395;12:22:58:334;1448408336.92;(0.7358864784240723, 0.7771506203545464);88.6947174072;1.0;;;;;;;;;;;;;;0;0;0;0;0;0;0;0;0;();(-2000.0, -2000.0);
12:22:58:413;12:22:58:397;1448408336.95;(0.7359864234924316, 0.7775505913628472);88.6706390381;1.0;;;;;;;;;;;;;;0;0;0;0;0;0;0;0;0;();(-2000.0, -2000.0);
12:22:58:429;12:22:58:397;1448408336.95;(0.7359864234924316, 0.7775505913628472);88.6706390381;1.0;;;;;;;;;;;;;;0;0;0;0;0;0;0;0;0;();(-2000.0, -2000.0);
12:22:58:446;12:22:58:397;1448408336.95;(0.7359864234924316, 0.7775505913628472);88.6706390381;1.0;;;;;;;;;;;;;;0;0;0;0;0;0;0;0;0;();(-2000.0, -2000.0);
12:22:58:479;12:22:58:468;1448408337.05;(0.7366630077362061, 0.7775513754950629);88.0698623657;0.958354887179;;;;;;;;;;;;;;0;0;0;0;0;0;0;0;0;();(-2000.0, -2000.0);
12:22:58:495;12:22:58:468;1448408337.05;(0.7366630077362061, 0.7775513754950629);88.0698623657;0.958354887179;;;;;;;;;;;;;;0;0;0;0;0;0;0;0;0;();(-2000.0, -2000.0);
12:22:58:512;12:22:58:468;1448408337.05;(0.7366630077362061, 0.7775513754950629);88.0698623657;0.958354887179;;;;;;;;;;;;;;0;0;0;0;0;0;0;0;0;();(-2000.0, -2000.0);
12:22:58:530;12:22:58:468;1448408337.05;(0.7366630077362061, 0.7775513754950629);88.0698623657;0.958354887179;;;;;;;;;;;;;;0;0;0;0;0;0;0;0;0;();(-2000.0, -2000.0);
12:22:58:563;12:22:58:532;1448408337.08;(0.7370014667510987, 0.7767927381727431);88.502532959;1.0;;;;;;;;;;;;;;0;0;0;0;0;0;0;0;0;();(-2000.0, -2000.0);
12:22:58:580;12:22:58:532;1448408337.08;(0.7370014667510987, 0.7767927381727431);88.502532959;1.0;;;;;;;;;;;;;;0;0;0;0;0;0;0;0;0;();(-2000.0, -2000.0);
12:22:58:596;12:22:58:532;1448408337.08;(0.7370014667510987, 0.7767927381727431);88.502532959;1.0;;;;;;;;;;;;;;0;0;0;0;0;0;0;0;0;();(-2000.0, -2000.0);
12:22:58:613;12:22:58:602;1448408337.18;(0.7370696544647217, 0.7756416108873155);88.829788208;0.957620526773;;;;;;;;;;;;;;0;0;0;0;0;0;0;0;0;();(-2000.0, -2000.0);
12:22:58:628;12:22:58:602;1448408337.18;(0.7370696544647217, 0.7756416108873155);88.829788208;0.957620526773;;;;;;;;;;;;;;0;0;0;0;0;0;0;0;0;();(-2000.0, -2000.0);
12:22:58:663;12:22:58:602;1448408337.18;(0.7370696544647217, 0.7756416108873155);88.829788208;0.957620526773;;;;;;;;;;;;;;0;0;0;0;0;0;0;0;0;();(-2000.0, -2000.0);
12:22:58:679;12:22:58:668;1448408337.25;(0, 0);0;0;;;;;;;;;;;;;;0;0;0;0;0;0;0;0;0;();(-2000.0, -2000.0);
12:22:58:696;12:22:58:668;1448408337.25;(0, 0);0;0;;;;;;;;;;;;;;0;0;0;0;0;0;0;0;0;();(-2000.0, -2000.0);
12:22:58:713;12:22:58:668;1448408337.25;(0, 0);0;0;;;;;;;;;;;;;;0;0;0;0;0;0;0;0;0;();(-2000.0, -2000.0);
12:22:58:730;12:22:58:728;1448408337.28;(0.6684952259063721, 0.5767533196343315);21.9832553864;0.64724371497;;;;;;;;;;;;;;0;0;0;0;0;0;0;0;0;();(-2000.0, -2000.0);
12:22:58:745;12:22:58:728;1448408337.28;(0.6684952259063721, 0.5767533196343315);21.9832553864;0.64724371497;;;;;;;;;;;;;;0;0;0;0;0;0;0;0;0;();(-2000.0, -2000.0);
12:22:58:780;12:22:58:728;1448408337.28;(0.6684952259063721, 0.5767533196343315);21.9832553864;0.64724371497;;;;;;;;;;;;;;0;0;0;0;0;0;0;0;0;();(-2000.0, -2000.0);
12:22:58:796;12:22:58:728;1448408337.28;(0.6684952259063721, 0.5767533196343315);21.9832553864;0.64724371497;;;;;;;;;;;;;;0;0;0;0;0;0;0;0;0;();(-2000.0, -2000.0);
12:22:58:813;12:22:58:803;1448408337.35;(0, 0);0;0;;;;;;;;;;;;;;0;0;0;0;0;0;0;0;0;();(-2000.0, -2000.0);
12:22:58:829;12:22:58:803;1448408337.35;(0, 0);0;0;;;;;;;;;;;;;;0;0;0;0;0;0;0;0;0;();(-2000.0, -2000.0);
12:22:58:846;12:22:58:803;1448408337.35;(0, 0);0;0;;;;;;;;;;;;;;0;0;0;0;0;0;0;0;0;();(-2000.0, -2000.0);
12:22:58:880;12:22:58:865;1448408337.42;(0.6943737506866455, 0.8063737021552192);87.586227417;0.794489834224;;;;;;;;;;;;;;0;0;0;0;0;0;0;0;0;();(-2000.0, -2000.0);
12:22:58:896;12:22:58:865;1448408337.42;(0.6943737506866455, 0.8063737021552192);87.586227417;0.794489834224;;;;;;;;;;;;;;0;0;0;0;0;0;0;0;0;();(-2000.0, -2000.0);
12:22:58:913;12:22:58:865;1448408337.42;(0.6943737506866455, 0.8063737021552192);87.586227417;0.794489834224;;;;;;;;;;;;;;0;0;0;0;0;0;0;0;0;();(-2000.0, -2000.0);
12:22:58:930;12:22:58:927;1448408337.45;(0.9245198249816895, 0.8126855532328288);18.236000061;0.678669714023;;;;;;;;;;;;;;0;0;0;0;0;0;0;0;0;();(-2000.0, -2000.0);
12:22:58:946;12:22:58:929;1448408337.48;(0.6956966876983642, 0.8014483981662326);88.0541229248;1.0;;;;;;;;;;;;;;0;0;0;0;0;0;0;0;0;();(-2000.0, -2000.0);
12:22:58:979;12:22:58:929;1448408337.48;(0.6956966876983642, 0.8014483981662326);88.0541229248;1.0;;;;;;;;;;;;;;0;0;0;0;0;0;0;0;0;();(-2000.0, -2000.0);
12:22:58:997;12:22:58:929;1448408337.48;(0.6956966876983642, 0.8014483981662326);88.0541229248;1.0;;;;;;;;;;;;;;0;0;0;0;0;0;0;0;0;();(-2000.0, -2000.0);
12:22:59:013;12:22:58:999;1448408337.55;(0.6967714309692383, 0.8007095866733127);88.759185791;0.806832346915;;;;;;;;;;;;;;0;0;0;0;0;0;0;0;0;();(-2000.0, -2000.0);
12:22:59:030;12:22:58:999;1448408337.55;(0.6967714309692383, 0.8007095866733127);88.759185791;0.806832346915;;;;;;;;;;;;;;0;0;0;0;0;0;0;0;0;();(-2000.0, -2000.0);
12:22:59:046;12:22:58:999;1448408337.55;(0.6967714309692383, 0.8007095866733127);88.759185791;0.806832346915;;;;;;;;;;;;;;0;0;0;0;0;0;0;0;0;();(-2000.0, -2000.0);
12:22:59:078;12:22:59:061;1448408337.62;(0.7000792503356934, 0.8008340623643664);88.7851028442;0.954579021168;;;;;;;;;;;;;;0;0;0;0;0;0;0;0;0;();(-2000.0, -2000.0);
12:22:59:096;12:22:59:061;1448408337.62;(0.7000792503356934, 0.8008340623643664);88.7851028442;0.954579021168;;;;;;;;;;;;;;0;0;0;0;0;0;0;0;0;();(-2000.0, -2000.0);
12:22:59:112;12:22:59:061;1448408337.62;(0.7000792503356934, 0.8008340623643664);88.7851028442;0.954579021168;;;;;;;;;;;;;;0;0;0;0;0;0;0;0;0;();(-2000.0, -2000.0);
12:22:59:132;12:22:59:130;1448408337.68;(0.7001859188079834, 0.7997782495286729);89.4044570923;0.836489619073;;;;;;;;;;;;;;0;0;0;0;0;0;0;0;0;();(-2000.0, -2000.0);
12:22:59:147;12:22:59:130;1448408337.68;(0.7001859188079834, 0.7997782495286729);89.4044570923;0.836489619073;;;;;;;;;;;;;;0;0;0;0;0;0;0;0;0;();(-2000.0, -2000.0);
12:22:59:179;12:22:59:130;1448408337.68;(0.7001859188079834, 0.7997782495286729);89.4044570923;0.836489619073;;;;;;;;;;;;;;0;0;0;0;0;0;0;0;0;();(-2000.0, -2000.0);
12:22:59:195;12:22:59:130;1448408337.68;(0.7001859188079834, 0.7997782495286729);89.4044570923;0.836489619073;;;;;;;;;;;;;;0;0;0;0;0;0;0;0;0;();(-2000.0, -2000.0);
12:22:59:213;12:22:59:201;1448408337.78;(0.7020843029022217, 0.7991566763983833);89.7475128174;0.866096420358;;;;;;;;;;;;;;0;0;0;0;0;0;0;0;0;();(-2000.0, -2000.0);
12:22:59:229;12:22:59:201;1448408337.78;(0.7020843029022217, 0.7991566763983833);89.7475128174;0.866096420358;;;;;;;;;;;;;;0;0;0;0;0;0;0;0;0;();(-2000.0, -2000.0);
12:22:59:246;12:22:59:201;1448408337.78;(0.7020843029022217, 0.7991566763983833);89.7475128174;0.866096420358;;;;;;;;;;;;;;0;0;0;0;0;0;0;0;0;();(-2000.0, -2000.0);
12:22:59:279;12:22:59:261;1448408337.85;(0.7018442630767823, 0.798223696814643);88.8386611938;0.909549113997;;;;;;;;;;;;;;0;0;0;0;0;0;0;0;0;();(-2000.0, -2000.0);
12:22:59:296;12:22:59:261;1448408337.85;(0.7018442630767823, 0.798223696814643);88.8386611938;0.909549113997;;;;;;;;;;;;;;0;0;0;0;0;0;0;0;0;();(-2000.0, -2000.0);
12:22:59:312;12:22:59:261;1448408337.85;(0.7018442630767823, 0.798223696814643);88.8386611938;0.909549113997;;;;;;;;;;;;;;0;0;0;0;0;0;0;0;0;();(-2000.0, -2000.0);
12:22:59:330;12:22:59:328;1448408337.88;(0.9395729064941406, 0.4434596167670356);20.6106529236;0.702020685922;;;;;;;;;;;;;;0;0;0;0;0;0;0;0;0;();(-2000.0, -2000.0);
12:22:59:346;12:22:59:328;1448408337.88;(0.9395729064941406, 0.4434596167670356);20.6106529236;0.702020685922;;;;;;;;;;;;;;0;0;0;0;0;0;0;0;0;();(-2000.0, -2000.0);
12:22:59:379;12:22:59:328;1448408337.88;(0.9395729064941406, 0.4434596167670356);20.6106529236;0.702020685922;;;;;;;;;;;;;;0;0;0;0;0;0;0;0;0;();(-2000.0, -2000.0);
12:22:59:397;12:22:59:395;1448408337.95;(0.7319797992706298, 0.7825028949313694);88.860748291;0.839188680541;;;;;;;;;;;;;;0;0;0;0;0;0;0;0;0;();(-2000.0, -2000.0);
12:22:59:413;12:22:59:395;1448408337.95;(0.7319797992706298, 0.7825028949313694);88.860748291;0.839188680541;;;;;;;;;;;;;;0;0;0;0;0;0;0;0;0;();(-2000.0, -2000.0);
12:22:59:431;12:22:59:395;1448408337.95;(0.7319797992706298, 0.7825028949313694);88.860748291;0.839188680541;;;;;;;;;;;;;;0;0;0;0;0;0;0;0;0;();(-2000.0, -2000.0);
12:22:59:447;12:22:59:395;1448408337.95;(0.7319797992706298, 0.7825028949313694);88.860748291;0.839188680541;;;;;;;;;;;;;;0;0;0;0;0;0;0;0;0;();(-2000.0, -2000.0);
12:22:59:479;12:22:59:465;1448408338.05;(0.7334733009338379, 0.783920775519477);88.925567627;0.903337463481;;;;;;;;;;;;;;0;0;0;0;0;0;0;0;0;();(-2000.0, -2000.0);
12:22:59:496;12:22:59:465;1448408338.05;(0.7334733009338379, 0.783920775519477);88.925567627;0.903337463481;;;;;;;;;;;;;;0;0;0;0;0;0;0;0;0;();(-2000.0, -2000.0);
12:22:59:512;12:22:59:465;1448408338.05;(0.7334733009338379, 0.783920775519477);88.925567627;0.903337463481;;;;;;;;;;;;;;0;0;0;0;0;0;0;0;0;();(-2000.0, -2000.0);
12:22:59:529;12:22:59:465;1448408338.05;(0.7334733009338379, 0.783920775519477);88.925567627;0.903337463481;;;;;;;;;;;;;;0;0;0;0;0;0;0;0;0;();(-2000.0, -2000.0);
12:22:59:546;12:22:59:535;1448408338.12;(0.7339273452758789, 0.7854584376017253);88.9079818726;0.832528925285;;;;;;;;;;;;;;0;0;0;0;0;0;0;0;0;();(-2000.0, -2000.0);
12:22:59:580;12:22:59:535;1448408338.12;(0.7339273452758789, 0.7854584376017253);88.9079818726;0.832528925285;;;;;;;;;;;;;;0;0;0;0;0;0;0;0;0;();(-2000.0, -2000.0);
12:22:59:596;12:22:59:535;1448408338.12;(0.7339273452758789, 0.7854584376017253);88.9079818726;0.832528925285;;;;;;;;;;;;;;0;0;0;0;0;0;0;0;0;();(-2000.0, -2000.0);
12:22:59:613;12:22:59:601;1448408338.18;(0.7342166900634766, 0.7881006664699979);88.8146591187;0.84415284387;;;;;;;;;;;;;;0;0;0;0;0;0;0;0;0;();(-2000.0, -2000.0);
12:22:59:630;12:22:59:601;1448408338.18;(0.7342166900634766, 0.7881006664699979);88.8146591187;0.84415284387;;;;;;;;;;;;;;0;0;0;0;0;0;0;0;0;();(-2000.0, -2000.0);
12:22:59:646;12:22:59:601;1448408338.18;(0.7342166900634766, 0.7881006664699979);88.8146591187;0.84415284387;;;;;;;;;;;;;;0;0;0;0;0;0;0;0;0;();(-2000.0, -2000.0);
12:22:59:679;12:22:59:660;1448408338.22;(0.7344362735748291, 0.7889844046698676);88.8718032837;1.0;;;;;;;;;;;;;;0;0;0;0;0;0;0;0;0;();(-2000.0, -2000.0);
12:22:59:696;12:22:59:660;1448408338.22;(0.7344362735748291, 0.7889844046698676);88.8718032837;1.0;;;;;;;;;;;;;;0;0;0;0;0;0;0;0;0;();(-2000.0, -2000.0);
12:22:59:713;12:22:59:660;1448408338.22;(0.7344362735748291, 0.7889844046698676);88.8718032837;1.0;;;;;;;;;;;;;;0;0;0;0;0;0;0;0;0;();(-2000.0, -2000.0);
12:22:59:729;12:22:59:726;1448408338.28;(0.733953857421875, 0.7874842537773981);88.4794921875;0.887279600413;;;;;;;;;;;;;;0;0;0;0;0;0;0;0;0;();(-2000.0, -2000.0);
12:22:59:746;12:22:59:726;1448408338.28;(0.733953857421875, 0.7874842537773981);88.4794921875;0.887279600413;;;;;;;;;;;;;;0;0;0;0;0;0;0;0;0;();(-2000.0, -2000.0);
12:22:59:779;12:22:59:726;1448408338.28;(0.733953857421875, 0.7874842537773981);88.4794921875;0.887279600413;;;;;;;;;;;;;;0;0;0;0;0;0;0;0;0;();(-2000.0, -2000.0);
12:22:59:796;12:22:59:793;1448408338.35;(0.7340723037719726, 0.7875804477267795);88.5831604004;0.867863160058;;;;;;;;;;;;;;0;0;0;0;0;0;0;0;0;();(-2000.0, -2000.0);
12:22:59:813;12:22:59:793;1448408338.35;(0.7340723037719726, 0.7875804477267795);88.5831604004;0.867863160058;;;;;;;;;;;;;;0;0;0;0;0;0;0;0;0;();(-2000.0, -2000.0);
12:22:59:829;12:22:59:793;1448408338.35;(0.7340723037719726, 0.7875804477267795);88.5831604004;0.867863160058;;;;;;;;;;;;;;0;0;0;0;0;0;0;0;0;();(-2000.0, -2000.0);
12:22:59:846;12:22:59:793;1448408338.35;(0.7340723037719726, 0.7875804477267795);88.5831604004;0.867863160058;;;;;;;;;;;;;;0;0;0;0;0;0;0;0;0;();(-2000.0, -2000.0);
12:22:59:879;12:22:59:862;1448408338.42;(0.7353288173675537, 0.7887708240085178);88.5966644287;0.903130120405;;;;;;;;;;;;;;0;0;0;0;0;0;0;0;0;();(-2000.0, -2000.0);
12:22:59:898;12:22:59:862;1448408338.42;(0.7353288173675537, 0.7887708240085178);88.5966644287;0.903130120405;;;;;;;;;;;;;;0;0;0;0;0;0;0;0;0;();(-2000.0, -2000.0);
12:22:59:913;12:22:59:862;1448408338.42;(0.7353288173675537, 0.7887708240085178);88.5966644287;0.903130120405;;;;;;;;;;;;;;0;0;0;0;0;0;0;0;0;();(-2000.0, -2000.0);
12:22:59:930;12:22:59:928;1448408338.48;(0.7355684757232666, 0.7894378026326497);88.3633956909;0.990488876868;;;;;;;;;;;;;;0;0;0;0;0;0;0;0;0;();(-2000.0, -2000.0);
12:22:59:946;12:22:59:928;1448408338.48;(0.7355684757232666, 0.7894378026326497);88.3633956909;0.990488876868;;;;;;;;;;;;;;0;0;0;0;0;0;0;0;0;();(-2000.0, -2000.0);
12:22:59:979;12:22:59:928;1448408338.48;(0.7355684757232666, 0.7894378026326497);88.3633956909;0.990488876868;;;;;;;;;;;;;;0;0;0;0;0;0;0;0;0;();(-2000.0, -2000.0);
12:22:59:998;12:22:59:995;1448408338.55;(0.7356719493865966, 0.7882164849175347);89.2842102051;1.0;;;;;;;;;;;;;;0;0;0;0;0;0;0;0;0;();(-2000.0, -2000.0);
12:23:00:014;12:22:59:995;1448408338.55;(0.7356719493865966, 0.7882164849175347);89.2842102051;1.0;;;;;;;;;;;;;;0;0;0;0;0;0;0;0;0;();(-2000.0, -2000.0);
12:23:00:031;12:22:59:995;1448408338.55;(0.7356719493865966, 0.7882164849175347);89.2842102051;1.0;;;;;;;;;;;;;;0;0;0;0;0;0;0;0;0;();(-2000.0, -2000.0);
12:23:00:047;12:22:59:995;1448408338.55;(0.7356719493865966, 0.7882164849175347);89.2842102051;1.0;;;;;;;;;;;;;;0;0;0;0;0;0;0;0;0;();(-2000.0, -2000.0);
12:23:00:081;12:23:00:058;1448408338.62;(0.7538277626037597, 0.7742595884535048);88.694732666;0.973800785749;;;;;;;;;;;;;;0;0;0;0;0;0;0;0;0;();(-2000.0, -2000.0);
12:23:00:097;12:23:00:058;1448408338.62;(0.7538277626037597, 0.7742595884535048);88.694732666;0.973800785749;;;;;;;;;;;;;;0;0;0;0;0;0;0;0;0;();(-2000.0, -2000.0);
12:23:00:115;12:23:00:058;1448408338.62;(0.7538277626037597, 0.7742595884535048);88.694732666;0.973800785749;;;;;;;;;;;;;;0;0;0;0;0;0;0;0;0;();(-2000.0, -2000.0);
12:23:00:132;12:23:00:128;1448408338.68;(0.7538057327270508, 0.7755988226996527);88.3926467896;1.0;;;;;;;;;;;;;;0;0;0;0;0;0;0;0;0;();(-2000.0, -2000.0);
12:23:00:148;12:23:00:128;1448408338.68;(0.7538057327270508, 0.7755988226996527);88.3926467896;1.0;;;;;;;;;;;;;;0;0;0;0;0;0;0;0;0;();(-2000.0, -2000.0);
12:23:00:181;12:23:00:128;1448408338.68;(0.7538057327270508, 0.7755988226996527);88.3926467896;1.0;;;;;;;;;;;;;;0;0;0;0;0;0;0;0;0;();(-2000.0, -2000.0);
12:23:00:199;12:23:00:195;1448408338.75;(0.7543797492980957, 0.7765657636854384);88.2346343994;1.0;;;;;;;;;;;;;;0;0;0;0;0;0;0;0;0;();(-2000.0, -2000.0);
12:23:00:214;12:23:00:195;1448408338.75;(0.7543797492980957, 0.7765657636854384);88.2346343994;1.0;;;;;;;;;;;;;;0;0;0;0;0;0;0;0;0;();(-2000.0, -2000.0);
12:23:00:231;12:23:00:195;1448408338.75;(0.7543797492980957, 0.7765657636854384);88.2346343994;1.0;;;;;;;;;;;;;;0;0;0;0;0;0;0;0;0;();(-2000.0, -2000.0);
12:23:00:248;12:23:00:195;1448408338.75;(0.7543797492980957, 0.7765657636854384);88.2346343994;1.0;;;;;;;;;;;;;;0;0;0;0;0;0;0;0;0;();(-2000.0, -2000.0);
12:23:00:279;12:23:00:258;1448408338.85;(0.7549604415893555, 0.774951532151964);90.0193862915;1.0;;;;;;;;;;;;;;0;0;0;0;0;0;0;0;0;();(-2000.0, -2000.0);
12:23:00:298;12:23:00:258;1448408338.85;(0.7549604415893555, 0.774951532151964);90.0193862915;1.0;;;;;;;;;;;;;;0;0;0;0;0;0;0;0;0;();(-2000.0, -2000.0);
12:23:00:314;12:23:00:258;1448408338.85;(0.7549604415893555, 0.774951532151964);90.0193862915;1.0;;;;;;;;;;;;;;0;0;0;0;0;0;0;0;0;();(-2000.0, -2000.0);
12:23:00:331;12:23:00:325;1448408338.88;(0.7548708915710449, 0.7750212987263998);89.6606903076;1.0;;;;;;;;;;;;;;0;0;0;0;0;0;0;0;0;();(-2000.0, -2000.0);
12:23:00:347;12:23:00:325;1448408338.88;(0.7548708915710449, 0.7750212987263998);89.6606903076;1.0;;;;;;;;;;;;;;0;0;0;0;0;0;0;0;0;();(-2000.0, -2000.0);
12:23:00:380;12:23:00:325;1448408338.88;(0.7548708915710449, 0.7750212987263998);89.6606903076;1.0;;;;;;;;;;;;;;0;0;0;0;0;0;0;0;0;();(-2000.0, -2000.0);
12:23:00:396;12:23:00:325;1448408338.88;(0.7548708915710449, 0.7750212987263998);89.6606903076;1.0;;;;;;;;;;;;;;0;0;0;0;0;0;0;0;0;();(-2000.0, -2000.0);
12:23:00:415;12:23:00:402;1448408338.95;(0.7545182228088378, 0.7769601398044162);89.2584533691;0.97094808916;;;;;;;;;;;;;;0;0;0;0;0;0;0;0;0;();(-2000.0, -2000.0);
12:23:00:432;12:23:00:402;1448408338.95;(0.7545182228088378, 0.7769601398044162);89.2584533691;0.97094808916;;;;;;;;;;;;;;0;0;0;0;0;0;0;0;0;();(-2000.0, -2000.0);
12:23:00:447;12:23:00:402;1448408338.95;(0.7545182228088378, 0.7769601398044162);89.2584533691;0.97094808916;;;;;;;;;;;;;;0;0;0;0;0;0;0;0;0;();(-2000.0, -2000.0);
12:23:00:481;12:23:00:458;1448408339.02;(0.7541606903076172, 0.7783319473266601);89.3288421631;1.0;;;;;;;;;;;;;;0;0;0;0;0;0;0;0;0;();(-2000.0, -2000.0);
12:23:00:498;12:23:00:458;1448408339.02;(0.7541606903076172, 0.7783319473266601);89.3288421631;1.0;;;;;;;;;;;;;;0;0;0;0;0;0;0;0;0;();(-2000.0, -2000.0);
12:23:00:514;12:23:00:458;1448408339.02;(0.7541606903076172, 0.7783319473266601);89.3288421631;1.0;;;;;;;;;;;;;;0;0;0;0;0;0;0;0;0;();(-2000.0, -2000.0);
12:23:00:530;12:23:00:523;1448408339.08;(0.7323527812957764, 0.7875706354777018);87.2106781006;0.956716642877;;;;;;;;;;;;;;0;0;0;0;0;0;0;0;0;();(-2000.0, -2000.0);
12:23:00:547;12:23:00:523;1448408339.08;(0.7323527812957764, 0.7875706354777018);87.2106781006;0.956716642877;;;;;;;;;;;;;;0;0;0;0;0;0;0;0;0;();(-2000.0, -2000.0);
12:23:00:580;12:23:00:523;1448408339.08;(0.7323527812957764, 0.7875706354777018);87.2106781006;0.956716642877;;;;;;;;;;;;;;0;0;0;0;0;0;0;0;0;();(-2000.0, -2000.0);
12:23:00:597;12:23:00:590;1448408339.15;(0.7231725692749024, 0.7894256167941623);90.4762115479;0.955590539698;;;;;;;;;;;;;;0;0;0;0;0;0;0;0;0;();(-2000.0, -2000.0);
12:23:00:613;12:23:00:590;1448408339.15;(0.7231725692749024, 0.7894256167941623);90.4762115479;0.955590539698;;;;;;;;;;;;;;0;0;0;0;0;0;0;0;0;();(-2000.0, -2000.0);
12:23:00:631;12:23:00:590;1448408339.15;(0.7231725692749024, 0.7894256167941623);90.4762115479;0.955590539698;;;;;;;;;;;;;;0;0;0;0;0;0;0;0;0;();(-2000.0, -2000.0);
12:23:00:647;12:23:00:590;1448408339.15;(0.7231725692749024, 0.7894256167941623);90.4762115479;0.955590539698;;;;;;;;;;;;;;0;0;0;0;0;0;0;0;0;();(-2000.0, -2000.0);
12:23:00:680;12:23:00:659;1448408339.22;(0.7237734317779541, 0.7901794009738499);89.4546966553;0.848272324296;;;;;;;;;;;;;;0;0;0;0;0;0;0;0;0;();(-2000.0, -2000.0);
12:23:00:696;12:23:00:659;1448408339.22;(0.7237734317779541, 0.7901794009738499);89.4546966553;0.848272324296;;;;;;;;;;;;;;0;0;0;0;0;0;0;0;0;();(-2000.0, -2000.0);
12:23:00:714;12:23:00:659;1448408339.22;(0.7237734317779541, 0.7901794009738499);89.4546966553;0.848272324296;;;;;;;;;;;;;;0;0;0;0;0;0;0;0;0;();(-2000.0, -2000.0);
12:23:00:730;12:23:00:722;1448408339.28;(0.7245059490203858, 0.7906314425998264);89.5551376343;1.0;;;;;;;;;;;;;;0;0;0;0;0;0;0;0;0;();(-2000.0, -2000.0);
12:23:00:747;12:23:00:722;1448408339.28;(0.7245059490203858, 0.7906314425998264);89.5551376343;1.0;;;;;;;;;;;;;;0;0;0;0;0;0;0;0;0;();(-2000.0, -2000.0);
12:23:00:782;12:23:00:722;1448408339.28;(0.7245059490203858, 0.7906314425998264);89.5551376343;1.0;;;;;;;;;;;;;;0;0;0;0;0;0;0;0;0;();(-2000.0, -2000.0);
12:23:00:798;12:23:00:791;1448408339.35;(0.7237360000610351, 0.7907948599921333);90.0344390869;1.0;;;;;;;;;;;;;;0;0;0;0;0;0;0;0;0;();(-2000.0, -2000.0);
12:23:00:815;12:23:00:791;1448408339.35;(0.7237360000610351, 0.7907948599921333);90.0344390869;1.0;;;;;;;;;;;;;;0;0;0;0;0;0;0;0;0;();(-2000.0, -2000.0);
12:23:00:831;12:23:00:791;1448408339.35;(0.7237360000610351, 0.7907948599921333);90.0344390869;1.0;;;;;;;;;;;;;;0;0;0;0;0;0;0;0;0;();(-2000.0, -2000.0);
12:23:00:849;12:23:00:791;1448408339.35;(0.7237360000610351, 0.7907948599921333);90.0344390869;1.0;;;;;;;;;;;;;;0;0;0;0;0;0;0;0;0;();(-2000.0, -2000.0);
12:23:00:881;12:23:00:855;1448408339.42;(0.7235557079315186, 0.789795790778266);90.2573623657;0.952289430309;;;;;;;;;;;;;;0;0;0;0;0;0;0;0;0;();(-2000.0, -2000.0);
12:23:00:897;12:23:00:855;1448408339.42;(0.7235557079315186, 0.789795790778266);90.2573623657;0.952289430309;;;;;;;;;;;;;;0;0;0;0;0;0;0;0;0;();(-2000.0, -2000.0);
12:23:00:914;12:23:00:855;1448408339.42;(0.7235557079315186, 0.789795790778266);90.2573623657;0.952289430309;;;;;;;;;;;;;;0;0;0;0;0;0;0;0;0;();(-2000.0, -2000.0);
12:23:00:930;12:23:00:921;1448408339.48;(0.7235309600830078, 0.7911946402655707);89.9687957764;0.981939571004;;;;;;;;;;;;;;0;0;0;0;0;0;0;0;0;();(-2000.0, -2000.0);
12:23:00:947;12:23:00:921;1448408339.48;(0.7235309600830078, 0.7911946402655707);89.9687957764;0.981939571004;;;;;;;;;;;;;;0;0;0;0;0;0;0;0;0;();(-2000.0, -2000.0);
12:23:00:981;12:23:00:921;1448408339.48;(0.7235309600830078, 0.7911946402655707);89.9687957764;0.981939571004;;;;;;;;;;;;;;0;0;0;0;0;0;0;0;0;();(-2000.0, -2000.0);
12:23:00:998;12:23:00:989;1448408339.55;(0.7024613380432129, 0.7923472086588541);87.9004211426;0.764746060662;;;;;;;;;;;;;;0;0;0;0;0;0;0;0;0;();(-2000.0, -2000.0);
12:23:01:015;12:23:00:989;1448408339.55;(0.7024613380432129, 0.7923472086588541);87.9004211426;0.764746060662;;;;;;;;;;;;;;0;0;0;0;0;0;0;0;0;();(-2000.0, -2000.0);
12:23:01:030;12:23:00:989;1448408339.55;(0.7024613380432129, 0.7923472086588541);87.9004211426;0.764746060662;;;;;;;;;;;;;;0;0;0;0;0;0;0;0;0;();(-2000.0, -2000.0);
12:23:01:047;12:23:00:989;1448408339.55;(0.7024613380432129, 0.7923472086588541);87.9004211426;0.764746060662;;;;;;;;;;;;;;0;0;0;0;0;0;0;0;0;();(-2000.0, -2000.0);
12:23:01:082;12:23:01:053;1448408339.62;(0.6953027725219727, 0.7904710133870443);89.2522354126;0.802540162723;;;;;;;;;;;;;;0;0;0;0;0;0;0;0;0;();(-2000.0, -2000.0);
12:23:01:099;12:23:01:053;1448408339.62;(0.6953027725219727, 0.7904710133870443);89.2522354126;0.802540162723;;;;;;;;;;;;;;0;0;0;0;0;0;0;0;0;();(-2000.0, -2000.0);
12:23:01:115;12:23:01:053;1448408339.62;(0.6953027725219727, 0.7904710133870443);89.2522354126;0.802540162723;;;;;;;;;;;;;;0;0;0;0;0;0;0;0;0;();(-2000.0, -2000.0);
12:23:01:132;12:23:01:124;1448408339.68;(0.6955914497375488, 0.7894333945380316);90.1580734253;0.86310324216;;;;;;;;;;;;;;0;0;0;0;0;0;0;0;0;();(-2000.0, -2000.0);
12:23:01:149;12:23:01:124;1448408339.68;(0.6955914497375488, 0.7894333945380316);90.1580734253;0.86310324216;;;;;;;;;;;;;;0;0;0;0;0;0;0;0;0;();(-2000.0, -2000.0);
12:23:01:182;12:23:01:124;1448408339.68;(0.6955914497375488, 0.7894333945380316);90.1580734253;0.86310324216;;;;;;;;;;;;;;0;0;0;0;0;0;0;0;0;();(-2000.0, -2000.0);
12:23:01:198;12:23:01:191;1448408339.75;(0.6960687160491943, 0.7907816569010416);89.9876098633;0.896152393429;;;;;;;;;;;;;;0;0;0;0;0;0;0;0;0;();(-2000.0, -2000.0);
12:23:01:215;12:23:01:191;1448408339.75;(0.6960687160491943, 0.7907816569010416);89.9876098633;0.896152393429;;;;;;;;;;;;;;0;0;0;0;0;0;0;0;0;();(-2000.0, -2000.0);
12:23:01:231;12:23:01:191;1448408339.75;(0.6960687160491943, 0.7907816569010416);89.9876098633;0.896152393429;;;;;;;;;;;;;;0;0;0;0;0;0;0;0;0;();(-2000.0, -2000.0);
12:23:01:247;12:23:01:191;1448408339.75;(0.6960687160491943, 0.7907816569010416);89.9876098633;0.896152393429;;;;;;;;;;;;;;0;0;0;0;0;0;0;0;0;();(-2000.0, -2000.0);
12:23:01:280;12:23:01:256;1448408339.82;(0.6959538936614991, 0.7914047029283311);90.4671325684;0.916875567759;;;;;;;;;;;;;;0;0;0;0;0;0;0;0;0;();(-2000.0, -2000.0);
12:23:01:297;12:23:01:256;1448408339.82;(0.6959538936614991, 0.7914047029283311);90.4671325684;0.916875567759;;;;;;;;;;;;;;0;0;0;0;0;0;0;0;0;();(-2000.0, -2000.0);
12:23:01:314;12:23:01:256;1448408339.82;(0.6959538936614991, 0.7914047029283311);90.4671325684;0.916875567759;;;;;;;;;;;;;;0;0;0;0;0;0;0;0;0;();(-2000.0, -2000.0);
12:23:01:331;12:23:01:324;1448408339.88;(0.6956954002380371, 0.7894771152072483);90.415145874;0.853126562081;;;;;;;;;;;;;;0;0;0;0;0;0;0;0;0;();(-2000.0, -2000.0);
12:23:01:348;12:23:01:324;1448408339.88;(0.6956954002380371, 0.7894771152072483);90.415145874;0.853126562081;;;;;;;;;;;;;;0;0;0;0;0;0;0;0;0;();(-2000.0, -2000.0);
12:23:01:381;12:23:01:324;1448408339.88;(0.6956954002380371, 0.7894771152072483);90.415145874;0.853126562081;;;;;;;;;;;;;;0;0;0;0;0;0;0;0;0;();(-2000.0, -2000.0);
12:23:01:397;12:23:01:385;1448408339.95;(0, 0);0;0;;;;;;;;;;;;;;0;0;0;0;0;0;0;0;0;();(-2000.0, -2000.0);
12:23:01:414;12:23:01:385;1448408339.95;(0, 0);0;0;;;;;;;;;;;;;;0;0;0;0;0;0;0;0;0;();(-2000.0, -2000.0);
12:23:01:431;12:23:01:385;1448408339.95;(0, 0);0;0;;;;;;;;;;;;;;0;0;0;0;0;0;0;0;0;();(-2000.0, -2000.0);
12:23:01:448;12:23:01:385;1448408339.95;(0, 0);0;0;;;;;;;;;;;;;;0;0;0;0;0;0;0;0;0;();(-2000.0, -2000.0);
12:23:01:480;12:23:01:453;1448408340.02;(0, 0);0;0;;;;;;;;;;;;;;0;0;0;0;0;0;0;0;0;();(-2000.0, -2000.0);
12:23:01:497;12:23:01:453;1448408340.02;(0, 0);0;0;;;;;;;;;;;;;;0;0;0;0;0;0;0;0;0;();(-2000.0, -2000.0);
12:23:01:514;12:23:01:453;1448408340.02;(0, 0);0;0;;;;;;;;;;;;;;0;0;0;0;0;0;0;0;0;();(-2000.0, -2000.0);
12:23:01:531;12:23:01:518;1448408340.08;(0.9385827064514161, 0.42643585205078127);21.1174221039;0.911898271398;;;;;;;;;;;;;;0;0;0;0;0;0;0;0;0;();(-2000.0, -2000.0);
12:23:01:547;12:23:01:518;1448408340.08;(0.9385827064514161, 0.42643585205078127);21.1174221039;0.911898271398;;;;;;;;;;;;;;0;0;0;0;0;0;0;0;0;();(-2000.0, -2000.0);
12:23:01:581;12:23:01:518;1448408340.08;(0.9385827064514161, 0.42643585205078127);21.1174221039;0.911898271398;;;;;;;;;;;;;;0;0;0;0;0;0;0;0;0;();(-2000.0, -2000.0);
12:23:01:597;12:23:01:584;1448408340.12;(0.7183148860931396, 0.8095156775580512);91.4344482422;0.672153062521;;;;;;;;;;;;;;0;0;0;0;0;0;0;0;0;();(-2000.0, -2000.0);
12:23:01:614;12:23:01:584;1448408340.12;(0.7183148860931396, 0.8095156775580512);91.4344482422;0.672153062521;;;;;;;;;;;;;;0;0;0;0;0;0;0;0;0;();(-2000.0, -2000.0);
12:23:01:631;12:23:01:584;1448408340.12;(0.7183148860931396, 0.8095156775580512);91.4344482422;0.672153062521;;;;;;;;;;;;;;0;0;0;0;0;0;0;0;0;();(-2000.0, -2000.0);
12:23:01:647;12:23:01:584;1448408340.12;(0.7183148860931396, 0.8095156775580512);91.4344482422;0.672153062521;;;;;;;;;;;;;;0;0;0;0;0;0;0;0;0;();(-2000.0, -2000.0);
12:23:01:682;12:23:01:655;1448408340.22;(0.720249605178833, 0.8009202957153321);89.1914825439;0.872879242553;;;;;;;;;;;;;;0;0;0;0;0;0;0;0;0;();(-2000.0, -2000.0);
12:23:01:698;12:23:01:655;1448408340.22;(0.720249605178833, 0.8009202957153321);89.1914825439;0.872879242553;;;;;;;;;;;;;;0;0;0;0;0;0;0;0;0;();(-2000.0, -2000.0);
12:23:01:715;12:23:01:655;1448408340.22;(0.720249605178833, 0.8009202957153321);89.1914825439;0.872879242553;;;;;;;;;;;;;;0;0;0;0;0;0;0;0;0;();(-2000.0, -2000.0);
12:23:01:731;12:23:01:719;1448408340.28;(0.721710205078125, 0.8012055608961317);88.9193115234;0.936219442404;;;;;;;;;;;;;;0;0;0;0;0;0;0;0;0;();(-2000.0, -2000.0);
12:23:01:747;12:23:01:719;1448408340.28;(0.721710205078125, 0.8012055608961317);88.9193115234;0.936219442404;;;;;;;;;;;;;;0;0;0;0;0;0;0;0;0;();(-2000.0, -2000.0);
12:23:01:782;12:23:01:719;1448408340.28;(0.721710205078125, 0.8012055608961317);88.9193115234;0.936219442404;;;;;;;;;;;;;;0;0;0;0;0;0;0;0;0;();(-2000.0, -2000.0);
12:23:01:797;12:23:01:786;1448408340.35;(0.7222949028015136, 0.801600890689426);88.6333770752;1.0;;;;;;;;;;;;;;0;0;0;0;0;0;0;0;0;();(-2000.0, -2000.0);
12:23:01:814;12:23:01:786;1448408340.35;(0.7222949028015136, 0.801600890689426);88.6333770752;1.0;;;;;;;;;;;;;;0;0;0;0;0;0;0;0;0;();(-2000.0, -2000.0);
12:23:01:832;12:23:01:786;1448408340.35;(0.7222949028015136, 0.801600890689426);88.6333770752;1.0;;;;;;;;;;;;;;0;0;0;0;0;0;0;0;0;();(-2000.0, -2000.0);
12:23:01:847;12:23:01:786;1448408340.35;(0.7222949028015136, 0.801600890689426);88.6333770752;1.0;;;;;;;;;;;;;;0;0;0;0;0;0;0;0;0;();(-2000.0, -2000.0);
12:23:01:882;12:23:01:851;1448408340.42;(0.7224511623382568, 0.8002965927124024);89.9965362549;0.832932210022;;;;;;;;;;;;;;0;0;0;0;0;0;0;0;0;();(-2000.0, -2000.0);
12:23:01:899;12:23:01:851;1448408340.42;(0.7224511623382568, 0.8002965927124024);89.9965362549;0.832932210022;;;;;;;;;;;;;;0;0;0;0;0;0;0;0;0;();(-2000.0, -2000.0);
12:23:01:915;12:23:01:851;1448408340.42;(0.7224511623382568, 0.8002965927124024);89.9965362549;0.832932210022;;;;;;;;;;;;;;0;0;0;0;0;0;0;0;0;();(-2000.0, -2000.0);
12:23:01:931;12:23:01:920;1448408340.48;(0.7238432407379151, 0.795470831129286);88.7600860596;0.828499020091;;;;;;;;;;;;;;0;0;0;0;0;0;0;0;0;();(-2000.0, -2000.0);
12:23:01:949;12:23:01:920;1448408340.48;(0.7238432407379151, 0.795470831129286);88.7600860596;0.828499020091;;;;;;;;;;;;;;0;0;0;0;0;0;0;0;0;();(-2000.0, -2000.0);
12:23:01:981;12:23:01:920;1448408340.48;(0.7238432407379151, 0.795470831129286);88.7600860596;0.828499020091;;;;;;;;;;;;;;0;0;0;0;0;0;0;0;0;();(-2000.0, -2000.0);
12:23:01:998;12:23:01:992;1448408340.55;(0.7241600513458252, 0.7970457077026367);88.4925689697;0.910491205758;;;;;;;;;;;;;;0;0;0;0;0;0;0;0;0;();(-2000.0, -2000.0);
12:23:02:015;12:23:01:992;1448408340.55;(0.7241600513458252, 0.7970457077026367);88.4925689697;0.910491205758;;;;;;;;;;;;;;0;0;0;0;0;0;0;0;0;();(-2000.0, -2000.0);
12:23:02:031;12:23:01:992;1448408340.55;(0.7241600513458252, 0.7970457077026367);88.4925689697;0.910491205758;;;;;;;;;;;;;;0;0;0;0;0;0;0;0;0;();(-2000.0, -2000.0);
12:23:02:048;12:23:01:992;1448408340.55;(0.7241600513458252, 0.7970457077026367);88.4925689697;0.910491205758;;;;;;;;;;;;;;0;0;0;0;0;0;0;0;0;();(-2000.0, -2000.0);
12:23:02:082;12:23:02:053;1448408340.62;(0.7395829200744629, 0.784388902452257);89.8473205566;0.916067368892;;;;;;;;;;;;;;0;0;0;0;0;0;0;0;0;();(-2000.0, -2000.0);
12:23:02:098;12:23:02:053;1448408340.62;(0.7395829200744629, 0.784388902452257);89.8473205566;0.916067368892;;;;;;;;;;;;;;0;0;0;0;0;0;0;0;0;();(-2000.0, -2000.0);
12:23:02:114;12:23:02:053;1448408340.62;(0.7395829200744629, 0.784388902452257);89.8473205566;0.916067368892;;;;;;;;;;;;;;0;0;0;0;0;0;0;0;0;();(-2000.0, -2000.0);
12:23:02:132;12:23:02:119;1448408340.68;(0.7390700817108155, 0.7839512719048394);89.9319915771;0.969841195432;;;;;;;;;;;;;;0;0;0;0;0;0;0;0;0;();(-2000.0, -2000.0);
12:23:02:148;12:23:02:119;1448408340.68;(0.7390700817108155, 0.7839512719048394);89.9319915771;0.969841195432;;;;;;;;;;;;;;0;0;0;0;0;0;0;0;0;();(-2000.0, -2000.0);
12:23:02:183;12:23:02:181;1448408340.75;(0.7397791385650635, 0.7819336573282878);89.3502502441;1.0;;;;;;;;;;;;;;0;0;0;0;0;0;0;0;0;();(-2000.0, -2000.0);
12:23:02:198;12:23:02:181;1448408340.75;(0.7397791385650635, 0.7819336573282878);89.3502502441;1.0;;;;;;;;;;;;;;0;0;0;0;0;0;0;0;0;();(-2000.0, -2000.0);
12:23:02:215;12:23:02:181;1448408340.75;(0.7397791385650635, 0.7819336573282878);89.3502502441;1.0;;;;;;;;;;;;;;0;0;0;0;0;0;0;0;0;();(-2000.0, -2000.0);
12:23:02:232;12:23:02:181;1448408340.75;(0.7397791385650635, 0.7819336573282878);89.3502502441;1.0;;;;;;;;;;;;;;0;0;0;0;0;0;0;0;0;();(-2000.0, -2000.0);
12:23:02:248;12:23:02:181;1448408340.75;(0.7397791385650635, 0.7819336573282878);89.3502502441;1.0;;;;;;;;;;;;;;0;0;0;0;0;0;0;0;0;();(-2000.0, -2000.0);
12:23:02:281;12:23:02:253;1448408340.82;(0.7407648086547851, 0.7826504601372613);89.4632797241;0.97626087514;;;;;;;;;;;;;;0;0;0;0;0;0;0;0;0;();(-2000.0, -2000.0);
12:23:02:299;12:23:02:253;1448408340.82;(0.7407648086547851, 0.7826504601372613);89.4632797241;0.97626087514;;;;;;;;;;;;;;0;0;0;0;0;0;0;0;0;();(-2000.0, -2000.0);
12:23:02:316;12:23:02:253;1448408340.82;(0.7407648086547851, 0.7826504601372613);89.4632797241;0.97626087514;;;;;;;;;;;;;;0;0;0;0;0;0;0;0;0;();(-2000.0, -2000.0);
12:23:02:332;12:23:02:319;1448408340.88;(0.7411644458770752, 0.7832328796386718);89.4267578125;0.977186345576;;;;;;;;;;;;;;0;0;0;0;0;0;0;0;0;();(-2000.0, -2000.0);
12:23:02:349;12:23:02:319;1448408340.88;(0.7411644458770752, 0.7832328796386718);89.4267578125;0.977186345576;;;;;;;;;;;;;;0;0;0;0;0;0;0;0;0;();(-2000.0, -2000.0);
12:23:02:382;12:23:02:319;1448408340.88;(0.7411644458770752, 0.7832328796386718);89.4267578125;0.977186345576;;;;;;;;;;;;;;0;0;0;0;0;0;0;0;0;();(-2000.0, -2000.0);
12:23:02:399;12:23:02:390;1448408340.95;(0.7047682762145996, 0.7874130460951063);88.3121566772;0.696442085201;;;;;;;;;;;;;;0;0;0;0;0;0;0;0;0;();(-2000.0, -2000.0);
12:23:02:415;12:23:02:390;1448408340.95;(0.7047682762145996, 0.7874130460951063);88.3121566772;0.696442085201;;;;;;;;;;;;;;0;0;0;0;0;0;0;0;0;();(-2000.0, -2000.0);
12:23:02:432;12:23:02:390;1448408340.95;(0.7047682762145996, 0.7874130460951063);88.3121566772;0.696442085201;;;;;;;;;;;;;;0;0;0;0;0;0;0;0;0;();(-2000.0, -2000.0);
12:23:02:451;12:23:02:449;1448408341.02;(0.6588457584381103, 0.7949572033352322);88.8512268066;0.730457421707;;;;;;;;;;;;;;0;0;0;0;0;0;0;0;0;();(-2000.0, -2000.0);
12:23:02:465;12:23:02:449;1448408341.02;(0.6588457584381103, 0.7949572033352322);88.8512268066;0.730457421707;;;;;;;;;;;;;;0;0;0;0;0;0;0;0;0;();(-2000.0, -2000.0);
12:23:02:498;12:23:02:449;1448408341.02;(0.6588457584381103, 0.7949572033352322);88.8512268066;0.730457421707;;;;;;;;;;;;;;0;0;0;0;0;0;0;0;0;();(-2000.0, -2000.0);
12:23:02:515;12:23:02:513;1448408341.08;(0.6586180210113526, 0.79127074347602);88.0513458252;0.856421620214;;;;;;;;;;;;;;0;0;0;0;0;0;0;0;0;();(-2000.0, -2000.0);
12:23:02:532;12:23:02:513;1448408341.08;(0.6586180210113526, 0.79127074347602);88.0513458252;0.856421620214;;;;;;;;;;;;;;0;0;0;0;0;0;0;0;0;();(-2000.0, -2000.0);
12:23:02:549;12:23:02:513;1448408341.08;(0.6586180210113526, 0.79127074347602);88.0513458252;0.856421620214;;;;;;;;;;;;;;0;0;0;0;0;0;0;0;0;();(-2000.0, -2000.0);
12:23:02:565;12:23:02:513;1448408341.08;(0.6586180210113526, 0.79127074347602);88.0513458252;0.856421620214;;;;;;;;;;;;;;0;0;0;0;0;0;0;0;0;();(-2000.0, -2000.0);
12:23:02:599;12:23:02:581;1448408341.15;(0.6590054035186768, 0.7907178666856554);88.0693511963;0.720215219784;;;;;;;;;;;;;;0;0;0;0;0;0;0;0;0;();(-2000.0, -2000.0);
12:23:02:615;12:23:02:581;1448408341.15;(0.6590054035186768, 0.7907178666856554);88.0693511963;0.720215219784;;;;;;;;;;;;;;0;0;0;0;0;0;0;0;0;();(-2000.0, -2000.0);
12:23:02:632;12:23:02:581;1448408341.15;(0.6590054035186768, 0.7907178666856554);88.0693511963;0.720215219784;;;;;;;;;;;;;;0;0;0;0;0;0;0;0;0;();(-2000.0, -2000.0);
12:23:02:648;12:23:02:581;1448408341.15;(0.6590054035186768, 0.7907178666856554);88.0693511963;0.720215219784;;;;;;;;;;;;;;0;0;0;0;0;0;0;0;0;();(-2000.0, -2000.0);
12:23:02:665;12:23:02:653;1448408341.22;(0.6598513126373291, 0.7933174345228406);88.841178894;0.873978997333;;;;;;;;;;;;;;0;0;0;0;0;0;0;0;0;();(-2000.0, -2000.0);
12:23:02:698;12:23:02:653;1448408341.22;(0.6598513126373291, 0.7933174345228406);88.841178894;0.873978997333;;;;;;;;;;;;;;0;0;0;0;0;0;0;0;0;();(-2000.0, -2000.0);
12:23:02:715;12:23:02:714;1448408341.28;(0.6606751441955566, 0.7940046310424804);88.5447463989;0.757166160679;;;;;;;;;;;;;;0;0;0;0;0;0;0;0;0;();(-2000.0, -2000.0);
12:23:02:732;12:23:02:714;1448408341.28;(0.6606751441955566, 0.7940046310424804);88.5447463989;0.757166160679;;;;;;;;;;;;;;0;0;0;0;0;0;0;0;0;();(-2000.0, -2000.0);
12:23:02:749;12:23:02:714;1448408341.28;(0.6606751441955566, 0.7940046310424804);88.5447463989;0.757166160679;;;;;;;;;;;;;;0;0;0;0;0;0;0;0;0;();(-2000.0, -2000.0);
12:23:02:765;12:23:02:714;1448408341.28;(0.6606751441955566, 0.7940046310424804);88.5447463989;0.757166160679;;;;;;;;;;;;;;0;0;0;0;0;0;0;0;0;();(-2000.0, -2000.0);
12:23:02:798;12:23:02:781;1448408341.35;(0, 0);0;0;;;;;;;;;;;;;;0;0;0;0;0;0;0;0;0;();(-2000.0, -2000.0);
12:23:02:815;12:23:02:781;1448408341.35;(0, 0);0;0;;;;;;;;;;;;;;0;0;0;0;0;0;0;0;0;();(-2000.0, -2000.0);
12:23:02:832;12:23:02:781;1448408341.35;(0, 0);0;0;;;;;;;;;;;;;;0;0;0;0;0;0;0;0;0;();(-2000.0, -2000.0);
12:23:02:848;12:23:02:845;1448408341.42;(0.7471546649932861, 0.7735829035441081);25.9849681854;0.654076530809;;;;;;;;;;;;;;0;0;0;0;0;0;0;0;0;();(-2000.0, -2000.0);
12:23:02:865;12:23:02:845;1448408341.42;(0.7471546649932861, 0.7735829035441081);25.9849681854;0.654076530809;;;;;;;;;;;;;;0;0;0;0;0;0;0;0;0;();(-2000.0, -2000.0);
12:23:02:900;12:23:02:845;1448408341.42;(0.7471546649932861, 0.7735829035441081);25.9849681854;0.654076530809;;;;;;;;;;;;;;0;0;0;0;0;0;0;0;0;();(-2000.0, -2000.0);
12:23:02:918;12:23:02:914;1448408341.48;(0, 0);0;0;;;;;;;;;;;;;;0;0;0;0;0;0;0;0;0;();(-2000.0, -2000.0);
12:23:02:933;12:23:02:914;1448408341.48;(0, 0);0;0;;;;;;;;;;;;;;0;0;0;0;0;0;0;0;0;();(-2000.0, -2000.0);
12:23:02:951;12:23:02:914;1448408341.48;(0, 0);0;0;;;;;;;;;;;;;;0;0;0;0;0;0;0;0;0;();(-2000.0, -2000.0);
12:23:02:965;12:23:02:914;1448408341.48;(0, 0);0;0;;;;;;;;;;;;;;0;0;0;0;0;0;0;0;0;();(-2000.0, -2000.0);
12:23:03:000;12:23:02:978;1448408341.55;(0.7287300586700439, 0.8127263175116645);85.0340423584;1.0;;;;;;;;;;;;;;0;0;0;0;0;0;0;0;0;();(-2000.0, -2000.0);
12:23:03:017;12:23:02:978;1448408341.55;(0.7287300586700439, 0.8127263175116645);85.0340423584;1.0;;;;;;;;;;;;;;0;0;0;0;0;0;0;0;0;();(-2000.0, -2000.0);
12:23:03:032;12:23:02:978;1448408341.55;(0.7287300586700439, 0.8127263175116645);85.0340423584;1.0;;;;;;;;;;;;;;0;0;0;0;0;0;0;0;0;();(-2000.0, -2000.0);
12:23:03:049;12:23:03:046;1448408341.62;(0.269501256942749, 0.8715369542439779);19.3941574097;0.68090110202;;;;;;;;;;;;;;0;0;0;0;0;0;0;0;0;();(-2000.0, -2000.0);
12:23:03:065;12:23:03:046;1448408341.62;(0.269501256942749, 0.8715369542439779);19.3941574097;0.68090110202;;;;;;;;;;;;;;0;0;0;0;0;0;0;0;0;();(-2000.0, -2000.0);
12:23:03:100;12:23:03:046;1448408341.62;(0.269501256942749, 0.8715369542439779);19.3941574097;0.68090110202;;;;;;;;;;;;;;0;0;0;0;0;0;0;0;0;();(-2000.0, -2000.0);
12:23:03:117;12:23:03:111;1448408341.65;(0, 0);0;0;;;;;;;;;;;;;;0;0;0;0;0;0;0;0;0;();(-2000.0, -2000.0);
12:23:03:134;12:23:03:111;1448408341.65;(0, 0);0;0;;;;;;;;;;;;;;0;0;0;0;0;0;0;0;0;();(-2000.0, -2000.0);
12:23:03:150;12:23:03:111;1448408341.65;(0, 0);0;0;;;;;;;;;;;;;;0;0;0;0;0;0;0;0;0;();(-2000.0, -2000.0);
12:23:03:166;12:23:03:111;1448408341.65;(0, 0);0;0;;;;;;;;;;;;;;0;0;0;0;0;0;0;0;0;();(-2000.0, -2000.0);
12:23:03:200;12:23:03:181;1448408341.75;(0.7310869216918945, 0.8115023612976074);87.8840026855;0.840402853177;;;;;;;;;;;;;;0;0;0;0;0;0;0;0;0;();(-2000.0, -2000.0);
12:23:03:217;12:23:03:181;1448408341.75;(0.7310869216918945, 0.8115023612976074);87.8840026855;0.840402853177;;;;;;;;;;;;;;0;0;0;0;0;0;0;0;0;();(-2000.0, -2000.0);
12:23:03:233;12:23:03:181;1448408341.75;(0.7310869216918945, 0.8115023612976074);87.8840026855;0.840402853177;;;;;;;;;;;;;;0;0;0;0;0;0;0;0;0;();(-2000.0, -2000.0);
12:23:03:249;12:23:03:181;1448408341.75;(0.7310869216918945, 0.8115023612976074);87.8840026855;0.840402853177;;;;;;;;;;;;;;0;0;0;0;0;0;0;0;0;();(-2000.0, -2000.0);
12:23:03:265;12:23:03:256;1448408341.82;(0.7316222190856934, 0.8107737965053983);86.3941345215;1.0;;;;;;;;;;;;;;0;0;0;0;0;0;0;0;0;();(-2000.0, -2000.0);
12:23:03:299;12:23:03:256;1448408341.82;(0.7316222190856934, 0.8107737965053983);86.3941345215;1.0;;;;;;;;;;;;;;0;0;0;0;0;0;0;0;0;();(-2000.0, -2000.0);
12:23:03:315;12:23:03:309;1448408341.88;(0.7477631568908691, 0.8042808850606282);87.2736434937;0.888687584975;;;;;;;;;;;;;;0;0;0;0;0;0;0;0;0;();(-2000.0, -2000.0);
12:23:03:332;12:23:03:309;1448408341.88;(0.7477631568908691, 0.8042808850606282);87.2736434937;0.888687584975;;;;;;;;;;;;;;0;0;0;0;0;0;0;0;0;();(-2000.0, -2000.0);
12:23:03:349;12:23:03:309;1448408341.88;(0.7477631568908691, 0.8042808850606282);87.2736434937;0.888687584975;;;;;;;;;;;;;;0;0;0;0;0;0;0;0;0;();(-2000.0, -2000.0);
12:23:03:366;12:23:03:309;1448408341.88;(0.7477631568908691, 0.8042808850606282);87.2736434937;0.888687584975;;;;;;;;;;;;;;0;0;0;0;0;0;0;0;0;();(-2000.0, -2000.0);
12:23:03:400;12:23:03:378;1448408341.95;(0.7498831272125244, 0.8027927822536892);88.0992050171;0.937091347731;;;;;;;;;;;;;;0;0;0;0;0;0;0;0;0;();(-2000.0, -2000.0);
12:23:03:416;12:23:03:378;1448408341.95;(0.7498831272125244, 0.8027927822536892);88.0992050171;0.937091347731;;;;;;;;;;;;;;0;0;0;0;0;0;0;0;0;();(-2000.0, -2000.0);
12:23:03:432;12:23:03:378;1448408341.95;(0.7498831272125244, 0.8027927822536892);88.0992050171;0.937091347731;;;;;;;;;;;;;;0;0;0;0;0;0;0;0;0;();(-2000.0, -2000.0);
12:23:03:450;12:23:03:445;1448408342.02;(0.7505372047424317, 0.801724010043674);88.3105621338;0.988256913447;;;;;;;;;;;;;;0;0;0;0;0;0;0;0;0;();(-2000.0, -2000.0);
12:23:03:466;12:23:03:445;1448408342.02;(0.7505372047424317, 0.801724010043674);88.3105621338;0.988256913447;;;;;;;;;;;;;;0;0;0;0;0;0;0;0;0;();(-2000.0, -2000.0);
12:23:03:499;12:23:03:445;1448408342.02;(0.7505372047424317, 0.801724010043674);88.3105621338;0.988256913447;;;;;;;;;;;;;;0;0;0;0;0;0;0;0;0;();(-2000.0, -2000.0);
12:23:03:516;12:23:03:510;1448408342.08;(0.749576997756958, 0.8023331536187066);88.7860183716;0.824920780605;;;;;;;;;;;;;;0;0;0;0;0;0;0;0;0;();(-2000.0, -2000.0);
12:23:03:533;12:23:03:510;1448408342.08;(0.749576997756958, 0.8023331536187066);88.7860183716;0.824920780605;;;;;;;;;;;;;;0;0;0;0;0;0;0;0;0;();(-2000.0, -2000.0);
12:23:03:549;12:23:03:510;1448408342.08;(0.749576997756958, 0.8023331536187066);88.7860183716;0.824920780605;;;;;;;;;;;;;;0;0;0;0;0;0;0;0;0;();(-2000.0, -2000.0);
12:23:03:566;12:23:03:510;1448408342.08;(0.749576997756958, 0.8023331536187066);88.7860183716;0.824920780605;;;;;;;;;;;;;;0;0;0;0;0;0;0;0;0;();(-2000.0, -2000.0);
12:23:03:599;12:23:03:577;1448408342.15;(0.7479403972625732, 0.8023212220933702);88.7946472168;0.919057338108;;;;;;;;;;;;;;0;0;0;0;0;0;0;0;0;();(-2000.0, -2000.0);
12:23:03:616;12:23:03:577;1448408342.15;(0.7479403972625732, 0.8023212220933702);88.7946472168;0.919057338108;;;;;;;;;;;;;;0;0;0;0;0;0;0;0;0;();(-2000.0, -2000.0);
12:23:03:633;12:23:03:577;1448408342.15;(0.7479403972625732, 0.8023212220933702);88.7946472168;0.919057338108;;;;;;;;;;;;;;0;0;0;0;0;0;0;0;0;();(-2000.0, -2000.0);
12:23:03:649;12:23:03:641;1448408342.22;(0.7483533382415771, 0.8020676294962565);89.9071807861;1.0;;;;;;;;;;;;;;0;0;0;0;0;0;0;0;0;();(-2000.0, -2000.0);
12:23:03:666;12:23:03:641;1448408342.22;(0.7483533382415771, 0.8020676294962565);89.9071807861;1.0;;;;;;;;;;;;;;0;0;0;0;0;0;0;0;0;();(-2000.0, -2000.0);
12:23:03:699;12:23:03:641;1448408342.22;(0.7483533382415771, 0.8020676294962565);89.9071807861;1.0;;;;;;;;;;;;;;0;0;0;0;0;0;0;0;0;();(-2000.0, -2000.0);
12:23:03:716;12:23:03:709;1448408342.28;(0.7130251884460449, 0.8009153048197428);89.768699646;0.803974778646;;;;;;;;;;;;;;0;0;0;0;0;0;0;0;0;();(-2000.0, -2000.0);
12:23:03:733;12:23:03:709;1448408342.28;(0.7130251884460449, 0.8009153048197428);89.768699646;0.803974778646;;;;;;;;;;;;;;0;0;0;0;0;0;0;0;0;();(-2000.0, -2000.0);
12:23:03:750;12:23:03:709;1448408342.28;(0.7130251884460449, 0.8009153048197428);89.768699646;0.803974778646;;;;;;;;;;;;;;0;0;0;0;0;0;0;0;0;();(-2000.0, -2000.0);
12:23:03:766;12:23:03:709;1448408342.28;(0.7130251884460449, 0.8009153048197428);89.768699646;0.803974778646;;;;;;;;;;;;;;0;0;0;0;0;0;0;0;0;();(-2000.0, -2000.0);
12:23:03:800;12:23:03:777;1448408342.35;(0.7075292587280273, 0.8016117837693957);90.6417694092;0.883261146004;;;;;;;;;;;;;;0;0;0;0;0;0;0;0;0;();(-2000.0, -2000.0);
12:23:03:816;12:23:03:777;1448408342.35;(0.7075292587280273, 0.8016117837693957);90.6417694092;0.883261146004;;;;;;;;;;;;;;0;0;0;0;0;0;0;0;0;();(-2000.0, -2000.0);
12:23:03:833;12:23:03:777;1448408342.35;(0.7075292587280273, 0.8016117837693957);90.6417694092;0.883261146004;;;;;;;;;;;;;;0;0;0;0;0;0;0;0;0;();(-2000.0, -2000.0);
12:23:03:850;12:23:03:841;1448408342.42;(0.7067195892333984, 0.800000794728597);90.5539474487;0.953524996528;;;;;;;;;;;;;;0;0;0;0;0;0;0;0;0;();(-2000.0, -2000.0);
12:23:03:867;12:23:03:841;1448408342.42;(0.7067195892333984, 0.800000794728597);90.5539474487;0.953524996528;;;;;;;;;;;;;;0;0;0;0;0;0;0;0;0;();(-2000.0, -2000.0);
12:23:03:900;12:23:03:841;1448408342.42;(0.7067195892333984, 0.800000794728597);90.5539474487;0.953524996528;;;;;;;;;;;;;;0;0;0;0;0;0;0;0;0;();(-2000.0, -2000.0);
12:23:03:916;12:23:03:909;1448408342.48;(0.7060027599334717, 0.8000935448540581);90.555267334;0.961217469178;;;;;;;;;;;;;;0;0;0;0;0;0;0;0;0;();(-2000.0, -2000.0);
12:23:03:933;12:23:03:909;1448408342.48;(0.7060027599334717, 0.8000935448540581);90.555267334;0.961217469178;;;;;;;;;;;;;;0;0;0;0;0;0;0;0;0;();(-2000.0, -2000.0);
12:23:03:950;12:23:03:909;1448408342.48;(0.7060027599334717, 0.8000935448540581);90.555267334;0.961217469178;;;;;;;;;;;;;;0;0;0;0;0;0;0;0;0;();(-2000.0, -2000.0);
12:23:03:966;12:23:03:909;1448408342.48;(0.7060027599334717, 0.8000935448540581);90.555267334;0.961217469178;;;;;;;;;;;;;;0;0;0;0;0;0;0;0;0;();(-2000.0, -2000.0);
12:23:04:001;12:23:03:973;1448408342.55;(0.7060930252075195, 0.80106201171875);90.5132522583;0.994730890973;;;;;;;;;;;;;;0;0;0;0;0;0;0;0;0;();(-2000.0, -2000.0);
12:23:04:017;12:23:03:973;1448408342.55;(0.7060930252075195, 0.80106201171875);90.5132522583;0.994730890973;;;;;;;;;;;;;;0;0;0;0;0;0;0;0;0;();(-2000.0, -2000.0);
12:23:04:033;12:23:03:973;1448408342.55;(0.7060930252075195, 0.80106201171875);90.5132522583;0.994730890973;;;;;;;;;;;;;;0;0;0;0;0;0;0;0;0;();(-2000.0, -2000.0);
12:23:04:051;12:23:04:043;1448408342.62;(0.7069066524505615, 0.7996671252780491);91.5029983521;0.969143177709;;;;;;;;;;;;;;0;0;0;0;0;0;0;0;0;();(-2000.0, -2000.0);
12:23:04:066;12:23:04:043;1448408342.62;(0.7069066524505615, 0.7996671252780491);91.5029983521;0.969143177709;;;;;;;;;;;;;;0;0;0;0;0;0;0;0;0;();(-2000.0, -2000.0);
12:23:04:100;12:23:04:043;1448408342.62;(0.7069066524505615, 0.7996671252780491);91.5029983521;0.969143177709;;;;;;;;;;;;;;0;0;0;0;0;0;0;0;0;();(-2000.0, -2000.0);
12:23:04:116;12:23:04:109;1448408342.68;(0.7076924324035645, 0.7982243749830458);91.1034469604;1.0;;;;;;;;;;;;;;0;0;0;0;0;0;0;0;0;();(-2000.0, -2000.0);
12:23:04:133;12:23:04:109;1448408342.68;(0.7076924324035645, 0.7982243749830458);91.1034469604;1.0;;;;;;;;;;;;;;0;0;0;0;0;0;0;0;0;();(-2000.0, -2000.0);
12:23:04:150;12:23:04:109;1448408342.68;(0.7076924324035645, 0.7982243749830458);91.1034469604;1.0;;;;;;;;;;;;;;0;0;0;0;0;0;0;0;0;();(-2000.0, -2000.0);
12:23:04:166;12:23:04:109;1448408342.68;(0.7076924324035645, 0.7982243749830458);91.1034469604;1.0;;;;;;;;;;;;;;0;0;0;0;0;0;0;0;0;();(-2000.0, -2000.0);
12:23:04:200;12:23:04:173;1448408342.75;(0.7075733661651611, 0.7990313635932075);90.7666625977;0.976092061572;;;;;;;;;;;;;;0;0;0;0;0;0;0;0;0;();(-2000.0, -2000.0);
12:23:04:216;12:23:04:173;1448408342.75;(0.7075733661651611, 0.7990313635932075);90.7666625977;0.976092061572;;;;;;;;;;;;;;0;0;0;0;0;0;0;0;0;();(-2000.0, -2000.0);
12:23:04:233;12:23:04:173;1448408342.75;(0.7075733661651611, 0.7990313635932075);90.7666625977;0.976092061572;;;;;;;;;;;;;;0;0;0;0;0;0;0;0;0;();(-2000.0, -2000.0);
12:23:04:250;12:23:04:241;1448408342.82;(0.7066456794738769, 0.799743037753635);91.2667312622;0.965404571334;;;;;;;;;;;;;;0;0;0;0;0;0;0;0;0;();(-2000.0, -2000.0);
12:23:04:267;12:23:04:241;1448408342.82;(0.7066456794738769, 0.799743037753635);91.2667312622;0.965404571334;;;;;;;;;;;;;;0;0;0;0;0;0;0;0;0;();(-2000.0, -2000.0);
12:23:04:301;12:23:04:241;1448408342.82;(0.7066456794738769, 0.799743037753635);91.2667312622;0.965404571334;;;;;;;;;;;;;;0;0;0;0;0;0;0;0;0;();(-2000.0, -2000.0);
12:23:04:317;12:23:04:306;1448408342.88;(0.706111478805542, 0.7987636142306858);91.6406555176;0.979676184327;;;;;;;;;;;;;;0;0;0;0;0;0;0;0;0;();(-2000.0, -2000.0);
12:23:04:334;12:23:04:306;1448408342.88;(0.706111478805542, 0.7987636142306858);91.6406555176;0.979676184327;;;;;;;;;;;;;;0;0;0;0;0;0;0;0;0;();(-2000.0, -2000.0);
12:23:04:350;12:23:04:306;1448408342.88;(0.706111478805542, 0.7987636142306858);91.6406555176;0.979676184327;;;;;;;;;;;;;;0;0;0;0;0;0;0;0;0;();(-2000.0, -2000.0);
12:23:04:367;12:23:04:306;1448408342.88;(0.706111478805542, 0.7987636142306858);91.6406555176;0.979676184327;;;;;;;;;;;;;;0;0;0;0;0;0;0;0;0;();(-2000.0, -2000.0);
12:23:04:400;12:23:04:373;1448408342.95;(0, 0);0;0;;;;;;;;;;;;;;0;0;0;0;0;0;0;0;0;();(-2000.0, -2000.0);
12:23:04:416;12:23:04:373;1448408342.95;(0, 0);0;0;;;;;;;;;;;;;;0;0;0;0;0;0;0;0;0;();(-2000.0, -2000.0);
12:23:04:433;12:23:04:373;1448408342.95;(0, 0);0;0;;;;;;;;;;;;;;0;0;0;0;0;0;0;0;0;();(-2000.0, -2000.0);
12:23:04:450;12:23:04:441;1448408343.02;(0, 0);0;0;;;;;;;;;;;;;;0;0;0;0;0;0;0;0;0;();(-2000.0, -2000.0);
12:23:04:467;12:23:04:441;1448408343.02;(0, 0);0;0;;;;;;;;;;;;;;0;0;0;0;0;0;0;0;0;();(-2000.0, -2000.0);
12:23:04:501;12:23:04:441;1448408343.02;(0, 0);0;0;;;;;;;;;;;;;;0;0;0;0;0;0;0;0;0;();(-2000.0, -2000.0);
12:23:04:517;12:23:04:505;1448408343.08;(0, 0);0;0;;;;;;;;;;;;;;0;0;0;0;0;0;0;0;0;();(-2000.0, -2000.0);
12:23:04:533;12:23:04:505;1448408343.08;(0, 0);0;0;;;;;;;;;;;;;;0;0;0;0;0;0;0;0;0;();(-2000.0, -2000.0);
12:23:04:551;12:23:04:505;1448408343.08;(0, 0);0;0;;;;;;;;;;;;;;0;0;0;0;0;0;0;0;0;();(-2000.0, -2000.0);
12:23:04:568;12:23:04:505;1448408343.08;(0, 0);0;0;;;;;;;;;;;;;;0;0;0;0;0;0;0;0;0;();(-2000.0, -2000.0);
12:23:04:601;12:23:04:576;1448408343.15;(0, 0);0;0;;;;;;;;;;;;;;0;0;0;0;0;0;0;0;0;();(-2000.0, -2000.0);
12:23:04:618;12:23:04:576;1448408343.15;(0, 0);0;0;;;;;;;;;;;;;;0;0;0;0;0;0;0;0;0;();(-2000.0, -2000.0);
12:23:04:635;12:23:04:576;1448408343.15;(0, 0);0;0;;;;;;;;;;;;;;0;0;0;0;0;0;0;0;0;();(-2000.0, -2000.0);
12:23:04:652;12:23:04:643;1448408343.22;(0, 0);0;0;;;;;;;;;;;;;;0;0;0;0;0;0;0;0;0;();(-2000.0, -2000.0);
12:23:04:667;12:23:04:643;1448408343.22;(0, 0);0;0;;;;;;;;;;;;;;0;0;0;0;0;0;0;0;0;();(-2000.0, -2000.0);
12:23:04:702;12:23:04:643;1448408343.22;(0, 0);0;0;;;;;;;;;;;;;;0;0;0;0;0;0;0;0;0;();(-2000.0, -2000.0);
12:23:04:718;12:23:04:704;1448408343.25;(0, 0);0;0;;;;;;;;;;;;;;0;0;0;0;0;0;0;0;0;();(-2000.0, -2000.0);
12:23:04:735;12:23:04:704;1448408343.25;(0, 0);0;0;;;;;;;;;;;;;;0;0;0;0;0;0;0;0;0;();(-2000.0, -2000.0);
12:23:04:751;12:23:04:704;1448408343.25;(0, 0);0;0;;;;;;;;;;;;;;0;0;0;0;0;0;0;0;0;();(-2000.0, -2000.0);
12:23:04:769;12:23:04:704;1448408343.25;(0, 0);0;0;;;;;;;;;;;;;;0;0;0;0;0;0;0;0;0;();(-2000.0, -2000.0);
12:23:04:802;12:23:04:779;1448408343.35;(0.7270476818084717, 0.7829433441162109);92.0944519043;0.769170823616;;;;;;;;;;;;;;0;0;0;0;0;0;0;0;0;();(-2000.0, -2000.0);
12:23:04:818;12:23:04:779;1448408343.35;(0.7270476818084717, 0.7829433441162109);92.0944519043;0.769170823616;;;;;;;;;;;;;;0;0;0;0;0;0;0;0;0;();(-2000.0, -2000.0);
12:23:04:835;12:23:04:779;1448408343.35;(0.7270476818084717, 0.7829433441162109);92.0944519043;0.769170823616;;;;;;;;;;;;;;0;0;0;0;0;0;0;0;0;();(-2000.0, -2000.0);
12:23:04:850;12:23:04:779;1448408343.35;(0.7270476818084717, 0.7829433441162109);92.0944519043;0.769170823616;;;;;;;;;;;;;;0;0;0;0;0;0;0;0;0;();(-2000.0, -2000.0);
12:23:04:867;12:23:04:859;1448408343.42;(0, 0);0;0;;;;;;;;;;;;;;0;0;0;0;0;0;0;0;0;();(-2000.0, -2000.0);
12:23:04:901;12:23:04:859;1448408343.42;(0, 0);0;0;;;;;;;;;;;;;;0;0;0;0;0;0;0;0;0;();(-2000.0, -2000.0);
12:23:04:917;12:23:04:904;1448408343.45;(0.9514884948730469, 0.8738796128167047);29.2885837555;0.790995701856;;;;;;;;;;;;;;0;0;0;0;0;0;0;0;0;();(-2000.0, -2000.0);
12:23:04:934;12:23:04:904;1448408343.45;(0.9514884948730469, 0.8738796128167047);29.2885837555;0.790995701856;;;;;;;;;;;;;;0;0;0;0;0;0;0;0;0;();(-2000.0, -2000.0);
12:23:04:950;12:23:04:904;1448408343.45;(0.9514884948730469, 0.8738796128167047);29.2885837555;0.790995701856;;;;;;;;;;;;;;0;0;0;0;0;0;0;0;0;();(-2000.0, -2000.0);
12:23:04:967;12:23:04:904;1448408343.45;(0.9514884948730469, 0.8738796128167047);29.2885837555;0.790995701856;;;;;;;;;;;;;;0;0;0;0;0;0;0;0;0;();(-2000.0, -2000.0);
12:23:05:000;12:23:04:972;1448408343.52;(0.7271572113037109, 0.7840634240044488);92.122177124;0.906382401865;;;;;;;;;;;;;;0;0;0;0;0;0;0;0;0;();(-2000.0, -2000.0);
12:23:05:018;12:23:04:972;1448408343.52;(0.7271572113037109, 0.7840634240044488);92.122177124;0.906382401865;;;;;;;;;;;;;;0;0;0;0;0;0;0;0;0;();(-2000.0, -2000.0);
12:23:05:034;12:23:04:972;1448408343.52;(0.7271572113037109, 0.7840634240044488);92.122177124;0.906382401865;;;;;;;;;;;;;;0;0;0;0;0;0;0;0;0;();(-2000.0, -2000.0);
12:23:05:051;12:23:05:040;1448408343.62;(0, 0);0;0;;;;;;;;;;;;;;0;0;0;0;0;0;0;0;0;();(-2000.0, -2000.0);
12:23:05:067;12:23:05:040;1448408343.62;(0, 0);0;0;;;;;;;;;;;;;;0;0;0;0;0;0;0;0;0;();(-2000.0, -2000.0);
12:23:05:101;12:23:05:040;1448408343.62;(0, 0);0;0;;;;;;;;;;;;;;0;0;0;0;0;0;0;0;0;();(-2000.0, -2000.0);
12:23:05:119;12:23:05:103;1448408343.65;(0.7522174835205078, 0.7763488133748373);92.5408325195;0.906333833189;;;;;;;;;;;;;;0;0;0;0;0;0;0;0;0;();(-2000.0, -2000.0);
12:23:05:136;12:23:05:103;1448408343.65;(0.7522174835205078, 0.7763488133748373);92.5408325195;0.906333833189;;;;;;;;;;;;;;0;0;0;0;0;0;0;0;0;();(-2000.0, -2000.0);
12:23:05:152;12:23:05:103;1448408343.65;(0.7522174835205078, 0.7763488133748373);92.5408325195;0.906333833189;;;;;;;;;;;;;;0;0;0;0;0;0;0;0;0;();(-2000.0, -2000.0);
12:23:05:168;12:23:05:103;1448408343.65;(0.7522174835205078, 0.7763488133748373);92.5408325195;0.906333833189;;;;;;;;;;;;;;0;0;0;0;0;0;0;0;0;();(-2000.0, -2000.0);
12:23:05:202;12:23:05:180;1448408343.75;(0.7533448696136474, 0.777081553141276);92.441192627;0.924790829929;;;;;;;;;;;;;;0;0;0;0;0;0;0;0;0;();(-2000.0, -2000.0);
12:23:05:218;12:23:05:180;1448408343.75;(0.7533448696136474, 0.777081553141276);92.441192627;0.924790829929;;;;;;;;;;;;;;0;0;0;0;0;0;0;0;0;();(-2000.0, -2000.0);
12:23:05:236;12:23:05:180;1448408343.75;(0.7533448696136474, 0.777081553141276);92.441192627;0.924790829929;;;;;;;;;;;;;;0;0;0;0;0;0;0;0;0;();(-2000.0, -2000.0);
12:23:05:252;12:23:05:245;1448408343.82;(0.7533682346343994, 0.7777273178100585);91.9443817139;1.0;;;;;;;;;;;;;;0;0;0;0;0;0;0;0;0;();(-2000.0, -2000.0);
12:23:05:268;12:23:05:245;1448408343.82;(0.7533682346343994, 0.7777273178100585);91.9443817139;1.0;;;;;;;;;;;;;;0;0;0;0;0;0;0;0;0;();(-2000.0, -2000.0);
12:23:05:304;12:23:05:300;1448408343.85;(0.7530159473419189, 0.7777023103502061);92.1019897461;1.0;;;;;;;;;;;;;;0;0;0;0;0;0;0;0;0;();(-2000.0, -2000.0);
12:23:05:319;12:23:05:303;1448408343.88;(0.7526575088500976, 0.777452638414171);92.4452362061;0.994336669449;;;;;;;;;;;;;;0;0;0;0;0;0;0;0;0;();(-2000.0, -2000.0);
12:23:05:334;12:23:05:303;1448408343.88;(0.7526575088500976, 0.777452638414171);92.4452362061;0.994336669449;;;;;;;;;;;;;;0;0;0;0;0;0;0;0;0;();(-2000.0, -2000.0);
12:23:05:351;12:23:05:303;1448408343.88;(0.7526575088500976, 0.777452638414171);92.4452362061;0.994336669449;;;;;;;;;;;;;;0;0;0;0;0;0;0;0;0;();(-2000.0, -2000.0);
12:23:05:367;12:23:05:303;1448408343.88;(0.7526575088500976, 0.777452638414171);92.4452362061;0.994336669449;;;;;;;;;;;;;;0;0;0;0;0;0;0;0;0;();(-2000.0, -2000.0);
12:23:05:401;12:23:05:382;1448408343.95;(0, 0);0;0;;;;;;;;;;;;;;0;0;0;0;0;0;0;0;0;();(-2000.0, -2000.0);
12:23:05:419;12:23:05:382;1448408343.95;(0, 0);0;0;;;;;;;;;;;;;;0;0;0;0;0;0;0;0;0;();(-2000.0, -2000.0);
12:23:05:438;12:23:05:436;1448408343.98;(0.6843222141265869, 0.4999407874213324);39.1487312317;0.716977936885;;;;;;;;;;;;;;0;0;0;0;0;0;0;0;0;();(-2000.0, -2000.0);
12:23:05:452;12:23:05:436;1448408343.98;(0.6843222141265869, 0.4999407874213324);39.1487312317;0.716977936885;;;;;;;;;;;;;;0;0;0;0;0;0;0;0;0;();(-2000.0, -2000.0);
12:23:05:881;12:23:05:436;1448408343.98;(0.6843222141265869, 0.4999407874213324);39.1487312317;0.716977936885;;;;;;;;;;;;;;0;0;0;0;0;0;0;0;0;();(-2000.0, -2000.0);
12:23:05:896;12:23:05:891;1448408344.08;(0.26683175563812256, 0.703432273864746);24.9968776703;0.769094994776;;;;;;;;;;;;;;0;0;0;0;0;0;0;0;0;();(-2000.0, -2000.0);
12:23:05:908;12:23:05:899;1448408344.16;(0, 0);0;0;;;;;;;;;;;;;;0;0;0;0;0;0;0;0;0;();(-2000.0, -2000.0);
12:23:05:921;12:23:05:912;1448408344.23;(0.7159604072570801, 0.7724505530463325);91.8974533081;0.928706327818;;;;;;;;;;;;;;0;0;0;0;0;0;0;0;0;();(-2000.0, -2000.0);
12:23:05:931;12:23:05:924;1448408344.28;(0.716688871383667, 0.7713939242892796);92.8483276367;0.954466640399;;;;;;;;;;;;;;0;0;0;0;0;0;0;0;0;();(-2000.0, -2000.0);
12:23:05:938;12:23:05:932;1448408344.35;(0.7172204494476319, 0.7728263854980468);93.124786377;1.0;;;;;;;;;;;;;;0;0;0;0;0;0;0;0;0;();(-2000.0, -2000.0);
12:23:05:950;12:23:05:947;1448408344.48;(0.7167635440826416, 0.7720013724433051);93.2175216675;0.985910214913;;;;;;;;;;;;;;0;0;0;0;0;0;0;0;0;();(-2000.0, -2000.0);
12:23:05:954;12:23:05:947;1448408344.48;(0.7167635440826416, 0.7720013724433051);93.2175216675;0.985910214913;;;;;;;;;;;;;;0;0;0;0;0;0;0;0;0;();(-2000.0, -2000.0);
12:23:05:958;12:23:05:947;1448408344.48;(0.7167635440826416, 0.7720013724433051);93.2175216675;0.985910214913;;;;;;;;;;;;;;0;0;0;0;0;0;0;0;0;();(-2000.0, -2000.0);
12:23:05:962;12:23:05:947;1448408344.48;(0.7167635440826416, 0.7720013724433051);93.2175216675;0.985910214913;;;;;;;;;;;;;;0;0;0;0;0;0;0;0;0;();(-2000.0, -2000.0);
12:23:05:965;12:23:05:947;1448408344.48;(0.7167635440826416, 0.7720013724433051);93.2175216675;0.985910214913;;;;;;;;;;;;;;0;0;0;0;0;0;0;0;0;();(-2000.0, -2000.0);
12:23:05:969;12:23:05:947;1448408344.48;(0.7167635440826416, 0.7720013724433051);93.2175216675;0.985910214913;;;;;;;;;;;;;;0;0;0;0;0;0;0;0;0;();(-2000.0, -2000.0);
12:23:05:972;12:23:05:947;1448408344.48;(0.7167635440826416, 0.7720013724433051);93.2175216675;0.985910214913;;;;;;;;;;;;;;0;0;0;0;0;0;0;0;0;();(-2000.0, -2000.0);
12:23:05:976;12:23:05:947;1448408344.48;(0.7167635440826416, 0.7720013724433051);93.2175216675;0.985910214913;;;;;;;;;;;;;;0;0;0;0;0;0;0;0;0;();(-2000.0, -2000.0);
12:23:05:980;12:23:05:975;1448408344.52;(0.7164946079254151, 0.7722461276584202);93.4147338867;1.0;;;;;;;;;;;;;;0;0;0;0;0;0;0;0;0;();(-2000.0, -2000.0);
12:23:05:984;12:23:05:975;1448408344.52;(0.7164946079254151, 0.7722461276584202);93.4147338867;1.0;;;;;;;;;;;;;;0;0;0;0;0;0;0;0;0;();(-2000.0, -2000.0);
12:23:05:987;12:23:05:975;1448408344.52;(0.7164946079254151, 0.7722461276584202);93.4147338867;1.0;;;;;;;;;;;;;;0;0;0;0;0;0;0;0;0;();(-2000.0, -2000.0);
12:23:05:991;12:23:05:975;1448408344.52;(0.7164946079254151, 0.7722461276584202);93.4147338867;1.0;;;;;;;;;;;;;;0;0;0;0;0;0;0;0;0;();(-2000.0, -2000.0);
12:23:05:995;12:23:05:975;1448408344.52;(0.7164946079254151, 0.7722461276584202);93.4147338867;1.0;;;;;;;;;;;;;;0;0;0;0;0;0;0;0;0;();(-2000.0, -2000.0);
12:23:05:999;12:23:05:975;1448408344.52;(0.7164946079254151, 0.7722461276584202);93.4147338867;1.0;;;;;;;;;;;;;;0;0;0;0;0;0;0;0;0;();(-2000.0, -2000.0);
12:23:06:002;12:23:05:975;1448408344.52;(0.7164946079254151, 0.7722461276584202);93.4147338867;1.0;;;;;;;;;;;;;;0;0;0;0;0;0;0;0;0;();(-2000.0, -2000.0);
12:23:06:006;12:23:05:975;1448408344.52;(0.7164946079254151, 0.7722461276584202);93.4147338867;1.0;;;;;;;;;;;;;;0;0;0;0;0;0;0;0;0;();(-2000.0, -2000.0);
12:23:06:010;12:23:05:975;1448408344.52;(0.7164946079254151, 0.7722461276584202);93.4147338867;1.0;;;;;;;;;;;;;;0;0;0;0;0;0;0;0;0;();(-2000.0, -2000.0);
12:23:06:018;12:23:05:975;1448408344.52;(0.7164946079254151, 0.7722461276584202);93.4147338867;1.0;;;;;;;;;;;;;;0;0;0;0;0;0;0;0;0;();(-2000.0, -2000.0);
12:23:06:053;12:23:06:034;1448408344.62;(0, 0);0;0;;;;;;;;;;;;;;0;0;0;0;0;0;0;0;0;();(-2000.0, -2000.0);
12:23:06:069;12:23:06:034;1448408344.62;(0, 0);0;0;;;;;;;;;;;;;;0;0;0;0;0;0;0;0;0;();(-2000.0, -2000.0);
12:23:06:085;12:23:06:034;1448408344.62;(0, 0);0;0;;;;;;;;;;;;;;0;0;0;0;0;0;0;0;0;();(-2000.0, -2000.0);
12:23:06:102;12:23:06:096;1448408344.65;(0, 0);0;0;;;;;;;;;;;;;;0;0;0;0;0;0;0;0;0;();(-2000.0, -2000.0);
12:23:06:119;12:23:06:096;1448408344.65;(0, 0);0;0;;;;;;;;;;;;;;0;0;0;0;0;0;0;0;0;();(-2000.0, -2000.0);
12:23:06:151;12:23:06:096;1448408344.65;(0, 0);0;0;;;;;;;;;;;;;;0;0;0;0;0;0;0;0;0;();(-2000.0, -2000.0);
