%Timestamp,timestamp_write;timestamp_gotpupil;eyeTrackerTime;normPos;diameter;confidence;timestamp_gotbitdata;CRC;SEQ;AnalogOutp1;AnalogOutp2;AnalogOutp3;AnalogOutp4;AnalogOutp5;AnalogOutp6;DigitalOutp1;DigitalOutp2;DigitalOutp3;DigitalOutp4;nplanes;listofAirplanesonScreen;lastAction;lastActionDetails;lastActionAirplaneNumber;calculatedScore;positiveScore;negativeScore;collidedAirplaneNumbers;targetPositions;collisionPoint
12:23:39:632;12:23:39:621;1448408378.18;(0, 0);0;0;;;;;;;;;;;;;;0;0;0;0;0;0;0;0;0;();(-2000.0, -2000.0);
12:23:39:644;12:23:39:621;1448408378.18;(0, 0);0;0;;;;;;;;;;;;;;0;0;0;0;0;0;0;0;0;();(-2000.0, -2000.0);
12:23:39:648;12:23:39:621;1448408378.18;(0, 0);0;0;;;;;;;;;;;;;;0;0;0;0;0;0;0;0;0;();(-2000.0, -2000.0);
12:23:39:652;12:23:39:621;1448408378.18;(0, 0);0;0;;;;;;;;;;;;;;0;0;0;0;0;0;0;0;0;();(-2000.0, -2000.0);
12:23:39:656;12:23:39:621;1448408378.18;(0, 0);0;0;;;;;;;;;;;;;;0;0;0;0;0;0;0;0;0;();(-2000.0, -2000.0);
12:23:39:660;12:23:39:621;1448408378.18;(0, 0);0;0;;;;;;;;;;;;;;0;0;0;0;0;0;0;0;0;();(-2000.0, -2000.0);
12:23:39:663;12:23:39:621;1448408378.18;(0, 0);0;0;;;;;;;;;;;;;;0;0;0;0;0;0;0;0;0;();(-2000.0, -2000.0);
12:23:39:667;12:23:39:621;1448408378.18;(0, 0);0;0;;;;;;;;;;;;;;0;0;0;0;0;0;0;0;0;();(-2000.0, -2000.0);
12:23:39:672;12:23:39:621;1448408378.18;(0, 0);0;0;;;;;;;;;;;;;;0;0;0;0;0;0;0;0;0;();(-2000.0, -2000.0);
12:23:39:675;12:23:39:621;1448408378.18;(0, 0);0;0;;;;;;;;;;;;;;0;0;0;0;0;0;0;0;0;();(-2000.0, -2000.0);
12:23:39:679;12:23:39:621;1448408378.18;(0, 0);0;0;;;;;;;;;;;;;;0;0;0;0;0;0;0;0;0;();(-2000.0, -2000.0);
12:23:39:682;12:23:39:621;1448408378.18;(0, 0);0;0;;;;;;;;;;;;;;0;0;0;0;0;0;0;0;0;();(-2000.0, -2000.0);
12:23:39:685;12:23:39:621;1448408378.18;(0, 0);0;0;;;;;;;;;;;;;;0;0;0;0;0;0;0;0;0;();(-2000.0, -2000.0);
12:23:39:688;12:23:39:621;1448408378.18;(0, 0);0;0;;;;;;;;;;;;;;0;0;0;0;0;0;0;0;0;();(-2000.0, -2000.0);
12:23:39:692;12:23:39:690;1448408378.21;(0, 0);0;0;;;;;;;;;;;;;;0;0;0;0;0;0;0;0;0;();(-2000.0, -2000.0);
12:23:39:697;12:23:39:693;1448408378.25;(0.606813907623291, 0.8509476237826877);84.4027175903;0.838058906405;;;;;;;;;;;;;;0;0;0;0;0;0;0;0;0;();(-2000.0, -2000.0);
12:23:39:701;12:23:39:693;1448408378.25;(0.606813907623291, 0.8509476237826877);84.4027175903;0.838058906405;;;;;;;;;;;;;;0;0;0;0;0;0;0;0;0;();(-2000.0, -2000.0);
12:23:39:705;12:23:39:693;1448408378.25;(0.606813907623291, 0.8509476237826877);84.4027175903;0.838058906405;;;;;;;;;;;;;;0;0;0;0;0;0;0;0;0;();(-2000.0, -2000.0);
12:23:39:708;12:23:39:693;1448408378.25;(0.606813907623291, 0.8509476237826877);84.4027175903;0.838058906405;;;;;;;;;;;;;;0;0;0;0;0;0;0;0;0;();(-2000.0, -2000.0);
12:23:39:712;12:23:39:693;1448408378.25;(0.606813907623291, 0.8509476237826877);84.4027175903;0.838058906405;;;;;;;;;;;;;;0;0;0;0;0;0;0;0;0;();(-2000.0, -2000.0);
12:23:39:716;12:23:39:693;1448408378.25;(0.606813907623291, 0.8509476237826877);84.4027175903;0.838058906405;;;;;;;;;;;;;;0;0;0;0;0;0;0;0;0;();(-2000.0, -2000.0);
12:23:39:731;12:23:39:693;1448408378.25;(0.606813907623291, 0.8509476237826877);84.4027175903;0.838058906405;;;;;;;;;;;;;;0;0;0;0;0;0;0;0;0;();(-2000.0, -2000.0);
12:23:39:765;12:23:39:754;1448408378.31;(0, 0);0;0;;;;;;;;;;;;;;0;0;0;0;0;0;0;0;0;();(-2000.0, -2000.0);
12:23:39:781;12:23:39:754;1448408378.31;(0, 0);0;0;;;;;;;;;;;;;;0;0;0;0;0;0;0;0;0;();(-2000.0, -2000.0);
12:23:39:797;12:23:39:754;1448408378.31;(0, 0);0;0;;;;;;;;;;;;;;0;0;0;0;0;0;0;0;0;();(-2000.0, -2000.0);
12:23:39:814;12:23:39:754;1448408378.31;(0, 0);0;0;;;;;;;;;;;;;;0;0;0;0;0;0;0;0;0;();(-2000.0, -2000.0);
12:23:39:831;12:23:39:821;1448408378.38;(0, 0);0;0;;;;;;;;;;;;;;0;0;0;0;0;0;0;0;0;();(-2000.0, -2000.0);
12:23:39:864;12:23:39:821;1448408378.38;(0, 0);0;0;;;;;;;;;;;;;;0;0;0;0;0;0;0;0;0;();(-2000.0, -2000.0);
12:23:39:881;12:23:39:821;1448408378.38;(0, 0);0;0;;;;;;;;;;;;;;0;0;0;0;0;0;0;0;0;();(-2000.0, -2000.0);
12:23:39:897;12:23:39:891;1448408378.45;(0, 0);0;0;;;;;;;;;;;;;;0;0;0;0;0;0;0;0;0;();(-2000.0, -2000.0);
12:23:39:914;12:23:39:891;1448408378.45;(0, 0);0;0;;;;;;;;;;;;;;0;0;0;0;0;0;0;0;0;();(-2000.0, -2000.0);
12:23:39:933;12:23:39:891;1448408378.45;(0, 0);0;0;;;;;;;;;;;;;;0;0;0;0;0;0;0;0;0;();(-2000.0, -2000.0);
12:23:39:964;12:23:39:954;1448408378.51;(0.6161404609680176, 0.8539894527859158);85.3488464355;0.71285966188;;;;;;;;;;;;;;0;0;0;0;0;0;0;0;0;();(-2000.0, -2000.0);
12:23:39:981;12:23:39:954;1448408378.51;(0.6161404609680176, 0.8539894527859158);85.3488464355;0.71285966188;;;;;;;;;;;;;;0;0;0;0;0;0;0;0;0;();(-2000.0, -2000.0);
12:23:39:998;12:23:39:954;1448408378.51;(0.6161404609680176, 0.8539894527859158);85.3488464355;0.71285966188;;;;;;;;;;;;;;0;0;0;0;0;0;0;0;0;();(-2000.0, -2000.0);
12:23:40:015;12:23:39:954;1448408378.51;(0.6161404609680176, 0.8539894527859158);85.3488464355;0.71285966188;;;;;;;;;;;;;;0;0;0;0;0;0;0;0;0;();(-2000.0, -2000.0);
12:23:40:031;12:23:40:026;1448408378.58;(0.6204138278961182, 0.8508797327677409);85.0967559814;0.916043291769;;;;;;;;;;;;;;0;0;0;0;0;0;0;0;0;();(-2000.0, -2000.0);
12:23:40:064;12:23:40:026;1448408378.58;(0.6204138278961182, 0.8508797327677409);85.0967559814;0.916043291769;;;;;;;;;;;;;;0;0;0;0;0;0;0;0;0;();(-2000.0, -2000.0);
12:23:40:082;12:23:40:026;1448408378.58;(0.6204138278961182, 0.8508797327677409);85.0967559814;0.916043291769;;;;;;;;;;;;;;0;0;0;0;0;0;0;0;0;();(-2000.0, -2000.0);
12:23:40:097;12:23:40:092;1448408378.67;(0, 0);0;0;;;;;;;;;;;;;;0;0;0;0;0;0;0;0;0;();(-2000.0, -2000.0);
12:23:40:114;12:23:40:092;1448408378.67;(0, 0);0;0;;;;;;;;;;;;;;0;0;0;0;0;0;0;0;0;();(-2000.0, -2000.0);
12:23:40:132;12:23:40:092;1448408378.67;(0, 0);0;0;;;;;;;;;;;;;;0;0;0;0;0;0;0;0;0;();(-2000.0, -2000.0);
12:23:40:164;12:23:40:154;1448408378.71;(0.40907318592071534, 0.6621259689331055);18.0517501831;0.680506889299;;;;;;;;;;;;;;0;0;0;0;0;0;0;0;0;();(-2000.0, -2000.0);
12:23:40:180;12:23:40:154;1448408378.71;(0.40907318592071534, 0.6621259689331055);18.0517501831;0.680506889299;;;;;;;;;;;;;;0;0;0;0;0;0;0;0;0;();(-2000.0, -2000.0);
12:23:40:197;12:23:40:154;1448408378.71;(0.40907318592071534, 0.6621259689331055);18.0517501831;0.680506889299;;;;;;;;;;;;;;0;0;0;0;0;0;0;0;0;();(-2000.0, -2000.0);
12:23:40:214;12:23:40:154;1448408378.71;(0.40907318592071534, 0.6621259689331055);18.0517501831;0.680506889299;;;;;;;;;;;;;;0;0;0;0;0;0;0;0;0;();(-2000.0, -2000.0);
12:23:40:231;12:23:40:221;1448408378.78;(0.891690444946289, 0.7454584545559353);25.3473682404;0.655329773657;;;;;;;;;;;;;;0;0;0;0;0;0;0;0;0;();(-2000.0, -2000.0);
12:23:40:264;12:23:40:221;1448408378.78;(0.891690444946289, 0.7454584545559353);25.3473682404;0.655329773657;;;;;;;;;;;;;;0;0;0;0;0;0;0;0;0;();(-2000.0, -2000.0);
12:23:40:281;12:23:40:221;1448408378.78;(0.891690444946289, 0.7454584545559353);25.3473682404;0.655329773657;;;;;;;;;;;;;;0;0;0;0;0;0;0;0;0;();(-2000.0, -2000.0);
12:23:40:298;12:23:40:221;1448408378.78;(0.891690444946289, 0.7454584545559353);25.3473682404;0.655329773657;;;;;;;;;;;;;;0;0;0;0;0;0;0;0;0;();(-2000.0, -2000.0);
12:23:40:314;12:23:40:307;1448408378.85;(0, 0);0;0;;;;;;;;;;;;;;0;0;0;0;0;0;0;0;0;();(-2000.0, -2000.0);
12:23:40:331;12:23:40:307;1448408378.85;(0, 0);0;0;;;;;;;;;;;;;;0;0;0;0;0;0;0;0;0;();(-2000.0, -2000.0);
12:23:40:364;12:23:40:354;1448408378.91;(0, 0);0;0;;;;;;;;;;;;;;0;0;0;0;0;0;0;0;0;();(-2000.0, -2000.0);
12:23:40:381;12:23:40:354;1448408378.91;(0, 0);0;0;;;;;;;;;;;;;;0;0;0;0;0;0;0;0;0;();(-2000.0, -2000.0);
12:23:40:397;12:23:40:354;1448408378.91;(0, 0);0;0;;;;;;;;;;;;;;0;0;0;0;0;0;0;0;0;();(-2000.0, -2000.0);
12:23:40:415;12:23:40:354;1448408378.91;(0, 0);0;0;;;;;;;;;;;;;;0;0;0;0;0;0;0;0;0;();(-2000.0, -2000.0);
12:23:40:431;12:23:40:354;1448408378.91;(0, 0);0;0;;;;;;;;;;;;;;0;0;0;0;0;0;0;0;0;();(-2000.0, -2000.0);
12:23:40:465;12:23:40:354;1448408378.91;(0, 0);0;0;;;;;;;;;;;;;;0;0;0;0;0;0;0;0;0;();(-2000.0, -2000.0);
12:23:40:481;12:23:40:354;1448408378.91;(0, 0);0;0;;;;;;;;;;;;;;0;0;0;0;0;0;0;0;0;();(-2000.0, -2000.0);
12:23:40:498;12:23:40:488;1448408379.05;(0.673360013961792, 0.8371482637193468);87.0952606201;0.832960599193;;;;;;;;;;;;;;0;0;0;0;0;0;0;0;0;();(-2000.0, -2000.0);
12:23:40:515;12:23:40:488;1448408379.05;(0.673360013961792, 0.8371482637193468);87.0952606201;0.832960599193;;;;;;;;;;;;;;0;0;0;0;0;0;0;0;0;();(-2000.0, -2000.0);
12:23:40:532;12:23:40:488;1448408379.05;(0.673360013961792, 0.8371482637193468);87.0952606201;0.832960599193;;;;;;;;;;;;;;0;0;0;0;0;0;0;0;0;();(-2000.0, -2000.0);
12:23:40:564;12:23:40:550;1448408379.11;(0, 0);0;0;;;;;;;;;;;;;;0;0;0;0;0;0;0;0;0;();(-2000.0, -2000.0);
12:23:40:581;12:23:40:550;1448408379.11;(0, 0);0;0;;;;;;;;;;;;;;0;0;0;0;0;0;0;0;0;();(-2000.0, -2000.0);
12:23:40:598;12:23:40:550;1448408379.11;(0, 0);0;0;;;;;;;;;;;;;;0;0;0;0;0;0;0;0;0;();(-2000.0, -2000.0);
12:23:40:615;12:23:40:550;1448408379.11;(0, 0);0;0;;;;;;;;;;;;;;0;0;0;0;0;0;0;0;0;();(-2000.0, -2000.0);
12:23:40:631;12:23:40:620;1448408379.18;(0.7161109924316407, 0.8234162118699815);87.5552597046;0.70746751123;;;;;;;;;;;;;;0;0;0;0;0;0;0;0;0;();(-2000.0, -2000.0);
12:23:40:664;12:23:40:620;1448408379.18;(0.7161109924316407, 0.8234162118699815);87.5552597046;0.70746751123;;;;;;;;;;;;;;0;0;0;0;0;0;0;0;0;();(-2000.0, -2000.0);
12:23:40:683;12:23:40:620;1448408379.18;(0.7161109924316407, 0.8234162118699815);87.5552597046;0.70746751123;;;;;;;;;;;;;;0;0;0;0;0;0;0;0;0;();(-2000.0, -2000.0);
12:23:40:699;12:23:40:693;1448408379.25;(0.7157473087310791, 0.8225876596238878);86.2977142334;0.801301971045;;;;;;;;;;;;;;0;0;0;0;0;0;0;0;0;();(-2000.0, -2000.0);
12:23:40:716;12:23:40:693;1448408379.25;(0.7157473087310791, 0.8225876596238878);86.2977142334;0.801301971045;;;;;;;;;;;;;;0;0;0;0;0;0;0;0;0;();(-2000.0, -2000.0);
12:23:40:731;12:23:40:693;1448408379.25;(0.7157473087310791, 0.8225876596238878);86.2977142334;0.801301971045;;;;;;;;;;;;;;0;0;0;0;0;0;0;0;0;();(-2000.0, -2000.0);
12:23:40:765;12:23:40:750;1448408379.31;(0.7152018070220947, 0.8315969996982151);87.4026641846;0.651971572631;;;;;;;;;;;;;;0;0;0;0;0;0;0;0;0;();(-2000.0, -2000.0);
12:23:40:782;12:23:40:750;1448408379.31;(0.7152018070220947, 0.8315969996982151);87.4026641846;0.651971572631;;;;;;;;;;;;;;0;0;0;0;0;0;0;0;0;();(-2000.0, -2000.0);
12:23:40:798;12:23:40:750;1448408379.31;(0.7152018070220947, 0.8315969996982151);87.4026641846;0.651971572631;;;;;;;;;;;;;;0;0;0;0;0;0;0;0;0;();(-2000.0, -2000.0);
12:23:40:815;12:23:40:750;1448408379.31;(0.7152018070220947, 0.8315969996982151);87.4026641846;0.651971572631;;;;;;;;;;;;;;0;0;0;0;0;0;0;0;0;();(-2000.0, -2000.0);
12:23:40:831;12:23:40:820;1448408379.38;(0, 0);0;0;;;;;;;;;;;;;;0;0;0;0;0;0;0;0;0;();(-2000.0, -2000.0);
12:23:40:866;12:23:40:820;1448408379.38;(0, 0);0;0;;;;;;;;;;;;;;0;0;0;0;0;0;0;0;0;();(-2000.0, -2000.0);
12:23:40:884;12:23:40:882;1448408379.45;(0.7123778343200684, 0.8263024224175347);88.3729782104;0.918110109658;;;;;;;;;;;;;;0;0;0;0;0;0;0;0;0;();(-2000.0, -2000.0);
12:23:40:898;12:23:40:882;1448408379.45;(0.7123778343200684, 0.8263024224175347);88.3729782104;0.918110109658;;;;;;;;;;;;;;0;0;0;0;0;0;0;0;0;();(-2000.0, -2000.0);
12:23:40:915;12:23:40:882;1448408379.45;(0.7123778343200684, 0.8263024224175347);88.3729782104;0.918110109658;;;;;;;;;;;;;;0;0;0;0;0;0;0;0;0;();(-2000.0, -2000.0);
12:23:40:931;12:23:40:882;1448408379.45;(0.7123778343200684, 0.8263024224175347);88.3729782104;0.918110109658;;;;;;;;;;;;;;0;0;0;0;0;0;0;0;0;();(-2000.0, -2000.0);
12:23:40:965;12:23:40:949;1448408379.51;(0.7124122619628906, 0.8272117296854655);89.4055480957;0.824808035886;;;;;;;;;;;;;;0;0;0;0;0;0;0;0;0;();(-2000.0, -2000.0);
12:23:40:983;12:23:40:949;1448408379.51;(0.7124122619628906, 0.8272117296854655);89.4055480957;0.824808035886;;;;;;;;;;;;;;0;0;0;0;0;0;0;0;0;();(-2000.0, -2000.0);
12:23:40:999;12:23:40:949;1448408379.51;(0.7124122619628906, 0.8272117296854655);89.4055480957;0.824808035886;;;;;;;;;;;;;;0;0;0;0;0;0;0;0;0;();(-2000.0, -2000.0);
12:23:41:015;12:23:40:949;1448408379.51;(0.7124122619628906, 0.8272117296854655);89.4055480957;0.824808035886;;;;;;;;;;;;;;0;0;0;0;0;0;0;0;0;();(-2000.0, -2000.0);
12:23:41:031;12:23:41:020;1448408379.58;(0.7114117622375489, 0.8274534225463868);88.4623336792;0.870694878611;;;;;;;;;;;;;;0;0;0;0;0;0;0;0;0;();(-2000.0, -2000.0);
12:23:41:065;12:23:41:020;1448408379.58;(0.7114117622375489, 0.8274534225463868);88.4623336792;0.870694878611;;;;;;;;;;;;;;0;0;0;0;0;0;0;0;0;();(-2000.0, -2000.0);
12:23:41:082;12:23:41:080;1448408379.61;(0.71127347946167, 0.8273473951551649);88.2969818115;0.940539983055;;;;;;;;;;;;;;0;0;0;0;0;0;0;0;0;();(-2000.0, -2000.0);
12:23:41:098;12:23:41:081;1448408379.65;(0.7110045433044434, 0.8280280537075466);88.2841567993;1.0;;;;;;;;;;;;;;0;0;0;0;0;0;0;0;0;();(-2000.0, -2000.0);
12:23:41:115;12:23:41:081;1448408379.65;(0.7110045433044434, 0.8280280537075466);88.2841567993;1.0;;;;;;;;;;;;;;0;0;0;0;0;0;0;0;0;();(-2000.0, -2000.0);
12:23:41:133;12:23:41:081;1448408379.65;(0.7110045433044434, 0.8280280537075466);88.2841567993;1.0;;;;;;;;;;;;;;0;0;0;0;0;0;0;0;0;();(-2000.0, -2000.0);
12:23:41:165;12:23:41:150;1448408379.71;(0.7207693099975586, 0.8223703490363227);92.8416595459;0.802376177607;;;;;;;;;;;;;;0;0;0;0;0;0;0;0;0;();(-2000.0, -2000.0);
12:23:41:183;12:23:41:150;1448408379.71;(0.7207693099975586, 0.8223703490363227);92.8416595459;0.802376177607;;;;;;;;;;;;;;0;0;0;0;0;0;0;0;0;();(-2000.0, -2000.0);
12:23:41:200;12:23:41:150;1448408379.71;(0.7207693099975586, 0.8223703490363227);92.8416595459;0.802376177607;;;;;;;;;;;;;;0;0;0;0;0;0;0;0;0;();(-2000.0, -2000.0);
12:23:41:217;12:23:41:213;1448408379.75;(0.7300869464874268, 0.8142177051968045);87.0354385376;0.860124124846;;;;;;;;;;;;;;0;0;0;0;0;0;0;0;0;();(-2000.0, -2000.0);
12:23:41:233;12:23:41:215;1448408379.78;(0, 0);0;0;;;;;;;;;;;;;;0;0;0;0;0;0;0;0;0;();(-2000.0, -2000.0);
12:23:41:266;12:23:41:215;1448408379.78;(0, 0);0;0;;;;;;;;;;;;;;0;0;0;0;0;0;0;0;0;();(-2000.0, -2000.0);
12:23:41:285;12:23:41:281;1448408379.81;(0.7281466484069824, 0.8182821379767524);87.2402267456;0.915892281116;;;;;;;;;;;;;;0;0;0;0;0;0;0;0;0;();(-2000.0, -2000.0);
12:23:41:300;12:23:41:283;1448408379.85;(0.7264719009399414, 0.8248667187160916);90.2467422485;0.845774717882;;;;;;;;;;;;;;0;0;0;0;0;0;0;0;0;();(-2000.0, -2000.0);
12:23:41:316;12:23:41:283;1448408379.85;(0.7264719009399414, 0.8248667187160916);90.2467422485;0.845774717882;;;;;;;;;;;;;;0;0;0;0;0;0;0;0;0;();(-2000.0, -2000.0);
12:23:41:332;12:23:41:283;1448408379.85;(0.7264719009399414, 0.8248667187160916);90.2467422485;0.845774717882;;;;;;;;;;;;;;0;0;0;0;0;0;0;0;0;();(-2000.0, -2000.0);
12:23:41:365;12:23:41:350;1448408379.91;(0.7263346672058105, 0.8198129230075413);88.6229400635;0.867074873755;;;;;;;;;;;;;;0;0;0;0;0;0;0;0;0;();(-2000.0, -2000.0);
12:23:41:382;12:23:41:350;1448408379.91;(0.7263346672058105, 0.8198129230075413);88.6229400635;0.867074873755;;;;;;;;;;;;;;0;0;0;0;0;0;0;0;0;();(-2000.0, -2000.0);
12:23:41:399;12:23:41:350;1448408379.91;(0.7263346672058105, 0.8198129230075413);88.6229400635;0.867074873755;;;;;;;;;;;;;;0;0;0;0;0;0;0;0;0;();(-2000.0, -2000.0);
12:23:41:419;12:23:41:415;1448408379.98;(0.7255891323089599, 0.8197279824150934);89.7400741577;0.960068723166;;;;;;;;;;;;;;0;0;0;0;0;0;0;0;0;();(-2000.0, -2000.0);
12:23:41:433;12:23:41:415;1448408379.98;(0.7255891323089599, 0.8197279824150934);89.7400741577;0.960068723166;;;;;;;;;;;;;;0;0;0;0;0;0;0;0;0;();(-2000.0, -2000.0);
12:23:41:465;12:23:41:415;1448408379.98;(0.7255891323089599, 0.8197279824150934);89.7400741577;0.960068723166;;;;;;;;;;;;;;0;0;0;0;0;0;0;0;0;();(-2000.0, -2000.0);
12:23:41:483;12:23:41:481;1448408380.05;(0.7247490406036377, 0.8195336235894097);88.7091903687;0.902711861077;;;;;;;;;;;;;;0;0;0;0;0;0;0;0;0;();(-2000.0, -2000.0);
12:23:41:499;12:23:41:481;1448408380.05;(0.7247490406036377, 0.8195336235894097);88.7091903687;0.902711861077;;;;;;;;;;;;;;0;0;0;0;0;0;0;0;0;();(-2000.0, -2000.0);
12:23:41:515;12:23:41:481;1448408380.05;(0.7247490406036377, 0.8195336235894097);88.7091903687;0.902711861077;;;;;;;;;;;;;;0;0;0;0;0;0;0;0;0;();(-2000.0, -2000.0);
12:23:41:532;12:23:41:481;1448408380.05;(0.7247490406036377, 0.8195336235894097);88.7091903687;0.902711861077;;;;;;;;;;;;;;0;0;0;0;0;0;0;0;0;();(-2000.0, -2000.0);
12:23:41:565;12:23:41:546;1448408380.11;(0.707735252380371, 0.8255048010084365);87.1654281616;0.904675265821;;;;;;;;;;;;;;0;0;0;0;0;0;0;0;0;();(-2000.0, -2000.0);
12:23:41:582;12:23:41:546;1448408380.11;(0.707735252380371, 0.8255048010084365);87.1654281616;0.904675265821;;;;;;;;;;;;;;0;0;0;0;0;0;0;0;0;();(-2000.0, -2000.0);
12:23:41:599;12:23:41:546;1448408380.11;(0.707735252380371, 0.8255048010084365);87.1654281616;0.904675265821;;;;;;;;;;;;;;0;0;0;0;0;0;0;0;0;();(-2000.0, -2000.0);
12:23:41:615;12:23:41:613;1448408380.18;(0.6304383277893066, 0.6082538604736328);24.5449066162;0.64783259246;;;;;;;;;;;;;;0;0;0;0;0;0;0;0;0;();(-2000.0, -2000.0);
12:23:41:633;12:23:41:613;1448408380.18;(0.6304383277893066, 0.6082538604736328);24.5449066162;0.64783259246;;;;;;;;;;;;;;0;0;0;0;0;0;0;0;0;();(-2000.0, -2000.0);
12:23:41:666;12:23:41:613;1448408380.18;(0.6304383277893066, 0.6082538604736328);24.5449066162;0.64783259246;;;;;;;;;;;;;;0;0;0;0;0;0;0;0;0;();(-2000.0, -2000.0);
12:23:41:683;12:23:41:682;1448408380.25;(0.6650788307189941, 0.8270273102654351);87.8249893188;0.714346496469;;;;;;;;;;;;;;0;0;0;0;0;0;0;0;0;();(-2000.0, -2000.0);
12:23:41:699;12:23:41:682;1448408380.25;(0.6650788307189941, 0.8270273102654351);87.8249893188;0.714346496469;;;;;;;;;;;;;;0;0;0;0;0;0;0;0;0;();(-2000.0, -2000.0);
12:23:41:715;12:23:41:682;1448408380.25;(0.6650788307189941, 0.8270273102654351);87.8249893188;0.714346496469;;;;;;;;;;;;;;0;0;0;0;0;0;0;0;0;();(-2000.0, -2000.0);
12:23:41:732;12:23:41:682;1448408380.25;(0.6650788307189941, 0.8270273102654351);87.8249893188;0.714346496469;;;;;;;;;;;;;;0;0;0;0;0;0;0;0;0;();(-2000.0, -2000.0);
12:23:41:749;12:23:41:745;1448408380.31;(0, 0);0;0;;;;;;;;;;;;;;0;0;0;0;0;0;0;0;0;();(-2000.0, -2000.0);
12:23:41:782;12:23:41:745;1448408380.31;(0, 0);0;0;;;;;;;;;;;;;;0;0;0;0;0;0;0;0;0;();(-2000.0, -2000.0);
12:23:41:799;12:23:41:745;1448408380.31;(0, 0);0;0;;;;;;;;;;;;;;0;0;0;0;0;0;0;0;0;();(-2000.0, -2000.0);
12:23:41:816;12:23:41:813;1448408380.38;(0.5681715965270996, 0.8497332043117947);84.4410705566;0.750444755037;;;;;;;;;;;;;;0;0;0;0;0;0;0;0;0;();(-2000.0, -2000.0);
12:23:41:832;12:23:41:813;1448408380.38;(0.5681715965270996, 0.8497332043117947);84.4410705566;0.750444755037;;;;;;;;;;;;;;0;0;0;0;0;0;0;0;0;();(-2000.0, -2000.0);
12:23:41:849;12:23:41:813;1448408380.38;(0.5681715965270996, 0.8497332043117947);84.4410705566;0.750444755037;;;;;;;;;;;;;;0;0;0;0;0;0;0;0;0;();(-2000.0, -2000.0);
12:23:41:883;12:23:41:813;1448408380.38;(0.5681715965270996, 0.8497332043117947);84.4410705566;0.750444755037;;;;;;;;;;;;;;0;0;0;0;0;0;0;0;0;();(-2000.0, -2000.0);
12:23:41:899;12:23:41:892;1448408380.45;(0, 0);0;0;;;;;;;;;;;;;;0;0;0;0;0;0;0;0;0;();(-2000.0, -2000.0);
12:23:41:915;12:23:41:892;1448408380.45;(0, 0);0;0;;;;;;;;;;;;;;0;0;0;0;0;0;0;0;0;();(-2000.0, -2000.0);
12:23:41:932;12:23:41:892;1448408380.45;(0, 0);0;0;;;;;;;;;;;;;;0;0;0;0;0;0;0;0;0;();(-2000.0, -2000.0);
12:23:41:966;12:23:41:946;1448408380.51;(0.5665971279144287, 0.8501603974236382);85.294128418;0.856873853241;;;;;;;;;;;;;;0;0;0;0;0;0;0;0;0;();(-2000.0, -2000.0);
12:23:41:983;12:23:41:946;1448408380.51;(0.5665971279144287, 0.8501603974236382);85.294128418;0.856873853241;;;;;;;;;;;;;;0;0;0;0;0;0;0;0;0;();(-2000.0, -2000.0);
12:23:41:999;12:23:41:946;1448408380.51;(0.5665971279144287, 0.8501603974236382);85.294128418;0.856873853241;;;;;;;;;;;;;;0;0;0;0;0;0;0;0;0;();(-2000.0, -2000.0);
12:23:42:015;12:23:42:013;1448408380.58;(0.570246410369873, 0.850575319925944);83.8043365479;0.805770486201;;;;;;;;;;;;;;0;0;0;0;0;0;0;0;0;();(-2000.0, -2000.0);
12:23:42:033;12:23:42:013;1448408380.58;(0.570246410369873, 0.850575319925944);83.8043365479;0.805770486201;;;;;;;;;;;;;;0;0;0;0;0;0;0;0;0;();(-2000.0, -2000.0);
12:23:42:066;12:23:42:013;1448408380.58;(0.570246410369873, 0.850575319925944);83.8043365479;0.805770486201;;;;;;;;;;;;;;0;0;0;0;0;0;0;0;0;();(-2000.0, -2000.0);
12:23:42:083;12:23:42:078;1448408380.65;(0.5757611751556396, 0.8500907897949219);82.9024581909;0.745046117702;;;;;;;;;;;;;;0;0;0;0;0;0;0;0;0;();(-2000.0, -2000.0);
12:23:42:099;12:23:42:078;1448408380.65;(0.5757611751556396, 0.8500907897949219);82.9024581909;0.745046117702;;;;;;;;;;;;;;0;0;0;0;0;0;0;0;0;();(-2000.0, -2000.0);
12:23:42:115;12:23:42:078;1448408380.65;(0.5757611751556396, 0.8500907897949219);82.9024581909;0.745046117702;;;;;;;;;;;;;;0;0;0;0;0;0;0;0;0;();(-2000.0, -2000.0);
12:23:42:133;12:23:42:078;1448408380.65;(0.5757611751556396, 0.8500907897949219);82.9024581909;0.745046117702;;;;;;;;;;;;;;0;0;0;0;0;0;0;0;0;();(-2000.0, -2000.0);
12:23:42:149;12:23:42:146;1448408380.71;(0.5794796466827392, 0.8514841503567165);82.5512466431;0.739573482096;;;;;;;;;;;;;;0;0;0;0;0;0;0;0;0;();(-2000.0, -2000.0);
12:23:42:183;12:23:42:146;1448408380.71;(0.5794796466827392, 0.8514841503567165);82.5512466431;0.739573482096;;;;;;;;;;;;;;0;0;0;0;0;0;0;0;0;();(-2000.0, -2000.0);
12:23:42:199;12:23:42:146;1448408380.71;(0.5794796466827392, 0.8514841503567165);82.5512466431;0.739573482096;;;;;;;;;;;;;;0;0;0;0;0;0;0;0;0;();(-2000.0, -2000.0);
12:23:42:216;12:23:42:210;1448408380.78;(0.5589256763458252, 0.8555614895290798);79.5325164795;0.875476898273;;;;;;;;;;;;;;0;0;0;0;0;0;0;0;0;();(-2000.0, -2000.0);
12:23:42:232;12:23:42:210;1448408380.78;(0.5589256763458252, 0.8555614895290798);79.5325164795;0.875476898273;;;;;;;;;;;;;;0;0;0;0;0;0;0;0;0;();(-2000.0, -2000.0);
12:23:42:250;12:23:42:210;1448408380.78;(0.5589256763458252, 0.8555614895290798);79.5325164795;0.875476898273;;;;;;;;;;;;;;0;0;0;0;0;0;0;0;0;();(-2000.0, -2000.0);
12:23:42:283;12:23:42:278;1448408380.85;(0, 0);0;0;;;;;;;;;;;;;;0;0;0;0;0;0;0;0;0;();(-2000.0, -2000.0);
12:23:42:300;12:23:42:278;1448408380.85;(0, 0);0;0;;;;;;;;;;;;;;0;0;0;0;0;0;0;0;0;();(-2000.0, -2000.0);
12:23:42:315;12:23:42:278;1448408380.85;(0, 0);0;0;;;;;;;;;;;;;;0;0;0;0;0;0;0;0;0;();(-2000.0, -2000.0);
12:23:42:333;12:23:42:278;1448408380.85;(0, 0);0;0;;;;;;;;;;;;;;0;0;0;0;0;0;0;0;0;();(-2000.0, -2000.0);
12:23:42:349;12:23:42:346;1448408380.91;(0.5675142288208008, 0.8539612134297689);78.9082794189;0.85694759672;;;;;;;;;;;;;;0;0;0;0;0;0;0;0;0;();(-2000.0, -2000.0);
12:23:42:383;12:23:42:346;1448408380.91;(0.5675142288208008, 0.8539612134297689);78.9082794189;0.85694759672;;;;;;;;;;;;;;0;0;0;0;0;0;0;0;0;();(-2000.0, -2000.0);
12:23:42:400;12:23:42:346;1448408380.91;(0.5675142288208008, 0.8539612134297689);78.9082794189;0.85694759672;;;;;;;;;;;;;;0;0;0;0;0;0;0;0;0;();(-2000.0, -2000.0);
12:23:42:416;12:23:42:410;1448408380.98;(0.5712737083435059, 0.857328118218316);78.9662399292;0.743711236419;;;;;;;;;;;;;;0;0;0;0;0;0;0;0;0;();(-2000.0, -2000.0);
12:23:42:433;12:23:42:410;1448408380.98;(0.5712737083435059, 0.857328118218316);78.9662399292;0.743711236419;;;;;;;;;;;;;;0;0;0;0;0;0;0;0;0;();(-2000.0, -2000.0);
12:23:42:449;12:23:42:410;1448408380.98;(0.5712737083435059, 0.857328118218316);78.9662399292;0.743711236419;;;;;;;;;;;;;;0;0;0;0;0;0;0;0;0;();(-2000.0, -2000.0);
12:23:42:482;12:23:42:477;1448408381.05;(0, 0);0;0;;;;;;;;;;;;;;0;0;0;0;0;0;0;0;0;();(-2000.0, -2000.0);
12:23:42:500;12:23:42:477;1448408381.05;(0, 0);0;0;;;;;;;;;;;;;;0;0;0;0;0;0;0;0;0;();(-2000.0, -2000.0);
12:23:42:516;12:23:42:477;1448408381.05;(0, 0);0;0;;;;;;;;;;;;;;0;0;0;0;0;0;0;0;0;();(-2000.0, -2000.0);
12:23:42:533;12:23:42:477;1448408381.05;(0, 0);0;0;;;;;;;;;;;;;;0;0;0;0;0;0;0;0;0;();(-2000.0, -2000.0);
12:23:42:549;12:23:42:544;1448408381.11;(0, 0);0;0;;;;;;;;;;;;;;0;0;0;0;0;0;0;0;0;();(-2000.0, -2000.0);
12:23:42:583;12:23:42:544;1448408381.11;(0, 0);0;0;;;;;;;;;;;;;;0;0;0;0;0;0;0;0;0;();(-2000.0, -2000.0);
12:23:42:600;12:23:42:544;1448408381.11;(0, 0);0;0;;;;;;;;;;;;;;0;0;0;0;0;0;0;0;0;();(-2000.0, -2000.0);
12:23:42:616;12:23:42:610;1448408381.18;(0.5806089401245117, 0.8570169342888726);80.1851959229;0.853817657203;;;;;;;;;;;;;;0;0;0;0;0;0;0;0;0;();(-2000.0, -2000.0);
12:23:42:634;12:23:42:610;1448408381.18;(0.5806089401245117, 0.8570169342888726);80.1851959229;0.853817657203;;;;;;;;;;;;;;0;0;0;0;0;0;0;0;0;();(-2000.0, -2000.0);
12:23:42:650;12:23:42:610;1448408381.18;(0.5806089401245117, 0.8570169342888726);80.1851959229;0.853817657203;;;;;;;;;;;;;;0;0;0;0;0;0;0;0;0;();(-2000.0, -2000.0);
12:23:42:683;12:23:42:677;1448408381.25;(0.5820644855499267, 0.8600624614291721);79.2473373413;0.798592105886;;;;;;;;;;;;;;0;0;0;0;0;0;0;0;0;();(-2000.0, -2000.0);
12:23:42:699;12:23:42:677;1448408381.25;(0.5820644855499267, 0.8600624614291721);79.2473373413;0.798592105886;;;;;;;;;;;;;;0;0;0;0;0;0;0;0;0;();(-2000.0, -2000.0);
12:23:42:716;12:23:42:677;1448408381.25;(0.5820644855499267, 0.8600624614291721);79.2473373413;0.798592105886;;;;;;;;;;;;;;0;0;0;0;0;0;0;0;0;();(-2000.0, -2000.0);
12:23:42:733;12:23:42:677;1448408381.25;(0.5820644855499267, 0.8600624614291721);79.2473373413;0.798592105886;;;;;;;;;;;;;;0;0;0;0;0;0;0;0;0;();(-2000.0, -2000.0);
12:23:42:749;12:23:42:742;1448408381.31;(0.6056948184967041, 0.8545466105143229);77.8414230347;0.808643190702;;;;;;;;;;;;;;0;0;0;0;0;0;0;0;0;();(-2000.0, -2000.0);
12:23:42:784;12:23:42:742;1448408381.31;(0.6056948184967041, 0.8545466105143229);77.8414230347;0.808643190702;;;;;;;;;;;;;;0;0;0;0;0;0;0;0;0;();(-2000.0, -2000.0);
12:23:42:800;12:23:42:742;1448408381.31;(0.6056948184967041, 0.8545466105143229);77.8414230347;0.808643190702;;;;;;;;;;;;;;0;0;0;0;0;0;0;0;0;();(-2000.0, -2000.0);
12:23:42:817;12:23:42:810;1448408381.38;(0, 0);0;0;;;;;;;;;;;;;;0;0;0;0;0;0;0;0;0;();(-2000.0, -2000.0);
12:23:42:833;12:23:42:810;1448408381.38;(0, 0);0;0;;;;;;;;;;;;;;0;0;0;0;0;0;0;0;0;();(-2000.0, -2000.0);
12:23:42:850;12:23:42:810;1448408381.38;(0, 0);0;0;;;;;;;;;;;;;;0;0;0;0;0;0;0;0;0;();(-2000.0, -2000.0);
12:23:42:883;12:23:42:873;1448408381.41;(0.8766855239868164, 0.6649072223239475);20.4833660126;0.652048330332;;;;;;;;;;;;;;0;0;0;0;0;0;0;0;0;();(-2000.0, -2000.0);
12:23:42:900;12:23:42:873;1448408381.41;(0.8766855239868164, 0.6649072223239475);20.4833660126;0.652048330332;;;;;;;;;;;;;;0;0;0;0;0;0;0;0;0;();(-2000.0, -2000.0);
12:23:42:916;12:23:42:873;1448408381.41;(0.8766855239868164, 0.6649072223239475);20.4833660126;0.652048330332;;;;;;;;;;;;;;0;0;0;0;0;0;0;0;0;();(-2000.0, -2000.0);
12:23:42:933;12:23:42:873;1448408381.41;(0.8766855239868164, 0.6649072223239475);20.4833660126;0.652048330332;;;;;;;;;;;;;;0;0;0;0;0;0;0;0;0;();(-2000.0, -2000.0);
12:23:42:950;12:23:42:943;1448408381.51;(0.6160538673400879, 0.8500340779622396);77.9218597412;0.98897351956;;;;;;;;;;;;;;0;0;0;0;0;0;0;0;0;();(-2000.0, -2000.0);
12:23:42:983;12:23:42:943;1448408381.51;(0.6160538673400879, 0.8500340779622396);77.9218597412;0.98897351956;;;;;;;;;;;;;;0;0;0;0;0;0;0;0;0;();(-2000.0, -2000.0);
12:23:43:000;12:23:42:943;1448408381.51;(0.6160538673400879, 0.8500340779622396);77.9218597412;0.98897351956;;;;;;;;;;;;;;0;0;0;0;0;0;0;0;0;();(-2000.0, -2000.0);
12:23:43:016;12:23:43:010;1448408381.58;(0, 0);0;0;;;;;;;;;;;;;;0;0;0;0;0;0;0;0;0;();(-2000.0, -2000.0);
12:23:43:034;12:23:43:010;1448408381.58;(0, 0);0;0;;;;;;;;;;;;;;0;0;0;0;0;0;0;0;0;();(-2000.0, -2000.0);
12:23:43:051;12:23:43:010;1448408381.58;(0, 0);0;0;;;;;;;;;;;;;;0;0;0;0;0;0;0;0;0;();(-2000.0, -2000.0);
12:23:43:083;12:23:43:072;1448408381.61;(0.6196211814880371, 0.848247602250841);75.8717803955;0.952059688079;;;;;;;;;;;;;;0;0;0;0;0;0;0;0;0;();(-2000.0, -2000.0);
12:23:43:100;12:23:43:072;1448408381.61;(0.6196211814880371, 0.848247602250841);75.8717803955;0.952059688079;;;;;;;;;;;;;;0;0;0;0;0;0;0;0;0;();(-2000.0, -2000.0);
12:23:43:116;12:23:43:072;1448408381.61;(0.6196211814880371, 0.848247602250841);75.8717803955;0.952059688079;;;;;;;;;;;;;;0;0;0;0;0;0;0;0;0;();(-2000.0, -2000.0);
12:23:43:134;12:23:43:072;1448408381.61;(0.6196211814880371, 0.848247602250841);75.8717803955;0.952059688079;;;;;;;;;;;;;;0;0;0;0;0;0;0;0;0;();(-2000.0, -2000.0);
12:23:43:150;12:23:43:142;1448408381.71;(0.6211959838867187, 0.8428829299079047);75.0490951538;0.727298919842;;;;;;;;;;;;;;0;0;0;0;0;0;0;0;0;();(-2000.0, -2000.0);
12:23:43:184;12:23:43:142;1448408381.71;(0.6211959838867187, 0.8428829299079047);75.0490951538;0.727298919842;;;;;;;;;;;;;;0;0;0;0;0;0;0;0;0;();(-2000.0, -2000.0);
12:23:43:200;12:23:43:142;1448408381.71;(0.6211959838867187, 0.8428829299079047);75.0490951538;0.727298919842;;;;;;;;;;;;;;0;0;0;0;0;0;0;0;0;();(-2000.0, -2000.0);
12:23:43:216;12:23:43:204;1448408381.75;(0.6217255115509033, 0.849166128370497);75.2761917114;0.749381260635;;;;;;;;;;;;;;0;0;0;0;0;0;0;0;0;();(-2000.0, -2000.0);
12:23:43:233;12:23:43:204;1448408381.75;(0.6217255115509033, 0.849166128370497);75.2761917114;0.749381260635;;;;;;;;;;;;;;0;0;0;0;0;0;0;0;0;();(-2000.0, -2000.0);
12:23:43:250;12:23:43:204;1448408381.75;(0.6217255115509033, 0.849166128370497);75.2761917114;0.749381260635;;;;;;;;;;;;;;0;0;0;0;0;0;0;0;0;();(-2000.0, -2000.0);
12:23:43:283;12:23:43:274;1448408381.85;(0.60062575340271, 0.8513349850972494);76.2688980103;0.921700592803;;;;;;;;;;;;;;0;0;0;0;0;0;0;0;0;();(-2000.0, -2000.0);
12:23:43:300;12:23:43:274;1448408381.85;(0.60062575340271, 0.8513349850972494);76.2688980103;0.921700592803;;;;;;;;;;;;;;0;0;0;0;0;0;0;0;0;();(-2000.0, -2000.0);
12:23:43:317;12:23:43:274;1448408381.85;(0.60062575340271, 0.8513349850972494);76.2688980103;0.921700592803;;;;;;;;;;;;;;0;0;0;0;0;0;0;0;0;();(-2000.0, -2000.0);
12:23:43:333;12:23:43:274;1448408381.85;(0.60062575340271, 0.8513349850972494);76.2688980103;0.921700592803;;;;;;;;;;;;;;0;0;0;0;0;0;0;0;0;();(-2000.0, -2000.0);
12:23:43:350;12:23:43:338;1448408381.91;(0.6019529342651367, 0.8488050672743055);76.3871231079;0.68942927392;;;;;;;;;;;;;;0;0;0;0;0;0;0;0;0;();(-2000.0, -2000.0);
12:23:43:383;12:23:43:338;1448408381.91;(0.6019529342651367, 0.8488050672743055);76.3871231079;0.68942927392;;;;;;;;;;;;;;0;0;0;0;0;0;0;0;0;();(-2000.0, -2000.0);
12:23:43:401;12:23:43:338;1448408381.91;(0.6019529342651367, 0.8488050672743055);76.3871231079;0.68942927392;;;;;;;;;;;;;;0;0;0;0;0;0;0;0;0;();(-2000.0, -2000.0);
12:23:43:417;12:23:43:406;1448408381.98;(0.599698543548584, 0.8516574223836263);76.0647964478;0.852003223312;;;;;;;;;;;;;;0;0;0;0;0;0;0;0;0;();(-2000.0, -2000.0);
12:23:43:433;12:23:43:406;1448408381.98;(0.599698543548584, 0.8516574223836263);76.0647964478;0.852003223312;;;;;;;;;;;;;;0;0;0;0;0;0;0;0;0;();(-2000.0, -2000.0);
12:23:43:450;12:23:43:406;1448408381.98;(0.599698543548584, 0.8516574223836263);76.0647964478;0.852003223312;;;;;;;;;;;;;;0;0;0;0;0;0;0;0;0;();(-2000.0, -2000.0);
12:23:43:484;12:23:43:474;1448408382.05;(0.5993574619293213, 0.851564015282525);75.7074966431;0.943141310216;;;;;;;;;;;;;;0;0;0;0;0;0;0;0;0;();(-2000.0, -2000.0);
12:23:43:501;12:23:43:474;1448408382.05;(0.5993574619293213, 0.851564015282525);75.7074966431;0.943141310216;;;;;;;;;;;;;;0;0;0;0;0;0;0;0;0;();(-2000.0, -2000.0);
12:23:43:517;12:23:43:474;1448408382.05;(0.5993574619293213, 0.851564015282525);75.7074966431;0.943141310216;;;;;;;;;;;;;;0;0;0;0;0;0;0;0;0;();(-2000.0, -2000.0);
12:23:43:533;12:23:43:474;1448408382.05;(0.5993574619293213, 0.851564015282525);75.7074966431;0.943141310216;;;;;;;;;;;;;;0;0;0;0;0;0;0;0;0;();(-2000.0, -2000.0);
12:23:43:550;12:23:43:538;1448408382.11;(0.599610424041748, 0.8518489413791233);76.5827102661;0.91983468181;;;;;;;;;;;;;;0;0;0;0;0;0;0;0;0;();(-2000.0, -2000.0);
12:23:43:585;12:23:43:538;1448408382.11;(0.599610424041748, 0.8518489413791233);76.5827102661;0.91983468181;;;;;;;;;;;;;;0;0;0;0;0;0;0;0;0;();(-2000.0, -2000.0);
12:23:43:601;12:23:43:538;1448408382.11;(0.599610424041748, 0.8518489413791233);76.5827102661;0.91983468181;;;;;;;;;;;;;;0;0;0;0;0;0;0;0;0;();(-2000.0, -2000.0);
12:23:43:618;12:23:43:606;1448408382.18;(0.6031813144683837, 0.850358412000868);78.2633590698;0.955527489844;;;;;;;;;;;;;;0;0;0;0;0;0;0;0;0;();(-2000.0, -2000.0);
12:23:43:634;12:23:43:606;1448408382.18;(0.6031813144683837, 0.850358412000868);78.2633590698;0.955527489844;;;;;;;;;;;;;;0;0;0;0;0;0;0;0;0;();(-2000.0, -2000.0);
12:23:43:650;12:23:43:606;1448408382.18;(0.6031813144683837, 0.850358412000868);78.2633590698;0.955527489844;;;;;;;;;;;;;;0;0;0;0;0;0;0;0;0;();(-2000.0, -2000.0);
12:23:43:684;12:23:43:668;1448408382.21;(0, 0);0;0;;;;;;;;;;;;;;0;0;0;0;0;0;0;0;0;();(-2000.0, -2000.0);
12:23:43:701;12:23:43:668;1448408382.21;(0, 0);0;0;;;;;;;;;;;;;;0;0;0;0;0;0;0;0;0;();(-2000.0, -2000.0);
12:23:43:717;12:23:43:668;1448408382.21;(0, 0);0;0;;;;;;;;;;;;;;0;0;0;0;0;0;0;0;0;();(-2000.0, -2000.0);
12:23:43:734;12:23:43:668;1448408382.21;(0, 0);0;0;;;;;;;;;;;;;;0;0;0;0;0;0;0;0;0;();(-2000.0, -2000.0);
12:23:43:751;12:23:43:738;1448408382.28;(0.6794668197631836, 0.8367269304063585);79.64087677;0.877080968496;;;;;;;;;;;;;;0;0;0;0;0;0;0;0;0;();(-2000.0, -2000.0);
12:23:43:784;12:23:43:738;1448408382.28;(0.6794668197631836, 0.8367269304063585);79.64087677;0.877080968496;;;;;;;;;;;;;;0;0;0;0;0;0;0;0;0;();(-2000.0, -2000.0);
12:23:43:803;12:23:43:738;1448408382.28;(0.6794668197631836, 0.8367269304063585);79.64087677;0.877080968496;;;;;;;;;;;;;;0;0;0;0;0;0;0;0;0;();(-2000.0, -2000.0);
12:23:43:819;12:23:43:815;1448408382.38;(0.6783210754394531, 0.8378531879848904);80.7912902832;0.992345688743;;;;;;;;;;;;;;0;0;0;0;0;0;0;0;0;();(-2000.0, -2000.0);
12:23:43:835;12:23:43:815;1448408382.38;(0.6783210754394531, 0.8378531879848904);80.7912902832;0.992345688743;;;;;;;;;;;;;;0;0;0;0;0;0;0;0;0;();(-2000.0, -2000.0);
12:23:43:852;12:23:43:815;1448408382.38;(0.6783210754394531, 0.8378531879848904);80.7912902832;0.992345688743;;;;;;;;;;;;;;0;0;0;0;0;0;0;0;0;();(-2000.0, -2000.0);
12:23:43:885;12:23:43:876;1448408382.45;(0.6778569698333741, 0.837713188595242);81.5621871948;0.999001170133;;;;;;;;;;;;;;0;0;0;0;0;0;0;0;0;();(-2000.0, -2000.0);
12:23:43:902;12:23:43:876;1448408382.45;(0.6778569698333741, 0.837713188595242);81.5621871948;0.999001170133;;;;;;;;;;;;;;0;0;0;0;0;0;0;0;0;();(-2000.0, -2000.0);
12:23:43:919;12:23:43:876;1448408382.45;(0.6778569698333741, 0.837713188595242);81.5621871948;0.999001170133;;;;;;;;;;;;;;0;0;0;0;0;0;0;0;0;();(-2000.0, -2000.0);
12:23:43:935;12:23:43:876;1448408382.45;(0.6778569698333741, 0.837713188595242);81.5621871948;0.999001170133;;;;;;;;;;;;;;0;0;0;0;0;0;0;0;0;();(-2000.0, -2000.0);
12:23:43:952;12:23:43:941;1448408382.51;(0.6779983043670654, 0.8368119239807129);81.6910247803;0.906934712648;;;;;;;;;;;;;;0;0;0;0;0;0;0;0;0;();(-2000.0, -2000.0);
12:23:43:985;12:23:43:941;1448408382.51;(0.6779983043670654, 0.8368119239807129);81.6910247803;0.906934712648;;;;;;;;;;;;;;0;0;0;0;0;0;0;0;0;();(-2000.0, -2000.0);
12:23:44:005;12:23:44:001;1448408382.55;(0.677842092514038, 0.8365037388271755);81.8786697388;0.972413031609;;;;;;;;;;;;;;0;0;0;0;0;0;0;0;0;();(-2000.0, -2000.0);
12:23:44:019;12:23:44:003;1448408382.58;(0.6778065204620362, 0.8367495960659451);82.3052902222;0.987037408412;;;;;;;;;;;;;;0;0;0;0;0;0;0;0;0;();(-2000.0, -2000.0);
12:23:44:036;12:23:44:003;1448408382.58;(0.6778065204620362, 0.8367495960659451);82.3052902222;0.987037408412;;;;;;;;;;;;;;0;0;0;0;0;0;0;0;0;();(-2000.0, -2000.0);
12:23:44:052;12:23:44:003;1448408382.58;(0.6778065204620362, 0.8367495960659451);82.3052902222;0.987037408412;;;;;;;;;;;;;;0;0;0;0;0;0;0;0;0;();(-2000.0, -2000.0);
12:23:44:085;12:23:44:069;1448408382.65;(0, 0);0;0;;;;;;;;;;;;;;0;0;0;0;0;0;0;0;0;();(-2000.0, -2000.0);
12:23:44:102;12:23:44:069;1448408382.65;(0, 0);0;0;;;;;;;;;;;;;;0;0;0;0;0;0;0;0;0;();(-2000.0, -2000.0);
12:23:44:118;12:23:44:069;1448408382.65;(0, 0);0;0;;;;;;;;;;;;;;0;0;0;0;0;0;0;0;0;();(-2000.0, -2000.0);
12:23:44:135;12:23:44:069;1448408382.65;(0, 0);0;0;;;;;;;;;;;;;;0;0;0;0;0;0;0;0;0;();(-2000.0, -2000.0);
12:23:44:151;12:23:44:139;1448408382.71;(0.7122128963470459, 0.8000412199232314);84.7112884521;0.843710568111;;;;;;;;;;;;;;0;0;0;0;0;0;0;0;0;();(-2000.0, -2000.0);
12:23:44:184;12:23:44:139;1448408382.71;(0.7122128963470459, 0.8000412199232314);84.7112884521;0.843710568111;;;;;;;;;;;;;;0;0;0;0;0;0;0;0;0;();(-2000.0, -2000.0);
12:23:44:203;12:23:44:201;1448408382.78;(0.7117353439331054, 0.8015988985697429);84.0139694214;1.0;;;;;;;;;;;;;;0;0;0;0;0;0;0;0;0;();(-2000.0, -2000.0);
12:23:44:217;12:23:44:201;1448408382.78;(0.7117353439331054, 0.8015988985697429);84.0139694214;1.0;;;;;;;;;;;;;;0;0;0;0;0;0;0;0;0;();(-2000.0, -2000.0);
12:23:44:234;12:23:44:201;1448408382.78;(0.7117353439331054, 0.8015988985697429);84.0139694214;1.0;;;;;;;;;;;;;;0;0;0;0;0;0;0;0;0;();(-2000.0, -2000.0);
12:23:44:251;12:23:44:201;1448408382.78;(0.7117353439331054, 0.8015988985697429);84.0139694214;1.0;;;;;;;;;;;;;;0;0;0;0;0;0;0;0;0;();(-2000.0, -2000.0);
12:23:44:285;12:23:44:270;1448408382.85;(0.7114382743835449, 0.8024917284647624);84.1121063232;1.0;;;;;;;;;;;;;;0;0;0;0;0;0;0;0;0;();(-2000.0, -2000.0);
12:23:44:301;12:23:44:270;1448408382.85;(0.7114382743835449, 0.8024917284647624);84.1121063232;1.0;;;;;;;;;;;;;;0;0;0;0;0;0;0;0;0;();(-2000.0, -2000.0);
12:23:44:317;12:23:44:270;1448408382.85;(0.7114382743835449, 0.8024917284647624);84.1121063232;1.0;;;;;;;;;;;;;;0;0;0;0;0;0;0;0;0;();(-2000.0, -2000.0);
12:23:44:335;12:23:44:333;1448408382.91;(0.7107840538024902, 0.8032326698303223);84.2078781128;1.0;;;;;;;;;;;;;;0;0;0;0;0;0;0;0;0;();(-2000.0, -2000.0);
12:23:44:352;12:23:44:333;1448408382.91;(0.7107840538024902, 0.8032326698303223);84.2078781128;1.0;;;;;;;;;;;;;;0;0;0;0;0;0;0;0;0;();(-2000.0, -2000.0);
12:23:44:384;12:23:44:333;1448408382.91;(0.7107840538024902, 0.8032326698303223);84.2078781128;1.0;;;;;;;;;;;;;;0;0;0;0;0;0;0;0;0;();(-2000.0, -2000.0);
12:23:44:403;12:23:44:401;1448408382.98;(0.7100133895874023, 0.8038221147325304);84.5229110718;0.903526012929;;;;;;;;;;;;;;0;0;0;0;0;0;0;0;0;();(-2000.0, -2000.0);
12:23:44:418;12:23:44:401;1448408382.98;(0.7100133895874023, 0.8038221147325304);84.5229110718;0.903526012929;;;;;;;;;;;;;;0;0;0;0;0;0;0;0;0;();(-2000.0, -2000.0);
12:23:44:434;12:23:44:401;1448408382.98;(0.7100133895874023, 0.8038221147325304);84.5229110718;0.903526012929;;;;;;;;;;;;;;0;0;0;0;0;0;0;0;0;();(-2000.0, -2000.0);
12:23:44:451;12:23:44:401;1448408382.98;(0.7100133895874023, 0.8038221147325304);84.5229110718;0.903526012929;;;;;;;;;;;;;;0;0;0;0;0;0;0;0;0;();(-2000.0, -2000.0);
12:23:44:485;12:23:44:470;1448408383.05;(0.7338163375854492, 0.8001862525939941);84.6415863037;0.758418439108;;;;;;;;;;;;;;0;0;0;0;0;0;0;0;0;();(-2000.0, -2000.0);
12:23:44:502;12:23:44:470;1448408383.05;(0.7338163375854492, 0.8001862525939941);84.6415863037;0.758418439108;;;;;;;;;;;;;;0;0;0;0;0;0;0;0;0;();(-2000.0, -2000.0);
12:23:44:517;12:23:44:470;1448408383.05;(0.7338163375854492, 0.8001862525939941);84.6415863037;0.758418439108;;;;;;;;;;;;;;0;0;0;0;0;0;0;0;0;();(-2000.0, -2000.0);
12:23:44:535;12:23:44:534;1448408383.08;(0.7466594219207764, 0.7960675027635362);80.9901275635;0.73093178228;;;;;;;;;;;;;;0;0;0;0;0;0;0;0;0;();(-2000.0, -2000.0);
12:23:44:551;12:23:44:534;1448408383.08;(0.7466594219207764, 0.7960675027635362);80.9901275635;0.73093178228;;;;;;;;;;;;;;0;0;0;0;0;0;0;0;0;();(-2000.0, -2000.0);
12:23:44:585;12:23:44:534;1448408383.08;(0.7466594219207764, 0.7960675027635362);80.9901275635;0.73093178228;;;;;;;;;;;;;;0;0;0;0;0;0;0;0;0;();(-2000.0, -2000.0);
12:23:44:604;12:23:44:603;1448408383.18;(0.7452994346618652, 0.8027667893303765);84.4549636841;0.781295329596;;;;;;;;;;;;;;0;0;0;0;0;0;0;0;0;();(-2000.0, -2000.0);
12:23:44:618;12:23:44:603;1448408383.18;(0.7452994346618652, 0.8027667893303765);84.4549636841;0.781295329596;;;;;;;;;;;;;;0;0;0;0;0;0;0;0;0;();(-2000.0, -2000.0);
12:23:44:635;12:23:44:603;1448408383.18;(0.7452994346618652, 0.8027667893303765);84.4549636841;0.781295329596;;;;;;;;;;;;;;0;0;0;0;0;0;0;0;0;();(-2000.0, -2000.0);
12:23:44:651;12:23:44:603;1448408383.18;(0.7452994346618652, 0.8027667893303765);84.4549636841;0.781295329596;;;;;;;;;;;;;;0;0;0;0;0;0;0;0;0;();(-2000.0, -2000.0);
12:23:44:685;12:23:44:665;1448408383.25;(0.742841100692749, 0.8020119243197971);84.266708374;0.918997801675;;;;;;;;;;;;;;0;0;0;0;0;0;0;0;0;();(-2000.0, -2000.0);
12:23:44:702;12:23:44:665;1448408383.25;(0.742841100692749, 0.8020119243197971);84.266708374;0.918997801675;;;;;;;;;;;;;;0;0;0;0;0;0;0;0;0;();(-2000.0, -2000.0);
12:23:44:718;12:23:44:665;1448408383.25;(0.742841100692749, 0.8020119243197971);84.266708374;0.918997801675;;;;;;;;;;;;;;0;0;0;0;0;0;0;0;0;();(-2000.0, -2000.0);
12:23:44:735;12:23:44:734;1448408383.31;(0.7415302753448486, 0.8024018605550131);83.6710128784;0.832327658128;;;;;;;;;;;;;;0;0;0;0;0;0;0;0;0;();(-2000.0, -2000.0);
12:23:44:751;12:23:44:734;1448408383.31;(0.7415302753448486, 0.8024018605550131);83.6710128784;0.832327658128;;;;;;;;;;;;;;0;0;0;0;0;0;0;0;0;();(-2000.0, -2000.0);
12:23:44:785;12:23:44:734;1448408383.31;(0.7415302753448486, 0.8024018605550131);83.6710128784;0.832327658128;;;;;;;;;;;;;;0;0;0;0;0;0;0;0;0;();(-2000.0, -2000.0);
12:23:44:802;12:23:44:800;1448408383.35;(0.7389015674591064, 0.8037337197197808);85.0815429688;0.863143111565;;;;;;;;;;;;;;0;0;0;0;0;0;0;0;0;();(-2000.0, -2000.0);
12:23:44:818;12:23:44:802;1448408383.38;(0.738310718536377, 0.8041039360894098);86.11378479;0.830417306387;;;;;;;;;;;;;;0;0;0;0;0;0;0;0;0;();(-2000.0, -2000.0);
12:23:44:835;12:23:44:802;1448408383.38;(0.738310718536377, 0.8041039360894098);86.11378479;0.830417306387;;;;;;;;;;;;;;0;0;0;0;0;0;0;0;0;();(-2000.0, -2000.0);
12:23:44:852;12:23:44:802;1448408383.38;(0.738310718536377, 0.8041039360894098);86.11378479;0.830417306387;;;;;;;;;;;;;;0;0;0;0;0;0;0;0;0;();(-2000.0, -2000.0);
12:23:44:885;12:23:44:864;1448408383.41;(0.7373459339141846, 0.80550111134847);85.2159423828;0.81824235149;;;;;;;;;;;;;;0;0;0;0;0;0;0;0;0;();(-2000.0, -2000.0);
12:23:44:902;12:23:44:864;1448408383.41;(0.7373459339141846, 0.80550111134847);85.2159423828;0.81824235149;;;;;;;;;;;;;;0;0;0;0;0;0;0;0;0;();(-2000.0, -2000.0);
12:23:44:920;12:23:44:864;1448408383.41;(0.7373459339141846, 0.80550111134847);85.2159423828;0.81824235149;;;;;;;;;;;;;;0;0;0;0;0;0;0;0;0;();(-2000.0, -2000.0);
12:23:44:935;12:23:44:934;1448408383.48;(0.7344219207763671, 0.8081571155124241);84.6804046631;0.938227447998;;;;;;;;;;;;;;0;0;0;0;0;0;0;0;0;();(-2000.0, -2000.0);
12:23:44:952;12:23:44:934;1448408383.48;(0.7344219207763671, 0.8081571155124241);84.6804046631;0.938227447998;;;;;;;;;;;;;;0;0;0;0;0;0;0;0;0;();(-2000.0, -2000.0);
12:23:44:986;12:23:44:934;1448408383.48;(0.7344219207763671, 0.8081571155124241);84.6804046631;0.938227447998;;;;;;;;;;;;;;0;0;0;0;0;0;0;0;0;();(-2000.0, -2000.0);
12:23:45:003;12:23:44:997;1448408383.55;(0.7474212646484375, 0.7994825787014431);86.897644043;0.736233414496;;;;;;;;;;;;;;0;0;0;0;0;0;0;0;0;();(-2000.0, -2000.0);
12:23:45:018;12:23:44:997;1448408383.55;(0.7474212646484375, 0.7994825787014431);86.897644043;0.736233414496;;;;;;;;;;;;;;0;0;0;0;0;0;0;0;0;();(-2000.0, -2000.0);
12:23:45:036;12:23:44:997;1448408383.55;(0.7474212646484375, 0.7994825787014431);86.897644043;0.736233414496;;;;;;;;;;;;;;0;0;0;0;0;0;0;0;0;();(-2000.0, -2000.0);
12:23:45:052;12:23:44:997;1448408383.55;(0.7474212646484375, 0.7994825787014431);86.897644043;0.736233414496;;;;;;;;;;;;;;0;0;0;0;0;0;0;0;0;();(-2000.0, -2000.0);
12:23:45:086;12:23:45:070;1448408383.65;(0.7448396682739258, 0.799452453189426);84.6990966797;0.852048881074;;;;;;;;;;;;;;0;0;0;0;0;0;0;0;0;();(-2000.0, -2000.0);
12:23:45:102;12:23:45:070;1448408383.65;(0.7448396682739258, 0.799452453189426);84.6990966797;0.852048881074;;;;;;;;;;;;;;0;0;0;0;0;0;0;0;0;();(-2000.0, -2000.0);
12:23:45:119;12:23:45:070;1448408383.65;(0.7448396682739258, 0.799452453189426);84.6990966797;0.852048881074;;;;;;;;;;;;;;0;0;0;0;0;0;0;0;0;();(-2000.0, -2000.0);
12:23:45:135;12:23:45:132;1448408383.68;(0, 0);0;0;;;;;;;;;;;;;;0;0;0;0;0;0;0;0;0;();(-2000.0, -2000.0);
12:23:45:152;12:23:45:132;1448408383.68;(0, 0);0;0;;;;;;;;;;;;;;0;0;0;0;0;0;0;0;0;();(-2000.0, -2000.0);
12:23:45:185;12:23:45:132;1448408383.68;(0, 0);0;0;;;;;;;;;;;;;;0;0;0;0;0;0;0;0;0;();(-2000.0, -2000.0);
12:23:45:202;12:23:45:199;1448408383.78;(0.6905123233795166, 0.6857572767469617);18.0083675385;0.735214569432;;;;;;;;;;;;;;0;0;0;0;0;0;0;0;0;();(-2000.0, -2000.0);
12:23:45:218;12:23:45:199;1448408383.78;(0.6905123233795166, 0.6857572767469617);18.0083675385;0.735214569432;;;;;;;;;;;;;;0;0;0;0;0;0;0;0;0;();(-2000.0, -2000.0);
12:23:45:237;12:23:45:199;1448408383.78;(0.6905123233795166, 0.6857572767469617);18.0083675385;0.735214569432;;;;;;;;;;;;;;0;0;0;0;0;0;0;0;0;();(-2000.0, -2000.0);
12:23:45:253;12:23:45:199;1448408383.78;(0.6905123233795166, 0.6857572767469617);18.0083675385;0.735214569432;;;;;;;;;;;;;;0;0;0;0;0;0;0;0;0;();(-2000.0, -2000.0);
12:23:45:285;12:23:45:266;1448408383.85;(0.7322520256042481, 0.8138623767428927);84.944770813;0.708546591443;;;;;;;;;;;;;;0;0;0;0;0;0;0;0;0;();(-2000.0, -2000.0);
12:23:45:302;12:23:45:266;1448408383.85;(0.7322520256042481, 0.8138623767428927);84.944770813;0.708546591443;;;;;;;;;;;;;;0;0;0;0;0;0;0;0;0;();(-2000.0, -2000.0);
12:23:45:319;12:23:45:266;1448408383.85;(0.7322520256042481, 0.8138623767428927);84.944770813;0.708546591443;;;;;;;;;;;;;;0;0;0;0;0;0;0;0;0;();(-2000.0, -2000.0);
12:23:45:337;12:23:45:330;1448408383.91;(0.7535353660583496, 0.791233401828342);83.7939529419;0.935592083418;;;;;;;;;;;;;;0;0;0;0;0;0;0;0;0;();(-2000.0, -2000.0);
12:23:45:352;12:23:45:330;1448408383.91;(0.7535353660583496, 0.791233401828342);83.7939529419;0.935592083418;;;;;;;;;;;;;;0;0;0;0;0;0;0;0;0;();(-2000.0, -2000.0);
12:23:45:386;12:23:45:330;1448408383.91;(0.7535353660583496, 0.791233401828342);83.7939529419;0.935592083418;;;;;;;;;;;;;;0;0;0;0;0;0;0;0;0;();(-2000.0, -2000.0);
12:23:45:402;12:23:45:396;1448408383.95;(0.761323356628418, 0.7677931255764432);62.2009773254;0.797633158669;;;;;;;;;;;;;;0;0;0;0;0;0;0;0;0;();(-2000.0, -2000.0);
12:23:45:419;12:23:45:396;1448408383.95;(0.761323356628418, 0.7677931255764432);62.2009773254;0.797633158669;;;;;;;;;;;;;;0;0;0;0;0;0;0;0;0;();(-2000.0, -2000.0);
12:23:45:436;12:23:45:396;1448408383.95;(0.761323356628418, 0.7677931255764432);62.2009773254;0.797633158669;;;;;;;;;;;;;;0;0;0;0;0;0;0;0;0;();(-2000.0, -2000.0);
12:23:45:454;12:23:45:396;1448408383.95;(0.761323356628418, 0.7677931255764432);62.2009773254;0.797633158669;;;;;;;;;;;;;;0;0;0;0;0;0;0;0;0;();(-2000.0, -2000.0);
12:23:45:486;12:23:45:465;1448408384.01;(0.29022552967071535, 0.6734810935126411);18.0262107849;0.886544571371;;;;;;;;;;;;;;0;0;0;0;0;0;0;0;0;();(-2000.0, -2000.0);
12:23:45:503;12:23:45:465;1448408384.01;(0.29022552967071535, 0.6734810935126411);18.0262107849;0.886544571371;;;;;;;;;;;;;;0;0;0;0;0;0;0;0;0;();(-2000.0, -2000.0);
12:23:45:520;12:23:45:465;1448408384.01;(0.29022552967071535, 0.6734810935126411);18.0262107849;0.886544571371;;;;;;;;;;;;;;0;0;0;0;0;0;0;0;0;();(-2000.0, -2000.0);
12:23:45:535;12:23:45:529;1448408384.05;(0.7582648754119873, 0.7792451222737631);81.3526229858;0.625642182987;;;;;;;;;;;;;;0;0;0;0;0;0;0;0;0;();(-2000.0, -2000.0);
12:23:45:552;12:23:45:529;1448408384.05;(0.7582648754119873, 0.7792451222737631);81.3526229858;0.625642182987;;;;;;;;;;;;;;0;0;0;0;0;0;0;0;0;();(-2000.0, -2000.0);
12:23:45:587;12:23:45:529;1448408384.05;(0.7582648754119873, 0.7792451222737631);81.3526229858;0.625642182987;;;;;;;;;;;;;;0;0;0;0;0;0;0;0;0;();(-2000.0, -2000.0);
12:23:45:604;12:23:45:599;1448408384.13;(0.7549089431762696, 0.7610585106743707);79.6474761963;0.823636896862;;;;;;;;;;;;;;0;0;0;0;0;0;0;0;0;();(-2000.0, -2000.0);
12:23:45:620;12:23:45:599;1448408384.13;(0.7549089431762696, 0.7610585106743707);79.6474761963;0.823636896862;;;;;;;;;;;;;;0;0;0;0;0;0;0;0;0;();(-2000.0, -2000.0);
12:23:45:636;12:23:45:599;1448408384.13;(0.7549089431762696, 0.7610585106743707);79.6474761963;0.823636896862;;;;;;;;;;;;;;0;0;0;0;0;0;0;0;0;();(-2000.0, -2000.0);
12:23:45:652;12:23:45:599;1448408384.13;(0.7549089431762696, 0.7610585106743707);79.6474761963;0.823636896862;;;;;;;;;;;;;;0;0;0;0;0;0;0;0;0;();(-2000.0, -2000.0);
12:23:45:669;12:23:45:665;1448408384.25;(0.7499946594238281, 0.7664047241210937);83.939743042;0.812596151002;;;;;;;;;;;;;;0;0;0;0;0;0;0;0;0;();(-2000.0, -2000.0);
12:23:45:702;12:23:45:665;1448408384.25;(0.7499946594238281, 0.7664047241210937);83.939743042;0.812596151002;;;;;;;;;;;;;;0;0;0;0;0;0;0;0;0;();(-2000.0, -2000.0);
12:23:45:719;12:23:45:665;1448408384.25;(0.7499946594238281, 0.7664047241210937);83.939743042;0.812596151002;;;;;;;;;;;;;;0;0;0;0;0;0;0;0;0;();(-2000.0, -2000.0);
12:23:45:735;12:23:45:728;1448408384.28;(0, 0);0;0;;;;;;;;;;;;;;0;0;0;0;0;0;0;0;0;();(-2000.0, -2000.0);
12:23:45:752;12:23:45:728;1448408384.28;(0, 0);0;0;;;;;;;;;;;;;;0;0;0;0;0;0;0;0;0;();(-2000.0, -2000.0);
12:23:45:769;12:23:45:728;1448408384.28;(0, 0);0;0;;;;;;;;;;;;;;0;0;0;0;0;0;0;0;0;();(-2000.0, -2000.0);
12:23:45:803;12:23:45:800;1448408384.35;(0.7442723751068115, 0.7726683298746745);84.6673660278;0.93086805587;;;;;;;;;;;;;;0;0;0;0;0;0;0;0;0;();(-2000.0, -2000.0);
12:23:45:819;12:23:45:800;1448408384.35;(0.7442723751068115, 0.7726683298746745);84.6673660278;0.93086805587;;;;;;;;;;;;;;0;0;0;0;0;0;0;0;0;();(-2000.0, -2000.0);
12:23:45:835;12:23:45:800;1448408384.35;(0.7442723751068115, 0.7726683298746745);84.6673660278;0.93086805587;;;;;;;;;;;;;;0;0;0;0;0;0;0;0;0;();(-2000.0, -2000.0);
12:23:45:853;12:23:45:800;1448408384.35;(0.7442723751068115, 0.7726683298746745);84.6673660278;0.93086805587;;;;;;;;;;;;;;0;0;0;0;0;0;0;0;0;();(-2000.0, -2000.0);
12:23:45:869;12:23:45:864;1448408384.41;(0.7418408870697022, 0.7756701363457574);84.6013870239;0.757683022197;;;;;;;;;;;;;;0;0;0;0;0;0;0;0;0;();(-2000.0, -2000.0);
12:23:45:902;12:23:45:864;1448408384.41;(0.7418408870697022, 0.7756701363457574);84.6013870239;0.757683022197;;;;;;;;;;;;;;0;0;0;0;0;0;0;0;0;();(-2000.0, -2000.0);
12:23:45:920;12:23:45:864;1448408384.41;(0.7418408870697022, 0.7756701363457574);84.6013870239;0.757683022197;;;;;;;;;;;;;;0;0;0;0;0;0;0;0;0;();(-2000.0, -2000.0);
12:23:45:936;12:23:45:929;1448408384.48;(0, 0);0;0;;;;;;;;;;;;;;0;0;0;0;0;0;0;0;0;();(-2000.0, -2000.0);
12:23:45:953;12:23:45:929;1448408384.48;(0, 0);0;0;;;;;;;;;;;;;;0;0;0;0;0;0;0;0;0;();(-2000.0, -2000.0);
12:23:45:969;12:23:45:929;1448408384.48;(0, 0);0;0;;;;;;;;;;;;;;0;0;0;0;0;0;0;0;0;();(-2000.0, -2000.0);
12:23:46:003;12:23:45:993;1448408384.55;(0.7805907249450683, 0.774904399447971);85.1930389404;1.0;;;;;;;;;;;;;;0;0;0;0;0;0;0;0;0;();(-2000.0, -2000.0);
12:23:46:019;12:23:45:993;1448408384.55;(0.7805907249450683, 0.774904399447971);85.1930389404;1.0;;;;;;;;;;;;;;0;0;0;0;0;0;0;0;0;();(-2000.0, -2000.0);
12:23:46:036;12:23:45:993;1448408384.55;(0.7805907249450683, 0.774904399447971);85.1930389404;1.0;;;;;;;;;;;;;;0;0;0;0;0;0;0;0;0;();(-2000.0, -2000.0);
12:23:46:053;12:23:45:993;1448408384.55;(0.7805907249450683, 0.774904399447971);85.1930389404;1.0;;;;;;;;;;;;;;0;0;0;0;0;0;0;0;0;();(-2000.0, -2000.0);
12:23:46:069;12:23:46:062;1448408384.61;(0.776678466796875, 0.7785159640842014);84.2980728149;0.906452132197;;;;;;;;;;;;;;0;0;0;0;0;0;0;0;0;();(-2000.0, -2000.0);
12:23:46:103;12:23:46:062;1448408384.61;(0.776678466796875, 0.7785159640842014);84.2980728149;0.906452132197;;;;;;;;;;;;;;0;0;0;0;0;0;0;0;0;();(-2000.0, -2000.0);
12:23:46:119;12:23:46:062;1448408384.61;(0.776678466796875, 0.7785159640842014);84.2980728149;0.906452132197;;;;;;;;;;;;;;0;0;0;0;0;0;0;0;0;();(-2000.0, -2000.0);
12:23:46:136;12:23:46:129;1448408384.68;(0, 0);0;0;;;;;;;;;;;;;;0;0;0;0;0;0;0;0;0;();(-2000.0, -2000.0);
12:23:46:153;12:23:46:129;1448408384.68;(0, 0);0;0;;;;;;;;;;;;;;0;0;0;0;0;0;0;0;0;();(-2000.0, -2000.0);
12:23:46:170;12:23:46:129;1448408384.68;(0, 0);0;0;;;;;;;;;;;;;;0;0;0;0;0;0;0;0;0;();(-2000.0, -2000.0);
12:23:46:203;12:23:46:194;1448408384.75;(0.7672670841217041, 0.7844994015163845);86.2534408569;0.85749619483;;;;;;;;;;;;;;0;0;0;0;0;0;0;0;0;();(-2000.0, -2000.0);
12:23:46:220;12:23:46:194;1448408384.75;(0.7672670841217041, 0.7844994015163845);86.2534408569;0.85749619483;;;;;;;;;;;;;;0;0;0;0;0;0;0;0;0;();(-2000.0, -2000.0);
12:23:46:236;12:23:46:194;1448408384.75;(0.7672670841217041, 0.7844994015163845);86.2534408569;0.85749619483;;;;;;;;;;;;;;0;0;0;0;0;0;0;0;0;();(-2000.0, -2000.0);
12:23:46:253;12:23:46:194;1448408384.75;(0.7672670841217041, 0.7844994015163845);86.2534408569;0.85749619483;;;;;;;;;;;;;;0;0;0;0;0;0;0;0;0;();(-2000.0, -2000.0);
12:23:46:271;12:23:46:263;1448408384.85;(0.7971854686737061, 0.7719226837158203);84.9764862061;0.823528752785;;;;;;;;;;;;;;0;0;0;0;0;0;0;0;0;();(-2000.0, -2000.0);
12:23:46:303;12:23:46:263;1448408384.85;(0.7971854686737061, 0.7719226837158203);84.9764862061;0.823528752785;;;;;;;;;;;;;;0;0;0;0;0;0;0;0;0;();(-2000.0, -2000.0);
12:23:46:319;12:23:46:263;1448408384.85;(0.7971854686737061, 0.7719226837158203);84.9764862061;0.823528752785;;;;;;;;;;;;;;0;0;0;0;0;0;0;0;0;();(-2000.0, -2000.0);
12:23:46:336;12:23:46:263;1448408384.85;(0.7971854686737061, 0.7719226837158203);84.9764862061;0.823528752785;;;;;;;;;;;;;;0;0;0;0;0;0;0;0;0;();(-2000.0, -2000.0);
12:23:46:353;12:23:46:339;1448408384.88;(0.7951513767242432, 0.7752257664998372);85.6690826416;0.968377472562;;;;;;;;;;;;;;0;0;0;0;0;0;0;0;0;();(-2000.0, -2000.0);
12:23:46:370;12:23:46:339;1448408384.88;(0.7951513767242432, 0.7752257664998372);85.6690826416;0.968377472562;;;;;;;;;;;;;;0;0;0;0;0;0;0;0;0;();(-2000.0, -2000.0);
12:23:46:403;12:23:46:398;1448408384.95;(0.7914991855621338, 0.7797897126939561);85.256477356;0.94869440676;;;;;;;;;;;;;;0;0;0;0;0;0;0;0;0;();(-2000.0, -2000.0);
12:23:46:419;12:23:46:398;1448408384.95;(0.7914991855621338, 0.7797897126939561);85.256477356;0.94869440676;;;;;;;;;;;;;;0;0;0;0;0;0;0;0;0;();(-2000.0, -2000.0);
12:23:46:436;12:23:46:398;1448408384.95;(0.7914991855621338, 0.7797897126939561);85.256477356;0.94869440676;;;;;;;;;;;;;;0;0;0;0;0;0;0;0;0;();(-2000.0, -2000.0);
12:23:46:453;12:23:46:398;1448408384.95;(0.7914991855621338, 0.7797897126939561);85.256477356;0.94869440676;;;;;;;;;;;;;;0;0;0;0;0;0;0;0;0;();(-2000.0, -2000.0);
12:23:46:470;12:23:46:457;1448408385.01;(0.7880665779113769, 0.782041973537869);85.9746856689;0.864217540223;;;;;;;;;;;;;;0;0;0;0;0;0;0;0;0;();(-2000.0, -2000.0);
12:23:46:503;12:23:46:457;1448408385.01;(0.7880665779113769, 0.782041973537869);85.9746856689;0.864217540223;;;;;;;;;;;;;;0;0;0;0;0;0;0;0;0;();(-2000.0, -2000.0);
12:23:46:520;12:23:46:457;1448408385.01;(0.7880665779113769, 0.782041973537869);85.9746856689;0.864217540223;;;;;;;;;;;;;;0;0;0;0;0;0;0;0;0;();(-2000.0, -2000.0);
12:23:46:536;12:23:46:526;1448408385.08;(0.7841085433959961, 0.7837162441677518);85.4709625244;0.964002747799;;;;;;;;;;;;;;0;0;0;0;0;0;0;0;0;();(-2000.0, -2000.0);
12:23:46:554;12:23:46:526;1448408385.08;(0.7841085433959961, 0.7837162441677518);85.4709625244;0.964002747799;;;;;;;;;;;;;;0;0;0;0;0;0;0;0;0;();(-2000.0, -2000.0);
12:23:46:569;12:23:46:526;1448408385.08;(0.7841085433959961, 0.7837162441677518);85.4709625244;0.964002747799;;;;;;;;;;;;;;0;0;0;0;0;0;0;0;0;();(-2000.0, -2000.0);
12:23:46:603;12:23:46:595;1448408385.18;(0.7809442520141602, 0.7864507463243273);84.7914199829;0.81087808915;;;;;;;;;;;;;;0;0;0;0;0;0;0;0;0;();(-2000.0, -2000.0);
12:23:46:620;12:23:46:595;1448408385.18;(0.7809442520141602, 0.7864507463243273);84.7914199829;0.81087808915;;;;;;;;;;;;;;0;0;0;0;0;0;0;0;0;();(-2000.0, -2000.0);
12:23:46:636;12:23:46:595;1448408385.18;(0.7809442520141602, 0.7864507463243273);84.7914199829;0.81087808915;;;;;;;;;;;;;;0;0;0;0;0;0;0;0;0;();(-2000.0, -2000.0);
12:23:46:653;12:23:46:595;1448408385.18;(0.7809442520141602, 0.7864507463243273);84.7914199829;0.81087808915;;;;;;;;;;;;;;0;0;0;0;0;0;0;0;0;();(-2000.0, -2000.0);
12:23:46:670;12:23:46:658;1448408385.25;(0.7795748710632324, 0.7881972206963433);84.2975769043;0.814551269857;;;;;;;;;;;;;;0;0;0;0;0;0;0;0;0;();(-2000.0, -2000.0);
12:23:46:703;12:23:46:658;1448408385.25;(0.7795748710632324, 0.7881972206963433);84.2975769043;0.814551269857;;;;;;;;;;;;;;0;0;0;0;0;0;0;0;0;();(-2000.0, -2000.0);
12:23:46:720;12:23:46:658;1448408385.25;(0.7795748710632324, 0.7881972206963433);84.2975769043;0.814551269857;;;;;;;;;;;;;;0;0;0;0;0;0;0;0;0;();(-2000.0, -2000.0);
12:23:46:737;12:23:46:726;1448408385.31;(0.7782336235046386, 0.7892869101630317);85.2462692261;0.897323427565;;;;;;;;;;;;;;0;0;0;0;0;0;0;0;0;();(-2000.0, -2000.0);
12:23:46:753;12:23:46:726;1448408385.31;(0.7782336235046386, 0.7892869101630317);85.2462692261;0.897323427565;;;;;;;;;;;;;;0;0;0;0;0;0;0;0;0;();(-2000.0, -2000.0);
12:23:46:770;12:23:46:726;1448408385.31;(0.7782336235046386, 0.7892869101630317);85.2462692261;0.897323427565;;;;;;;;;;;;;;0;0;0;0;0;0;0;0;0;();(-2000.0, -2000.0);
12:23:46:804;12:23:46:791;1448408385.35;(0.7775597095489502, 0.7905614429050022);86.0706787109;0.876073864858;;;;;;;;;;;;;;0;0;0;0;0;0;0;0;0;();(-2000.0, -2000.0);
12:23:46:820;12:23:46:791;1448408385.35;(0.7775597095489502, 0.7905614429050022);86.0706787109;0.876073864858;;;;;;;;;;;;;;0;0;0;0;0;0;0;0;0;();(-2000.0, -2000.0);
12:23:46:836;12:23:46:791;1448408385.35;(0.7775597095489502, 0.7905614429050022);86.0706787109;0.876073864858;;;;;;;;;;;;;;0;0;0;0;0;0;0;0;0;();(-2000.0, -2000.0);
12:23:46:853;12:23:46:791;1448408385.35;(0.7775597095489502, 0.7905614429050022);86.0706787109;0.876073864858;;;;;;;;;;;;;;0;0;0;0;0;0;0;0;0;();(-2000.0, -2000.0);
12:23:46:870;12:23:46:858;1448408385.41;(0.7591948986053467, 0.7756993823581272);86.5748825073;0.788009601308;;;;;;;;;;;;;;0;0;0;0;0;0;0;0;0;();(-2000.0, -2000.0);
12:23:46:903;12:23:46:858;1448408385.41;(0.7591948986053467, 0.7756993823581272);86.5748825073;0.788009601308;;;;;;;;;;;;;;0;0;0;0;0;0;0;0;0;();(-2000.0, -2000.0);
12:23:46:920;12:23:46:858;1448408385.41;(0.7591948986053467, 0.7756993823581272);86.5748825073;0.788009601308;;;;;;;;;;;;;;0;0;0;0;0;0;0;0;0;();(-2000.0, -2000.0);
12:23:46:937;12:23:46:925;1448408385.48;(0.7582683086395263, 0.7773253758748373);87.1433258057;0.966824182731;;;;;;;;;;;;;;0;0;0;0;0;0;0;0;0;();(-2000.0, -2000.0);
12:23:46:955;12:23:46:925;1448408385.48;(0.7582683086395263, 0.7773253758748373);87.1433258057;0.966824182731;;;;;;;;;;;;;;0;0;0;0;0;0;0;0;0;();(-2000.0, -2000.0);
12:23:46:970;12:23:46:925;1448408385.48;(0.7582683086395263, 0.7773253758748373);87.1433258057;0.966824182731;;;;;;;;;;;;;;0;0;0;0;0;0;0;0;0;();(-2000.0, -2000.0);
12:23:47:003;12:23:46:992;1448408385.55;(0.75743727684021, 0.778958977593316);86.998008728;1.0;;;;;;;;;;;;;;0;0;0;0;0;0;0;0;0;();(-2000.0, -2000.0);
12:23:47:020;12:23:46:992;1448408385.55;(0.75743727684021, 0.778958977593316);86.998008728;1.0;;;;;;;;;;;;;;0;0;0;0;0;0;0;0;0;();(-2000.0, -2000.0);
12:23:47:036;12:23:46:992;1448408385.55;(0.75743727684021, 0.778958977593316);86.998008728;1.0;;;;;;;;;;;;;;0;0;0;0;0;0;0;0;0;();(-2000.0, -2000.0);
12:23:47:053;12:23:46:992;1448408385.55;(0.75743727684021, 0.778958977593316);86.998008728;1.0;;;;;;;;;;;;;;0;0;0;0;0;0;0;0;0;();(-2000.0, -2000.0);
12:23:47:070;12:23:47:058;1448408385.61;(0.7572575092315674, 0.7796743816799587);87.1718521118;1.0;;;;;;;;;;;;;;0;0;0;0;0;0;0;0;0;();(-2000.0, -2000.0);
12:23:47:104;12:23:47:058;1448408385.61;(0.7572575092315674, 0.7796743816799587);87.1718521118;1.0;;;;;;;;;;;;;;0;0;0;0;0;0;0;0;0;();(-2000.0, -2000.0);
12:23:47:120;12:23:47:058;1448408385.61;(0.7572575092315674, 0.7796743816799587);87.1718521118;1.0;;;;;;;;;;;;;;0;0;0;0;0;0;0;0;0;();(-2000.0, -2000.0);
12:23:47:137;12:23:47:125;1448408385.68;(0.7567962169647217, 0.7804407543606229);87.4581985474;0.895896494404;;;;;;;;;;;;;;0;0;0;0;0;0;0;0;0;();(-2000.0, -2000.0);
12:23:47:153;12:23:47:125;1448408385.68;(0.7567962169647217, 0.7804407543606229);87.4581985474;0.895896494404;;;;;;;;;;;;;;0;0;0;0;0;0;0;0;0;();(-2000.0, -2000.0);
12:23:47:170;12:23:47:125;1448408385.68;(0.7567962169647217, 0.7804407543606229);87.4581985474;0.895896494404;;;;;;;;;;;;;;0;0;0;0;0;0;0;0;0;();(-2000.0, -2000.0);
12:23:47:203;12:23:47:198;1448408385.75;(0.7563141345977783, 0.7810983233981662);87.2061538696;0.949912499633;;;;;;;;;;;;;;0;0;0;0;0;0;0;0;0;();(-2000.0, -2000.0);
12:23:47:220;12:23:47:198;1448408385.75;(0.7563141345977783, 0.7810983233981662);87.2061538696;0.949912499633;;;;;;;;;;;;;;0;0;0;0;0;0;0;0;0;();(-2000.0, -2000.0);
12:23:47:236;12:23:47:198;1448408385.75;(0.7563141345977783, 0.7810983233981662);87.2061538696;0.949912499633;;;;;;;;;;;;;;0;0;0;0;0;0;0;0;0;();(-2000.0, -2000.0);
12:23:47:253;12:23:47:198;1448408385.75;(0.7563141345977783, 0.7810983233981662);87.2061538696;0.949912499633;;;;;;;;;;;;;;0;0;0;0;0;0;0;0;0;();(-2000.0, -2000.0);
12:23:47:271;12:23:47:258;1448408385.81;(0.7561259269714355, 0.7818433337741428);88.0174560547;0.965381327294;;;;;;;;;;;;;;0;0;0;0;0;0;0;0;0;();(-2000.0, -2000.0);
12:23:47:303;12:23:47:258;1448408385.81;(0.7561259269714355, 0.7818433337741428);88.0174560547;0.965381327294;;;;;;;;;;;;;;0;0;0;0;0;0;0;0;0;();(-2000.0, -2000.0);
12:23:47:324;12:23:47:322;1448408385.88;(0.7567326068878174, 0.7820614920722113);87.7395629883;1.0;;;;;;;;;;;;;;0;0;0;0;0;0;0;0;0;();(-2000.0, -2000.0);
12:23:47:337;12:23:47:322;1448408385.88;(0.7567326068878174, 0.7820614920722113);87.7395629883;1.0;;;;;;;;;;;;;;0;0;0;0;0;0;0;0;0;();(-2000.0, -2000.0);
12:23:47:354;12:23:47:322;1448408385.88;(0.7567326068878174, 0.7820614920722113);87.7395629883;1.0;;;;;;;;;;;;;;0;0;0;0;0;0;0;0;0;();(-2000.0, -2000.0);
12:23:47:370;12:23:47:322;1448408385.88;(0.7567326068878174, 0.7820614920722113);87.7395629883;1.0;;;;;;;;;;;;;;0;0;0;0;0;0;0;0;0;();(-2000.0, -2000.0);
12:23:47:404;12:23:47:390;1448408385.95;(0, 0);0;0;;;;;;;;;;;;;;0;0;0;0;0;0;0;0;0;();(-2000.0, -2000.0);
12:23:47:421;12:23:47:390;1448408385.95;(0, 0);0;0;;;;;;;;;;;;;;0;0;0;0;0;0;0;0;0;();(-2000.0, -2000.0);
12:23:47:437;12:23:47:390;1448408385.95;(0, 0);0;0;;;;;;;;;;;;;;0;0;0;0;0;0;0;0;0;();(-2000.0, -2000.0);
12:23:47:454;12:23:47:390;1448408385.95;(0, 0);0;0;;;;;;;;;;;;;;0;0;0;0;0;0;0;0;0;();(-2000.0, -2000.0);
12:23:47:471;12:23:47:390;1448408385.95;(0, 0);0;0;;;;;;;;;;;;;;0;0;0;0;0;0;0;0;0;();(-2000.0, -2000.0);
12:23:47:504;12:23:47:475;1448408386.01;(0.7417664051055908, 0.7554878022935656);88.5218276978;0.871071389821;;;;;;;;;;;;;;0;0;0;0;0;0;0;0;0;();(-2000.0, -2000.0);
12:23:47:520;12:23:47:475;1448408386.01;(0.7417664051055908, 0.7554878022935656);88.5218276978;0.871071389821;;;;;;;;;;;;;;0;0;0;0;0;0;0;0;0;();(-2000.0, -2000.0);
12:23:47:537;12:23:47:525;1448408386.08;(0.741858720779419, 0.7548318015204536);88.5271148682;0.920479935294;;;;;;;;;;;;;;0;0;0;0;0;0;0;0;0;();(-2000.0, -2000.0);
12:23:47:553;12:23:47:525;1448408386.08;(0.741858720779419, 0.7548318015204536);88.5271148682;0.920479935294;;;;;;;;;;;;;;0;0;0;0;0;0;0;0;0;();(-2000.0, -2000.0);
12:23:47:571;12:23:47:525;1448408386.08;(0.741858720779419, 0.7548318015204536);88.5271148682;0.920479935294;;;;;;;;;;;;;;0;0;0;0;0;0;0;0;0;();(-2000.0, -2000.0);
12:23:47:604;12:23:47:590;1448408386.18;(0.7419597148895264, 0.7554701487223308);88.6895141602;0.941239391988;;;;;;;;;;;;;;0;0;0;0;0;0;0;0;0;();(-2000.0, -2000.0);
12:23:47:620;12:23:47:590;1448408386.18;(0.7419597148895264, 0.7554701487223308);88.6895141602;0.941239391988;;;;;;;;;;;;;;0;0;0;0;0;0;0;0;0;();(-2000.0, -2000.0);
12:23:47:638;12:23:47:590;1448408386.18;(0.7419597148895264, 0.7554701487223308);88.6895141602;0.941239391988;;;;;;;;;;;;;;0;0;0;0;0;0;0;0;0;();(-2000.0, -2000.0);
12:23:47:655;12:23:47:653;1448408386.21;(0.7418253421783447, 0.7552184210883246);89.1402664185;1.0;;;;;;;;;;;;;;0;0;0;0;0;0;0;0;0;();(-2000.0, -2000.0);
12:23:47:671;12:23:47:653;1448408386.21;(0.7418253421783447, 0.7552184210883246);89.1402664185;1.0;;;;;;;;;;;;;;0;0;0;0;0;0;0;0;0;();(-2000.0, -2000.0);
12:23:47:704;12:23:47:653;1448408386.21;(0.7418253421783447, 0.7552184210883246);89.1402664185;1.0;;;;;;;;;;;;;;0;0;0;0;0;0;0;0;0;();(-2000.0, -2000.0);
12:23:47:723;12:23:47:720;1448408386.25;(0, 0);0;0;;;;;;;;;;;;;;0;0;0;0;0;0;0;0;0;();(-2000.0, -2000.0);
12:23:47:738;12:23:47:722;1448408386.28;(0.8818929672241211, 0.5658912234836154);37.5536766052;0.634840682303;;;;;;;;;;;;;;0;0;0;0;0;0;0;0;0;();(-2000.0, -2000.0);
12:23:47:755;12:23:47:722;1448408386.28;(0.8818929672241211, 0.5658912234836154);37.5536766052;0.634840682303;;;;;;;;;;;;;;0;0;0;0;0;0;0;0;0;();(-2000.0, -2000.0);
12:23:47:771;12:23:47:722;1448408386.28;(0.8818929672241211, 0.5658912234836154);37.5536766052;0.634840682303;;;;;;;;;;;;;;0;0;0;0;0;0;0;0;0;();(-2000.0, -2000.0);
12:23:47:805;12:23:47:785;1448408386.35;(0, 0);0;0;;;;;;;;;;;;;;0;0;0;0;0;0;0;0;0;();(-2000.0, -2000.0);
12:23:47:822;12:23:47:785;1448408386.35;(0, 0);0;0;;;;;;;;;;;;;;0;0;0;0;0;0;0;0;0;();(-2000.0, -2000.0);
12:23:47:837;12:23:47:785;1448408386.35;(0, 0);0;0;;;;;;;;;;;;;;0;0;0;0;0;0;0;0;0;();(-2000.0, -2000.0);
12:23:47:855;12:23:47:853;1448408386.41;(0.7448042869567871, 0.8174735069274902);87.8864059448;0.968518141455;;;;;;;;;;;;;;0;0;0;0;0;0;0;0;0;();(-2000.0, -2000.0);
12:23:47:872;12:23:47:853;1448408386.41;(0.7448042869567871, 0.8174735069274902);87.8864059448;0.968518141455;;;;;;;;;;;;;;0;0;0;0;0;0;0;0;0;();(-2000.0, -2000.0);
12:23:47:904;12:23:47:853;1448408386.41;(0.7448042869567871, 0.8174735069274902);87.8864059448;0.968518141455;;;;;;;;;;;;;;0;0;0;0;0;0;0;0;0;();(-2000.0, -2000.0);
12:23:47:924;12:23:47:922;1448408386.48;(0.7475438594818116, 0.8137889120313857);89.0149917603;0.909735494866;;;;;;;;;;;;;;0;0;0;0;0;0;0;0;0;();(-2000.0, -2000.0);
12:23:47:938;12:23:47:922;1448408386.48;(0.7475438594818116, 0.8137889120313857);89.0149917603;0.909735494866;;;;;;;;;;;;;;0;0;0;0;0;0;0;0;0;();(-2000.0, -2000.0);
12:23:47:954;12:23:47:922;1448408386.48;(0.7475438594818116, 0.8137889120313857);89.0149917603;0.909735494866;;;;;;;;;;;;;;0;0;0;0;0;0;0;0;0;();(-2000.0, -2000.0);
12:23:47:972;12:23:47:922;1448408386.48;(0.7475438594818116, 0.8137889120313857);89.0149917603;0.909735494866;;;;;;;;;;;;;;0;0;0;0;0;0;0;0;0;();(-2000.0, -2000.0);
12:23:48:005;12:23:47:986;1448408386.55;(0.7499466419219971, 0.8108279758029514);88.2294235229;0.858224822967;;;;;;;;;;;;;;0;0;0;0;0;0;0;0;0;();(-2000.0, -2000.0);
12:23:48:022;12:23:47:986;1448408386.55;(0.7499466419219971, 0.8108279758029514);88.2294235229;0.858224822967;;;;;;;;;;;;;;0;0;0;0;0;0;0;0;0;();(-2000.0, -2000.0);
12:23:48:038;12:23:47:986;1448408386.55;(0.7499466419219971, 0.8108279758029514);88.2294235229;0.858224822967;;;;;;;;;;;;;;0;0;0;0;0;0;0;0;0;();(-2000.0, -2000.0);
12:23:48:056;12:23:48:053;1448408386.61;(0.7513894081115723, 0.8104293081495497);88.0232849121;0.899835434826;;;;;;;;;;;;;;0;0;0;0;0;0;0;0;0;();(-2000.0, -2000.0);
12:23:48:072;12:23:48:053;1448408386.61;(0.7513894081115723, 0.8104293081495497);88.0232849121;0.899835434826;;;;;;;;;;;;;;0;0;0;0;0;0;0;0;0;();(-2000.0, -2000.0);
12:23:48:106;12:23:48:053;1448408386.61;(0.7513894081115723, 0.8104293081495497);88.0232849121;0.899835434826;;;;;;;;;;;;;;0;0;0;0;0;0;0;0;0;();(-2000.0, -2000.0);
12:23:48:124;12:23:48:119;1448408386.68;(0.7531153202056885, 0.8085327042473687);88.5786132812;0.856117133125;;;;;;;;;;;;;;0;0;0;0;0;0;0;0;0;();(-2000.0, -2000.0);
12:23:48:140;12:23:48:119;1448408386.68;(0.7531153202056885, 0.8085327042473687);88.5786132812;0.856117133125;;;;;;;;;;;;;;0;0;0;0;0;0;0;0;0;();(-2000.0, -2000.0);
12:23:48:156;12:23:48:119;1448408386.68;(0.7531153202056885, 0.8085327042473687);88.5786132812;0.856117133125;;;;;;;;;;;;;;0;0;0;0;0;0;0;0;0;();(-2000.0, -2000.0);
12:23:48:172;12:23:48:119;1448408386.68;(0.7531153202056885, 0.8085327042473687);88.5786132812;0.856117133125;;;;;;;;;;;;;;0;0;0;0;0;0;0;0;0;();(-2000.0, -2000.0);
12:23:48:205;12:23:48:187;1448408386.75;(0.7463695526123046, 0.8083631727430556);83.5401916504;0.796466982269;;;;;;;;;;;;;;0;0;0;0;0;0;0;0;0;();(-2000.0, -2000.0);
12:23:48:221;12:23:48:187;1448408386.75;(0.7463695526123046, 0.8083631727430556);83.5401916504;0.796466982269;;;;;;;;;;;;;;0;0;0;0;0;0;0;0;0;();(-2000.0, -2000.0);
12:23:48:238;12:23:48:187;1448408386.75;(0.7463695526123046, 0.8083631727430556);83.5401916504;0.796466982269;;;;;;;;;;;;;;0;0;0;0;0;0;0;0;0;();(-2000.0, -2000.0);
12:23:48:257;12:23:48:255;1448408386.81;(0.6928665637969971, 0.8323577880859375);88.0252304077;0.756195412095;;;;;;;;;;;;;;0;0;0;0;0;0;0;0;0;();(-2000.0, -2000.0);
12:23:48:272;12:23:48:255;1448408386.81;(0.6928665637969971, 0.8323577880859375);88.0252304077;0.756195412095;;;;;;;;;;;;;;0;0;0;0;0;0;0;0;0;();(-2000.0, -2000.0);
12:23:48:305;12:23:48:255;1448408386.81;(0.6928665637969971, 0.8323577880859375);88.0252304077;0.756195412095;;;;;;;;;;;;;;0;0;0;0;0;0;0;0;0;();(-2000.0, -2000.0);
12:23:48:322;12:23:48:255;1448408386.81;(0.6928665637969971, 0.8323577880859375);88.0252304077;0.756195412095;;;;;;;;;;;;;;0;0;0;0;0;0;0;0;0;();(-2000.0, -2000.0);
12:23:48:338;12:23:48:255;1448408386.81;(0.6928665637969971, 0.8323577880859375);88.0252304077;0.756195412095;;;;;;;;;;;;;;0;0;0;0;0;0;0;0;0;();(-2000.0, -2000.0);
12:23:48:356;12:23:48:350;1448408386.88;(0.6932941436767578, 0.8298001713222928);87.875328064;1.0;;;;;;;;;;;;;;0;0;0;0;0;0;0;0;0;();(-2000.0, -2000.0);
12:23:48:372;12:23:48:350;1448408386.88;(0.6932941436767578, 0.8298001713222928);87.875328064;1.0;;;;;;;;;;;;;;0;0;0;0;0;0;0;0;0;();(-2000.0, -2000.0);
12:23:48:405;12:23:48:386;1448408386.95;(0, 0);0;0;;;;;;;;;;;;;;0;0;0;0;0;0;0;0;0;();(-2000.0, -2000.0);
12:23:48:422;12:23:48:386;1448408386.95;(0, 0);0;0;;;;;;;;;;;;;;0;0;0;0;0;0;0;0;0;();(-2000.0, -2000.0);
12:23:48:439;12:23:48:386;1448408386.95;(0, 0);0;0;;;;;;;;;;;;;;0;0;0;0;0;0;0;0;0;();(-2000.0, -2000.0);
12:23:48:454;12:23:48:450;1448408387.01;(0.6946205615997314, 0.8317506790161133);89.8219299316;0.895876115132;;;;;;;;;;;;;;0;0;0;0;0;0;0;0;0;();(-2000.0, -2000.0);
12:23:48:472;12:23:48:450;1448408387.01;(0.6946205615997314, 0.8317506790161133);89.8219299316;0.895876115132;;;;;;;;;;;;;;0;0;0;0;0;0;0;0;0;();(-2000.0, -2000.0);
12:23:48:506;12:23:48:450;1448408387.01;(0.6946205615997314, 0.8317506790161133);89.8219299316;0.895876115132;;;;;;;;;;;;;;0;0;0;0;0;0;0;0;0;();(-2000.0, -2000.0);
12:23:48:522;12:23:48:518;1448408387.08;(0.6953768730163574, 0.8304070154825847);89.0690307617;0.959512989087;;;;;;;;;;;;;;0;0;0;0;0;0;0;0;0;();(-2000.0, -2000.0);
12:23:48:539;12:23:48:518;1448408387.08;(0.6953768730163574, 0.8304070154825847);89.0690307617;0.959512989087;;;;;;;;;;;;;;0;0;0;0;0;0;0;0;0;();(-2000.0, -2000.0);
12:23:48:556;12:23:48:518;1448408387.08;(0.6953768730163574, 0.8304070154825847);89.0690307617;0.959512989087;;;;;;;;;;;;;;0;0;0;0;0;0;0;0;0;();(-2000.0, -2000.0);
12:23:48:573;12:23:48:518;1448408387.08;(0.6953768730163574, 0.8304070154825847);89.0690307617;0.959512989087;;;;;;;;;;;;;;0;0;0;0;0;0;0;0;0;();(-2000.0, -2000.0);
12:23:48:606;12:23:48:586;1448408387.15;(0.6971566677093506, 0.8284541236029731);87.500038147;0.940057529537;;;;;;;;;;;;;;0;0;0;0;0;0;0;0;0;();(-2000.0, -2000.0);
12:23:48:622;12:23:48:586;1448408387.15;(0.6971566677093506, 0.8284541236029731);87.500038147;0.940057529537;;;;;;;;;;;;;;0;0;0;0;0;0;0;0;0;();(-2000.0, -2000.0);
12:23:48:640;12:23:48:586;1448408387.15;(0.6971566677093506, 0.8284541236029731);87.500038147;0.940057529537;;;;;;;;;;;;;;0;0;0;0;0;0;0;0;0;();(-2000.0, -2000.0);
12:23:48:656;12:23:48:650;1448408387.21;(0.6486284732818604, 0.8451287375556098);86.3908843994;0.657787693587;;;;;;;;;;;;;;0;0;0;0;0;0;0;0;0;();(-2000.0, -2000.0);
12:23:48:672;12:23:48:650;1448408387.21;(0.6486284732818604, 0.8451287375556098);86.3908843994;0.657787693587;;;;;;;;;;;;;;0;0;0;0;0;0;0;0;0;();(-2000.0, -2000.0);
12:23:48:705;12:23:48:650;1448408387.21;(0.6486284732818604, 0.8451287375556098);86.3908843994;0.657787693587;;;;;;;;;;;;;;0;0;0;0;0;0;0;0;0;();(-2000.0, -2000.0);
12:23:48:723;12:23:48:719;1448408387.28;(0.6464684009552002, 0.8468721707661947);86.7551803589;0.892520240416;;;;;;;;;;;;;;0;0;0;0;0;0;0;0;0;();(-2000.0, -2000.0);
12:23:48:739;12:23:48:719;1448408387.28;(0.6464684009552002, 0.8468721707661947);86.7551803589;0.892520240416;;;;;;;;;;;;;;0;0;0;0;0;0;0;0;0;();(-2000.0, -2000.0);
12:23:48:756;12:23:48:719;1448408387.28;(0.6464684009552002, 0.8468721707661947);86.7551803589;0.892520240416;;;;;;;;;;;;;;0;0;0;0;0;0;0;0;0;();(-2000.0, -2000.0);
12:23:48:772;12:23:48:719;1448408387.28;(0.6464684009552002, 0.8468721707661947);86.7551803589;0.892520240416;;;;;;;;;;;;;;0;0;0;0;0;0;0;0;0;();(-2000.0, -2000.0);
12:23:48:806;12:23:48:782;1448408387.35;(0.6470800399780273, 0.8464299625820584);86.9567184448;0.820648017426;;;;;;;;;;;;;;0;0;0;0;0;0;0;0;0;();(-2000.0, -2000.0);
12:23:48:822;12:23:48:782;1448408387.35;(0.6470800399780273, 0.8464299625820584);86.9567184448;0.820648017426;;;;;;;;;;;;;;0;0;0;0;0;0;0;0;0;();(-2000.0, -2000.0);
12:23:48:839;12:23:48:782;1448408387.35;(0.6470800399780273, 0.8464299625820584);86.9567184448;0.820648017426;;;;;;;;;;;;;;0;0;0;0;0;0;0;0;0;();(-2000.0, -2000.0);
12:23:48:855;12:23:48:850;1448408387.41;(0.649735689163208, 0.8468561278449165);86.7258529663;0.85022129524;;;;;;;;;;;;;;0;0;0;0;0;0;0;0;0;();(-2000.0, -2000.0);
12:23:48:871;12:23:48:850;1448408387.41;(0.649735689163208, 0.8468561278449165);86.7258529663;0.85022129524;;;;;;;;;;;;;;0;0;0;0;0;0;0;0;0;();(-2000.0, -2000.0);
12:23:48:905;12:23:48:850;1448408387.41;(0.649735689163208, 0.8468561278449165);86.7258529663;0.85022129524;;;;;;;;;;;;;;0;0;0;0;0;0;0;0;0;();(-2000.0, -2000.0);
12:23:48:923;12:23:48:918;1448408387.48;(0, 0);0;0;;;;;;;;;;;;;;0;0;0;0;0;0;0;0;0;();(-2000.0, -2000.0);
12:23:48:939;12:23:48:918;1448408387.48;(0, 0);0;0;;;;;;;;;;;;;;0;0;0;0;0;0;0;0;0;();(-2000.0, -2000.0);
12:23:48:955;12:23:48:918;1448408387.48;(0, 0);0;0;;;;;;;;;;;;;;0;0;0;0;0;0;0;0;0;();(-2000.0, -2000.0);
12:23:48:973;12:23:48:918;1448408387.48;(0, 0);0;0;;;;;;;;;;;;;;0;0;0;0;0;0;0;0;0;();(-2000.0, -2000.0);
12:23:49:006;12:23:48:982;1448408387.55;(0.6565104007720948, 0.8481758965386285);86.974395752;0.662752670742;;;;;;;;;;;;;;0;0;0;0;0;0;0;0;0;();(-2000.0, -2000.0);
12:23:49:023;12:23:48:982;1448408387.55;(0.6565104007720948, 0.8481758965386285);86.974395752;0.662752670742;;;;;;;;;;;;;;0;0;0;0;0;0;0;0;0;();(-2000.0, -2000.0);
12:23:49:038;12:23:48:982;1448408387.55;(0.6565104007720948, 0.8481758965386285);86.974395752;0.662752670742;;;;;;;;;;;;;;0;0;0;0;0;0;0;0;0;();(-2000.0, -2000.0);
12:23:49:055;12:23:49:050;1448408387.61;(0, 0);0;0;;;;;;;;;;;;;;0;0;0;0;0;0;0;0;0;();(-2000.0, -2000.0);
12:23:49:071;12:23:49:050;1448408387.61;(0, 0);0;0;;;;;;;;;;;;;;0;0;0;0;0;0;0;0;0;();(-2000.0, -2000.0);
12:23:49:105;12:23:49:050;1448408387.61;(0, 0);0;0;;;;;;;;;;;;;;0;0;0;0;0;0;0;0;0;();(-2000.0, -2000.0);
12:23:49:123;12:23:49:114;1448408387.68;(0, 0);0;0;;;;;;;;;;;;;;0;0;0;0;0;0;0;0;0;();(-2000.0, -2000.0);
12:23:49:140;12:23:49:114;1448408387.68;(0, 0);0;0;;;;;;;;;;;;;;0;0;0;0;0;0;0;0;0;();(-2000.0, -2000.0);
12:23:49:155;12:23:49:114;1448408387.68;(0, 0);0;0;;;;;;;;;;;;;;0;0;0;0;0;0;0;0;0;();(-2000.0, -2000.0);
12:23:49:173;12:23:49:114;1448408387.68;(0, 0);0;0;;;;;;;;;;;;;;0;0;0;0;0;0;0;0;0;();(-2000.0, -2000.0);
12:23:49:205;12:23:49:182;1448408387.75;(0, 0);0;0;;;;;;;;;;;;;;0;0;0;0;0;0;0;0;0;();(-2000.0, -2000.0);
12:23:49:223;12:23:49:182;1448408387.75;(0, 0);0;0;;;;;;;;;;;;;;0;0;0;0;0;0;0;0;0;();(-2000.0, -2000.0);
12:23:49:239;12:23:49:182;1448408387.75;(0, 0);0;0;;;;;;;;;;;;;;0;0;0;0;0;0;0;0;0;();(-2000.0, -2000.0);
12:23:49:256;12:23:49:245;1448408387.78;(0.6637454032897949, 0.844336658053928);89.3672790527;0.934140656083;;;;;;;;;;;;;;0;0;0;0;0;0;0;0;0;();(-2000.0, -2000.0);
12:23:49:273;12:23:49:245;1448408387.78;(0.6637454032897949, 0.844336658053928);89.3672790527;0.934140656083;;;;;;;;;;;;;;0;0;0;0;0;0;0;0;0;();(-2000.0, -2000.0);
12:23:49:305;12:23:49:245;1448408387.78;(0.6637454032897949, 0.844336658053928);89.3672790527;0.934140656083;;;;;;;;;;;;;;0;0;0;0;0;0;0;0;0;();(-2000.0, -2000.0);
12:23:49:323;12:23:49:315;1448408387.88;(0.7310508728027344, 0.5979160308837891);18.3809299469;0.795440725037;;;;;;;;;;;;;;0;0;0;0;0;0;0;0;0;();(-2000.0, -2000.0);
12:23:49:340;12:23:49:315;1448408387.88;(0.7310508728027344, 0.5979160308837891);18.3809299469;0.795440725037;;;;;;;;;;;;;;0;0;0;0;0;0;0;0;0;();(-2000.0, -2000.0);
12:23:49:356;12:23:49:315;1448408387.88;(0.7310508728027344, 0.5979160308837891);18.3809299469;0.795440725037;;;;;;;;;;;;;;0;0;0;0;0;0;0;0;0;();(-2000.0, -2000.0);
12:23:49:372;12:23:49:315;1448408387.88;(0.7310508728027344, 0.5979160308837891);18.3809299469;0.795440725037;;;;;;;;;;;;;;0;0;0;0;0;0;0;0;0;();(-2000.0, -2000.0);
12:23:49:389;12:23:49:315;1448408387.88;(0.7310508728027344, 0.5979160308837891);18.3809299469;0.795440725037;;;;;;;;;;;;;;0;0;0;0;0;0;0;0;0;();(-2000.0, -2000.0);
12:23:49:422;12:23:49:393;1448408387.91;(0.7556591510772706, 0.5796736399332683);29.574634552;0.707082915358;;;;;;;;;;;;;;0;0;0;0;0;0;0;0;0;();(-2000.0, -2000.0);
12:23:49:439;12:23:49:393;1448408387.91;(0.7556591510772706, 0.5796736399332683);29.574634552;0.707082915358;;;;;;;;;;;;;;0;0;0;0;0;0;0;0;0;();(-2000.0, -2000.0);
12:23:49:456;12:23:49:447;1448408387.98;(0.26236398220062257, 0.6861551072862413);23.0510025024;0.662105766965;;;;;;;;;;;;;;0;0;0;0;0;0;0;0;0;();(-2000.0, -2000.0);
12:23:49:472;12:23:49:447;1448408387.98;(0.26236398220062257, 0.6861551072862413);23.0510025024;0.662105766965;;;;;;;;;;;;;;0;0;0;0;0;0;0;0;0;();(-2000.0, -2000.0);
12:23:49:505;12:23:49:447;1448408387.98;(0.26236398220062257, 0.6861551072862413);23.0510025024;0.662105766965;;;;;;;;;;;;;;0;0;0;0;0;0;0;0;0;();(-2000.0, -2000.0);
12:23:49:523;12:23:49:515;1448408388.09;(0, 0);0;0;;;;;;;;;;;;;;0;0;0;0;0;0;0;0;0;();(-2000.0, -2000.0);
12:23:49:538;12:23:49:515;1448408388.09;(0, 0);0;0;;;;;;;;;;;;;;0;0;0;0;0;0;0;0;0;();(-2000.0, -2000.0);
12:23:49:556;12:23:49:515;1448408388.09;(0, 0);0;0;;;;;;;;;;;;;;0;0;0;0;0;0;0;0;0;();(-2000.0, -2000.0);
12:23:49:572;12:23:49:515;1448408388.09;(0, 0);0;0;;;;;;;;;;;;;;0;0;0;0;0;0;0;0;0;();(-2000.0, -2000.0);
12:23:49:589;12:23:49:578;1448408388.15;(0.6248149394989013, 0.8677545971340603);88.2914581299;0.745903327233;;;;;;;;;;;;;;0;0;0;0;0;0;0;0;0;();(-2000.0, -2000.0);
12:23:49:622;12:23:49:578;1448408388.15;(0.6248149394989013, 0.8677545971340603);88.2914581299;0.745903327233;;;;;;;;;;;;;;0;0;0;0;0;0;0;0;0;();(-2000.0, -2000.0);
12:23:49:639;12:23:49:578;1448408388.15;(0.6248149394989013, 0.8677545971340603);88.2914581299;0.745903327233;;;;;;;;;;;;;;0;0;0;0;0;0;0;0;0;();(-2000.0, -2000.0);
12:23:49:655;12:23:49:646;1448408388.21;(0, 0);0;0;;;;;;;;;;;;;;0;0;0;0;0;0;0;0;0;();(-2000.0, -2000.0);
12:23:49:672;12:23:49:646;1448408388.21;(0, 0);0;0;;;;;;;;;;;;;;0;0;0;0;0;0;0;0;0;();(-2000.0, -2000.0);
12:23:49:705;12:23:49:646;1448408388.21;(0, 0);0;0;;;;;;;;;;;;;;0;0;0;0;0;0;0;0;0;();(-2000.0, -2000.0);
12:23:49:723;12:23:49:714;1448408388.28;(0, 0);0;0;;;;;;;;;;;;;;0;0;0;0;0;0;0;0;0;();(-2000.0, -2000.0);
12:23:49:739;12:23:49:714;1448408388.28;(0, 0);0;0;;;;;;;;;;;;;;0;0;0;0;0;0;0;0;0;();(-2000.0, -2000.0);
12:23:49:756;12:23:49:714;1448408388.28;(0, 0);0;0;;;;;;;;;;;;;;0;0;0;0;0;0;0;0;0;();(-2000.0, -2000.0);
12:23:49:772;12:23:49:714;1448408388.28;(0, 0);0;0;;;;;;;;;;;;;;0;0;0;0;0;0;0;0;0;();(-2000.0, -2000.0);
12:23:49:790;12:23:49:777;1448408388.35;(0, 0);0;0;;;;;;;;;;;;;;0;0;0;0;0;0;0;0;0;();(-2000.0, -2000.0);
12:23:49:822;12:23:49:777;1448408388.35;(0, 0);0;0;;;;;;;;;;;;;;0;0;0;0;0;0;0;0;0;();(-2000.0, -2000.0);
12:23:49:840;12:23:49:777;1448408388.35;(0, 0);0;0;;;;;;;;;;;;;;0;0;0;0;0;0;0;0;0;();(-2000.0, -2000.0);
12:23:49:856;12:23:49:847;1448408388.41;(0.6413845539093017, 0.8520838207668728);89.1771087646;0.821627749158;;;;;;;;;;;;;;0;0;0;0;0;0;0;0;0;();(-2000.0, -2000.0);
12:23:49:872;12:23:49:847;1448408388.41;(0.6413845539093017, 0.8520838207668728);89.1771087646;0.821627749158;;;;;;;;;;;;;;0;0;0;0;0;0;0;0;0;();(-2000.0, -2000.0);
12:23:49:889;12:23:49:847;1448408388.41;(0.6413845539093017, 0.8520838207668728);89.1771087646;0.821627749158;;;;;;;;;;;;;;0;0;0;0;0;0;0;0;0;();(-2000.0, -2000.0);
12:23:49:923;12:23:49:910;1448408388.48;(0, 0);0;0;;;;;;;;;;;;;;0;0;0;0;0;0;0;0;0;();(-2000.0, -2000.0);
12:23:49:939;12:23:49:910;1448408388.48;(0, 0);0;0;;;;;;;;;;;;;;0;0;0;0;0;0;0;0;0;();(-2000.0, -2000.0);
12:23:49:955;12:23:49:910;1448408388.48;(0, 0);0;0;;;;;;;;;;;;;;0;0;0;0;0;0;0;0;0;();(-2000.0, -2000.0);
12:23:49:972;12:23:49:910;1448408388.48;(0, 0);0;0;;;;;;;;;;;;;;0;0;0;0;0;0;0;0;0;();(-2000.0, -2000.0);
12:23:49:990;12:23:49:977;1448408388.55;(0, 0);0;0;;;;;;;;;;;;;;0;0;0;0;0;0;0;0;0;();(-2000.0, -2000.0);
12:23:50:023;12:23:49:977;1448408388.55;(0, 0);0;0;;;;;;;;;;;;;;0;0;0;0;0;0;0;0;0;();(-2000.0, -2000.0);
12:23:50:039;12:23:49:977;1448408388.55;(0, 0);0;0;;;;;;;;;;;;;;0;0;0;0;0;0;0;0;0;();(-2000.0, -2000.0);
12:23:50:057;12:23:50:045;1448408388.61;(0, 0);0;0;;;;;;;;;;;;;;0;0;0;0;0;0;0;0;0;();(-2000.0, -2000.0);
12:23:50:074;12:23:50:045;1448408388.61;(0, 0);0;0;;;;;;;;;;;;;;0;0;0;0;0;0;0;0;0;();(-2000.0, -2000.0);
12:23:50:089;12:23:50:045;1448408388.61;(0, 0);0;0;;;;;;;;;;;;;;0;0;0;0;0;0;0;0;0;();(-2000.0, -2000.0);
12:23:50:124;12:23:50:110;1448408388.68;(0, 0);0;0;;;;;;;;;;;;;;0;0;0;0;0;0;0;0;0;();(-2000.0, -2000.0);
12:23:50:141;12:23:50:110;1448408388.68;(0, 0);0;0;;;;;;;;;;;;;;0;0;0;0;0;0;0;0;0;();(-2000.0, -2000.0);
12:23:50:156;12:23:50:110;1448408388.68;(0, 0);0;0;;;;;;;;;;;;;;0;0;0;0;0;0;0;0;0;();(-2000.0, -2000.0);
12:23:50:174;12:23:50:110;1448408388.68;(0, 0);0;0;;;;;;;;;;;;;;0;0;0;0;0;0;0;0;0;();(-2000.0, -2000.0);
12:23:50:190;12:23:50:180;1448408388.75;(0, 0);0;0;;;;;;;;;;;;;;0;0;0;0;0;0;0;0;0;();(-2000.0, -2000.0);
12:23:50:224;12:23:50:180;1448408388.75;(0, 0);0;0;;;;;;;;;;;;;;0;0;0;0;0;0;0;0;0;();(-2000.0, -2000.0);
12:23:50:241;12:23:50:180;1448408388.75;(0, 0);0;0;;;;;;;;;;;;;;0;0;0;0;0;0;0;0;0;();(-2000.0, -2000.0);
12:23:50:256;12:23:50:245;1448408388.81;(0, 0);0;0;;;;;;;;;;;;;;0;0;0;0;0;0;0;0;0;();(-2000.0, -2000.0);
12:23:50:273;12:23:50:245;1448408388.81;(0, 0);0;0;;;;;;;;;;;;;;0;0;0;0;0;0;0;0;0;();(-2000.0, -2000.0);
12:23:50:289;12:23:50:245;1448408388.81;(0, 0);0;0;;;;;;;;;;;;;;0;0;0;0;0;0;0;0;0;();(-2000.0, -2000.0);
12:23:50:323;12:23:50:309;1448408388.85;(0.6663925647735596, 0.8275927119784885);89.1901397705;0.870714990359;;;;;;;;;;;;;;0;0;0;0;0;0;0;0;0;();(-2000.0, -2000.0);
12:23:50:340;12:23:50:309;1448408388.85;(0.6663925647735596, 0.8275927119784885);89.1901397705;0.870714990359;;;;;;;;;;;;;;0;0;0;0;0;0;0;0;0;();(-2000.0, -2000.0);
12:23:50:357;12:23:50:309;1448408388.85;(0.6663925647735596, 0.8275927119784885);89.1901397705;0.870714990359;;;;;;;;;;;;;;0;0;0;0;0;0;0;0;0;();(-2000.0, -2000.0);
12:23:50:374;12:23:50:309;1448408388.85;(0.6663925647735596, 0.8275927119784885);89.1901397705;0.870714990359;;;;;;;;;;;;;;0;0;0;0;0;0;0;0;0;();(-2000.0, -2000.0);
12:23:50:390;12:23:50:380;1448408388.95;(0.6663139820098877, 0.8277961730957031);88.6873626709;0.771505721344;;;;;;;;;;;;;;0;0;0;0;0;0;0;0;0;();(-2000.0, -2000.0);
12:23:50:424;12:23:50:380;1448408388.95;(0.6663139820098877, 0.8277961730957031);88.6873626709;0.771505721344;;;;;;;;;;;;;;0;0;0;0;0;0;0;0;0;();(-2000.0, -2000.0);
12:23:50:440;12:23:50:380;1448408388.95;(0.6663139820098877, 0.8277961730957031);88.6873626709;0.771505721344;;;;;;;;;;;;;;0;0;0;0;0;0;0;0;0;();(-2000.0, -2000.0);
12:23:50:457;12:23:50:446;1448408389.01;(0.6673243522644043, 0.8307539304097493);88.8603515625;0.88666583078;;;;;;;;;;;;;;0;0;0;0;0;0;0;0;0;();(-2000.0, -2000.0);
12:23:50:474;12:23:50:446;1448408389.01;(0.6673243522644043, 0.8307539304097493);88.8603515625;0.88666583078;;;;;;;;;;;;;;0;0;0;0;0;0;0;0;0;();(-2000.0, -2000.0);
12:23:50:491;12:23:50:446;1448408389.01;(0.6673243522644043, 0.8307539304097493);88.8603515625;0.88666583078;;;;;;;;;;;;;;0;0;0;0;0;0;0;0;0;();(-2000.0, -2000.0);
12:23:50:524;12:23:50:508;1448408389.05;(0, 0);0;0;;;;;;;;;;;;;;0;0;0;0;0;0;0;0;0;();(-2000.0, -2000.0);
12:23:50:541;12:23:50:508;1448408389.05;(0, 0);0;0;;;;;;;;;;;;;;0;0;0;0;0;0;0;0;0;();(-2000.0, -2000.0);
12:23:50:557;12:23:50:508;1448408389.05;(0, 0);0;0;;;;;;;;;;;;;;0;0;0;0;0;0;0;0;0;();(-2000.0, -2000.0);
12:23:50:574;12:23:50:508;1448408389.05;(0, 0);0;0;;;;;;;;;;;;;;0;0;0;0;0;0;0;0;0;();(-2000.0, -2000.0);
12:23:50:590;12:23:50:580;1448408389.15;(0.262796950340271, 0.8938049793243408);19.464012146;0.73319821029;;;;;;;;;;;;;;0;0;0;0;0;0;0;0;0;();(-2000.0, -2000.0);
12:23:50:624;12:23:50:580;1448408389.15;(0.262796950340271, 0.8938049793243408);19.464012146;0.73319821029;;;;;;;;;;;;;;0;0;0;0;0;0;0;0;0;();(-2000.0, -2000.0);
12:23:50:640;12:23:50:580;1448408389.15;(0.262796950340271, 0.8938049793243408);19.464012146;0.73319821029;;;;;;;;;;;;;;0;0;0;0;0;0;0;0;0;();(-2000.0, -2000.0);
12:23:50:656;12:23:50:644;1448408389.21;(0.7047801494598389, 0.836310068766276);87.8161315918;0.979901240029;;;;;;;;;;;;;;0;0;0;0;0;0;0;0;0;();(-2000.0, -2000.0);
12:23:50:673;12:23:50:644;1448408389.21;(0.7047801494598389, 0.836310068766276);87.8161315918;0.979901240029;;;;;;;;;;;;;;0;0;0;0;0;0;0;0;0;();(-2000.0, -2000.0);
12:23:50:690;12:23:50:644;1448408389.21;(0.7047801494598389, 0.836310068766276);87.8161315918;0.979901240029;;;;;;;;;;;;;;0;0;0;0;0;0;0;0;0;();(-2000.0, -2000.0);
12:23:50:723;12:23:50:709;1448408389.28;(0.7049569606781005, 0.8374070591396756);88.3188705444;0.994324170713;;;;;;;;;;;;;;0;0;0;0;0;0;0;0;0;();(-2000.0, -2000.0);
12:23:50:740;12:23:50:709;1448408389.28;(0.7049569606781005, 0.8374070591396756);88.3188705444;0.994324170713;;;;;;;;;;;;;;0;0;0;0;0;0;0;0;0;();(-2000.0, -2000.0);
12:23:50:756;12:23:50:709;1448408389.28;(0.7049569606781005, 0.8374070591396756);88.3188705444;0.994324170713;;;;;;;;;;;;;;0;0;0;0;0;0;0;0;0;();(-2000.0, -2000.0);
12:23:50:775;12:23:50:773;1448408389.35;(0.7058594703674317, 0.8373968230353461);89.4337463379;0.925657492177;;;;;;;;;;;;;;0;0;0;0;0;0;0;0;0;();(-2000.0, -2000.0);
12:23:50:790;12:23:50:773;1448408389.35;(0.7058594703674317, 0.8373968230353461);89.4337463379;0.925657492177;;;;;;;;;;;;;;0;0;0;0;0;0;0;0;0;();(-2000.0, -2000.0);
12:23:50:824;12:23:50:773;1448408389.35;(0.7058594703674317, 0.8373968230353461);89.4337463379;0.925657492177;;;;;;;;;;;;;;0;0;0;0;0;0;0;0;0;();(-2000.0, -2000.0);
12:23:50:840;12:23:50:773;1448408389.35;(0.7058594703674317, 0.8373968230353461);89.4337463379;0.925657492177;;;;;;;;;;;;;;0;0;0;0;0;0;0;0;0;();(-2000.0, -2000.0);
12:23:50:856;12:23:50:845;1448408389.41;(0.7071689128875732, 0.8356378343370225);89.7207794189;0.928977032013;;;;;;;;;;;;;;0;0;0;0;0;0;0;0;0;();(-2000.0, -2000.0);
12:23:50:874;12:23:50:845;1448408389.41;(0.7071689128875732, 0.8356378343370225);89.7207794189;0.928977032013;;;;;;;;;;;;;;0;0;0;0;0;0;0;0;0;();(-2000.0, -2000.0);
12:23:50:890;12:23:50:845;1448408389.41;(0.7071689128875732, 0.8356378343370225);89.7207794189;0.928977032013;;;;;;;;;;;;;;0;0;0;0;0;0;0;0;0;();(-2000.0, -2000.0);
12:23:50:923;12:23:50:906;1448408389.48;(0.7022158145904541, 0.826021851433648);89.5796585083;0.999165988306;;;;;;;;;;;;;;0;0;0;0;0;0;0;0;0;();(-2000.0, -2000.0);
12:23:50:941;12:23:50:906;1448408389.48;(0.7022158145904541, 0.826021851433648);89.5796585083;0.999165988306;;;;;;;;;;;;;;0;0;0;0;0;0;0;0;0;();(-2000.0, -2000.0);
12:23:50:958;12:23:50:906;1448408389.48;(0.7022158145904541, 0.826021851433648);89.5796585083;0.999165988306;;;;;;;;;;;;;;0;0;0;0;0;0;0;0;0;();(-2000.0, -2000.0);
12:23:50:974;12:23:50:906;1448408389.48;(0.7022158145904541, 0.826021851433648);89.5796585083;0.999165988306;;;;;;;;;;;;;;0;0;0;0;0;0;0;0;0;();(-2000.0, -2000.0);
12:23:50:990;12:23:50:985;1448408389.54;(0, 0);0;0;;;;;;;;;;;;;;0;0;0;0;0;0;0;0;0;();(-2000.0, -2000.0);
12:23:51:025;12:23:50:985;1448408389.54;(0, 0);0;0;;;;;;;;;;;;;;0;0;0;0;0;0;0;0;0;();(-2000.0, -2000.0);
12:23:51:040;12:23:50:985;1448408389.54;(0, 0);0;0;;;;;;;;;;;;;;0;0;0;0;0;0;0;0;0;();(-2000.0, -2000.0);
12:23:51:057;12:23:51:044;1448408389.61;(0.8828721046447754, 0.7807734171549479);21.0180168152;0.770675920807;;;;;;;;;;;;;;0;0;0;0;0;0;0;0;0;();(-2000.0, -2000.0);
12:23:51:074;12:23:51:044;1448408389.61;(0.8828721046447754, 0.7807734171549479);21.0180168152;0.770675920807;;;;;;;;;;;;;;0;0;0;0;0;0;0;0;0;();(-2000.0, -2000.0);
12:23:51:090;12:23:51:044;1448408389.61;(0.8828721046447754, 0.7807734171549479);21.0180168152;0.770675920807;;;;;;;;;;;;;;0;0;0;0;0;0;0;0;0;();(-2000.0, -2000.0);
12:23:51:123;12:23:51:104;1448408389.64;(0.34755170345306396, 0.8394848081800672);43.1166305542;0.672198792369;;;;;;;;;;;;;;0;0;0;0;0;0;0;0;0;();(-2000.0, -2000.0);
12:23:51:140;12:23:51:104;1448408389.64;(0.34755170345306396, 0.8394848081800672);43.1166305542;0.672198792369;;;;;;;;;;;;;;0;0;0;0;0;0;0;0;0;();(-2000.0, -2000.0);
12:23:51:156;12:23:51:104;1448408389.64;(0.34755170345306396, 0.8394848081800672);43.1166305542;0.672198792369;;;;;;;;;;;;;;0;0;0;0;0;0;0;0;0;();(-2000.0, -2000.0);
12:23:51:174;12:23:51:172;1448408389.68;(0.6251344203948974, 0.8654741923014323);88.4914016724;0.720423947993;;;;;;;;;;;;;;0;0;0;0;0;0;0;0;0;();(-2000.0, -2000.0);
12:23:51:191;12:23:51:175;1448408389.74;(0, 0);0;0;;;;;;;;;;;;;;0;0;0;0;0;0;0;0;0;();(-2000.0, -2000.0);
12:23:51:223;12:23:51:175;1448408389.74;(0, 0);0;0;;;;;;;;;;;;;;0;0;0;0;0;0;0;0;0;();(-2000.0, -2000.0);
12:23:51:240;12:23:51:238;1448408389.81;(0.6359423637390137, 0.8637560526529948);90.6505432129;0.666336851371;;;;;;;;;;;;;;0;0;0;0;0;0;0;0;0;();(-2000.0, -2000.0);
12:23:51:257;12:23:51:238;1448408389.81;(0.6359423637390137, 0.8637560526529948);90.6505432129;0.666336851371;;;;;;;;;;;;;;0;0;0;0;0;0;0;0;0;();(-2000.0, -2000.0);
12:23:51:274;12:23:51:238;1448408389.81;(0.6359423637390137, 0.8637560526529948);90.6505432129;0.666336851371;;;;;;;;;;;;;;0;0;0;0;0;0;0;0;0;();(-2000.0, -2000.0);
12:23:51:290;12:23:51:238;1448408389.81;(0.6359423637390137, 0.8637560526529948);90.6505432129;0.666336851371;;;;;;;;;;;;;;0;0;0;0;0;0;0;0;0;();(-2000.0, -2000.0);
12:23:51:323;12:23:51:305;1448408389.88;(0.6408215045928956, 0.8718321694268121);91.4315338135;0.877014560148;;;;;;;;;;;;;;0;0;0;0;0;0;0;0;0;();(-2000.0, -2000.0);
12:23:51:341;12:23:51:305;1448408389.88;(0.6408215045928956, 0.8718321694268121);91.4315338135;0.877014560148;;;;;;;;;;;;;;0;0;0;0;0;0;0;0;0;();(-2000.0, -2000.0);
12:23:51:357;12:23:51:305;1448408389.88;(0.6408215045928956, 0.8718321694268121);91.4315338135;0.877014560148;;;;;;;;;;;;;;0;0;0;0;0;0;0;0;0;();(-2000.0, -2000.0);
12:23:51:376;12:23:51:374;1448408389.94;(0, 0);0;0;;;;;;;;;;;;;;0;0;0;0;0;0;0;0;0;();(-2000.0, -2000.0);
12:23:51:390;12:23:51:374;1448408389.94;(0, 0);0;0;;;;;;;;;;;;;;0;0;0;0;0;0;0;0;0;();(-2000.0, -2000.0);
12:23:51:424;12:23:51:374;1448408389.94;(0, 0);0;0;;;;;;;;;;;;;;0;0;0;0;0;0;0;0;0;();(-2000.0, -2000.0);
12:23:51:441;12:23:51:438;1448408390.01;(0.5816744327545166, 0.8481618881225585);89.3036956787;0.722438879119;;;;;;;;;;;;;;0;0;0;0;0;0;0;0;0;();(-2000.0, -2000.0);
12:23:51:457;12:23:51:438;1448408390.01;(0.5816744327545166, 0.8481618881225585);89.3036956787;0.722438879119;;;;;;;;;;;;;;0;0;0;0;0;0;0;0;0;();(-2000.0, -2000.0);
12:23:51:474;12:23:51:438;1448408390.01;(0.5816744327545166, 0.8481618881225585);89.3036956787;0.722438879119;;;;;;;;;;;;;;0;0;0;0;0;0;0;0;0;();(-2000.0, -2000.0);
12:23:51:490;12:23:51:438;1448408390.01;(0.5816744327545166, 0.8481618881225585);89.3036956787;0.722438879119;;;;;;;;;;;;;;0;0;0;0;0;0;0;0;0;();(-2000.0, -2000.0);
12:23:51:524;12:23:51:506;1448408390.08;(0.5849686622619629, 0.8474044375949435);88.3806686401;0.746084461182;;;;;;;;;;;;;;0;0;0;0;0;0;0;0;0;();(-2000.0, -2000.0);
12:23:51:540;12:23:51:506;1448408390.08;(0.5849686622619629, 0.8474044375949435);88.3806686401;0.746084461182;;;;;;;;;;;;;;0;0;0;0;0;0;0;0;0;();(-2000.0, -2000.0);
12:23:51:557;12:23:51:506;1448408390.08;(0.5849686622619629, 0.8474044375949435);88.3806686401;0.746084461182;;;;;;;;;;;;;;0;0;0;0;0;0;0;0;0;();(-2000.0, -2000.0);
12:23:51:573;12:23:51:569;1448408390.14;(0.5886167049407959, 0.8442127439710829);87.9239044189;0.805857426019;;;;;;;;;;;;;;0;0;0;0;0;0;0;0;0;();(-2000.0, -2000.0);
12:23:51:591;12:23:51:569;1448408390.14;(0.5886167049407959, 0.8442127439710829);87.9239044189;0.805857426019;;;;;;;;;;;;;;0;0;0;0;0;0;0;0;0;();(-2000.0, -2000.0);
12:23:51:623;12:23:51:569;1448408390.14;(0.5886167049407959, 0.8442127439710829);87.9239044189;0.805857426019;;;;;;;;;;;;;;0;0;0;0;0;0;0;0;0;();(-2000.0, -2000.0);
12:23:51:640;12:23:51:569;1448408390.14;(0.5886167049407959, 0.8442127439710829);87.9239044189;0.805857426019;;;;;;;;;;;;;;0;0;0;0;0;0;0;0;0;();(-2000.0, -2000.0);
12:23:51:657;12:23:51:648;1448408390.21;(0.2542858123779297, 0.8936025036705865);20.4386043549;0.750016730531;;;;;;;;;;;;;;0;0;0;0;0;0;0;0;0;();(-2000.0, -2000.0);
12:23:51:674;12:23:51:648;1448408390.21;(0.2542858123779297, 0.8936025036705865);20.4386043549;0.750016730531;;;;;;;;;;;;;;0;0;0;0;0;0;0;0;0;();(-2000.0, -2000.0);
12:23:51:691;12:23:51:648;1448408390.21;(0.2542858123779297, 0.8936025036705865);20.4386043549;0.750016730531;;;;;;;;;;;;;;0;0;0;0;0;0;0;0;0;();(-2000.0, -2000.0);
12:23:51:724;12:23:51:705;1448408390.28;(0.5950745582580567, 0.8460524559020997);88.4960479736;0.814229317858;;;;;;;;;;;;;;0;0;0;0;0;0;0;0;0;();(-2000.0, -2000.0);
12:23:51:740;12:23:51:705;1448408390.28;(0.5950745582580567, 0.8460524559020997);88.4960479736;0.814229317858;;;;;;;;;;;;;;0;0;0;0;0;0;0;0;0;();(-2000.0, -2000.0);
12:23:51:757;12:23:51:705;1448408390.28;(0.5950745582580567, 0.8460524559020997);88.4960479736;0.814229317858;;;;;;;;;;;;;;0;0;0;0;0;0;0;0;0;();(-2000.0, -2000.0);
12:23:51:774;12:23:51:769;1448408390.34;(0, 0);0;0;;;;;;;;;;;;;;0;0;0;0;0;0;0;0;0;();(-2000.0, -2000.0);
12:23:51:791;12:23:51:769;1448408390.34;(0, 0);0;0;;;;;;;;;;;;;;0;0;0;0;0;0;0;0;0;();(-2000.0, -2000.0);
12:23:51:825;12:23:51:769;1448408390.34;(0, 0);0;0;;;;;;;;;;;;;;0;0;0;0;0;0;0;0;0;();(-2000.0, -2000.0);
12:23:51:841;12:23:51:838;1448408390.41;(0.5741959571838379, 0.8895431624518501);86.6390380859;0.739618408955;;;;;;;;;;;;;;0;0;0;0;0;0;0;0;0;();(-2000.0, -2000.0);
12:23:51:858;12:23:51:838;1448408390.41;(0.5741959571838379, 0.8895431624518501);86.6390380859;0.739618408955;;;;;;;;;;;;;;0;0;0;0;0;0;0;0;0;();(-2000.0, -2000.0);
12:23:51:874;12:23:51:838;1448408390.41;(0.5741959571838379, 0.8895431624518501);86.6390380859;0.739618408955;;;;;;;;;;;;;;0;0;0;0;0;0;0;0;0;();(-2000.0, -2000.0);
12:23:51:891;12:23:51:838;1448408390.41;(0.5741959571838379, 0.8895431624518501);86.6390380859;0.739618408955;;;;;;;;;;;;;;0;0;0;0;0;0;0;0;0;();(-2000.0, -2000.0);
12:23:51:924;12:23:51:902;1448408390.48;(0, 0);0;0;;;;;;;;;;;;;;0;0;0;0;0;0;0;0;0;();(-2000.0, -2000.0);
12:23:51:941;12:23:51:902;1448408390.48;(0, 0);0;0;;;;;;;;;;;;;;0;0;0;0;0;0;0;0;0;();(-2000.0, -2000.0);
12:23:51:957;12:23:51:902;1448408390.48;(0, 0);0;0;;;;;;;;;;;;;;0;0;0;0;0;0;0;0;0;();(-2000.0, -2000.0);
12:23:51:975;12:23:51:969;1448408390.54;(0, 0);0;0;;;;;;;;;;;;;;0;0;0;0;0;0;0;0;0;();(-2000.0, -2000.0);
12:23:51:992;12:23:51:969;1448408390.54;(0, 0);0;0;;;;;;;;;;;;;;0;0;0;0;0;0;0;0;0;();(-2000.0, -2000.0);
12:23:52:024;12:23:51:969;1448408390.54;(0, 0);0;0;;;;;;;;;;;;;;0;0;0;0;0;0;0;0;0;();(-2000.0, -2000.0);
12:23:52:041;12:23:52:033;1448408390.61;(0, 0);0;0;;;;;;;;;;;;;;0;0;0;0;0;0;0;0;0;();(-2000.0, -2000.0);
12:23:52:058;12:23:52:033;1448408390.61;(0, 0);0;0;;;;;;;;;;;;;;0;0;0;0;0;0;0;0;0;();(-2000.0, -2000.0);
12:23:52:074;12:23:52:033;1448408390.61;(0, 0);0;0;;;;;;;;;;;;;;0;0;0;0;0;0;0;0;0;();(-2000.0, -2000.0);
12:23:52:091;12:23:52:033;1448408390.61;(0, 0);0;0;;;;;;;;;;;;;;0;0;0;0;0;0;0;0;0;();(-2000.0, -2000.0);
12:23:52:124;12:23:52:101;1448408390.68;(0, 0);0;0;;;;;;;;;;;;;;0;0;0;0;0;0;0;0;0;();(-2000.0, -2000.0);
12:23:52:142;12:23:52:101;1448408390.68;(0, 0);0;0;;;;;;;;;;;;;;0;0;0;0;0;0;0;0;0;();(-2000.0, -2000.0);
12:23:52:158;12:23:52:101;1448408390.68;(0, 0);0;0;;;;;;;;;;;;;;0;0;0;0;0;0;0;0;0;();(-2000.0, -2000.0);
12:23:52:175;12:23:52:171;1448408390.74;(0, 0);0;0;;;;;;;;;;;;;;0;0;0;0;0;0;0;0;0;();(-2000.0, -2000.0);
12:23:52:192;12:23:52:171;1448408390.74;(0, 0);0;0;;;;;;;;;;;;;;0;0;0;0;0;0;0;0;0;();(-2000.0, -2000.0);
12:23:52:224;12:23:52:171;1448408390.74;(0, 0);0;0;;;;;;;;;;;;;;0;0;0;0;0;0;0;0;0;();(-2000.0, -2000.0);
12:23:52:242;12:23:52:234;1448408390.81;(0, 0);0;0;;;;;;;;;;;;;;0;0;0;0;0;0;0;0;0;();(-2000.0, -2000.0);
12:23:52:258;12:23:52:234;1448408390.81;(0, 0);0;0;;;;;;;;;;;;;;0;0;0;0;0;0;0;0;0;();(-2000.0, -2000.0);
12:23:52:275;12:23:52:234;1448408390.81;(0, 0);0;0;;;;;;;;;;;;;;0;0;0;0;0;0;0;0;0;();(-2000.0, -2000.0);
12:23:52:291;12:23:52:234;1448408390.81;(0, 0);0;0;;;;;;;;;;;;;;0;0;0;0;0;0;0;0;0;();(-2000.0, -2000.0);
12:23:52:325;12:23:52:302;1448408390.88;(0, 0);0;0;;;;;;;;;;;;;;0;0;0;0;0;0;0;0;0;();(-2000.0, -2000.0);
12:23:52:341;12:23:52:302;1448408390.88;(0, 0);0;0;;;;;;;;;;;;;;0;0;0;0;0;0;0;0;0;();(-2000.0, -2000.0);
12:23:52:358;12:23:52:302;1448408390.88;(0, 0);0;0;;;;;;;;;;;;;;0;0;0;0;0;0;0;0;0;();(-2000.0, -2000.0);
12:23:52:375;12:23:52:302;1448408390.88;(0, 0);0;0;;;;;;;;;;;;;;0;0;0;0;0;0;0;0;0;();(-2000.0, -2000.0);
12:23:52:391;12:23:52:379;1448408390.94;(0.5765226364135743, 0.8905692577362061);87.0051498413;0.656081718972;;;;;;;;;;;;;;0;0;0;0;0;0;0;0;0;();(-2000.0, -2000.0);
12:23:52:425;12:23:52:379;1448408390.94;(0.5765226364135743, 0.8905692577362061);87.0051498413;0.656081718972;;;;;;;;;;;;;;0;0;0;0;0;0;0;0;0;();(-2000.0, -2000.0);
12:23:52:442;12:23:52:434;1448408391.01;(0.5791789054870605, 0.8848678165011936);86.6516418457;0.729612436814;;;;;;;;;;;;;;0;0;0;0;0;0;0;0;0;();(-2000.0, -2000.0);
12:23:52:458;12:23:52:434;1448408391.01;(0.5791789054870605, 0.8848678165011936);86.6516418457;0.729612436814;;;;;;;;;;;;;;0;0;0;0;0;0;0;0;0;();(-2000.0, -2000.0);
12:23:52:475;12:23:52:434;1448408391.01;(0.5791789054870605, 0.8848678165011936);86.6516418457;0.729612436814;;;;;;;;;;;;;;0;0;0;0;0;0;0;0;0;();(-2000.0, -2000.0);
12:23:52:491;12:23:52:434;1448408391.01;(0.5791789054870605, 0.8848678165011936);86.6516418457;0.729612436814;;;;;;;;;;;;;;0;0;0;0;0;0;0;0;0;();(-2000.0, -2000.0);
12:23:52:526;12:23:52:501;1448408391.04;(0, 0);0;0;;;;;;;;;;;;;;0;0;0;0;0;0;0;0;0;();(-2000.0, -2000.0);
12:23:52:543;12:23:52:501;1448408391.04;(0, 0);0;0;;;;;;;;;;;;;;0;0;0;0;0;0;0;0;0;();(-2000.0, -2000.0);
12:23:52:559;12:23:52:501;1448408391.04;(0, 0);0;0;;;;;;;;;;;;;;0;0;0;0;0;0;0;0;0;();(-2000.0, -2000.0);
12:23:52:575;12:23:52:567;1448408391.14;(0.5934855461120605, 0.8407770368787977);87.4551925659;0.880858114725;;;;;;;;;;;;;;0;0;0;0;0;0;0;0;0;();(-2000.0, -2000.0);
12:23:52:593;12:23:52:567;1448408391.14;(0.5934855461120605, 0.8407770368787977);87.4551925659;0.880858114725;;;;;;;;;;;;;;0;0;0;0;0;0;0;0;0;();(-2000.0, -2000.0);
12:23:52:626;12:23:52:567;1448408391.14;(0.5934855461120605, 0.8407770368787977);87.4551925659;0.880858114725;;;;;;;;;;;;;;0;0;0;0;0;0;0;0;0;();(-2000.0, -2000.0);
12:23:52:643;12:23:52:634;1448408391.21;(0.5930957794189453, 0.8414889971415201);87.1136398315;0.865763203207;;;;;;;;;;;;;;0;0;0;0;0;0;0;0;0;();(-2000.0, -2000.0);
12:23:52:659;12:23:52:634;1448408391.21;(0.5930957794189453, 0.8414889971415201);87.1136398315;0.865763203207;;;;;;;;;;;;;;0;0;0;0;0;0;0;0;0;();(-2000.0, -2000.0);
12:23:52:676;12:23:52:634;1448408391.21;(0.5930957794189453, 0.8414889971415201);87.1136398315;0.865763203207;;;;;;;;;;;;;;0;0;0;0;0;0;0;0;0;();(-2000.0, -2000.0);
12:23:52:693;12:23:52:634;1448408391.21;(0.5930957794189453, 0.8414889971415201);87.1136398315;0.865763203207;;;;;;;;;;;;;;0;0;0;0;0;0;0;0;0;();(-2000.0, -2000.0);
12:23:52:726;12:23:52:698;1448408391.28;(0.5936290264129639, 0.8426832728915744);86.8736114502;0.800725279379;;;;;;;;;;;;;;0;0;0;0;0;0;0;0;0;();(-2000.0, -2000.0);
12:23:52:742;12:23:52:698;1448408391.28;(0.5936290264129639, 0.8426832728915744);86.8736114502;0.800725279379;;;;;;;;;;;;;;0;0;0;0;0;0;0;0;0;();(-2000.0, -2000.0);
12:23:52:759;12:23:52:698;1448408391.28;(0.5936290264129639, 0.8426832728915744);86.8736114502;0.800725279379;;;;;;;;;;;;;;0;0;0;0;0;0;0;0;0;();(-2000.0, -2000.0);
12:23:52:776;12:23:52:766;1448408391.34;(0.5942186832427978, 0.8439376407199436);86.9535293579;0.869196662823;;;;;;;;;;;;;;0;0;0;0;0;0;0;0;0;();(-2000.0, -2000.0);
12:23:52:792;12:23:52:766;1448408391.34;(0.5942186832427978, 0.8439376407199436);86.9535293579;0.869196662823;;;;;;;;;;;;;;0;0;0;0;0;0;0;0;0;();(-2000.0, -2000.0);
12:23:52:827;12:23:52:766;1448408391.34;(0.5942186832427978, 0.8439376407199436);86.9535293579;0.869196662823;;;;;;;;;;;;;;0;0;0;0;0;0;0;0;0;();(-2000.0, -2000.0);
12:23:52:842;12:23:52:833;1448408391.41;(0, 0);0;0;;;;;;;;;;;;;;0;0;0;0;0;0;0;0;0;();(-2000.0, -2000.0);
12:23:52:859;12:23:52:833;1448408391.41;(0, 0);0;0;;;;;;;;;;;;;;0;0;0;0;0;0;0;0;0;();(-2000.0, -2000.0);
12:23:52:876;12:23:52:833;1448408391.41;(0, 0);0;0;;;;;;;;;;;;;;0;0;0;0;0;0;0;0;0;();(-2000.0, -2000.0);
12:23:52:893;12:23:52:833;1448408391.41;(0, 0);0;0;;;;;;;;;;;;;;0;0;0;0;0;0;0;0;0;();(-2000.0, -2000.0);
12:23:52:925;12:23:52:898;1448408391.48;(0.6488325595855713, 0.8150005764431424);87.8314056396;0.842488504818;;;;;;;;;;;;;;0;0;0;0;0;0;0;0;0;();(-2000.0, -2000.0);
12:23:52:942;12:23:52:898;1448408391.48;(0.6488325595855713, 0.8150005764431424);87.8314056396;0.842488504818;;;;;;;;;;;;;;0;0;0;0;0;0;0;0;0;();(-2000.0, -2000.0);
12:23:52:960;12:23:52:898;1448408391.48;(0.6488325595855713, 0.8150005764431424);87.8314056396;0.842488504818;;;;;;;;;;;;;;0;0;0;0;0;0;0;0;0;();(-2000.0, -2000.0);
12:23:52:976;12:23:52:964;1448408391.51;(0.648970079421997, 0.8180028491550022);88.0809555054;0.907501512968;;;;;;;;;;;;;;0;0;0;0;0;0;0;0;0;();(-2000.0, -2000.0);
12:23:52:993;12:23:52:964;1448408391.51;(0.648970079421997, 0.8180028491550022);88.0809555054;0.907501512968;;;;;;;;;;;;;;0;0;0;0;0;0;0;0;0;();(-2000.0, -2000.0);
12:23:53:026;12:23:52:964;1448408391.51;(0.648970079421997, 0.8180028491550022);88.0809555054;0.907501512968;;;;;;;;;;;;;;0;0;0;0;0;0;0;0;0;();(-2000.0, -2000.0);
12:23:53:043;12:23:53:034;1448408391.61;(0.6477388381958008, 0.8184428956773546);88.099571228;0.912406748259;;;;;;;;;;;;;;0;0;0;0;0;0;0;0;0;();(-2000.0, -2000.0);
12:23:53:060;12:23:53:034;1448408391.61;(0.6477388381958008, 0.8184428956773546);88.099571228;0.912406748259;;;;;;;;;;;;;;0;0;0;0;0;0;0;0;0;();(-2000.0, -2000.0);
12:23:53:076;12:23:53:034;1448408391.61;(0.6477388381958008, 0.8184428956773546);88.099571228;0.912406748259;;;;;;;;;;;;;;0;0;0;0;0;0;0;0;0;();(-2000.0, -2000.0);
12:23:53:093;12:23:53:034;1448408391.61;(0.6477388381958008, 0.8184428956773546);88.099571228;0.912406748259;;;;;;;;;;;;;;0;0;0;0;0;0;0;0;0;();(-2000.0, -2000.0);
12:23:53:110;12:23:53:098;1448408391.68;(0.6472518444061279, 0.8173470815022786);88.9733352661;0.848833318765;;;;;;;;;;;;;;0;0;0;0;0;0;0;0;0;();(-2000.0, -2000.0);
12:23:53:143;12:23:53:098;1448408391.68;(0.6472518444061279, 0.8173470815022786);88.9733352661;0.848833318765;;;;;;;;;;;;;;0;0;0;0;0;0;0;0;0;();(-2000.0, -2000.0);
12:23:53:160;12:23:53:098;1448408391.68;(0.6472518444061279, 0.8173470815022786);88.9733352661;0.848833318765;;;;;;;;;;;;;;0;0;0;0;0;0;0;0;0;();(-2000.0, -2000.0);
12:23:53:176;12:23:53:167;1448408391.74;(0.646575927734375, 0.8179098447163899);88.5769042969;0.86045842059;;;;;;;;;;;;;;0;0;0;0;0;0;0;0;0;();(-2000.0, -2000.0);
12:23:53:192;12:23:53:167;1448408391.74;(0.646575927734375, 0.8179098447163899);88.5769042969;0.86045842059;;;;;;;;;;;;;;0;0;0;0;0;0;0;0;0;();(-2000.0, -2000.0);
12:23:53:226;12:23:53:167;1448408391.74;(0.646575927734375, 0.8179098447163899);88.5769042969;0.86045842059;;;;;;;;;;;;;;0;0;0;0;0;0;0;0;0;();(-2000.0, -2000.0);
12:23:53:243;12:23:53:230;1448408391.78;(0.645335054397583, 0.8203111224704318);89.2839813232;0.731519356394;;;;;;;;;;;;;;0;0;0;0;0;0;0;0;0;();(-2000.0, -2000.0);
12:23:53:259;12:23:53:230;1448408391.78;(0.645335054397583, 0.8203111224704318);89.2839813232;0.731519356394;;;;;;;;;;;;;;0;0;0;0;0;0;0;0;0;();(-2000.0, -2000.0);
12:23:53:276;12:23:53:230;1448408391.78;(0.645335054397583, 0.8203111224704318);89.2839813232;0.731519356394;;;;;;;;;;;;;;0;0;0;0;0;0;0;0;0;();(-2000.0, -2000.0);
12:23:53:293;12:23:53:230;1448408391.78;(0.645335054397583, 0.8203111224704318);89.2839813232;0.731519356394;;;;;;;;;;;;;;0;0;0;0;0;0;0;0;0;();(-2000.0, -2000.0);
12:23:53:326;12:23:53:300;1448408391.84;(0, 0);0;0;;;;;;;;;;;;;;0;0;0;0;0;0;0;0;0;();(-2000.0, -2000.0);
12:23:53:343;12:23:53:300;1448408391.84;(0, 0);0;0;;;;;;;;;;;;;;0;0;0;0;0;0;0;0;0;();(-2000.0, -2000.0);
12:23:53:359;12:23:53:300;1448408391.84;(0, 0);0;0;;;;;;;;;;;;;;0;0;0;0;0;0;0;0;0;();(-2000.0, -2000.0);
12:23:53:376;12:23:53:363;1448408391.91;(0.6470048904418946, 0.8201999028523763);90.6844329834;0.859428227469;;;;;;;;;;;;;;0;0;0;0;0;0;0;0;0;();(-2000.0, -2000.0);
12:23:53:393;12:23:53:363;1448408391.91;(0.6470048904418946, 0.8201999028523763);90.6844329834;0.859428227469;;;;;;;;;;;;;;0;0;0;0;0;0;0;0;0;();(-2000.0, -2000.0);
12:23:53:410;12:23:53:363;1448408391.91;(0.6470048904418946, 0.8201999028523763);90.6844329834;0.859428227469;;;;;;;;;;;;;;0;0;0;0;0;0;0;0;0;();(-2000.0, -2000.0);
12:23:53:444;12:23:53:431;1448408392.01;(0.6741857051849365, 0.8279385036892362);89.6911621094;0.870068899307;;;;;;;;;;;;;;0;0;0;0;0;0;0;0;0;();(-2000.0, -2000.0);
12:23:53:459;12:23:53:431;1448408392.01;(0.6741857051849365, 0.8279385036892362);89.6911621094;0.870068899307;;;;;;;;;;;;;;0;0;0;0;0;0;0;0;0;();(-2000.0, -2000.0);
12:23:53:476;12:23:53:431;1448408392.01;(0.6741857051849365, 0.8279385036892362);89.6911621094;0.870068899307;;;;;;;;;;;;;;0;0;0;0;0;0;0;0;0;();(-2000.0, -2000.0);
12:23:53:493;12:23:53:431;1448408392.01;(0.6741857051849365, 0.8279385036892362);89.6911621094;0.870068899307;;;;;;;;;;;;;;0;0;0;0;0;0;0;0;0;();(-2000.0, -2000.0);
12:23:53:526;12:23:53:503;1448408392.08;(0.6734617710113525, 0.8293493058946397);89.1522750854;0.942569524127;;;;;;;;;;;;;;0;0;0;0;0;0;0;0;0;();(-2000.0, -2000.0);
12:23:53:544;12:23:53:503;1448408392.08;(0.6734617710113525, 0.8293493058946397);89.1522750854;0.942569524127;;;;;;;;;;;;;;0;0;0;0;0;0;0;0;0;();(-2000.0, -2000.0);
12:23:53:560;12:23:53:503;1448408392.08;(0.6734617710113525, 0.8293493058946397);89.1522750854;0.942569524127;;;;;;;;;;;;;;0;0;0;0;0;0;0;0;0;();(-2000.0, -2000.0);
12:23:53:576;12:23:53:565;1448408392.14;(0.6721154689788819, 0.8299460622999404);89.2595977783;0.832331831086;;;;;;;;;;;;;;0;0;0;0;0;0;0;0;0;();(-2000.0, -2000.0);
12:23:53:594;12:23:53:565;1448408392.14;(0.6721154689788819, 0.8299460622999404);89.2595977783;0.832331831086;;;;;;;;;;;;;;0;0;0;0;0;0;0;0;0;();(-2000.0, -2000.0);
12:23:53:610;12:23:53:565;1448408392.14;(0.6721154689788819, 0.8299460622999404);89.2595977783;0.832331831086;;;;;;;;;;;;;;0;0;0;0;0;0;0;0;0;();(-2000.0, -2000.0);
12:23:53:644;12:23:53:630;1448408392.21;(0.6709304332733155, 0.8306574821472168);89.5364990234;0.92748602381;;;;;;;;;;;;;;0;0;0;0;0;0;0;0;0;();(-2000.0, -2000.0);
12:23:53:659;12:23:53:630;1448408392.21;(0.6709304332733155, 0.8306574821472168);89.5364990234;0.92748602381;;;;;;;;;;;;;;0;0;0;0;0;0;0;0;0;();(-2000.0, -2000.0);
12:23:53:677;12:23:53:630;1448408392.21;(0.6709304332733155, 0.8306574821472168);89.5364990234;0.92748602381;;;;;;;;;;;;;;0;0;0;0;0;0;0;0;0;();(-2000.0, -2000.0);
12:23:53:694;12:23:53:692;1448408392.24;(0, 0);0;0;;;;;;;;;;;;;;0;0;0;0;0;0;0;0;0;();(-2000.0, -2000.0);
12:23:53:710;12:23:53:692;1448408392.24;(0, 0);0;0;;;;;;;;;;;;;;0;0;0;0;0;0;0;0;0;();(-2000.0, -2000.0);
12:23:53:743;12:23:53:692;1448408392.24;(0, 0);0;0;;;;;;;;;;;;;;0;0;0;0;0;0;0;0;0;();(-2000.0, -2000.0);
12:23:53:760;12:23:53:692;1448408392.24;(0, 0);0;0;;;;;;;;;;;;;;0;0;0;0;0;0;0;0;0;();(-2000.0, -2000.0);
12:23:53:776;12:23:53:764;1448408392.31;(0.7255492687225342, 0.7755473878648547);80.8650588989;0.746377878618;;;;;;;;;;;;;;0;0;0;0;0;0;0;0;0;();(-2000.0, -2000.0);
12:23:53:794;12:23:53:764;1448408392.31;(0.7255492687225342, 0.7755473878648547);80.8650588989;0.746377878618;;;;;;;;;;;;;;0;0;0;0;0;0;0;0;0;();(-2000.0, -2000.0);
12:23:53:810;12:23:53:764;1448408392.31;(0.7255492687225342, 0.7755473878648547);80.8650588989;0.746377878618;;;;;;;;;;;;;;0;0;0;0;0;0;0;0;0;();(-2000.0, -2000.0);
12:23:53:844;12:23:53:832;1448408392.41;(0.7219970226287842, 0.7891190846761068);89.2966003418;0.921219406919;;;;;;;;;;;;;;0;0;0;0;0;0;0;0;0;();(-2000.0, -2000.0);
12:23:53:859;12:23:53:832;1448408392.41;(0.7219970226287842, 0.7891190846761068);89.2966003418;0.921219406919;;;;;;;;;;;;;;0;0;0;0;0;0;0;0;0;();(-2000.0, -2000.0);
12:23:53:876;12:23:53:832;1448408392.41;(0.7219970226287842, 0.7891190846761068);89.2966003418;0.921219406919;;;;;;;;;;;;;;0;0;0;0;0;0;0;0;0;();(-2000.0, -2000.0);
12:23:53:895;12:23:53:892;1448408392.44;(0.7213462352752685, 0.7910115771823459);89.1429672241;0.833517982653;;;;;;;;;;;;;;0;0;0;0;0;0;0;0;0;();(-2000.0, -2000.0);
12:23:53:910;12:23:53:892;1448408392.44;(0.7213462352752685, 0.7910115771823459);89.1429672241;0.833517982653;;;;;;;;;;;;;;0;0;0;0;0;0;0;0;0;();(-2000.0, -2000.0);
12:23:53:944;12:23:53:892;1448408392.44;(0.7213462352752685, 0.7910115771823459);89.1429672241;0.833517982653;;;;;;;;;;;;;;0;0;0;0;0;0;0;0;0;();(-2000.0, -2000.0);
12:23:53:961;12:23:53:892;1448408392.44;(0.7213462352752685, 0.7910115771823459);89.1429672241;0.833517982653;;;;;;;;;;;;;;0;0;0;0;0;0;0;0;0;();(-2000.0, -2000.0);
12:23:53:977;12:23:53:966;1448408392.51;(0.718150520324707, 0.7952291912502713);89.2538146973;0.823012417369;;;;;;;;;;;;;;0;0;0;0;0;0;0;0;0;();(-2000.0, -2000.0);
12:23:53:994;12:23:53:966;1448408392.51;(0.718150520324707, 0.7952291912502713);89.2538146973;0.823012417369;;;;;;;;;;;;;;0;0;0;0;0;0;0;0;0;();(-2000.0, -2000.0);
12:23:54:010;12:23:53:966;1448408392.51;(0.718150520324707, 0.7952291912502713);89.2538146973;0.823012417369;;;;;;;;;;;;;;0;0;0;0;0;0;0;0;0;();(-2000.0, -2000.0);
12:23:54:043;12:23:54:027;1448408392.61;(0.7485349655151368, 0.7594125323825412);89.928817749;0.839874646329;;;;;;;;;;;;;;0;0;0;0;0;0;0;0;0;();(-2000.0, -2000.0);
12:23:54:060;12:23:54:027;1448408392.61;(0.7485349655151368, 0.7594125323825412);89.928817749;0.839874646329;;;;;;;;;;;;;;0;0;0;0;0;0;0;0;0;();(-2000.0, -2000.0);
12:23:54:076;12:23:54:027;1448408392.61;(0.7485349655151368, 0.7594125323825412);89.928817749;0.839874646329;;;;;;;;;;;;;;0;0;0;0;0;0;0;0;0;();(-2000.0, -2000.0);
12:23:54:095;12:23:54:092;1448408392.64;(0.7483664989471436, 0.7594392564561632);88.7909240723;0.912787547217;;;;;;;;;;;;;;0;0;0;0;0;0;0;0;0;();(-2000.0, -2000.0);
12:23:54:110;12:23:54:094;1448408392.68;(0.7479986667633056, 0.7595681932237413);88.131980896;0.915295009435;;;;;;;;;;;;;;0;0;0;0;0;0;0;0;0;();(-2000.0, -2000.0);
12:23:54:144;12:23:54:094;1448408392.68;(0.7479986667633056, 0.7595681932237413);88.131980896;0.915295009435;;;;;;;;;;;;;;0;0;0;0;0;0;0;0;0;();(-2000.0, -2000.0);
12:23:54:161;12:23:54:094;1448408392.68;(0.7479986667633056, 0.7595681932237413);88.131980896;0.915295009435;;;;;;;;;;;;;;0;0;0;0;0;0;0;0;0;();(-2000.0, -2000.0);
12:23:54:177;12:23:54:162;1448408392.74;(0.7466436862945557, 0.7609685473971897);87.7155914307;0.858150729693;;;;;;;;;;;;;;0;0;0;0;0;0;0;0;0;();(-2000.0, -2000.0);
12:23:54:193;12:23:54:162;1448408392.74;(0.7466436862945557, 0.7609685473971897);87.7155914307;0.858150729693;;;;;;;;;;;;;;0;0;0;0;0;0;0;0;0;();(-2000.0, -2000.0);
12:23:54:211;12:23:54:162;1448408392.74;(0.7466436862945557, 0.7609685473971897);87.7155914307;0.858150729693;;;;;;;;;;;;;;0;0;0;0;0;0;0;0;0;();(-2000.0, -2000.0);
12:23:54:243;12:23:54:224;1448408392.78;(0.7448318481445313, 0.7642709520128038);88.511505127;0.95488901509;;;;;;;;;;;;;;0;0;0;0;0;0;0;0;0;();(-2000.0, -2000.0);
12:23:54:260;12:23:54:224;1448408392.78;(0.7448318481445313, 0.7642709520128038);88.511505127;0.95488901509;;;;;;;;;;;;;;0;0;0;0;0;0;0;0;0;();(-2000.0, -2000.0);
12:23:54:276;12:23:54:224;1448408392.78;(0.7448318481445313, 0.7642709520128038);88.511505127;0.95488901509;;;;;;;;;;;;;;0;0;0;0;0;0;0;0;0;();(-2000.0, -2000.0);
12:23:54:297;12:23:54:295;1448408392.84;(0.7417948722839356, 0.7673750347561307);87.8134613037;0.732694440108;;;;;;;;;;;;;;0;0;0;0;0;0;0;0;0;();(-2000.0, -2000.0);
12:23:54:310;12:23:54:295;1448408392.84;(0.7417948722839356, 0.7673750347561307);87.8134613037;0.732694440108;;;;;;;;;;;;;;0;0;0;0;0;0;0;0;0;();(-2000.0, -2000.0);
12:23:54:344;12:23:54:295;1448408392.84;(0.7417948722839356, 0.7673750347561307);87.8134613037;0.732694440108;;;;;;;;;;;;;;0;0;0;0;0;0;0;0;0;();(-2000.0, -2000.0);
12:23:54:363;12:23:54:359;1448408392.91;(0, 0);0;0;;;;;;;;;;;;;;0;0;0;0;0;0;0;0;0;();(-2000.0, -2000.0);
12:23:54:377;12:23:54:359;1448408392.91;(0, 0);0;0;;;;;;;;;;;;;;0;0;0;0;0;0;0;0;0;();(-2000.0, -2000.0);
12:23:54:394;12:23:54:359;1448408392.91;(0, 0);0;0;;;;;;;;;;;;;;0;0;0;0;0;0;0;0;0;();(-2000.0, -2000.0);
12:23:54:410;12:23:54:359;1448408392.91;(0, 0);0;0;;;;;;;;;;;;;;0;0;0;0;0;0;0;0;0;();(-2000.0, -2000.0);
12:23:54:444;12:23:54:425;1448408392.98;(0.4395461559295654, 0.6735065460205079);25.4234752655;0.694191627247;;;;;;;;;;;;;;0;0;0;0;0;0;0;0;0;();(-2000.0, -2000.0);
12:23:54:460;12:23:54:425;1448408392.98;(0.4395461559295654, 0.6735065460205079);25.4234752655;0.694191627247;;;;;;;;;;;;;;0;0;0;0;0;0;0;0;0;();(-2000.0, -2000.0);
12:23:54:477;12:23:54:425;1448408392.98;(0.4395461559295654, 0.6735065460205079);25.4234752655;0.694191627247;;;;;;;;;;;;;;0;0;0;0;0;0;0;0;0;();(-2000.0, -2000.0);
12:23:54:494;12:23:54:492;1448408393.01;(0, 0);0;0;;;;;;;;;;;;;;0;0;0;0;0;0;0;0;0;();(-2000.0, -2000.0);
12:23:54:510;12:23:54:492;1448408393.01;(0, 0);0;0;;;;;;;;;;;;;;0;0;0;0;0;0;0;0;0;();(-2000.0, -2000.0);
12:23:54:544;12:23:54:492;1448408393.01;(0, 0);0;0;;;;;;;;;;;;;;0;0;0;0;0;0;0;0;0;();(-2000.0, -2000.0);
12:23:54:561;12:23:54:559;1448408393.13;(0, 0);0;0;;;;;;;;;;;;;;0;0;0;0;0;0;0;0;0;();(-2000.0, -2000.0);
12:23:54:576;12:23:54:559;1448408393.13;(0, 0);0;0;;;;;;;;;;;;;;0;0;0;0;0;0;0;0;0;();(-2000.0, -2000.0);
12:23:54:594;12:23:54:559;1448408393.13;(0, 0);0;0;;;;;;;;;;;;;;0;0;0;0;0;0;0;0;0;();(-2000.0, -2000.0);
12:23:54:610;12:23:54:559;1448408393.13;(0, 0);0;0;;;;;;;;;;;;;;0;0;0;0;0;0;0;0;0;();(-2000.0, -2000.0);
12:23:54:644;12:23:54:629;1448408393.21;(0.7379398345947266, 0.7797105789184571);88.9491424561;0.85900092056;;;;;;;;;;;;;;0;0;0;0;0;0;0;0;0;();(-2000.0, -2000.0);
12:23:54:660;12:23:54:629;1448408393.21;(0.7379398345947266, 0.7797105789184571);88.9491424561;0.85900092056;;;;;;;;;;;;;;0;0;0;0;0;0;0;0;0;();(-2000.0, -2000.0);
12:23:54:677;12:23:54:629;1448408393.21;(0.7379398345947266, 0.7797105789184571);88.9491424561;0.85900092056;;;;;;;;;;;;;;0;0;0;0;0;0;0;0;0;();(-2000.0, -2000.0);
12:23:54:693;12:23:54:689;1448408393.24;(0.7371747493743896, 0.7806330786810981);89.0371322632;0.803256731119;;;;;;;;;;;;;;0;0;0;0;0;0;0;0;0;();(-2000.0, -2000.0);
12:23:54:710;12:23:54:689;1448408393.24;(0.7371747493743896, 0.7806330786810981);89.0371322632;0.803256731119;;;;;;;;;;;;;;0;0;0;0;0;0;0;0;0;();(-2000.0, -2000.0);
12:23:54:743;12:23:54:689;1448408393.24;(0.7371747493743896, 0.7806330786810981);89.0371322632;0.803256731119;;;;;;;;;;;;;;0;0;0;0;0;0;0;0;0;();(-2000.0, -2000.0);
12:23:54:761;12:23:54:758;1448408393.31;(0.35733723640441895, 0.6970052719116211);18.4176044464;0.767486441776;;;;;;;;;;;;;;0;0;0;0;0;0;0;0;0;();(-2000.0, -2000.0);
12:23:54:777;12:23:54:758;1448408393.31;(0.35733723640441895, 0.6970052719116211);18.4176044464;0.767486441776;;;;;;;;;;;;;;0;0;0;0;0;0;0;0;0;();(-2000.0, -2000.0);
12:23:54:794;12:23:54:758;1448408393.31;(0.35733723640441895, 0.6970052719116211);18.4176044464;0.767486441776;;;;;;;;;;;;;;0;0;0;0;0;0;0;0;0;();(-2000.0, -2000.0);
12:23:54:811;12:23:54:758;1448408393.31;(0.35733723640441895, 0.6970052719116211);18.4176044464;0.767486441776;;;;;;;;;;;;;;0;0;0;0;0;0;0;0;0;();(-2000.0, -2000.0);
12:23:54:844;12:23:54:838;1448408393.38;(0.7308474540710449, 0.7831798553466797);88.4863815308;0.889521522859;;;;;;;;;;;;;;0;0;0;0;0;0;0;0;0;();(-2000.0, -2000.0);
12:23:54:860;12:23:54:838;1448408393.38;(0.7308474540710449, 0.7831798553466797);88.4863815308;0.889521522859;;;;;;;;;;;;;;0;0;0;0;0;0;0;0;0;();(-2000.0, -2000.0);
12:23:54:876;12:23:54:838;1448408393.38;(0.7308474540710449, 0.7831798553466797);88.4863815308;0.889521522859;;;;;;;;;;;;;;0;0;0;0;0;0;0;0;0;();(-2000.0, -2000.0);
12:23:54:894;12:23:54:890;1448408393.44;(0.7300465106964111, 0.7859275817871094);89.406867981;0.863400763076;;;;;;;;;;;;;;0;0;0;0;0;0;0;0;0;();(-2000.0, -2000.0);
12:23:54:910;12:23:54:890;1448408393.44;(0.7300465106964111, 0.7859275817871094);89.406867981;0.863400763076;;;;;;;;;;;;;;0;0;0;0;0;0;0;0;0;();(-2000.0, -2000.0);
12:23:54:944;12:23:54:890;1448408393.44;(0.7300465106964111, 0.7859275817871094);89.406867981;0.863400763076;;;;;;;;;;;;;;0;0;0;0;0;0;0;0;0;();(-2000.0, -2000.0);
12:23:54:961;12:23:54:958;1448408393.51;(0.9389601707458496, 0.4525669097900391);18.6370048523;0.920320034079;;;;;;;;;;;;;;0;0;0;0;0;0;0;0;0;();(-2000.0, -2000.0);
12:23:54:977;12:23:54:958;1448408393.51;(0.9389601707458496, 0.4525669097900391);18.6370048523;0.920320034079;;;;;;;;;;;;;;0;0;0;0;0;0;0;0;0;();(-2000.0, -2000.0);
12:23:54:994;12:23:54:958;1448408393.51;(0.9389601707458496, 0.4525669097900391);18.6370048523;0.920320034079;;;;;;;;;;;;;;0;0;0;0;0;0;0;0;0;();(-2000.0, -2000.0);
12:23:55:011;12:23:54:958;1448408393.51;(0.9389601707458496, 0.4525669097900391);18.6370048523;0.920320034079;;;;;;;;;;;;;;0;0;0;0;0;0;0;0;0;();(-2000.0, -2000.0);
12:23:55:043;12:23:55:021;1448408393.58;(0.7401809215545654, 0.796830505794949);88.0709991455;0.923989979735;;;;;;;;;;;;;;0;0;0;0;0;0;0;0;0;();(-2000.0, -2000.0);
12:23:55:061;12:23:55:021;1448408393.58;(0.7401809215545654, 0.796830505794949);88.0709991455;0.923989979735;;;;;;;;;;;;;;0;0;0;0;0;0;0;0;0;();(-2000.0, -2000.0);
12:23:55:077;12:23:55:021;1448408393.58;(0.7401809215545654, 0.796830505794949);88.0709991455;0.923989979735;;;;;;;;;;;;;;0;0;0;0;0;0;0;0;0;();(-2000.0, -2000.0);
12:23:55:094;12:23:55:090;1448408393.64;(0.7585244655609131, 0.7974962128533257);87.278678894;0.999723481027;;;;;;;;;;;;;;0;0;0;0;0;0;0;0;0;();(-2000.0, -2000.0);
12:23:55:111;12:23:55:090;1448408393.64;(0.7585244655609131, 0.7974962128533257);87.278678894;0.999723481027;;;;;;;;;;;;;;0;0;0;0;0;0;0;0;0;();(-2000.0, -2000.0);
12:23:55:144;12:23:55:090;1448408393.64;(0.7585244655609131, 0.7974962128533257);87.278678894;0.999723481027;;;;;;;;;;;;;;0;0;0;0;0;0;0;0;0;();(-2000.0, -2000.0);
12:23:55:162;12:23:55:154;1448408393.71;(0.7569973945617676, 0.8035322613186306);87.2753601074;0.921061938578;;;;;;;;;;;;;;0;0;0;0;0;0;0;0;0;();(-2000.0, -2000.0);
12:23:55:177;12:23:55:154;1448408393.71;(0.7569973945617676, 0.8035322613186306);87.2753601074;0.921061938578;;;;;;;;;;;;;;0;0;0;0;0;0;0;0;0;();(-2000.0, -2000.0);
12:23:55:195;12:23:55:154;1448408393.71;(0.7569973945617676, 0.8035322613186306);87.2753601074;0.921061938578;;;;;;;;;;;;;;0;0;0;0;0;0;0;0;0;();(-2000.0, -2000.0);
12:23:55:211;12:23:55:154;1448408393.71;(0.7569973945617676, 0.8035322613186306);87.2753601074;0.921061938578;;;;;;;;;;;;;;0;0;0;0;0;0;0;0;0;();(-2000.0, -2000.0);
12:23:55:245;12:23:55:224;1448408393.78;(0.7545208930969238, 0.8060496118333604);87.2090835571;0.9789251208;;;;;;;;;;;;;;0;0;0;0;0;0;0;0;0;();(-2000.0, -2000.0);
12:23:55:261;12:23:55:224;1448408393.78;(0.7545208930969238, 0.8060496118333604);87.2090835571;0.9789251208;;;;;;;;;;;;;;0;0;0;0;0;0;0;0;0;();(-2000.0, -2000.0);
12:23:55:277;12:23:55:224;1448408393.78;(0.7545208930969238, 0.8060496118333604);87.2090835571;0.9789251208;;;;;;;;;;;;;;0;0;0;0;0;0;0;0;0;();(-2000.0, -2000.0);
12:23:55:294;12:23:55:289;1448408393.84;(0, 0);0;0;;;;;;;;;;;;;;0;0;0;0;0;0;0;0;0;();(-2000.0, -2000.0);
12:23:55:311;12:23:55:289;1448408393.84;(0, 0);0;0;;;;;;;;;;;;;;0;0;0;0;0;0;0;0;0;();(-2000.0, -2000.0);
12:23:55:345;12:23:55:289;1448408393.84;(0, 0);0;0;;;;;;;;;;;;;;0;0;0;0;0;0;0;0;0;();(-2000.0, -2000.0);
12:23:55:362;12:23:55:354;1448408393.91;(0.7482224464416504, 0.8029849900139703);83.4286956787;1.0;;;;;;;;;;;;;;0;0;0;0;0;0;0;0;0;();(-2000.0, -2000.0);
12:23:55:377;12:23:55:354;1448408393.91;(0.7482224464416504, 0.8029849900139703);83.4286956787;1.0;;;;;;;;;;;;;;0;0;0;0;0;0;0;0;0;();(-2000.0, -2000.0);
12:23:55:394;12:23:55:354;1448408393.91;(0.7482224464416504, 0.8029849900139703);83.4286956787;1.0;;;;;;;;;;;;;;0;0;0;0;0;0;0;0;0;();(-2000.0, -2000.0);
12:23:55:411;12:23:55:354;1448408393.91;(0.7482224464416504, 0.8029849900139703);83.4286956787;1.0;;;;;;;;;;;;;;0;0;0;0;0;0;0;0;0;();(-2000.0, -2000.0);
12:23:55:445;12:23:55:422;1448408393.98;(0.7433219432830811, 0.8111906051635742);88.0144958496;0.870679700761;;;;;;;;;;;;;;0;0;0;0;0;0;0;0;0;();(-2000.0, -2000.0);
12:23:55:462;12:23:55:422;1448408393.98;(0.7433219432830811, 0.8111906051635742);88.0144958496;0.870679700761;;;;;;;;;;;;;;0;0;0;0;0;0;0;0;0;();(-2000.0, -2000.0);
12:23:55:478;12:23:55:422;1448408393.98;(0.7433219432830811, 0.8111906051635742);88.0144958496;0.870679700761;;;;;;;;;;;;;;0;0;0;0;0;0;0;0;0;();(-2000.0, -2000.0);
12:23:55:495;12:23:55:422;1448408393.98;(0.7433219432830811, 0.8111906051635742);88.0144958496;0.870679700761;;;;;;;;;;;;;;0;0;0;0;0;0;0;0;0;();(-2000.0, -2000.0);
