%Timestamp,timestamp_write;timestamp_gotpupil;eyeTrackerTime;normPos;diameter;confidence;timestamp_gotbitdata;CRC;SEQ;AnalogOutp1;AnalogOutp2;AnalogOutp3;AnalogOutp4;AnalogOutp5;AnalogOutp6;DigitalOutp1;DigitalOutp2;DigitalOutp3;DigitalOutp4;nplanes;listofAirplanesonScreen;lastAction;lastActionDetails;lastActionAirplaneNumber;calculatedScore;positiveScore;negativeScore;collidedAirplaneNumbers;targetPositions;collisionPoint
12:10:58:252;12:10:58:237;1448407616.82;(0, 0);0;0;;;;;;;;;;;;;;0;0;0;0;0;0;0;0;0;();(-2000.0, -2000.0);
12:10:58:263;12:10:58:237;1448407616.82;(0, 0);0;0;;;;;;;;;;;;;;0;0;0;0;0;0;0;0;0;();(-2000.0, -2000.0);
12:10:58:271;12:10:58:237;1448407616.82;(0, 0);0;0;;;;;;;;;;;;;;0;0;0;0;0;0;0;0;0;();(-2000.0, -2000.0);
12:10:58:275;12:10:58:237;1448407616.82;(0, 0);0;0;;;;;;;;;;;;;;0;0;0;0;0;0;0;0;0;();(-2000.0, -2000.0);
12:10:58:279;12:10:58:237;1448407616.82;(0, 0);0;0;;;;;;;;;;;;;;0;0;0;0;0;0;0;0;0;();(-2000.0, -2000.0);
12:10:58:282;12:10:58:237;1448407616.82;(0, 0);0;0;;;;;;;;;;;;;;0;0;0;0;0;0;0;0;0;();(-2000.0, -2000.0);
12:10:58:285;12:10:58:237;1448407616.82;(0, 0);0;0;;;;;;;;;;;;;;0;0;0;0;0;0;0;0;0;();(-2000.0, -2000.0);
12:10:58:289;12:10:58:237;1448407616.82;(0, 0);0;0;;;;;;;;;;;;;;0;0;0;0;0;0;0;0;0;();(-2000.0, -2000.0);
12:10:58:293;12:10:58:237;1448407616.82;(0, 0);0;0;;;;;;;;;;;;;;0;0;0;0;0;0;0;0;0;();(-2000.0, -2000.0);
12:10:58:296;12:10:58:237;1448407616.82;(0, 0);0;0;;;;;;;;;;;;;;0;0;0;0;0;0;0;0;0;();(-2000.0, -2000.0);
12:10:58:299;12:10:58:237;1448407616.82;(0, 0);0;0;;;;;;;;;;;;;;0;0;0;0;0;0;0;0;0;();(-2000.0, -2000.0);
12:10:58:302;12:10:58:237;1448407616.82;(0, 0);0;0;;;;;;;;;;;;;;0;0;0;0;0;0;0;0;0;();(-2000.0, -2000.0);
12:10:58:305;12:10:58:237;1448407616.82;(0, 0);0;0;;;;;;;;;;;;;;0;0;0;0;0;0;0;0;0;();(-2000.0, -2000.0);
12:10:58:311;12:10:58:309;1448407616.89;(0.42680606842041013, 0.38600654602050777);55.4847373962;0.826923146636;;;;;;;;;;;;;;0;0;0;0;0;0;0;0;0;();(-2000.0, -2000.0);
12:10:58:315;12:10:58:309;1448407616.89;(0.42680606842041013, 0.38600654602050777);55.4847373962;0.826923146636;;;;;;;;;;;;;;0;0;0;0;0;0;0;0;0;();(-2000.0, -2000.0);
12:10:58:318;12:10:58:309;1448407616.89;(0.42680606842041013, 0.38600654602050777);55.4847373962;0.826923146636;;;;;;;;;;;;;;0;0;0;0;0;0;0;0;0;();(-2000.0, -2000.0);
12:10:58:322;12:10:58:309;1448407616.89;(0.42680606842041013, 0.38600654602050777);55.4847373962;0.826923146636;;;;;;;;;;;;;;0;0;0;0;0;0;0;0;0;();(-2000.0, -2000.0);
12:10:58:326;12:10:58:309;1448407616.89;(0.42680606842041013, 0.38600654602050777);55.4847373962;0.826923146636;;;;;;;;;;;;;;0;0;0;0;0;0;0;0;0;();(-2000.0, -2000.0);
12:10:58:329;12:10:58:309;1448407616.89;(0.42680606842041013, 0.38600654602050777);55.4847373962;0.826923146636;;;;;;;;;;;;;;0;0;0;0;0;0;0;0;0;();(-2000.0, -2000.0);
12:10:58:333;12:10:58:309;1448407616.89;(0.42680606842041013, 0.38600654602050777);55.4847373962;0.826923146636;;;;;;;;;;;;;;0;0;0;0;0;0;0;0;0;();(-2000.0, -2000.0);
12:10:58:337;12:10:58:309;1448407616.89;(0.42680606842041013, 0.38600654602050777);55.4847373962;0.826923146636;;;;;;;;;;;;;;0;0;0;0;0;0;0;0;0;();(-2000.0, -2000.0);
12:10:58:361;12:10:58:309;1448407616.89;(0.42680606842041013, 0.38600654602050777);55.4847373962;0.826923146636;;;;;;;;;;;;;;0;0;0;0;0;0;0;0;0;();(-2000.0, -2000.0);
12:10:58:377;12:10:58:374;1448407616.95;(0.42944161891937255, 0.3784699334038628);58.2756233215;0.844785177997;;;;;;;;;;;;;;0;0;0;0;0;0;0;0;0;();(-2000.0, -2000.0);
12:10:58:394;12:10:58:374;1448407616.95;(0.42944161891937255, 0.3784699334038628);58.2756233215;0.844785177997;;;;;;;;;;;;;;0;0;0;0;0;0;0;0;0;();(-2000.0, -2000.0);
12:10:58:410;12:10:58:374;1448407616.95;(0.42944161891937255, 0.3784699334038628);58.2756233215;0.844785177997;;;;;;;;;;;;;;0;0;0;0;0;0;0;0;0;();(-2000.0, -2000.0);
12:10:58:428;12:10:58:374;1448407616.95;(0.42944161891937255, 0.3784699334038628);58.2756233215;0.844785177997;;;;;;;;;;;;;;0;0;0;0;0;0;0;0;0;();(-2000.0, -2000.0);
12:10:58:460;12:10:58:438;1448407617.02;(0.4282544612884521, 0.38793156941731766);56.0570411682;0.867147139664;;;;;;;;;;;;;;0;0;0;0;0;0;0;0;0;();(-2000.0, -2000.0);
12:10:58:477;12:10:58:438;1448407617.02;(0.4282544612884521, 0.38793156941731766);56.0570411682;0.867147139664;;;;;;;;;;;;;;0;0;0;0;0;0;0;0;0;();(-2000.0, -2000.0);
12:10:58:494;12:10:58:438;1448407617.02;(0.4282544612884521, 0.38793156941731766);56.0570411682;0.867147139664;;;;;;;;;;;;;;0;0;0;0;0;0;0;0;0;();(-2000.0, -2000.0);
12:10:58:511;12:10:58:503;1448407617.09;(0.4284416437149048, 0.3886871761745877);56.4129486084;0.868282007404;;;;;;;;;;;;;;0;0;0;0;0;0;0;0;0;();(-2000.0, -2000.0);
12:10:58:528;12:10:58:503;1448407617.09;(0.4284416437149048, 0.3886871761745877);56.4129486084;0.868282007404;;;;;;;;;;;;;;0;0;0;0;0;0;0;0;0;();(-2000.0, -2000.0);
12:10:58:546;12:10:58:503;1448407617.09;(0.4284416437149048, 0.3886871761745877);56.4129486084;0.868282007404;;;;;;;;;;;;;;0;0;0;0;0;0;0;0;0;();(-2000.0, -2000.0);
12:10:58:578;12:10:58:570;1448407617.15;(0.4289237976074219, 0.38794445461697047);56.1173439026;0.833337080296;;;;;;;;;;;;;;0;0;0;0;0;0;0;0;0;();(-2000.0, -2000.0);
12:10:58:594;12:10:58:570;1448407617.15;(0.4289237976074219, 0.38794445461697047);56.1173439026;0.833337080296;;;;;;;;;;;;;;0;0;0;0;0;0;0;0;0;();(-2000.0, -2000.0);
12:10:58:611;12:10:58:570;1448407617.15;(0.4289237976074219, 0.38794445461697047);56.1173439026;0.833337080296;;;;;;;;;;;;;;0;0;0;0;0;0;0;0;0;();(-2000.0, -2000.0);
12:10:58:627;12:10:58:570;1448407617.15;(0.4289237976074219, 0.38794445461697047);56.1173439026;0.833337080296;;;;;;;;;;;;;;0;0;0;0;0;0;0;0;0;();(-2000.0, -2000.0);
12:10:58:661;12:10:58:638;1448407617.22;(0.42899479866027834, 0.388364495171441);56.3141479492;0.908481039874;;;;;;;;;;;;;;0;0;0;0;0;0;0;0;0;();(-2000.0, -2000.0);
12:10:58:678;12:10:58:638;1448407617.22;(0.42899479866027834, 0.388364495171441);56.3141479492;0.908481039874;;;;;;;;;;;;;;0;0;0;0;0;0;0;0;0;();(-2000.0, -2000.0);
12:10:58:694;12:10:58:638;1448407617.22;(0.42899479866027834, 0.388364495171441);56.3141479492;0.908481039874;;;;;;;;;;;;;;0;0;0;0;0;0;0;0;0;();(-2000.0, -2000.0);
12:10:58:711;12:10:58:701;1448407617.25;(0.4291196823120117, 0.3884777069091797);56.3060455322;0.871788308571;;;;;;;;;;;;;;0;0;0;0;0;0;0;0;0;();(-2000.0, -2000.0);
12:10:58:727;12:10:58:701;1448407617.25;(0.4291196823120117, 0.3884777069091797);56.3060455322;0.871788308571;;;;;;;;;;;;;;0;0;0;0;0;0;0;0;0;();(-2000.0, -2000.0);
12:10:58:761;12:10:58:701;1448407617.25;(0.4291196823120117, 0.3884777069091797);56.3060455322;0.871788308571;;;;;;;;;;;;;;0;0;0;0;0;0;0;0;0;();(-2000.0, -2000.0);
12:10:58:778;12:10:58:773;1448407617.35;(0.4393148899078369, 0.3847416347927517);55.9210853577;0.899508892909;;;;;;;;;;;;;;0;0;0;0;0;0;0;0;0;();(-2000.0, -2000.0);
12:10:58:795;12:10:58:773;1448407617.35;(0.4393148899078369, 0.3847416347927517);55.9210853577;0.899508892909;;;;;;;;;;;;;;0;0;0;0;0;0;0;0;0;();(-2000.0, -2000.0);
12:10:58:811;12:10:58:773;1448407617.35;(0.4393148899078369, 0.3847416347927517);55.9210853577;0.899508892909;;;;;;;;;;;;;;0;0;0;0;0;0;0;0;0;();(-2000.0, -2000.0);
12:10:58:828;12:10:58:773;1448407617.35;(0.4393148899078369, 0.3847416347927517);55.9210853577;0.899508892909;;;;;;;;;;;;;;0;0;0;0;0;0;0;0;0;();(-2000.0, -2000.0);
12:10:58:861;12:10:58:834;1448407617.42;(0.43913822174072265, 0.3858710394965278);55.7051811218;0.879539836751;;;;;;;;;;;;;;0;0;0;0;0;0;0;0;0;();(-2000.0, -2000.0);
12:10:58:878;12:10:58:834;1448407617.42;(0.43913822174072265, 0.3858710394965278);55.7051811218;0.879539836751;;;;;;;;;;;;;;0;0;0;0;0;0;0;0;0;();(-2000.0, -2000.0);
12:10:58:895;12:10:58:834;1448407617.42;(0.43913822174072265, 0.3858710394965278);55.7051811218;0.879539836751;;;;;;;;;;;;;;0;0;0;0;0;0;0;0;0;();(-2000.0, -2000.0);
12:10:58:911;12:10:58:903;1448407617.49;(0.43931355476379397, 0.3860998365614149);55.5134048462;0.909848595385;;;;;;;;;;;;;;0;0;0;0;0;0;0;0;0;();(-2000.0, -2000.0);
12:10:58:928;12:10:58:903;1448407617.49;(0.43931355476379397, 0.3860998365614149);55.5134048462;0.909848595385;;;;;;;;;;;;;;0;0;0;0;0;0;0;0;0;();(-2000.0, -2000.0);
12:10:58:961;12:10:58:903;1448407617.49;(0.43931355476379397, 0.3860998365614149);55.5134048462;0.909848595385;;;;;;;;;;;;;;0;0;0;0;0;0;0;0;0;();(-2000.0, -2000.0);
12:10:58:979;12:10:58:971;1448407617.55;(0.4393312454223633, 0.38575405544704866);55.537021637;0.89585628798;;;;;;;;;;;;;;0;0;0;0;0;0;0;0;0;();(-2000.0, -2000.0);
12:10:58:996;12:10:58:971;1448407617.55;(0.4393312454223633, 0.38575405544704866);55.537021637;0.89585628798;;;;;;;;;;;;;;0;0;0;0;0;0;0;0;0;();(-2000.0, -2000.0);
12:10:59:012;12:10:58:971;1448407617.55;(0.4393312454223633, 0.38575405544704866);55.537021637;0.89585628798;;;;;;;;;;;;;;0;0;0;0;0;0;0;0;0;();(-2000.0, -2000.0);
12:10:59:029;12:10:58:971;1448407617.55;(0.4393312454223633, 0.38575405544704866);55.537021637;0.89585628798;;;;;;;;;;;;;;0;0;0;0;0;0;0;0;0;();(-2000.0, -2000.0);
12:10:59:062;12:10:59:038;1448407617.62;(0.4395777702331543, 0.3856503804524739);55.5437850952;0.866239201799;;;;;;;;;;;;;;0;0;0;0;0;0;0;0;0;();(-2000.0, -2000.0);
12:10:59:080;12:10:59:038;1448407617.62;(0.4395777702331543, 0.3856503804524739);55.5437850952;0.866239201799;;;;;;;;;;;;;;0;0;0;0;0;0;0;0;0;();(-2000.0, -2000.0);
12:10:59:095;12:10:59:038;1448407617.62;(0.4395777702331543, 0.3856503804524739);55.5437850952;0.866239201799;;;;;;;;;;;;;;0;0;0;0;0;0;0;0;0;();(-2000.0, -2000.0);
12:10:59:112;12:10:59:103;1448407617.69;(0.43884668350219724, 0.38530091179741754);55.5545043945;0.816756872292;;;;;;;;;;;;;;0;0;0;0;0;0;0;0;0;();(-2000.0, -2000.0);
12:10:59:128;12:10:59:103;1448407617.69;(0.43884668350219724, 0.38530091179741754);55.5545043945;0.816756872292;;;;;;;;;;;;;;0;0;0;0;0;0;0;0;0;();(-2000.0, -2000.0);
12:10:59:161;12:10:59:103;1448407617.69;(0.43884668350219724, 0.38530091179741754);55.5545043945;0.816756872292;;;;;;;;;;;;;;0;0;0;0;0;0;0;0;0;();(-2000.0, -2000.0);
12:10:59:178;12:10:59:165;1448407617.72;(0.4135627269744873, 0.37177963256835933);56.8543777466;0.888810240778;;;;;;;;;;;;;;0;0;0;0;0;0;0;0;0;();(-2000.0, -2000.0);
12:10:59:195;12:10:59:165;1448407617.72;(0.4135627269744873, 0.37177963256835933);56.8543777466;0.888810240778;;;;;;;;;;;;;;0;0;0;0;0;0;0;0;0;();(-2000.0, -2000.0);
12:10:59:212;12:10:59:165;1448407617.72;(0.4135627269744873, 0.37177963256835933);56.8543777466;0.888810240778;;;;;;;;;;;;;;0;0;0;0;0;0;0;0;0;();(-2000.0, -2000.0);
12:10:59:228;12:10:59:165;1448407617.72;(0.4135627269744873, 0.37177963256835933);56.8543777466;0.888810240778;;;;;;;;;;;;;;0;0;0;0;0;0;0;0;0;();(-2000.0, -2000.0);
12:10:59:261;12:10:59:236;1448407617.82;(0.40887022018432617, 0.3715671963161893);56.864074707;0.986927143782;;;;;;;;;;;;;;0;0;0;0;0;0;0;0;0;();(-2000.0, -2000.0);
12:10:59:278;12:10:59:236;1448407617.82;(0.40887022018432617, 0.3715671963161893);56.864074707;0.986927143782;;;;;;;;;;;;;;0;0;0;0;0;0;0;0;0;();(-2000.0, -2000.0);
12:10:59:295;12:10:59:236;1448407617.82;(0.40887022018432617, 0.3715671963161893);56.864074707;0.986927143782;;;;;;;;;;;;;;0;0;0;0;0;0;0;0;0;();(-2000.0, -2000.0);
12:10:59:311;12:10:59:301;1448407617.85;(0.40856945514678955, 0.37152879503038194);56.9804840088;0.956384380839;;;;;;;;;;;;;;0;0;0;0;0;0;0;0;0;();(-2000.0, -2000.0);
12:10:59:328;12:10:59:301;1448407617.85;(0.40856945514678955, 0.37152879503038194);56.9804840088;0.956384380839;;;;;;;;;;;;;;0;0;0;0;0;0;0;0;0;();(-2000.0, -2000.0);
12:10:59:362;12:10:59:301;1448407617.85;(0.40856945514678955, 0.37152879503038194);56.9804840088;0.956384380839;;;;;;;;;;;;;;0;0;0;0;0;0;0;0;0;();(-2000.0, -2000.0);
12:10:59:378;12:10:59:368;1448407617.95;(0.40890414714813234, 0.37264684041341145);57.0221824646;0.963915768557;;;;;;;;;;;;;;0;0;0;0;0;0;0;0;0;();(-2000.0, -2000.0);
12:10:59:395;12:10:59:368;1448407617.95;(0.40890414714813234, 0.37264684041341145);57.0221824646;0.963915768557;;;;;;;;;;;;;;0;0;0;0;0;0;0;0;0;();(-2000.0, -2000.0);
12:10:59:412;12:10:59:368;1448407617.95;(0.40890414714813234, 0.37264684041341145);57.0221824646;0.963915768557;;;;;;;;;;;;;;0;0;0;0;0;0;0;0;0;();(-2000.0, -2000.0);
12:10:59:428;12:10:59:368;1448407617.95;(0.40890414714813234, 0.37264684041341145);57.0221824646;0.963915768557;;;;;;;;;;;;;;0;0;0;0;0;0;0;0;0;();(-2000.0, -2000.0);
12:10:59:462;12:10:59:435;1448407618.02;(0.4090206861495972, 0.37340982225206165);56.9438438416;0.935005032446;;;;;;;;;;;;;;0;0;0;0;0;0;0;0;0;();(-2000.0, -2000.0);
12:10:59:478;12:10:59:435;1448407618.02;(0.4090206861495972, 0.37340982225206165);56.9438438416;0.935005032446;;;;;;;;;;;;;;0;0;0;0;0;0;0;0;0;();(-2000.0, -2000.0);
12:10:59:495;12:10:59:435;1448407618.02;(0.4090206861495972, 0.37340982225206165);56.9438438416;0.935005032446;;;;;;;;;;;;;;0;0;0;0;0;0;0;0;0;();(-2000.0, -2000.0);
12:10:59:511;12:10:59:499;1448407618.05;(0.409187912940979, 0.37345564100477435);56.6135520935;0.938186669949;;;;;;;;;;;;;;0;0;0;0;0;0;0;0;0;();(-2000.0, -2000.0);
12:10:59:529;12:10:59:499;1448407618.05;(0.409187912940979, 0.37345564100477435);56.6135520935;0.938186669949;;;;;;;;;;;;;;0;0;0;0;0;0;0;0;0;();(-2000.0, -2000.0);
12:10:59:562;12:10:59:499;1448407618.05;(0.409187912940979, 0.37345564100477435);56.6135520935;0.938186669949;;;;;;;;;;;;;;0;0;0;0;0;0;0;0;0;();(-2000.0, -2000.0);
12:10:59:580;12:10:59:568;1448407618.15;(0.41013002395629883, 0.3723342895507813);56.7661857605;0.951155912019;;;;;;;;;;;;;;0;0;0;0;0;0;0;0;0;();(-2000.0, -2000.0);
12:10:59:595;12:10:59:568;1448407618.15;(0.41013002395629883, 0.3723342895507813);56.7661857605;0.951155912019;;;;;;;;;;;;;;0;0;0;0;0;0;0;0;0;();(-2000.0, -2000.0);
12:10:59:612;12:10:59:568;1448407618.15;(0.41013002395629883, 0.3723342895507813);56.7661857605;0.951155912019;;;;;;;;;;;;;;0;0;0;0;0;0;0;0;0;();(-2000.0, -2000.0);
12:10:59:628;12:10:59:568;1448407618.15;(0.41013002395629883, 0.3723342895507813);56.7661857605;0.951155912019;;;;;;;;;;;;;;0;0;0;0;0;0;0;0;0;();(-2000.0, -2000.0);
12:10:59:662;12:10:59:634;1448407618.19;(0.39826536178588867, 0.37248586018880203);57.1232643127;0.858496379134;;;;;;;;;;;;;;0;0;0;0;0;0;0;0;0;();(-2000.0, -2000.0);
12:10:59:679;12:10:59:634;1448407618.19;(0.39826536178588867, 0.37248586018880203);57.1232643127;0.858496379134;;;;;;;;;;;;;;0;0;0;0;0;0;0;0;0;();(-2000.0, -2000.0);
12:10:59:695;12:10:59:634;1448407618.19;(0.39826536178588867, 0.37248586018880203);57.1232643127;0.858496379134;;;;;;;;;;;;;;0;0;0;0;0;0;0;0;0;();(-2000.0, -2000.0);
12:10:59:712;12:10:59:701;1448407618.29;(0.3955713987350464, 0.3741188473171658);56.9730110168;0.950769362174;;;;;;;;;;;;;;0;0;0;0;0;0;0;0;0;();(-2000.0, -2000.0);
12:10:59:728;12:10:59:701;1448407618.29;(0.3955713987350464, 0.3741188473171658);56.9730110168;0.950769362174;;;;;;;;;;;;;;0;0;0;0;0;0;0;0;0;();(-2000.0, -2000.0);
12:10:59:761;12:10:59:701;1448407618.29;(0.3955713987350464, 0.3741188473171658);56.9730110168;0.950769362174;;;;;;;;;;;;;;0;0;0;0;0;0;0;0;0;();(-2000.0, -2000.0);
12:10:59:780;12:10:59:766;1448407618.32;(0.39548239707946775, 0.37429873148600257);56.9904212952;0.923909740839;;;;;;;;;;;;;;0;0;0;0;0;0;0;0;0;();(-2000.0, -2000.0);
12:10:59:795;12:10:59:766;1448407618.32;(0.39548239707946775, 0.37429873148600257);56.9904212952;0.923909740839;;;;;;;;;;;;;;0;0;0;0;0;0;0;0;0;();(-2000.0, -2000.0);
12:10:59:812;12:10:59:766;1448407618.32;(0.39548239707946775, 0.37429873148600257);56.9904212952;0.923909740839;;;;;;;;;;;;;;0;0;0;0;0;0;0;0;0;();(-2000.0, -2000.0);
12:10:59:828;12:10:59:766;1448407618.32;(0.39548239707946775, 0.37429873148600257);56.9904212952;0.923909740839;;;;;;;;;;;;;;0;0;0;0;0;0;0;0;0;();(-2000.0, -2000.0);
12:10:59:862;12:10:59:834;1448407618.42;(0.39553251266479494, 0.37430356343587234);57.5624046326;0.908318234854;;;;;;;;;;;;;;0;0;0;0;0;0;0;0;0;();(-2000.0, -2000.0);
12:10:59:879;12:10:59:834;1448407618.42;(0.39553251266479494, 0.37430356343587234);57.5624046326;0.908318234854;;;;;;;;;;;;;;0;0;0;0;0;0;0;0;0;();(-2000.0, -2000.0);
12:10:59:895;12:10:59:834;1448407618.42;(0.39553251266479494, 0.37430356343587234);57.5624046326;0.908318234854;;;;;;;;;;;;;;0;0;0;0;0;0;0;0;0;();(-2000.0, -2000.0);
12:10:59:912;12:10:59:900;1448407618.49;(0.3960262298583984, 0.3740520901150174);57.9336624146;0.935812777967;;;;;;;;;;;;;;0;0;0;0;0;0;0;0;0;();(-2000.0, -2000.0);
12:10:59:928;12:10:59:900;1448407618.49;(0.3960262298583984, 0.3740520901150174);57.9336624146;0.935812777967;;;;;;;;;;;;;;0;0;0;0;0;0;0;0;0;();(-2000.0, -2000.0);
12:10:59:963;12:10:59:961;1448407618.52;(0.3961064577102661, 0.374596193101671);58.257648468;0.910868371633;;;;;;;;;;;;;;0;0;0;0;0;0;0;0;0;();(-2000.0, -2000.0);
12:10:59:978;12:10:59:961;1448407618.52;(0.3961064577102661, 0.374596193101671);58.257648468;0.910868371633;;;;;;;;;;;;;;0;0;0;0;0;0;0;0;0;();(-2000.0, -2000.0);
12:10:59:996;12:10:59:961;1448407618.52;(0.3961064577102661, 0.374596193101671);58.257648468;0.910868371633;;;;;;;;;;;;;;0;0;0;0;0;0;0;0;0;();(-2000.0, -2000.0);
12:11:00:012;12:10:59:961;1448407618.52;(0.3961064577102661, 0.374596193101671);58.257648468;0.910868371633;;;;;;;;;;;;;;0;0;0;0;0;0;0;0;0;();(-2000.0, -2000.0);
12:11:00:030;12:10:59:961;1448407618.52;(0.3961064577102661, 0.374596193101671);58.257648468;0.910868371633;;;;;;;;;;;;;;0;0;0;0;0;0;0;0;0;();(-2000.0, -2000.0);
12:11:00:062;12:11:00:031;1448407618.59;(0.43087191581726075, 0.37175081041124136);60.923789978;0.844280858059;;;;;;;;;;;;;;0;0;0;0;0;0;0;0;0;();(-2000.0, -2000.0);
12:11:00:079;12:11:00:031;1448407618.59;(0.43087191581726075, 0.37175081041124136);60.923789978;0.844280858059;;;;;;;;;;;;;;0;0;0;0;0;0;0;0;0;();(-2000.0, -2000.0);
12:11:00:095;12:11:00:031;1448407618.59;(0.43087191581726075, 0.37175081041124136);60.923789978;0.844280858059;;;;;;;;;;;;;;0;0;0;0;0;0;0;0;0;();(-2000.0, -2000.0);
12:11:00:112;12:11:00:101;1448407618.69;(0.4294616937637329, 0.3807224273681641);58.3737640381;0.889942639277;;;;;;;;;;;;;;0;0;0;0;0;0;0;0;0;();(-2000.0, -2000.0);
12:11:00:129;12:11:00:101;1448407618.69;(0.4294616937637329, 0.3807224273681641);58.3737640381;0.889942639277;;;;;;;;;;;;;;0;0;0;0;0;0;0;0;0;();(-2000.0, -2000.0);
12:11:00:163;12:11:00:161;1448407618.72;(0.4290492057800293, 0.38149257236056855);58.1314620972;0.916954170967;;;;;;;;;;;;;;0;0;0;0;0;0;0;0;0;();(-2000.0, -2000.0);
12:11:00:179;12:11:00:161;1448407618.72;(0.4290492057800293, 0.38149257236056855);58.1314620972;0.916954170967;;;;;;;;;;;;;;0;0;0;0;0;0;0;0;0;();(-2000.0, -2000.0);
12:11:00:197;12:11:00:161;1448407618.72;(0.4290492057800293, 0.38149257236056855);58.1314620972;0.916954170967;;;;;;;;;;;;;;0;0;0;0;0;0;0;0;0;();(-2000.0, -2000.0);
12:11:00:214;12:11:00:161;1448407618.72;(0.4290492057800293, 0.38149257236056855);58.1314620972;0.916954170967;;;;;;;;;;;;;;0;0;0;0;0;0;0;0;0;();(-2000.0, -2000.0);
12:11:00:230;12:11:00:161;1448407618.72;(0.4290492057800293, 0.38149257236056855);58.1314620972;0.916954170967;;;;;;;;;;;;;;0;0;0;0;0;0;0;0;0;();(-2000.0, -2000.0);
12:11:00:246;12:11:00:235;1448407618.79;(0.4289358854293823, 0.38159959581163194);58.4486846924;0.895494352809;;;;;;;;;;;;;;0;0;0;0;0;0;0;0;0;();(-2000.0, -2000.0);
12:11:00:279;12:11:00:235;1448407618.79;(0.4289358854293823, 0.38159959581163194);58.4486846924;0.895494352809;;;;;;;;;;;;;;0;0;0;0;0;0;0;0;0;();(-2000.0, -2000.0);
12:11:00:297;12:11:00:294;1448407618.85;(0.4288654804229736, 0.3819750891791449);58.3272323608;0.898591890737;;;;;;;;;;;;;;0;0;0;0;0;0;0;0;0;();(-2000.0, -2000.0);
12:11:00:314;12:11:00:294;1448407618.85;(0.4288654804229736, 0.3819750891791449);58.3272323608;0.898591890737;;;;;;;;;;;;;;0;0;0;0;0;0;0;0;0;();(-2000.0, -2000.0);
12:11:00:329;12:11:00:294;1448407618.85;(0.4288654804229736, 0.3819750891791449);58.3272323608;0.898591890737;;;;;;;;;;;;;;0;0;0;0;0;0;0;0;0;();(-2000.0, -2000.0);
12:11:00:347;12:11:00:294;1448407618.85;(0.4288654804229736, 0.3819750891791449);58.3272323608;0.898591890737;;;;;;;;;;;;;;0;0;0;0;0;0;0;0;0;();(-2000.0, -2000.0);
12:11:00:380;12:11:00:364;1448407618.92;(0.442567777633667, 0.37572301228841143);59.7485351562;0.821270564055;;;;;;;;;;;;;;0;0;0;0;0;0;0;0;0;();(-2000.0, -2000.0);
12:11:00:397;12:11:00:364;1448407618.92;(0.442567777633667, 0.37572301228841143);59.7485351562;0.821270564055;;;;;;;;;;;;;;0;0;0;0;0;0;0;0;0;();(-2000.0, -2000.0);
12:11:00:413;12:11:00:364;1448407618.92;(0.442567777633667, 0.37572301228841143);59.7485351562;0.821270564055;;;;;;;;;;;;;;0;0;0;0;0;0;0;0;0;();(-2000.0, -2000.0);
12:11:00:432;12:11:00:430;1448407618.99;(0.442565393447876, 0.3754837459988064);59.9854812622;0.788205826026;;;;;;;;;;;;;;0;0;0;0;0;0;0;0;0;();(-2000.0, -2000.0);
12:11:00:447;12:11:00:430;1448407618.99;(0.442565393447876, 0.3754837459988064);59.9854812622;0.788205826026;;;;;;;;;;;;;;0;0;0;0;0;0;0;0;0;();(-2000.0, -2000.0);
12:11:00:480;12:11:00:430;1448407618.99;(0.442565393447876, 0.3754837459988064);59.9854812622;0.788205826026;;;;;;;;;;;;;;0;0;0;0;0;0;0;0;0;();(-2000.0, -2000.0);
12:11:00:497;12:11:00:496;1448407619.05;(0.43996334075927734, 0.3852256351047092);57.604549408;0.7779538271;;;;;;;;;;;;;;0;0;0;0;0;0;0;0;0;();(-2000.0, -2000.0);
12:11:00:513;12:11:00:496;1448407619.05;(0.43996334075927734, 0.3852256351047092);57.604549408;0.7779538271;;;;;;;;;;;;;;0;0;0;0;0;0;0;0;0;();(-2000.0, -2000.0);
12:11:00:530;12:11:00:496;1448407619.05;(0.43996334075927734, 0.3852256351047092);57.604549408;0.7779538271;;;;;;;;;;;;;;0;0;0;0;0;0;0;0;0;();(-2000.0, -2000.0);
12:11:00:547;12:11:00:496;1448407619.05;(0.43996334075927734, 0.3852256351047092);57.604549408;0.7779538271;;;;;;;;;;;;;;0;0;0;0;0;0;0;0;0;();(-2000.0, -2000.0);
12:11:00:580;12:11:00:565;1448407619.12;(0.4393443584442139, 0.38600518968370223);58.5946769714;0.749075558942;;;;;;;;;;;;;;0;0;0;0;0;0;0;0;0;();(-2000.0, -2000.0);
12:11:00:596;12:11:00:565;1448407619.12;(0.4393443584442139, 0.38600518968370223);58.5946769714;0.749075558942;;;;;;;;;;;;;;0;0;0;0;0;0;0;0;0;();(-2000.0, -2000.0);
12:11:00:612;12:11:00:565;1448407619.12;(0.4393443584442139, 0.38600518968370223);58.5946769714;0.749075558942;;;;;;;;;;;;;;0;0;0;0;0;0;0;0;0;();(-2000.0, -2000.0);
12:11:00:630;12:11:00:627;1448407619.19;(0.4392648696899414, 0.3860053168402777);59.3921127319;0.841045666564;;;;;;;;;;;;;;0;0;0;0;0;0;0;0;0;();(-2000.0, -2000.0);
12:11:00:647;12:11:00:627;1448407619.19;(0.4392648696899414, 0.3860053168402777);59.3921127319;0.841045666564;;;;;;;;;;;;;;0;0;0;0;0;0;0;0;0;();(-2000.0, -2000.0);
12:11:00:680;12:11:00:627;1448407619.19;(0.4392648696899414, 0.3860053168402777);59.3921127319;0.841045666564;;;;;;;;;;;;;;0;0;0;0;0;0;0;0;0;();(-2000.0, -2000.0);
12:11:00:697;12:11:00:695;1448407619.25;(0.4398465156555176, 0.3864966922336155);59.323802948;0.869632465305;;;;;;;;;;;;;;0;0;0;0;0;0;0;0;0;();(-2000.0, -2000.0);
12:11:00:713;12:11:00:695;1448407619.25;(0.4398465156555176, 0.3864966922336155);59.323802948;0.869632465305;;;;;;;;;;;;;;0;0;0;0;0;0;0;0;0;();(-2000.0, -2000.0);
12:11:00:730;12:11:00:695;1448407619.25;(0.4398465156555176, 0.3864966922336155);59.323802948;0.869632465305;;;;;;;;;;;;;;0;0;0;0;0;0;0;0;0;();(-2000.0, -2000.0);
12:11:00:746;12:11:00:695;1448407619.25;(0.4398465156555176, 0.3864966922336155);59.323802948;0.869632465305;;;;;;;;;;;;;;0;0;0;0;0;0;0;0;0;();(-2000.0, -2000.0);
12:11:00:779;12:11:00:763;1448407619.32;(0.4398787021636963, 0.38659324645996096);59.5602378845;0.85404457515;;;;;;;;;;;;;;0;0;0;0;0;0;0;0;0;();(-2000.0, -2000.0);
12:11:00:796;12:11:00:763;1448407619.32;(0.4398787021636963, 0.38659324645996096);59.5602378845;0.85404457515;;;;;;;;;;;;;;0;0;0;0;0;0;0;0;0;();(-2000.0, -2000.0);
12:11:00:814;12:11:00:763;1448407619.32;(0.4398787021636963, 0.38659324645996096);59.5602378845;0.85404457515;;;;;;;;;;;;;;0;0;0;0;0;0;0;0;0;();(-2000.0, -2000.0);
12:11:00:831;12:11:00:829;1448407619.35;(0.43968629837036133, 0.3864397684733073);59.4841423035;0.861637234165;;;;;;;;;;;;;;0;0;0;0;0;0;0;0;0;();(-2000.0, -2000.0);
12:11:00:846;12:11:00:830;1448407619.38;(0.4410225868225098, 0.3745493570963542);60.96900177;0.867663287782;;;;;;;;;;;;;;0;0;0;0;0;0;0;0;0;();(-2000.0, -2000.0);
12:11:00:881;12:11:00:830;1448407619.38;(0.4410225868225098, 0.3745493570963542);60.96900177;0.867663287782;;;;;;;;;;;;;;0;0;0;0;0;0;0;0;0;();(-2000.0, -2000.0);
12:11:00:898;12:11:00:896;1448407619.48;(0, 0);0;0;;;;;;;;;;;;;;0;0;0;0;0;0;0;0;0;();(-2000.0, -2000.0);
12:11:00:913;12:11:00:896;1448407619.48;(0, 0);0;0;;;;;;;;;;;;;;0;0;0;0;0;0;0;0;0;();(-2000.0, -2000.0);
12:11:00:931;12:11:00:896;1448407619.48;(0, 0);0;0;;;;;;;;;;;;;;0;0;0;0;0;0;0;0;0;();(-2000.0, -2000.0);
12:11:00:947;12:11:00:896;1448407619.48;(0, 0);0;0;;;;;;;;;;;;;;0;0;0;0;0;0;0;0;0;();(-2000.0, -2000.0);
12:11:00:980;12:11:00:957;1448407619.52;(0.44375247955322267, 0.3821496751573351);59.2090797424;0.798634809233;;;;;;;;;;;;;;0;0;0;0;0;0;0;0;0;();(-2000.0, -2000.0);
12:11:00:997;12:11:00:957;1448407619.52;(0.44375247955322267, 0.3821496751573351);59.2090797424;0.798634809233;;;;;;;;;;;;;;0;0;0;0;0;0;0;0;0;();(-2000.0, -2000.0);
12:11:01:014;12:11:00:957;1448407619.52;(0.44375247955322267, 0.3821496751573351);59.2090797424;0.798634809233;;;;;;;;;;;;;;0;0;0;0;0;0;0;0;0;();(-2000.0, -2000.0);
12:11:01:031;12:11:00:957;1448407619.52;(0.44375247955322267, 0.3821496751573351);59.2090797424;0.798634809233;;;;;;;;;;;;;;0;0;0;0;0;0;0;0;0;();(-2000.0, -2000.0);
12:11:01:047;12:11:01:043;1448407619.58;(0.4448974609375, 0.3830126020643446);58.9615364075;0.855350621669;;;;;;;;;;;;;;0;0;0;0;0;0;0;0;0;();(-2000.0, -2000.0);
12:11:01:080;12:11:01:043;1448407619.58;(0.4448974609375, 0.3830126020643446);58.9615364075;0.855350621669;;;;;;;;;;;;;;0;0;0;0;0;0;0;0;0;();(-2000.0, -2000.0);
12:11:01:099;12:11:01:096;1448407619.68;(0.44464731216430664, 0.3844587537977431);58.8124923706;0.856620039508;;;;;;;;;;;;;;0;0;0;0;0;0;0;0;0;();(-2000.0, -2000.0);
12:11:01:114;12:11:01:096;1448407619.68;(0.44464731216430664, 0.3844587537977431);58.8124923706;0.856620039508;;;;;;;;;;;;;;0;0;0;0;0;0;0;0;0;();(-2000.0, -2000.0);
12:11:01:131;12:11:01:096;1448407619.68;(0.44464731216430664, 0.3844587537977431);58.8124923706;0.856620039508;;;;;;;;;;;;;;0;0;0;0;0;0;0;0;0;();(-2000.0, -2000.0);
12:11:01:147;12:11:01:096;1448407619.68;(0.44464731216430664, 0.3844587537977431);58.8124923706;0.856620039508;;;;;;;;;;;;;;0;0;0;0;0;0;0;0;0;();(-2000.0, -2000.0);
12:11:01:180;12:11:01:157;1448407619.72;(0.4446676254272461, 0.3842319064670139);58.5802307129;0.853173799685;;;;;;;;;;;;;;0;0;0;0;0;0;0;0;0;();(-2000.0, -2000.0);
12:11:01:197;12:11:01:157;1448407619.72;(0.4446676254272461, 0.3842319064670139);58.5802307129;0.853173799685;;;;;;;;;;;;;;0;0;0;0;0;0;0;0;0;();(-2000.0, -2000.0);
12:11:01:214;12:11:01:157;1448407619.72;(0.4446676254272461, 0.3842319064670139);58.5802307129;0.853173799685;;;;;;;;;;;;;;0;0;0;0;0;0;0;0;0;();(-2000.0, -2000.0);
12:11:01:231;12:11:01:227;1448407619.78;(0.4443813323974609, 0.3844031439887152);58.5996208191;0.890952511003;;;;;;;;;;;;;;0;0;0;0;0;0;0;0;0;();(-2000.0, -2000.0);
12:11:01:248;12:11:01:227;1448407619.78;(0.4443813323974609, 0.3844031439887152);58.5996208191;0.890952511003;;;;;;;;;;;;;;0;0;0;0;0;0;0;0;0;();(-2000.0, -2000.0);
12:11:01:281;12:11:01:227;1448407619.78;(0.4443813323974609, 0.3844031439887152);58.5996208191;0.890952511003;;;;;;;;;;;;;;0;0;0;0;0;0;0;0;0;();(-2000.0, -2000.0);
12:11:01:298;12:11:01:291;1448407619.85;(0.44778122901916506, 0.38333880106608076);57.8687667847;0.849863547984;;;;;;;;;;;;;;0;0;0;0;0;0;0;0;0;();(-2000.0, -2000.0);
12:11:01:313;12:11:01:291;1448407619.85;(0.44778122901916506, 0.38333880106608076);57.8687667847;0.849863547984;;;;;;;;;;;;;;0;0;0;0;0;0;0;0;0;();(-2000.0, -2000.0);
12:11:01:331;12:11:01:291;1448407619.85;(0.44778122901916506, 0.38333880106608076);57.8687667847;0.849863547984;;;;;;;;;;;;;;0;0;0;0;0;0;0;0;0;();(-2000.0, -2000.0);
12:11:01:347;12:11:01:291;1448407619.85;(0.44778122901916506, 0.38333880106608076);57.8687667847;0.849863547984;;;;;;;;;;;;;;0;0;0;0;0;0;0;0;0;();(-2000.0, -2000.0);
12:11:01:381;12:11:01:359;1448407619.92;(0.4476758003234863, 0.38399747212727864);58.2042541504;0.900570212132;;;;;;;;;;;;;;0;0;0;0;0;0;0;0;0;();(-2000.0, -2000.0);
12:11:01:397;12:11:01:359;1448407619.92;(0.4476758003234863, 0.38399747212727864);58.2042541504;0.900570212132;;;;;;;;;;;;;;0;0;0;0;0;0;0;0;0;();(-2000.0, -2000.0);
12:11:01:413;12:11:01:359;1448407619.92;(0.4476758003234863, 0.38399747212727864);58.2042541504;0.900570212132;;;;;;;;;;;;;;0;0;0;0;0;0;0;0;0;();(-2000.0, -2000.0);
12:11:01:431;12:11:01:428;1448407619.98;(0.44771552085876465, 0.3839396582709418);57.8182907104;0.873326977926;;;;;;;;;;;;;;0;0;0;0;0;0;0;0;0;();(-2000.0, -2000.0);
12:11:01:448;12:11:01:428;1448407619.98;(0.44771552085876465, 0.3839396582709418);57.8182907104;0.873326977926;;;;;;;;;;;;;;0;0;0;0;0;0;0;0;0;();(-2000.0, -2000.0);
12:11:01:480;12:11:01:428;1448407619.98;(0.44771552085876465, 0.3839396582709418);57.8182907104;0.873326977926;;;;;;;;;;;;;;0;0;0;0;0;0;0;0;0;();(-2000.0, -2000.0);
12:11:01:497;12:11:01:490;1448407620.05;(0.7769725322723389, 0.38352661132812504);40.6575012207;0.627203745834;;;;;;;;;;;;;;0;0;0;0;0;0;0;0;0;();(-2000.0, -2000.0);
12:11:01:514;12:11:01:490;1448407620.05;(0.7769725322723389, 0.38352661132812504);40.6575012207;0.627203745834;;;;;;;;;;;;;;0;0;0;0;0;0;0;0;0;();(-2000.0, -2000.0);
12:11:01:531;12:11:01:490;1448407620.05;(0.7769725322723389, 0.38352661132812504);40.6575012207;0.627203745834;;;;;;;;;;;;;;0;0;0;0;0;0;0;0;0;();(-2000.0, -2000.0);
12:11:01:548;12:11:01:490;1448407620.05;(0.7769725322723389, 0.38352661132812504);40.6575012207;0.627203745834;;;;;;;;;;;;;;0;0;0;0;0;0;0;0;0;();(-2000.0, -2000.0);
12:11:01:580;12:11:01:559;1448407620.12;(0.49718465805053713, 0.3931170569525825);56.9589653015;0.791672719088;;;;;;;;;;;;;;0;0;0;0;0;0;0;0;0;();(-2000.0, -2000.0);
12:11:01:598;12:11:01:559;1448407620.12;(0.49718465805053713, 0.3931170569525825);56.9589653015;0.791672719088;;;;;;;;;;;;;;0;0;0;0;0;0;0;0;0;();(-2000.0, -2000.0);
12:11:01:614;12:11:01:559;1448407620.12;(0.49718465805053713, 0.3931170569525825);56.9589653015;0.791672719088;;;;;;;;;;;;;;0;0;0;0;0;0;0;0;0;();(-2000.0, -2000.0);
12:11:01:631;12:11:01:623;1448407620.18;(0.49766926765441893, 0.39463471306694875);56.2898330688;0.805697065013;;;;;;;;;;;;;;0;0;0;0;0;0;0;0;0;();(-2000.0, -2000.0);
12:11:01:647;12:11:01:623;1448407620.18;(0.49766926765441893, 0.39463471306694875);56.2898330688;0.805697065013;;;;;;;;;;;;;;0;0;0;0;0;0;0;0;0;();(-2000.0, -2000.0);
12:11:01:680;12:11:01:623;1448407620.18;(0.49766926765441893, 0.39463471306694875);56.2898330688;0.805697065013;;;;;;;;;;;;;;0;0;0;0;0;0;0;0;0;();(-2000.0, -2000.0);
12:11:01:698;12:11:01:690;1448407620.25;(0.4971012115478516, 0.39683206346299915);57.4327125549;0.901617106893;;;;;;;;;;;;;;0;0;0;0;0;0;0;0;0;();(-2000.0, -2000.0);
12:11:01:714;12:11:01:690;1448407620.25;(0.4971012115478516, 0.39683206346299915);57.4327125549;0.901617106893;;;;;;;;;;;;;;0;0;0;0;0;0;0;0;0;();(-2000.0, -2000.0);
12:11:01:730;12:11:01:690;1448407620.25;(0.4971012115478516, 0.39683206346299915);57.4327125549;0.901617106893;;;;;;;;;;;;;;0;0;0;0;0;0;0;0;0;();(-2000.0, -2000.0);
12:11:01:748;12:11:01:690;1448407620.25;(0.4971012115478516, 0.39683206346299915);57.4327125549;0.901617106893;;;;;;;;;;;;;;0;0;0;0;0;0;0;0;0;();(-2000.0, -2000.0);
12:11:01:781;12:11:01:758;1448407620.32;(0.4972280979156494, 0.39657948811848953);57.1761627197;0.863414644756;;;;;;;;;;;;;;0;0;0;0;0;0;0;0;0;();(-2000.0, -2000.0);
12:11:01:798;12:11:01:758;1448407620.32;(0.4972280979156494, 0.39657948811848953);57.1761627197;0.863414644756;;;;;;;;;;;;;;0;0;0;0;0;0;0;0;0;();(-2000.0, -2000.0);
12:11:01:813;12:11:01:758;1448407620.32;(0.4972280979156494, 0.39657948811848953);57.1761627197;0.863414644756;;;;;;;;;;;;;;0;0;0;0;0;0;0;0;0;();(-2000.0, -2000.0);
12:11:01:831;12:11:01:823;1448407620.38;(0.4999879837036133, 0.39775445726182723);55.8680648804;0.657247825131;;;;;;;;;;;;;;0;0;0;0;0;0;0;0;0;();(-2000.0, -2000.0);
12:11:01:847;12:11:01:823;1448407620.38;(0.4999879837036133, 0.39775445726182723);55.8680648804;0.657247825131;;;;;;;;;;;;;;0;0;0;0;0;0;0;0;0;();(-2000.0, -2000.0);
12:11:01:881;12:11:01:823;1448407620.38;(0.4999879837036133, 0.39775445726182723);55.8680648804;0.657247825131;;;;;;;;;;;;;;0;0;0;0;0;0;0;0;0;();(-2000.0, -2000.0);
12:11:01:899;12:11:01:896;1448407620.42;(0.5047523021697998, 0.38721466064453125);48.459903717;0.778174577146;;;;;;;;;;;;;;0;0;0;0;0;0;0;0;0;();(-2000.0, -2000.0);
12:11:01:915;12:11:01:898;1448407620.45;(0.499619722366333, 0.3984588623046875);56.4153900146;0.696076722119;;;;;;;;;;;;;;0;0;0;0;0;0;0;0;0;();(-2000.0, -2000.0);
12:11:01:932;12:11:01:898;1448407620.45;(0.499619722366333, 0.3984588623046875);56.4153900146;0.696076722119;;;;;;;;;;;;;;0;0;0;0;0;0;0;0;0;();(-2000.0, -2000.0);
12:11:01:948;12:11:01:898;1448407620.45;(0.499619722366333, 0.3984588623046875);56.4153900146;0.696076722119;;;;;;;;;;;;;;0;0;0;0;0;0;0;0;0;();(-2000.0, -2000.0);
12:11:01:981;12:11:01:968;1448407620.52;(0.5049154758453369, 0.38754772610134547);48.6805229187;0.770409292177;;;;;;;;;;;;;;0;0;0;0;0;0;0;0;0;();(-2000.0, -2000.0);
12:11:01:997;12:11:01:968;1448407620.52;(0.5049154758453369, 0.38754772610134547);48.6805229187;0.770409292177;;;;;;;;;;;;;;0;0;0;0;0;0;0;0;0;();(-2000.0, -2000.0);
12:11:02:014;12:11:01:968;1448407620.52;(0.5049154758453369, 0.38754772610134547);48.6805229187;0.770409292177;;;;;;;;;;;;;;0;0;0;0;0;0;0;0;0;();(-2000.0, -2000.0);
12:11:02:031;12:11:02:022;1448407620.58;(0.5045021533966064, 0.38800612555609804);48.4009399414;0.799678885229;;;;;;;;;;;;;;0;0;0;0;0;0;0;0;0;();(-2000.0, -2000.0);
12:11:02:047;12:11:02:022;1448407620.58;(0.5045021533966064, 0.38800612555609804);48.4009399414;0.799678885229;;;;;;;;;;;;;;0;0;0;0;0;0;0;0;0;();(-2000.0, -2000.0);
12:11:02:081;12:11:02:022;1448407620.58;(0.5045021533966064, 0.38800612555609804);48.4009399414;0.799678885229;;;;;;;;;;;;;;0;0;0;0;0;0;0;0;0;();(-2000.0, -2000.0);
12:11:02:098;12:11:02:091;1448407620.65;(0.5044844150543213, 0.38785358005099824);48.5605354309;0.762934992602;;;;;;;;;;;;;;0;0;0;0;0;0;0;0;0;();(-2000.0, -2000.0);
12:11:02:115;12:11:02:091;1448407620.65;(0.5044844150543213, 0.38785358005099824);48.5605354309;0.762934992602;;;;;;;;;;;;;;0;0;0;0;0;0;0;0;0;();(-2000.0, -2000.0);
12:11:02:131;12:11:02:091;1448407620.65;(0.5044844150543213, 0.38785358005099824);48.5605354309;0.762934992602;;;;;;;;;;;;;;0;0;0;0;0;0;0;0;0;();(-2000.0, -2000.0);
12:11:02:147;12:11:02:091;1448407620.65;(0.5044844150543213, 0.38785358005099824);48.5605354309;0.762934992602;;;;;;;;;;;;;;0;0;0;0;0;0;0;0;0;();(-2000.0, -2000.0);
12:11:02:181;12:11:02:154;1448407620.72;(0, 0);0;0;;;;;;;;;;;;;;0;0;0;0;0;0;0;0;0;();(-2000.0, -2000.0);
12:11:02:197;12:11:02:154;1448407620.72;(0, 0);0;0;;;;;;;;;;;;;;0;0;0;0;0;0;0;0;0;();(-2000.0, -2000.0);
12:11:02:214;12:11:02:154;1448407620.72;(0, 0);0;0;;;;;;;;;;;;;;0;0;0;0;0;0;0;0;0;();(-2000.0, -2000.0);
12:11:02:230;12:11:02:223;1448407620.78;(0.4949786186218262, 0.39265136718750004);55.6643714905;0.689979470467;;;;;;;;;;;;;;0;0;0;0;0;0;0;0;0;();(-2000.0, -2000.0);
12:11:02:247;12:11:02:223;1448407620.78;(0.4949786186218262, 0.39265136718750004);55.6643714905;0.689979470467;;;;;;;;;;;;;;0;0;0;0;0;0;0;0;0;();(-2000.0, -2000.0);
12:11:02:282;12:11:02:223;1448407620.78;(0.4949786186218262, 0.39265136718750004);55.6643714905;0.689979470467;;;;;;;;;;;;;;0;0;0;0;0;0;0;0;0;();(-2000.0, -2000.0);
12:11:02:298;12:11:02:287;1448407620.85;(0.49355545043945315, 0.3951870812310113);58.0016441345;0.693232293038;;;;;;;;;;;;;;0;0;0;0;0;0;0;0;0;();(-2000.0, -2000.0);
12:11:02:314;12:11:02:287;1448407620.85;(0.49355545043945315, 0.3951870812310113);58.0016441345;0.693232293038;;;;;;;;;;;;;;0;0;0;0;0;0;0;0;0;();(-2000.0, -2000.0);
12:11:02:331;12:11:02:287;1448407620.85;(0.49355545043945315, 0.3951870812310113);58.0016441345;0.693232293038;;;;;;;;;;;;;;0;0;0;0;0;0;0;0;0;();(-2000.0, -2000.0);
12:11:02:347;12:11:02:287;1448407620.85;(0.49355545043945315, 0.3951870812310113);58.0016441345;0.693232293038;;;;;;;;;;;;;;0;0;0;0;0;0;0;0;0;();(-2000.0, -2000.0);
12:11:02:381;12:11:02:354;1448407620.92;(0.4930835247039795, 0.39498981899685326);58.2633323669;0.788070430818;;;;;;;;;;;;;;0;0;0;0;0;0;0;0;0;();(-2000.0, -2000.0);
12:11:02:398;12:11:02:354;1448407620.92;(0.4930835247039795, 0.39498981899685326);58.2633323669;0.788070430818;;;;;;;;;;;;;;0;0;0;0;0;0;0;0;0;();(-2000.0, -2000.0);
12:11:02:414;12:11:02:354;1448407620.92;(0.4930835247039795, 0.39498981899685326);58.2633323669;0.788070430818;;;;;;;;;;;;;;0;0;0;0;0;0;0;0;0;();(-2000.0, -2000.0);
12:11:02:432;12:11:02:422;1448407620.98;(0.4943832874298096, 0.3928330739339193);56.3051681519;0.673452015744;;;;;;;;;;;;;;0;0;0;0;0;0;0;0;0;();(-2000.0, -2000.0);
12:11:02:448;12:11:02:422;1448407620.98;(0.4943832874298096, 0.3928330739339193);56.3051681519;0.673452015744;;;;;;;;;;;;;;0;0;0;0;0;0;0;0;0;();(-2000.0, -2000.0);
12:11:02:481;12:11:02:422;1448407620.98;(0.4943832874298096, 0.3928330739339193);56.3051681519;0.673452015744;;;;;;;;;;;;;;0;0;0;0;0;0;0;0;0;();(-2000.0, -2000.0);
12:11:02:498;12:11:02:486;1448407621.05;(0.4934410095214844, 0.3958220587836372);58.1524505615;0.669960550021;;;;;;;;;;;;;;0;0;0;0;0;0;0;0;0;();(-2000.0, -2000.0);
12:11:02:515;12:11:02:486;1448407621.05;(0.4934410095214844, 0.3958220587836372);58.1524505615;0.669960550021;;;;;;;;;;;;;;0;0;0;0;0;0;0;0;0;();(-2000.0, -2000.0);
12:11:02:532;12:11:02:486;1448407621.05;(0.4934410095214844, 0.3958220587836372);58.1524505615;0.669960550021;;;;;;;;;;;;;;0;0;0;0;0;0;0;0;0;();(-2000.0, -2000.0);
12:11:02:548;12:11:02:486;1448407621.05;(0.4934410095214844, 0.3958220587836372);58.1524505615;0.669960550021;;;;;;;;;;;;;;0;0;0;0;0;0;0;0;0;();(-2000.0, -2000.0);
12:11:02:581;12:11:02:555;1448407621.12;(0.39826948642730714, 0.5731353335910373);26.6910076141;0.62057560321;;;;;;;;;;;;;;0;0;0;0;0;0;0;0;0;();(-2000.0, -2000.0);
12:11:02:597;12:11:02:555;1448407621.12;(0.39826948642730714, 0.5731353335910373);26.6910076141;0.62057560321;;;;;;;;;;;;;;0;0;0;0;0;0;0;0;0;();(-2000.0, -2000.0);
12:11:02:614;12:11:02:555;1448407621.12;(0.39826948642730714, 0.5731353335910373);26.6910076141;0.62057560321;;;;;;;;;;;;;;0;0;0;0;0;0;0;0;0;();(-2000.0, -2000.0);
12:11:02:631;12:11:02:623;1448407621.18;(0.43477540016174315, 0.3763057708740234);57.5470161438;0.845136734168;;;;;;;;;;;;;;0;0;0;0;0;0;0;0;0;();(-2000.0, -2000.0);
12:11:02:647;12:11:02:623;1448407621.18;(0.43477540016174315, 0.3763057708740234);57.5470161438;0.845136734168;;;;;;;;;;;;;;0;0;0;0;0;0;0;0;0;();(-2000.0, -2000.0);
12:11:02:682;12:11:02:623;1448407621.18;(0.43477540016174315, 0.3763057708740234);57.5470161438;0.845136734168;;;;;;;;;;;;;;0;0;0;0;0;0;0;0;0;();(-2000.0, -2000.0);
12:11:02:699;12:11:02:687;1448407621.25;(0, 0);0;0;;;;;;;;;;;;;;0;0;0;0;0;0;0;0;0;();(-2000.0, -2000.0);
12:11:02:715;12:11:02:687;1448407621.25;(0, 0);0;0;;;;;;;;;;;;;;0;0;0;0;0;0;0;0;0;();(-2000.0, -2000.0);
12:11:02:731;12:11:02:687;1448407621.25;(0, 0);0;0;;;;;;;;;;;;;;0;0;0;0;0;0;0;0;0;();(-2000.0, -2000.0);
12:11:02:748;12:11:02:687;1448407621.25;(0, 0);0;0;;;;;;;;;;;;;;0;0;0;0;0;0;0;0;0;();(-2000.0, -2000.0);
12:11:02:782;12:11:02:755;1448407621.32;(0.43252527713775635, 0.37791731092664926);58.2796821594;0.844840745888;;;;;;;;;;;;;;0;0;0;0;0;0;0;0;0;();(-2000.0, -2000.0);
12:11:02:799;12:11:02:755;1448407621.32;(0.43252527713775635, 0.37791731092664926);58.2796821594;0.844840745888;;;;;;;;;;;;;;0;0;0;0;0;0;0;0;0;();(-2000.0, -2000.0);
12:11:02:815;12:11:02:755;1448407621.32;(0.43252527713775635, 0.37791731092664926);58.2796821594;0.844840745888;;;;;;;;;;;;;;0;0;0;0;0;0;0;0;0;();(-2000.0, -2000.0);
12:11:02:832;12:11:02:820;1448407621.38;(0.4326269865036011, 0.37820786370171444);58.2966995239;0.89158475251;;;;;;;;;;;;;;0;0;0;0;0;0;0;0;0;();(-2000.0, -2000.0);
12:11:02:847;12:11:02:820;1448407621.38;(0.4326269865036011, 0.37820786370171444);58.2966995239;0.89158475251;;;;;;;;;;;;;;0;0;0;0;0;0;0;0;0;();(-2000.0, -2000.0);
12:11:02:881;12:11:02:820;1448407621.38;(0.4326269865036011, 0.37820786370171444);58.2966995239;0.89158475251;;;;;;;;;;;;;;0;0;0;0;0;0;0;0;0;();(-2000.0, -2000.0);
12:11:02:898;12:11:02:886;1448407621.45;(0.3929358720779419, 0.36329303317599826);59.8575286865;0.891037237318;;;;;;;;;;;;;;0;0;0;0;0;0;0;0;0;();(-2000.0, -2000.0);
12:11:02:915;12:11:02:886;1448407621.45;(0.3929358720779419, 0.36329303317599826);59.8575286865;0.891037237318;;;;;;;;;;;;;;0;0;0;0;0;0;0;0;0;();(-2000.0, -2000.0);
12:11:02:931;12:11:02:886;1448407621.45;(0.3929358720779419, 0.36329303317599826);59.8575286865;0.891037237318;;;;;;;;;;;;;;0;0;0;0;0;0;0;0;0;();(-2000.0, -2000.0);
12:11:02:948;12:11:02:886;1448407621.45;(0.3929358720779419, 0.36329303317599826);59.8575286865;0.891037237318;;;;;;;;;;;;;;0;0;0;0;0;0;0;0;0;();(-2000.0, -2000.0);
12:11:02:982;12:11:02:953;1448407621.52;(0.3903541326522827, 0.3688588036431206);58.2789764404;0.868541442071;;;;;;;;;;;;;;0;0;0;0;0;0;0;0;0;();(-2000.0, -2000.0);
12:11:02:999;12:11:02:953;1448407621.52;(0.3903541326522827, 0.3688588036431206);58.2789764404;0.868541442071;;;;;;;;;;;;;;0;0;0;0;0;0;0;0;0;();(-2000.0, -2000.0);
12:11:03:016;12:11:02:953;1448407621.52;(0.3903541326522827, 0.3688588036431206);58.2789764404;0.868541442071;;;;;;;;;;;;;;0;0;0;0;0;0;0;0;0;();(-2000.0, -2000.0);
12:11:03:032;12:11:03:021;1448407621.58;(0.389792799949646, 0.3696009741889106);57.7040901184;0.942128843343;;;;;;;;;;;;;;0;0;0;0;0;0;0;0;0;();(-2000.0, -2000.0);
12:11:03:048;12:11:03:021;1448407621.58;(0.389792799949646, 0.3696009741889106);57.7040901184;0.942128843343;;;;;;;;;;;;;;0;0;0;0;0;0;0;0;0;();(-2000.0, -2000.0);
12:11:03:085;12:11:03:083;1448407621.65;(0.38959105014801027, 0.3696719275580512);57.3212928772;0.909114480929;;;;;;;;;;;;;;0;0;0;0;0;0;0;0;0;();(-2000.0, -2000.0);
12:11:03:098;12:11:03:083;1448407621.65;(0.38959105014801027, 0.3696719275580512);57.3212928772;0.909114480929;;;;;;;;;;;;;;0;0;0;0;0;0;0;0;0;();(-2000.0, -2000.0);
12:11:03:115;12:11:03:083;1448407621.65;(0.38959105014801027, 0.3696719275580512);57.3212928772;0.909114480929;;;;;;;;;;;;;;0;0;0;0;0;0;0;0;0;();(-2000.0, -2000.0);
12:11:03:132;12:11:03:083;1448407621.65;(0.38959105014801027, 0.3696719275580512);57.3212928772;0.909114480929;;;;;;;;;;;;;;0;0;0;0;0;0;0;0;0;();(-2000.0, -2000.0);
12:11:03:148;12:11:03:083;1448407621.65;(0.38959105014801027, 0.3696719275580512);57.3212928772;0.909114480929;;;;;;;;;;;;;;0;0;0;0;0;0;0;0;0;();(-2000.0, -2000.0);
12:11:03:181;12:11:03:153;1448407621.72;(0.3898338794708252, 0.37027558220757384);56.465297699;0.968073492126;;;;;;;;;;;;;;0;0;0;0;0;0;0;0;0;();(-2000.0, -2000.0);
12:11:03:198;12:11:03:153;1448407621.72;(0.3898338794708252, 0.37027558220757384);56.465297699;0.968073492126;;;;;;;;;;;;;;0;0;0;0;0;0;0;0;0;();(-2000.0, -2000.0);
12:11:03:215;12:11:03:153;1448407621.72;(0.3898338794708252, 0.37027558220757384);56.465297699;0.968073492126;;;;;;;;;;;;;;0;0;0;0;0;0;0;0;0;();(-2000.0, -2000.0);
12:11:03:232;12:11:03:220;1448407621.78;(0.3900214433670044, 0.3713928646511502);55.4952964783;0.931842017998;;;;;;;;;;;;;;0;0;0;0;0;0;0;0;0;();(-2000.0, -2000.0);
12:11:03:248;12:11:03:220;1448407621.78;(0.3900214433670044, 0.3713928646511502);55.4952964783;0.931842017998;;;;;;;;;;;;;;0;0;0;0;0;0;0;0;0;();(-2000.0, -2000.0);
12:11:03:282;12:11:03:281;1448407621.82;(0.39005098342895506, 0.3713158501519097);54.5498352051;0.953964264584;;;;;;;;;;;;;;0;0;0;0;0;0;0;0;0;();(-2000.0, -2000.0);
12:11:03:298;12:11:03:285;1448407621.85;(0.38993675708770753, 0.3717918819851346);54.3304176331;0.929714164588;;;;;;;;;;;;;;0;0;0;0;0;0;0;0;0;();(-2000.0, -2000.0);
12:11:03:315;12:11:03:285;1448407621.85;(0.38993675708770753, 0.3717918819851346);54.3304176331;0.929714164588;;;;;;;;;;;;;;0;0;0;0;0;0;0;0;0;();(-2000.0, -2000.0);
12:11:03:332;12:11:03:285;1448407621.85;(0.38993675708770753, 0.3717918819851346);54.3304176331;0.929714164588;;;;;;;;;;;;;;0;0;0;0;0;0;0;0;0;();(-2000.0, -2000.0);
12:11:03:348;12:11:03:285;1448407621.85;(0.38993675708770753, 0.3717918819851346);54.3304176331;0.929714164588;;;;;;;;;;;;;;0;0;0;0;0;0;0;0;0;();(-2000.0, -2000.0);
12:11:03:382;12:11:03:352;1448407621.92;(0.3941833734512329, 0.36952150132921);53.4409141541;0.972009053697;;;;;;;;;;;;;;0;0;0;0;0;0;0;0;0;();(-2000.0, -2000.0);
12:11:03:398;12:11:03:352;1448407621.92;(0.3941833734512329, 0.36952150132921);53.4409141541;0.972009053697;;;;;;;;;;;;;;0;0;0;0;0;0;0;0;0;();(-2000.0, -2000.0);
12:11:03:416;12:11:03:415;1448407621.98;(0.3940096139907837, 0.37009599473741317);53.1934432983;1.0;;;;;;;;;;;;;;0;0;0;0;0;0;0;0;0;();(-2000.0, -2000.0);
12:11:03:432;12:11:03:415;1448407621.98;(0.3940096139907837, 0.37009599473741317);53.1934432983;1.0;;;;;;;;;;;;;;0;0;0;0;0;0;0;0;0;();(-2000.0, -2000.0);
12:11:03:449;12:11:03:415;1448407621.98;(0.3940096139907837, 0.37009599473741317);53.1934432983;1.0;;;;;;;;;;;;;;0;0;0;0;0;0;0;0;0;();(-2000.0, -2000.0);
12:11:03:485;12:11:03:483;1448407622.05;(0.3941612243652344, 0.37052366468641496);53.0201339722;1.0;;;;;;;;;;;;;;0;0;0;0;0;0;0;0;0;();(-2000.0, -2000.0);
12:11:03:500;12:11:03:483;1448407622.05;(0.3941612243652344, 0.37052366468641496);53.0201339722;1.0;;;;;;;;;;;;;;0;0;0;0;0;0;0;0;0;();(-2000.0, -2000.0);
12:11:03:517;12:11:03:483;1448407622.05;(0.3941612243652344, 0.37052366468641496);53.0201339722;1.0;;;;;;;;;;;;;;0;0;0;0;0;0;0;0;0;();(-2000.0, -2000.0);
12:11:03:533;12:11:03:483;1448407622.05;(0.3941612243652344, 0.37052366468641496);53.0201339722;1.0;;;;;;;;;;;;;;0;0;0;0;0;0;0;0;0;();(-2000.0, -2000.0);
12:11:03:550;12:11:03:483;1448407622.05;(0.3941612243652344, 0.37052366468641496);53.0201339722;1.0;;;;;;;;;;;;;;0;0;0;0;0;0;0;0;0;();(-2000.0, -2000.0);
12:11:03:582;12:11:03:553;1448407622.12;(0, 0);0;0;;;;;;;;;;;;;;0;0;0;0;0;0;0;0;0;();(-2000.0, -2000.0);
12:11:03:599;12:11:03:553;1448407622.12;(0, 0);0;0;;;;;;;;;;;;;;0;0;0;0;0;0;0;0;0;();(-2000.0, -2000.0);
12:11:03:617;12:11:03:615;1448407622.18;(0, 0);0;0;;;;;;;;;;;;;;0;0;0;0;0;0;0;0;0;();(-2000.0, -2000.0);
12:11:03:632;12:11:03:615;1448407622.18;(0, 0);0;0;;;;;;;;;;;;;;0;0;0;0;0;0;0;0;0;();(-2000.0, -2000.0);
12:11:03:649;12:11:03:615;1448407622.18;(0, 0);0;0;;;;;;;;;;;;;;0;0;0;0;0;0;0;0;0;();(-2000.0, -2000.0);
12:11:03:683;12:11:03:681;1448407622.22;(0, 0);0;0;;;;;;;;;;;;;;0;0;0;0;0;0;0;0;0;();(-2000.0, -2000.0);
12:11:03:699;12:11:03:682;1448407622.25;(0, 0);0;0;;;;;;;;;;;;;;0;0;0;0;0;0;0;0;0;();(-2000.0, -2000.0);
12:11:03:716;12:11:03:682;1448407622.25;(0, 0);0;0;;;;;;;;;;;;;;0;0;0;0;0;0;0;0;0;();(-2000.0, -2000.0);
12:11:03:732;12:11:03:682;1448407622.25;(0, 0);0;0;;;;;;;;;;;;;;0;0;0;0;0;0;0;0;0;();(-2000.0, -2000.0);
12:11:03:749;12:11:03:746;1448407622.32;(0.7845859527587891, 0.399717034233941);44.4246482849;0.609099458875;;;;;;;;;;;;;;0;0;0;0;0;0;0;0;0;();(-2000.0, -2000.0);
12:11:03:782;12:11:03:746;1448407622.32;(0.7845859527587891, 0.399717034233941);44.4246482849;0.609099458875;;;;;;;;;;;;;;0;0;0;0;0;0;0;0;0;();(-2000.0, -2000.0);
12:11:03:798;12:11:03:746;1448407622.32;(0.7845859527587891, 0.399717034233941);44.4246482849;0.609099458875;;;;;;;;;;;;;;0;0;0;0;0;0;0;0;0;();(-2000.0, -2000.0);
12:11:03:816;12:11:03:814;1448407622.38;(0, 0);0;0;;;;;;;;;;;;;;0;0;0;0;0;0;0;0;0;();(-2000.0, -2000.0);
12:11:03:833;12:11:03:814;1448407622.38;(0, 0);0;0;;;;;;;;;;;;;;0;0;0;0;0;0;0;0;0;();(-2000.0, -2000.0);
12:11:03:849;12:11:03:814;1448407622.38;(0, 0);0;0;;;;;;;;;;;;;;0;0;0;0;0;0;0;0;0;();(-2000.0, -2000.0);
12:11:03:884;12:11:03:882;1448407622.45;(0.7676487922668457, 0.41271040174696183);19.736164093;0.658846370641;;;;;;;;;;;;;;0;0;0;0;0;0;0;0;0;();(-2000.0, -2000.0);
12:11:03:900;12:11:03:882;1448407622.45;(0.7676487922668457, 0.41271040174696183);19.736164093;0.658846370641;;;;;;;;;;;;;;0;0;0;0;0;0;0;0;0;();(-2000.0, -2000.0);
12:11:03:917;12:11:03:882;1448407622.45;(0.7676487922668457, 0.41271040174696183);19.736164093;0.658846370641;;;;;;;;;;;;;;0;0;0;0;0;0;0;0;0;();(-2000.0, -2000.0);
12:11:03:932;12:11:03:882;1448407622.45;(0.7676487922668457, 0.41271040174696183);19.736164093;0.658846370641;;;;;;;;;;;;;;0;0;0;0;0;0;0;0;0;();(-2000.0, -2000.0);
12:11:03:951;12:11:03:947;1448407622.52;(0, 0);0;0;;;;;;;;;;;;;;0;0;0;0;0;0;0;0;0;();(-2000.0, -2000.0);
12:11:03:967;12:11:03:947;1448407622.52;(0, 0);0;0;;;;;;;;;;;;;;0;0;0;0;0;0;0;0;0;();(-2000.0, -2000.0);
12:11:04:001;12:11:03:947;1448407622.52;(0, 0);0;0;;;;;;;;;;;;;;0;0;0;0;0;0;0;0;0;();(-2000.0, -2000.0);
12:11:04:020;12:11:04:015;1448407622.58;(0.3766651153564453, 0.38515718248155384);54.9373207092;0.753949094474;;;;;;;;;;;;;;0;0;0;0;0;0;0;0;0;();(-2000.0, -2000.0);
12:11:04:033;12:11:04:015;1448407622.58;(0.3766651153564453, 0.38515718248155384);54.9373207092;0.753949094474;;;;;;;;;;;;;;0;0;0;0;0;0;0;0;0;();(-2000.0, -2000.0);
12:11:04:050;12:11:04:015;1448407622.58;(0.3766651153564453, 0.38515718248155384);54.9373207092;0.753949094474;;;;;;;;;;;;;;0;0;0;0;0;0;0;0;0;();(-2000.0, -2000.0);
12:11:04:083;12:11:04:079;1448407622.65;(0.375735878944397, 0.38555412292480473);55.2616500854;0.706562638178;;;;;;;;;;;;;;0;0;0;0;0;0;0;0;0;();(-2000.0, -2000.0);
12:11:04:099;12:11:04:079;1448407622.65;(0.375735878944397, 0.38555412292480473);55.2616500854;0.706562638178;;;;;;;;;;;;;;0;0;0;0;0;0;0;0;0;();(-2000.0, -2000.0);
12:11:04:116;12:11:04:079;1448407622.65;(0.375735878944397, 0.38555412292480473);55.2616500854;0.706562638178;;;;;;;;;;;;;;0;0;0;0;0;0;0;0;0;();(-2000.0, -2000.0);
12:11:04:133;12:11:04:079;1448407622.65;(0.375735878944397, 0.38555412292480473);55.2616500854;0.706562638178;;;;;;;;;;;;;;0;0;0;0;0;0;0;0;0;();(-2000.0, -2000.0);
12:11:04:148;12:11:04:146;1448407622.72;(0.375547194480896, 0.3850619422064887);55.4063529968;0.729948711805;;;;;;;;;;;;;;0;0;0;0;0;0;0;0;0;();(-2000.0, -2000.0);
12:11:04:182;12:11:04:146;1448407622.72;(0.375547194480896, 0.3850619422064887);55.4063529968;0.729948711805;;;;;;;;;;;;;;0;0;0;0;0;0;0;0;0;();(-2000.0, -2000.0);
12:11:04:201;12:11:04:146;1448407622.72;(0.375547194480896, 0.3850619422064887);55.4063529968;0.729948711805;;;;;;;;;;;;;;0;0;0;0;0;0;0;0;0;();(-2000.0, -2000.0);
12:11:04:218;12:11:04:215;1448407622.78;(0, 0);0;0;;;;;;;;;;;;;;0;0;0;0;0;0;0;0;0;();(-2000.0, -2000.0);
12:11:04:232;12:11:04:215;1448407622.78;(0, 0);0;0;;;;;;;;;;;;;;0;0;0;0;0;0;0;0;0;();(-2000.0, -2000.0);
12:11:04:250;12:11:04:215;1448407622.78;(0, 0);0;0;;;;;;;;;;;;;;0;0;0;0;0;0;0;0;0;();(-2000.0, -2000.0);
12:11:04:283;12:11:04:278;1448407622.85;(0, 0);0;0;;;;;;;;;;;;;;0;0;0;0;0;0;0;0;0;();(-2000.0, -2000.0);
12:11:04:300;12:11:04:278;1448407622.85;(0, 0);0;0;;;;;;;;;;;;;;0;0;0;0;0;0;0;0;0;();(-2000.0, -2000.0);
12:11:04:315;12:11:04:278;1448407622.85;(0, 0);0;0;;;;;;;;;;;;;;0;0;0;0;0;0;0;0;0;();(-2000.0, -2000.0);
12:11:04:333;12:11:04:278;1448407622.85;(0, 0);0;0;;;;;;;;;;;;;;0;0;0;0;0;0;0;0;0;();(-2000.0, -2000.0);
12:11:04:351;12:11:04:347;1448407622.92;(0, 0);0;0;;;;;;;;;;;;;;0;0;0;0;0;0;0;0;0;();(-2000.0, -2000.0);
12:11:04:367;12:11:04:347;1448407622.92;(0, 0);0;0;;;;;;;;;;;;;;0;0;0;0;0;0;0;0;0;();(-2000.0, -2000.0);
12:11:04:401;12:11:04:347;1448407622.92;(0, 0);0;0;;;;;;;;;;;;;;0;0;0;0;0;0;0;0;0;();(-2000.0, -2000.0);
12:11:04:418;12:11:04:411;1448407622.98;(0.42403101921081543, 0.38055089314778645);55.6801109314;0.887020654784;;;;;;;;;;;;;;0;0;0;0;0;0;0;0;0;();(-2000.0, -2000.0);
12:11:04:434;12:11:04:411;1448407622.98;(0.42403101921081543, 0.38055089314778645);55.6801109314;0.887020654784;;;;;;;;;;;;;;0;0;0;0;0;0;0;0;0;();(-2000.0, -2000.0);
12:11:04:451;12:11:04:411;1448407622.98;(0.42403101921081543, 0.38055089314778645);55.6801109314;0.887020654784;;;;;;;;;;;;;;0;0;0;0;0;0;0;0;0;();(-2000.0, -2000.0);
12:11:04:483;12:11:04:478;1448407623.05;(0.4243136405944824, 0.3807390424940321);56.2371520996;0.92007080353;;;;;;;;;;;;;;0;0;0;0;0;0;0;0;0;();(-2000.0, -2000.0);
12:11:04:500;12:11:04:478;1448407623.05;(0.4243136405944824, 0.3807390424940321);56.2371520996;0.92007080353;;;;;;;;;;;;;;0;0;0;0;0;0;0;0;0;();(-2000.0, -2000.0);
12:11:04:517;12:11:04:478;1448407623.05;(0.4243136405944824, 0.3807390424940321);56.2371520996;0.92007080353;;;;;;;;;;;;;;0;0;0;0;0;0;0;0;0;();(-2000.0, -2000.0);
12:11:04:533;12:11:04:478;1448407623.05;(0.4243136405944824, 0.3807390424940321);56.2371520996;0.92007080353;;;;;;;;;;;;;;0;0;0;0;0;0;0;0;0;();(-2000.0, -2000.0);
12:11:04:550;12:11:04:546;1448407623.12;(0.4244171857833862, 0.38140547010633685);55.9584922791;0.897675575838;;;;;;;;;;;;;;0;0;0;0;0;0;0;0;0;();(-2000.0, -2000.0);
12:11:04:584;12:11:04:546;1448407623.12;(0.4244171857833862, 0.38140547010633685);55.9584922791;0.897675575838;;;;;;;;;;;;;;0;0;0;0;0;0;0;0;0;();(-2000.0, -2000.0);
12:11:04:600;12:11:04:546;1448407623.12;(0.4244171857833862, 0.38140547010633685);55.9584922791;0.897675575838;;;;;;;;;;;;;;0;0;0;0;0;0;0;0;0;();(-2000.0, -2000.0);
12:11:04:617;12:11:04:611;1448407623.18;(0.42456889152526855, 0.3810554928249783);56.4138755798;0.926509885989;;;;;;;;;;;;;;0;0;0;0;0;0;0;0;0;();(-2000.0, -2000.0);
12:11:04:633;12:11:04:611;1448407623.18;(0.42456889152526855, 0.3810554928249783);56.4138755798;0.926509885989;;;;;;;;;;;;;;0;0;0;0;0;0;0;0;0;();(-2000.0, -2000.0);
12:11:04:651;12:11:04:611;1448407623.18;(0.42456889152526855, 0.3810554928249783);56.4138755798;0.926509885989;;;;;;;;;;;;;;0;0;0;0;0;0;0;0;0;();(-2000.0, -2000.0);
12:11:04:684;12:11:04:679;1448407623.25;(0.4399131774902344, 0.3824119567871094);56.4545822144;0.872860849729;;;;;;;;;;;;;;0;0;0;0;0;0;0;0;0;();(-2000.0, -2000.0);
12:11:04:699;12:11:04:679;1448407623.25;(0.4399131774902344, 0.3824119567871094);56.4545822144;0.872860849729;;;;;;;;;;;;;;0;0;0;0;0;0;0;0;0;();(-2000.0, -2000.0);
12:11:04:717;12:11:04:679;1448407623.25;(0.4399131774902344, 0.3824119567871094);56.4545822144;0.872860849729;;;;;;;;;;;;;;0;0;0;0;0;0;0;0;0;();(-2000.0, -2000.0);
12:11:04:733;12:11:04:679;1448407623.25;(0.4399131774902344, 0.3824119567871094);56.4545822144;0.872860849729;;;;;;;;;;;;;;0;0;0;0;0;0;0;0;0;();(-2000.0, -2000.0);
12:11:04:751;12:11:04:743;1448407623.32;(0.4403839111328125, 0.3834054734971788);56.293548584;0.852682034572;;;;;;;;;;;;;;0;0;0;0;0;0;0;0;0;();(-2000.0, -2000.0);
12:11:04:766;12:11:04:743;1448407623.32;(0.4403839111328125, 0.3834054734971788);56.293548584;0.852682034572;;;;;;;;;;;;;;0;0;0;0;0;0;0;0;0;();(-2000.0, -2000.0);
12:11:04:801;12:11:04:743;1448407623.32;(0.4403839111328125, 0.3834054734971788);56.293548584;0.852682034572;;;;;;;;;;;;;;0;0;0;0;0;0;0;0;0;();(-2000.0, -2000.0);
12:11:04:818;12:11:04:812;1448407623.38;(0.44022603034973146, 0.3840677897135417);56.27161026;0.899193416488;;;;;;;;;;;;;;0;0;0;0;0;0;0;0;0;();(-2000.0, -2000.0);
12:11:04:834;12:11:04:812;1448407623.38;(0.44022603034973146, 0.3840677897135417);56.27161026;0.899193416488;;;;;;;;;;;;;;0;0;0;0;0;0;0;0;0;();(-2000.0, -2000.0);
12:11:04:851;12:11:04:812;1448407623.38;(0.44022603034973146, 0.3840677897135417);56.27161026;0.899193416488;;;;;;;;;;;;;;0;0;0;0;0;0;0;0;0;();(-2000.0, -2000.0);
12:11:04:868;12:11:04:812;1448407623.38;(0.44022603034973146, 0.3840677897135417);56.27161026;0.899193416488;;;;;;;;;;;;;;0;0;0;0;0;0;0;0;0;();(-2000.0, -2000.0);
12:11:04:900;12:11:04:879;1448407623.45;(0.4399052619934082, 0.38405570983886717);56.1018218994;0.920646271434;;;;;;;;;;;;;;0;0;0;0;0;0;0;0;0;();(-2000.0, -2000.0);
12:11:04:917;12:11:04:879;1448407623.45;(0.4399052619934082, 0.38405570983886717);56.1018218994;0.920646271434;;;;;;;;;;;;;;0;0;0;0;0;0;0;0;0;();(-2000.0, -2000.0);
12:11:04:933;12:11:04:879;1448407623.45;(0.4399052619934082, 0.38405570983886717);56.1018218994;0.920646271434;;;;;;;;;;;;;;0;0;0;0;0;0;0;0;0;();(-2000.0, -2000.0);
12:11:04:950;12:11:04:943;1448407623.52;(0.4399806022644043, 0.38372077941894533);56.2987976074;0.878791219042;;;;;;;;;;;;;;0;0;0;0;0;0;0;0;0;();(-2000.0, -2000.0);
12:11:04:966;12:11:04:943;1448407623.52;(0.4399806022644043, 0.38372077941894533);56.2987976074;0.878791219042;;;;;;;;;;;;;;0;0;0;0;0;0;0;0;0;();(-2000.0, -2000.0);
12:11:05:002;12:11:04:943;1448407623.52;(0.4399806022644043, 0.38372077941894533);56.2987976074;0.878791219042;;;;;;;;;;;;;;0;0;0;0;0;0;0;0;0;();(-2000.0, -2000.0);
12:11:05:018;12:11:05:012;1448407623.58;(0.4400943279266357, 0.38465347290039065);55.9112815857;0.910594200047;;;;;;;;;;;;;;0;0;0;0;0;0;0;0;0;();(-2000.0, -2000.0);
12:11:05:034;12:11:05:012;1448407623.58;(0.4400943279266357, 0.38465347290039065);55.9112815857;0.910594200047;;;;;;;;;;;;;;0;0;0;0;0;0;0;0;0;();(-2000.0, -2000.0);
12:11:05:051;12:11:05:012;1448407623.58;(0.4400943279266357, 0.38465347290039065);55.9112815857;0.910594200047;;;;;;;;;;;;;;0;0;0;0;0;0;0;0;0;();(-2000.0, -2000.0);
12:11:05:068;12:11:05:012;1448407623.58;(0.4400943279266357, 0.38465347290039065);55.9112815857;0.910594200047;;;;;;;;;;;;;;0;0;0;0;0;0;0;0;0;();(-2000.0, -2000.0);
12:11:05:100;12:11:05:075;1448407623.65;(0.4369408130645752, 0.3750090705023872);52.6511268616;0.637868547219;;;;;;;;;;;;;;0;0;0;0;0;0;0;0;0;();(-2000.0, -2000.0);
12:11:05:117;12:11:05:075;1448407623.65;(0.4369408130645752, 0.3750090705023872);52.6511268616;0.637868547219;;;;;;;;;;;;;;0;0;0;0;0;0;0;0;0;();(-2000.0, -2000.0);
12:11:05:134;12:11:05:075;1448407623.65;(0.4369408130645752, 0.3750090705023872);52.6511268616;0.637868547219;;;;;;;;;;;;;;0;0;0;0;0;0;0;0;0;();(-2000.0, -2000.0);
12:11:05:151;12:11:05:143;1448407623.72;(0.41653602123260497, 0.3691825018988715);57.2101402283;0.956892080796;;;;;;;;;;;;;;0;0;0;0;0;0;0;0;0;();(-2000.0, -2000.0);
12:11:05:167;12:11:05:143;1448407623.72;(0.41653602123260497, 0.3691825018988715);57.2101402283;0.956892080796;;;;;;;;;;;;;;0;0;0;0;0;0;0;0;0;();(-2000.0, -2000.0);
12:11:05:201;12:11:05:143;1448407623.72;(0.41653602123260497, 0.3691825018988715);57.2101402283;0.956892080796;;;;;;;;;;;;;;0;0;0;0;0;0;0;0;0;();(-2000.0, -2000.0);
12:11:05:218;12:11:05:211;1448407623.78;(0.416314435005188, 0.3702349344889323);56.6510925293;0.921420543976;;;;;;;;;;;;;;0;0;0;0;0;0;0;0;0;();(-2000.0, -2000.0);
12:11:05:233;12:11:05:211;1448407623.78;(0.416314435005188, 0.3702349344889323);56.6510925293;0.921420543976;;;;;;;;;;;;;;0;0;0;0;0;0;0;0;0;();(-2000.0, -2000.0);
12:11:05:251;12:11:05:211;1448407623.78;(0.416314435005188, 0.3702349344889323);56.6510925293;0.921420543976;;;;;;;;;;;;;;0;0;0;0;0;0;0;0;0;();(-2000.0, -2000.0);
12:11:05:268;12:11:05:211;1448407623.78;(0.416314435005188, 0.3702349344889323);56.6510925293;0.921420543976;;;;;;;;;;;;;;0;0;0;0;0;0;0;0;0;();(-2000.0, -2000.0);
12:11:05:301;12:11:05:274;1448407623.85;(0.4159842014312744, 0.371421135796441);56.8007507324;0.91130204675;;;;;;;;;;;;;;0;0;0;0;0;0;0;0;0;();(-2000.0, -2000.0);
12:11:05:317;12:11:05:274;1448407623.85;(0.4159842014312744, 0.371421135796441);56.8007507324;0.91130204675;;;;;;;;;;;;;;0;0;0;0;0;0;0;0;0;();(-2000.0, -2000.0);
12:11:05:335;12:11:05:274;1448407623.85;(0.4159842014312744, 0.371421135796441);56.8007507324;0.91130204675;;;;;;;;;;;;;;0;0;0;0;0;0;0;0;0;();(-2000.0, -2000.0);
12:11:05:351;12:11:05:343;1448407623.92;(0.4159696102142334, 0.37169384426540797);56.3348922729;0.987993057459;;;;;;;;;;;;;;0;0;0;0;0;0;0;0;0;();(-2000.0, -2000.0);
12:11:05:368;12:11:05:343;1448407623.92;(0.4159696102142334, 0.37169384426540797);56.3348922729;0.987993057459;;;;;;;;;;;;;;0;0;0;0;0;0;0;0;0;();(-2000.0, -2000.0);
12:11:05:401;12:11:05:343;1448407623.92;(0.4159696102142334, 0.37169384426540797);56.3348922729;0.987993057459;;;;;;;;;;;;;;0;0;0;0;0;0;0;0;0;();(-2000.0, -2000.0);
12:11:05:417;12:11:05:407;1448407623.98;(0.3979423999786377, 0.3702128092447917);54.8023529053;0.935994843358;;;;;;;;;;;;;;0;0;0;0;0;0;0;0;0;();(-2000.0, -2000.0);
12:11:05:434;12:11:05:407;1448407623.98;(0.3979423999786377, 0.3702128092447917);54.8023529053;0.935994843358;;;;;;;;;;;;;;0;0;0;0;0;0;0;0;0;();(-2000.0, -2000.0);
12:11:05:451;12:11:05:407;1448407623.98;(0.3979423999786377, 0.3702128092447917);54.8023529053;0.935994843358;;;;;;;;;;;;;;0;0;0;0;0;0;0;0;0;();(-2000.0, -2000.0);
12:11:05:468;12:11:05:407;1448407623.98;(0.3979423999786377, 0.3702128092447917);54.8023529053;0.935994843358;;;;;;;;;;;;;;0;0;0;0;0;0;0;0;0;();(-2000.0, -2000.0);
12:11:05:501;12:11:05:474;1448407624.05;(0.3982118606567383, 0.37048852708604596);53.6453552246;0.939142531273;;;;;;;;;;;;;;0;0;0;0;0;0;0;0;0;();(-2000.0, -2000.0);
12:11:05:518;12:11:05:474;1448407624.05;(0.3982118606567383, 0.37048852708604596);53.6453552246;0.939142531273;;;;;;;;;;;;;;0;0;0;0;0;0;0;0;0;();(-2000.0, -2000.0);
12:11:05:534;12:11:05:474;1448407624.05;(0.3982118606567383, 0.37048852708604596);53.6453552246;0.939142531273;;;;;;;;;;;;;;0;0;0;0;0;0;0;0;0;();(-2000.0, -2000.0);
12:11:05:552;12:11:05:543;1448407624.12;(0.3986289739608765, 0.3717756059434679);52.6971244812;1.0;;;;;;;;;;;;;;0;0;0;0;0;0;0;0;0;();(-2000.0, -2000.0);
12:11:05:566;12:11:05:543;1448407624.12;(0.3986289739608765, 0.3717756059434679);52.6971244812;1.0;;;;;;;;;;;;;;0;0;0;0;0;0;0;0;0;();(-2000.0, -2000.0);
12:11:05:601;12:11:05:543;1448407624.12;(0.3986289739608765, 0.3717756059434679);52.6971244812;1.0;;;;;;;;;;;;;;0;0;0;0;0;0;0;0;0;();(-2000.0, -2000.0);
12:11:05:618;12:11:05:607;1448407624.18;(0, 0);0;0;;;;;;;;;;;;;;0;0;0;0;0;0;0;0;0;();(-2000.0, -2000.0);
12:11:05:634;12:11:05:607;1448407624.18;(0, 0);0;0;;;;;;;;;;;;;;0;0;0;0;0;0;0;0;0;();(-2000.0, -2000.0);
12:11:05:651;12:11:05:607;1448407624.18;(0, 0);0;0;;;;;;;;;;;;;;0;0;0;0;0;0;0;0;0;();(-2000.0, -2000.0);
12:11:05:666;12:11:05:607;1448407624.18;(0, 0);0;0;;;;;;;;;;;;;;0;0;0;0;0;0;0;0;0;();(-2000.0, -2000.0);
12:11:05:702;12:11:05:674;1448407624.25;(0, 0);0;0;;;;;;;;;;;;;;0;0;0;0;0;0;0;0;0;();(-2000.0, -2000.0);
12:11:05:717;12:11:05:674;1448407624.25;(0, 0);0;0;;;;;;;;;;;;;;0;0;0;0;0;0;0;0;0;();(-2000.0, -2000.0);
12:11:05:735;12:11:05:674;1448407624.25;(0, 0);0;0;;;;;;;;;;;;;;0;0;0;0;0;0;0;0;0;();(-2000.0, -2000.0);
12:11:05:750;12:11:05:739;1448407624.32;(0.32181081771850584, 0.3548236423068576);48.0242500305;0.634838576531;;;;;;;;;;;;;;0;0;0;0;0;0;0;0;0;();(-2000.0, -2000.0);
12:11:05:769;12:11:05:739;1448407624.32;(0.32181081771850584, 0.3548236423068576);48.0242500305;0.634838576531;;;;;;;;;;;;;;0;0;0;0;0;0;0;0;0;();(-2000.0, -2000.0);
12:11:05:802;12:11:05:739;1448407624.32;(0.32181081771850584, 0.3548236423068576);48.0242500305;0.634838576531;;;;;;;;;;;;;;0;0;0;0;0;0;0;0;0;();(-2000.0, -2000.0);
12:11:05:818;12:11:05:807;1448407624.38;(0.33016676902770997, 0.37022281222873266);47.7122116089;1.0;;;;;;;;;;;;;;0;0;0;0;0;0;0;0;0;();(-2000.0, -2000.0);
12:11:05:835;12:11:05:807;1448407624.38;(0.33016676902770997, 0.37022281222873266);47.7122116089;1.0;;;;;;;;;;;;;;0;0;0;0;0;0;0;0;0;();(-2000.0, -2000.0);
12:11:05:852;12:11:05:807;1448407624.38;(0.33016676902770997, 0.37022281222873266);47.7122116089;1.0;;;;;;;;;;;;;;0;0;0;0;0;0;0;0;0;();(-2000.0, -2000.0);
12:11:05:868;12:11:05:807;1448407624.38;(0.33016676902770997, 0.37022281222873266);47.7122116089;1.0;;;;;;;;;;;;;;0;0;0;0;0;0;0;0;0;();(-2000.0, -2000.0);
12:11:05:902;12:11:05:872;1448407624.45;(0.34613809585571287, 0.3785985734727647);47.9714584351;0.984495099876;;;;;;;;;;;;;;0;0;0;0;0;0;0;0;0;();(-2000.0, -2000.0);
12:11:05:919;12:11:05:872;1448407624.45;(0.34613809585571287, 0.3785985734727647);47.9714584351;0.984495099876;;;;;;;;;;;;;;0;0;0;0;0;0;0;0;0;();(-2000.0, -2000.0);
12:11:05:934;12:11:05:872;1448407624.45;(0.34613809585571287, 0.3785985734727647);47.9714584351;0.984495099876;;;;;;;;;;;;;;0;0;0;0;0;0;0;0;0;();(-2000.0, -2000.0);
12:11:05:951;12:11:05:939;1448407624.52;(0.3597212791442871, 0.3836383819580078);47.9741210938;0.883209748951;;;;;;;;;;;;;;0;0;0;0;0;0;0;0;0;();(-2000.0, -2000.0);
12:11:05:967;12:11:05:939;1448407624.52;(0.3597212791442871, 0.3836383819580078);47.9741210938;0.883209748951;;;;;;;;;;;;;;0;0;0;0;0;0;0;0;0;();(-2000.0, -2000.0);
12:11:06:002;12:11:05:939;1448407624.52;(0.3597212791442871, 0.3836383819580078);47.9741210938;0.883209748951;;;;;;;;;;;;;;0;0;0;0;0;0;0;0;0;();(-2000.0, -2000.0);
12:11:06:017;12:11:06:007;1448407624.58;(0.3701129674911499, 0.38520465426974826);48.2412796021;0.90032230796;;;;;;;;;;;;;;0;0;0;0;0;0;0;0;0;();(-2000.0, -2000.0);
12:11:06:034;12:11:06:007;1448407624.58;(0.3701129674911499, 0.38520465426974826);48.2412796021;0.90032230796;;;;;;;;;;;;;;0;0;0;0;0;0;0;0;0;();(-2000.0, -2000.0);
12:11:06:051;12:11:06:007;1448407624.58;(0.3701129674911499, 0.38520465426974826);48.2412796021;0.90032230796;;;;;;;;;;;;;;0;0;0;0;0;0;0;0;0;();(-2000.0, -2000.0);
12:11:06:067;12:11:06:007;1448407624.58;(0.3701129674911499, 0.38520465426974826);48.2412796021;0.90032230796;;;;;;;;;;;;;;0;0;0;0;0;0;0;0;0;();(-2000.0, -2000.0);
12:11:06:101;12:11:06:068;1448407624.62;(0.37503373622894287, 0.37999326917860243);49.6640777588;0.89436387964;;;;;;;;;;;;;;0;0;0;0;0;0;0;0;0;();(-2000.0, -2000.0);
12:11:06:118;12:11:06:068;1448407624.62;(0.37503373622894287, 0.37999326917860243);49.6640777588;0.89436387964;;;;;;;;;;;;;;0;0;0;0;0;0;0;0;0;();(-2000.0, -2000.0);
12:11:06:134;12:11:06:068;1448407624.62;(0.37503373622894287, 0.37999326917860243);49.6640777588;0.89436387964;;;;;;;;;;;;;;0;0;0;0;0;0;0;0;0;();(-2000.0, -2000.0);
12:11:06:150;12:11:06:140;1448407624.72;(0.3872308492660522, 0.3852325863308377);49.8658027649;0.792825349996;;;;;;;;;;;;;;0;0;0;0;0;0;0;0;0;();(-2000.0, -2000.0);
12:11:06:167;12:11:06:140;1448407624.72;(0.3872308492660522, 0.3852325863308377);49.8658027649;0.792825349996;;;;;;;;;;;;;;0;0;0;0;0;0;0;0;0;();(-2000.0, -2000.0);
12:11:06:201;12:11:06:140;1448407624.72;(0.3872308492660522, 0.3852325863308377);49.8658027649;0.792825349996;;;;;;;;;;;;;;0;0;0;0;0;0;0;0;0;();(-2000.0, -2000.0);
12:11:06:218;12:11:06:201;1448407624.75;(0.38979933261871336, 0.3932009802924262);48.6368980408;0.766061055104;;;;;;;;;;;;;;0;0;0;0;0;0;0;0;0;();(-2000.0, -2000.0);
12:11:06:234;12:11:06:201;1448407624.75;(0.38979933261871336, 0.3932009802924262);48.6368980408;0.766061055104;;;;;;;;;;;;;;0;0;0;0;0;0;0;0;0;();(-2000.0, -2000.0);
12:11:06:251;12:11:06:201;1448407624.75;(0.38979933261871336, 0.3932009802924262);48.6368980408;0.766061055104;;;;;;;;;;;;;;0;0;0;0;0;0;0;0;0;();(-2000.0, -2000.0);
12:11:06:268;12:11:06:201;1448407624.75;(0.38979933261871336, 0.3932009802924262);48.6368980408;0.766061055104;;;;;;;;;;;;;;0;0;0;0;0;0;0;0;0;();(-2000.0, -2000.0);
12:11:06:301;12:11:06:274;1448407624.85;(0.3981003999710083, 0.3943023257785373);49.6134910583;0.787543767687;;;;;;;;;;;;;;0;0;0;0;0;0;0;0;0;();(-2000.0, -2000.0);
12:11:06:317;12:11:06:274;1448407624.85;(0.3981003999710083, 0.3943023257785373);49.6134910583;0.787543767687;;;;;;;;;;;;;;0;0;0;0;0;0;0;0;0;();(-2000.0, -2000.0);
12:11:06:334;12:11:06:274;1448407624.85;(0.3981003999710083, 0.3943023257785373);49.6134910583;0.787543767687;;;;;;;;;;;;;;0;0;0;0;0;0;0;0;0;();(-2000.0, -2000.0);
12:11:06:351;12:11:06:343;1448407624.92;(0.40202038288116454, 0.39450793796115446);49.9957237244;0.662732957215;;;;;;;;;;;;;;0;0;0;0;0;0;0;0;0;();(-2000.0, -2000.0);
12:11:06:368;12:11:06:343;1448407624.92;(0.40202038288116454, 0.39450793796115446);49.9957237244;0.662732957215;;;;;;;;;;;;;;0;0;0;0;0;0;0;0;0;();(-2000.0, -2000.0);
12:11:06:401;12:11:06:343;1448407624.92;(0.40202038288116454, 0.39450793796115446);49.9957237244;0.662732957215;;;;;;;;;;;;;;0;0;0;0;0;0;0;0;0;();(-2000.0, -2000.0);
12:11:06:418;12:11:06:406;1448407624.98;(0.380786657333374, 0.3920293172200521);49.8334579468;0.796592698973;;;;;;;;;;;;;;0;0;0;0;0;0;0;0;0;();(-2000.0, -2000.0);
12:11:06:435;12:11:06:406;1448407624.98;(0.380786657333374, 0.3920293172200521);49.8334579468;0.796592698973;;;;;;;;;;;;;;0;0;0;0;0;0;0;0;0;();(-2000.0, -2000.0);
12:11:06:451;12:11:06:406;1448407624.98;(0.380786657333374, 0.3920293172200521);49.8334579468;0.796592698973;;;;;;;;;;;;;;0;0;0;0;0;0;0;0;0;();(-2000.0, -2000.0);
12:11:06:468;12:11:06:406;1448407624.98;(0.380786657333374, 0.3920293172200521);49.8334579468;0.796592698973;;;;;;;;;;;;;;0;0;0;0;0;0;0;0;0;();(-2000.0, -2000.0);
12:11:06:501;12:11:06:473;1448407625.05;(0.3814635038375854, 0.3842927720811632);50.8558578491;0.8277566527;;;;;;;;;;;;;;0;0;0;0;0;0;0;0;0;();(-2000.0, -2000.0);
12:11:06:517;12:11:06:473;1448407625.05;(0.3814635038375854, 0.3842927720811632);50.8558578491;0.8277566527;;;;;;;;;;;;;;0;0;0;0;0;0;0;0;0;();(-2000.0, -2000.0);
12:11:06:535;12:11:06:533;1448407625.08;(0.3825178861618042, 0.393526373969184);49.6494903564;0.720767983448;;;;;;;;;;;;;;0;0;0;0;0;0;0;0;0;();(-2000.0, -2000.0);
12:11:06:551;12:11:06:533;1448407625.08;(0.3825178861618042, 0.393526373969184);49.6494903564;0.720767983448;;;;;;;;;;;;;;0;0;0;0;0;0;0;0;0;();(-2000.0, -2000.0);
12:11:06:567;12:11:06:533;1448407625.08;(0.3825178861618042, 0.393526373969184);49.6494903564;0.720767983448;;;;;;;;;;;;;;0;0;0;0;0;0;0;0;0;();(-2000.0, -2000.0);
12:11:06:601;12:11:06:533;1448407625.08;(0.3825178861618042, 0.393526373969184);49.6494903564;0.720767983448;;;;;;;;;;;;;;0;0;0;0;0;0;0;0;0;();(-2000.0, -2000.0);
12:11:06:617;12:11:06:608;1448407625.18;(0.38410723209381104, 0.39500096638997395);49.7606086731;0.759065809955;;;;;;;;;;;;;;0;0;0;0;0;0;0;0;0;();(-2000.0, -2000.0);
12:11:06:635;12:11:06:608;1448407625.18;(0.38410723209381104, 0.39500096638997395);49.7606086731;0.759065809955;;;;;;;;;;;;;;0;0;0;0;0;0;0;0;0;();(-2000.0, -2000.0);
12:11:06:651;12:11:06:608;1448407625.18;(0.38410723209381104, 0.39500096638997395);49.7606086731;0.759065809955;;;;;;;;;;;;;;0;0;0;0;0;0;0;0;0;();(-2000.0, -2000.0);
12:11:06:668;12:11:06:608;1448407625.18;(0.38410723209381104, 0.39500096638997395);49.7606086731;0.759065809955;;;;;;;;;;;;;;0;0;0;0;0;0;0;0;0;();(-2000.0, -2000.0);
12:11:06:701;12:11:06:673;1448407625.25;(0.3852757215499878, 0.3959958818223741);50.2345314026;0.868955180123;;;;;;;;;;;;;;0;0;0;0;0;0;0;0;0;();(-2000.0, -2000.0);
12:11:06:718;12:11:06:673;1448407625.25;(0.3852757215499878, 0.3959958818223741);50.2345314026;0.868955180123;;;;;;;;;;;;;;0;0;0;0;0;0;0;0;0;();(-2000.0, -2000.0);
12:11:06:735;12:11:06:733;1448407625.28;(0.3853278875350952, 0.3955949571397569);50.4790878296;0.859142881976;;;;;;;;;;;;;;0;0;0;0;0;0;0;0;0;();(-2000.0, -2000.0);
12:11:06:751;12:11:06:735;1448407625.32;(0.3931485652923584, 0.399692620171441);50.4188194275;0.677378001813;;;;;;;;;;;;;;0;0;0;0;0;0;0;0;0;();(-2000.0, -2000.0);
12:11:06:768;12:11:06:735;1448407625.32;(0.3931485652923584, 0.399692620171441);50.4188194275;0.677378001813;;;;;;;;;;;;;;0;0;0;0;0;0;0;0;0;();(-2000.0, -2000.0);
12:11:06:801;12:11:06:735;1448407625.32;(0.3931485652923584, 0.399692620171441);50.4188194275;0.677378001813;;;;;;;;;;;;;;0;0;0;0;0;0;0;0;0;();(-2000.0, -2000.0);
12:11:06:818;12:11:06:806;1448407625.38;(0, 0);0;0;;;;;;;;;;;;;;0;0;0;0;0;0;0;0;0;();(-2000.0, -2000.0);
12:11:06:834;12:11:06:806;1448407625.38;(0, 0);0;0;;;;;;;;;;;;;;0;0;0;0;0;0;0;0;0;();(-2000.0, -2000.0);
12:11:06:851;12:11:06:806;1448407625.38;(0, 0);0;0;;;;;;;;;;;;;;0;0;0;0;0;0;0;0;0;();(-2000.0, -2000.0);
12:11:06:867;12:11:06:866;1448407625.45;(0, 0);0;0;;;;;;;;;;;;;;0;0;0;0;0;0;0;0;0;();(-2000.0, -2000.0);
12:11:06:903;12:11:06:866;1448407625.45;(0, 0);0;0;;;;;;;;;;;;;;0;0;0;0;0;0;0;0;0;();(-2000.0, -2000.0);
12:11:06:920;12:11:06:866;1448407625.45;(0, 0);0;0;;;;;;;;;;;;;;0;0;0;0;0;0;0;0;0;();(-2000.0, -2000.0);
12:11:06:938;12:11:06:933;1448407625.48;(0, 0);0;0;;;;;;;;;;;;;;0;0;0;0;0;0;0;0;0;();(-2000.0, -2000.0);
12:11:06:952;12:11:06:937;1448407625.52;(0, 0);0;0;;;;;;;;;;;;;;0;0;0;0;0;0;0;0;0;();(-2000.0, -2000.0);
12:11:06:969;12:11:06:937;1448407625.52;(0, 0);0;0;;;;;;;;;;;;;;0;0;0;0;0;0;0;0;0;();(-2000.0, -2000.0);
12:11:07:003;12:11:07:001;1448407625.55;(0, 0);0;0;;;;;;;;;;;;;;0;0;0;0;0;0;0;0;0;();(-2000.0, -2000.0);
12:11:07:020;12:11:07:002;1448407625.58;(0, 0);0;0;;;;;;;;;;;;;;0;0;0;0;0;0;0;0;0;();(-2000.0, -2000.0);
12:11:07:036;12:11:07:002;1448407625.58;(0, 0);0;0;;;;;;;;;;;;;;0;0;0;0;0;0;0;0;0;();(-2000.0, -2000.0);
12:11:07:053;12:11:07:002;1448407625.58;(0, 0);0;0;;;;;;;;;;;;;;0;0;0;0;0;0;0;0;0;();(-2000.0, -2000.0);
12:11:07:068;12:11:07:065;1448407625.62;(0, 0);0;0;;;;;;;;;;;;;;0;0;0;0;0;0;0;0;0;();(-2000.0, -2000.0);
12:11:07:103;12:11:07:065;1448407625.62;(0, 0);0;0;;;;;;;;;;;;;;0;0;0;0;0;0;0;0;0;();(-2000.0, -2000.0);
12:11:07:119;12:11:07:065;1448407625.62;(0, 0);0;0;;;;;;;;;;;;;;0;0;0;0;0;0;0;0;0;();(-2000.0, -2000.0);
12:11:07:137;12:11:07:134;1448407625.68;(0.793594217300415, 0.587866931491428);22.9740180969;0.732423387564;;;;;;;;;;;;;;0;0;0;0;0;0;0;0;0;();(-2000.0, -2000.0);
12:11:07:152;12:11:07:136;1448407625.72;(0, 0);0;0;;;;;;;;;;;;;;0;0;0;0;0;0;0;0;0;();(-2000.0, -2000.0);
12:11:07:168;12:11:07:136;1448407625.72;(0, 0);0;0;;;;;;;;;;;;;;0;0;0;0;0;0;0;0;0;();(-2000.0, -2000.0);
12:11:07:202;12:11:07:198;1448407625.78;(0, 0);0;0;;;;;;;;;;;;;;0;0;0;0;0;0;0;0;0;();(-2000.0, -2000.0);
12:11:07:219;12:11:07:198;1448407625.78;(0, 0);0;0;;;;;;;;;;;;;;0;0;0;0;0;0;0;0;0;();(-2000.0, -2000.0);
12:11:07:235;12:11:07:198;1448407625.78;(0, 0);0;0;;;;;;;;;;;;;;0;0;0;0;0;0;0;0;0;();(-2000.0, -2000.0);
12:11:07:253;12:11:07:198;1448407625.78;(0, 0);0;0;;;;;;;;;;;;;;0;0;0;0;0;0;0;0;0;();(-2000.0, -2000.0);
12:11:07:268;12:11:07:266;1448407625.85;(0, 0);0;0;;;;;;;;;;;;;;0;0;0;0;0;0;0;0;0;();(-2000.0, -2000.0);
12:11:07:303;12:11:07:266;1448407625.85;(0, 0);0;0;;;;;;;;;;;;;;0;0;0;0;0;0;0;0;0;();(-2000.0, -2000.0);
12:11:07:319;12:11:07:266;1448407625.85;(0, 0);0;0;;;;;;;;;;;;;;0;0;0;0;0;0;0;0;0;();(-2000.0, -2000.0);
12:11:07:337;12:11:07:335;1448407625.92;(0, 0);0;0;;;;;;;;;;;;;;0;0;0;0;0;0;0;0;0;();(-2000.0, -2000.0);
12:11:07:352;12:11:07:335;1448407625.92;(0, 0);0;0;;;;;;;;;;;;;;0;0;0;0;0;0;0;0;0;();(-2000.0, -2000.0);
12:11:07:369;12:11:07:335;1448407625.92;(0, 0);0;0;;;;;;;;;;;;;;0;0;0;0;0;0;0;0;0;();(-2000.0, -2000.0);
12:11:07:402;12:11:07:398;1448407625.98;(0, 0);0;0;;;;;;;;;;;;;;0;0;0;0;0;0;0;0;0;();(-2000.0, -2000.0);
12:11:07:419;12:11:07:398;1448407625.98;(0, 0);0;0;;;;;;;;;;;;;;0;0;0;0;0;0;0;0;0;();(-2000.0, -2000.0);
12:11:07:435;12:11:07:398;1448407625.98;(0, 0);0;0;;;;;;;;;;;;;;0;0;0;0;0;0;0;0;0;();(-2000.0, -2000.0);
12:11:07:453;12:11:07:398;1448407625.98;(0, 0);0;0;;;;;;;;;;;;;;0;0;0;0;0;0;0;0;0;();(-2000.0, -2000.0);
12:11:07:468;12:11:07:466;1448407626.05;(0, 0);0;0;;;;;;;;;;;;;;0;0;0;0;0;0;0;0;0;();(-2000.0, -2000.0);
12:11:07:502;12:11:07:466;1448407626.05;(0, 0);0;0;;;;;;;;;;;;;;0;0;0;0;0;0;0;0;0;();(-2000.0, -2000.0);
12:11:07:519;12:11:07:466;1448407626.05;(0, 0);0;0;;;;;;;;;;;;;;0;0;0;0;0;0;0;0;0;();(-2000.0, -2000.0);
12:11:07:536;12:11:07:529;1448407626.08;(0, 0);0;0;;;;;;;;;;;;;;0;0;0;0;0;0;0;0;0;();(-2000.0, -2000.0);
12:11:07:553;12:11:07:529;1448407626.08;(0, 0);0;0;;;;;;;;;;;;;;0;0;0;0;0;0;0;0;0;();(-2000.0, -2000.0);
12:11:07:569;12:11:07:529;1448407626.08;(0, 0);0;0;;;;;;;;;;;;;;0;0;0;0;0;0;0;0;0;();(-2000.0, -2000.0);
12:11:07:601;12:11:07:599;1448407626.18;(0, 0);0;0;;;;;;;;;;;;;;0;0;0;0;0;0;0;0;0;();(-2000.0, -2000.0);
12:11:07:619;12:11:07:599;1448407626.18;(0, 0);0;0;;;;;;;;;;;;;;0;0;0;0;0;0;0;0;0;();(-2000.0, -2000.0);
12:11:07:636;12:11:07:599;1448407626.18;(0, 0);0;0;;;;;;;;;;;;;;0;0;0;0;0;0;0;0;0;();(-2000.0, -2000.0);
12:11:07:652;12:11:07:599;1448407626.18;(0, 0);0;0;;;;;;;;;;;;;;0;0;0;0;0;0;0;0;0;();(-2000.0, -2000.0);
12:11:07:669;12:11:07:665;1448407626.22;(0, 0);0;0;;;;;;;;;;;;;;0;0;0;0;0;0;0;0;0;();(-2000.0, -2000.0);
12:11:07:703;12:11:07:665;1448407626.22;(0, 0);0;0;;;;;;;;;;;;;;0;0;0;0;0;0;0;0;0;();(-2000.0, -2000.0);
12:11:07:719;12:11:07:665;1448407626.22;(0, 0);0;0;;;;;;;;;;;;;;0;0;0;0;0;0;0;0;0;();(-2000.0, -2000.0);
12:11:07:735;12:11:07:732;1448407626.28;(0, 0);0;0;;;;;;;;;;;;;;0;0;0;0;0;0;0;0;0;();(-2000.0, -2000.0);
12:11:07:753;12:11:07:732;1448407626.28;(0, 0);0;0;;;;;;;;;;;;;;0;0;0;0;0;0;0;0;0;();(-2000.0, -2000.0);
12:11:07:770;12:11:07:732;1448407626.28;(0, 0);0;0;;;;;;;;;;;;;;0;0;0;0;0;0;0;0;0;();(-2000.0, -2000.0);
12:11:07:803;12:11:07:799;1448407626.38;(0, 0);0;0;;;;;;;;;;;;;;0;0;0;0;0;0;0;0;0;();(-2000.0, -2000.0);
12:11:07:819;12:11:07:799;1448407626.38;(0, 0);0;0;;;;;;;;;;;;;;0;0;0;0;0;0;0;0;0;();(-2000.0, -2000.0);
12:11:07:837;12:11:07:799;1448407626.38;(0, 0);0;0;;;;;;;;;;;;;;0;0;0;0;0;0;0;0;0;();(-2000.0, -2000.0);
12:11:07:853;12:11:07:799;1448407626.38;(0, 0);0;0;;;;;;;;;;;;;;0;0;0;0;0;0;0;0;0;();(-2000.0, -2000.0);
12:11:07:869;12:11:07:862;1448407626.42;(0, 0);0;0;;;;;;;;;;;;;;0;0;0;0;0;0;0;0;0;();(-2000.0, -2000.0);
12:11:07:903;12:11:07:862;1448407626.42;(0, 0);0;0;;;;;;;;;;;;;;0;0;0;0;0;0;0;0;0;();(-2000.0, -2000.0);
12:11:07:920;12:11:07:862;1448407626.42;(0, 0);0;0;;;;;;;;;;;;;;0;0;0;0;0;0;0;0;0;();(-2000.0, -2000.0);
12:11:07:937;12:11:07:932;1448407626.48;(0, 0);0;0;;;;;;;;;;;;;;0;0;0;0;0;0;0;0;0;();(-2000.0, -2000.0);
12:11:07:953;12:11:07:932;1448407626.48;(0, 0);0;0;;;;;;;;;;;;;;0;0;0;0;0;0;0;0;0;();(-2000.0, -2000.0);
12:11:07:970;12:11:07:932;1448407626.48;(0, 0);0;0;;;;;;;;;;;;;;0;0;0;0;0;0;0;0;0;();(-2000.0, -2000.0);
12:11:07:986;12:11:07:932;1448407626.48;(0, 0);0;0;;;;;;;;;;;;;;0;0;0;0;0;0;0;0;0;();(-2000.0, -2000.0);
12:11:08:020;12:11:07:999;1448407626.55;(0.37450644969940183, 0.42439854939778643);56.9729118347;0.630885852349;;;;;;;;;;;;;;0;0;0;0;0;0;0;0;0;();(-2000.0, -2000.0);
12:11:08:035;12:11:07:999;1448407626.55;(0.37450644969940183, 0.42439854939778643);56.9729118347;0.630885852349;;;;;;;;;;;;;;0;0;0;0;0;0;0;0;0;();(-2000.0, -2000.0);
12:11:08:052;12:11:07:999;1448407626.55;(0.37450644969940183, 0.42439854939778643);56.9729118347;0.630885852349;;;;;;;;;;;;;;0;0;0;0;0;0;0;0;0;();(-2000.0, -2000.0);
12:11:08:070;12:11:08:062;1448407626.62;(0, 0);0;0;;;;;;;;;;;;;;0;0;0;0;0;0;0;0;0;();(-2000.0, -2000.0);
12:11:08:103;12:11:08:062;1448407626.62;(0, 0);0;0;;;;;;;;;;;;;;0;0;0;0;0;0;0;0;0;();(-2000.0, -2000.0);
12:11:08:120;12:11:08:062;1448407626.62;(0, 0);0;0;;;;;;;;;;;;;;0;0;0;0;0;0;0;0;0;();(-2000.0, -2000.0);
12:11:08:136;12:11:08:130;1448407626.68;(0, 0);0;0;;;;;;;;;;;;;;0;0;0;0;0;0;0;0;0;();(-2000.0, -2000.0);
12:11:08:154;12:11:08:130;1448407626.68;(0, 0);0;0;;;;;;;;;;;;;;0;0;0;0;0;0;0;0;0;();(-2000.0, -2000.0);
12:11:08:170;12:11:08:130;1448407626.68;(0, 0);0;0;;;;;;;;;;;;;;0;0;0;0;0;0;0;0;0;();(-2000.0, -2000.0);
12:11:08:187;12:11:08:130;1448407626.68;(0, 0);0;0;;;;;;;;;;;;;;0;0;0;0;0;0;0;0;0;();(-2000.0, -2000.0);
12:11:08:220;12:11:08:194;1448407626.75;(0, 0);0;0;;;;;;;;;;;;;;0;0;0;0;0;0;0;0;0;();(-2000.0, -2000.0);
12:11:08:236;12:11:08:194;1448407626.75;(0, 0);0;0;;;;;;;;;;;;;;0;0;0;0;0;0;0;0;0;();(-2000.0, -2000.0);
12:11:08:252;12:11:08:194;1448407626.75;(0, 0);0;0;;;;;;;;;;;;;;0;0;0;0;0;0;0;0;0;();(-2000.0, -2000.0);
12:11:08:269;12:11:08:263;1448407626.82;(0, 0);0;0;;;;;;;;;;;;;;0;0;0;0;0;0;0;0;0;();(-2000.0, -2000.0);
12:11:08:286;12:11:08:263;1448407626.82;(0, 0);0;0;;;;;;;;;;;;;;0;0;0;0;0;0;0;0;0;();(-2000.0, -2000.0);
12:11:08:319;12:11:08:263;1448407626.82;(0, 0);0;0;;;;;;;;;;;;;;0;0;0;0;0;0;0;0;0;();(-2000.0, -2000.0);
12:11:08:336;12:11:08:331;1448407626.88;(0, 0);0;0;;;;;;;;;;;;;;0;0;0;0;0;0;0;0;0;();(-2000.0, -2000.0);
12:11:08:353;12:11:08:331;1448407626.88;(0, 0);0;0;;;;;;;;;;;;;;0;0;0;0;0;0;0;0;0;();(-2000.0, -2000.0);
12:11:08:369;12:11:08:331;1448407626.88;(0, 0);0;0;;;;;;;;;;;;;;0;0;0;0;0;0;0;0;0;();(-2000.0, -2000.0);
12:11:08:387;12:11:08:331;1448407626.88;(0, 0);0;0;;;;;;;;;;;;;;0;0;0;0;0;0;0;0;0;();(-2000.0, -2000.0);
12:11:08:420;12:11:08:395;1448407626.95;(0, 0);0;0;;;;;;;;;;;;;;0;0;0;0;0;0;0;0;0;();(-2000.0, -2000.0);
12:11:08:436;12:11:08:395;1448407626.95;(0, 0);0;0;;;;;;;;;;;;;;0;0;0;0;0;0;0;0;0;();(-2000.0, -2000.0);
12:11:08:452;12:11:08:395;1448407626.95;(0, 0);0;0;;;;;;;;;;;;;;0;0;0;0;0;0;0;0;0;();(-2000.0, -2000.0);
12:11:08:470;12:11:08:463;1448407627.02;(0, 0);0;0;;;;;;;;;;;;;;0;0;0;0;0;0;0;0;0;();(-2000.0, -2000.0);
12:11:08:486;12:11:08:463;1448407627.02;(0, 0);0;0;;;;;;;;;;;;;;0;0;0;0;0;0;0;0;0;();(-2000.0, -2000.0);
12:11:08:521;12:11:08:463;1448407627.02;(0, 0);0;0;;;;;;;;;;;;;;0;0;0;0;0;0;0;0;0;();(-2000.0, -2000.0);
12:11:08:536;12:11:08:527;1448407627.08;(0, 0);0;0;;;;;;;;;;;;;;0;0;0;0;0;0;0;0;0;();(-2000.0, -2000.0);
12:11:08:553;12:11:08:527;1448407627.08;(0, 0);0;0;;;;;;;;;;;;;;0;0;0;0;0;0;0;0;0;();(-2000.0, -2000.0);
12:11:08:570;12:11:08:527;1448407627.08;(0, 0);0;0;;;;;;;;;;;;;;0;0;0;0;0;0;0;0;0;();(-2000.0, -2000.0);
12:11:08:587;12:11:08:527;1448407627.08;(0, 0);0;0;;;;;;;;;;;;;;0;0;0;0;0;0;0;0;0;();(-2000.0, -2000.0);
12:11:08:619;12:11:08:594;1448407627.15;(0, 0);0;0;;;;;;;;;;;;;;0;0;0;0;0;0;0;0;0;();(-2000.0, -2000.0);
12:11:08:636;12:11:08:594;1448407627.15;(0, 0);0;0;;;;;;;;;;;;;;0;0;0;0;0;0;0;0;0;();(-2000.0, -2000.0);
12:11:08:653;12:11:08:594;1448407627.15;(0, 0);0;0;;;;;;;;;;;;;;0;0;0;0;0;0;0;0;0;();(-2000.0, -2000.0);
12:11:08:671;12:11:08:659;1448407627.22;(0, 0);0;0;;;;;;;;;;;;;;0;0;0;0;0;0;0;0;0;();(-2000.0, -2000.0);
12:11:08:686;12:11:08:659;1448407627.22;(0, 0);0;0;;;;;;;;;;;;;;0;0;0;0;0;0;0;0;0;();(-2000.0, -2000.0);
12:11:08:720;12:11:08:659;1448407627.22;(0, 0);0;0;;;;;;;;;;;;;;0;0;0;0;0;0;0;0;0;();(-2000.0, -2000.0);
12:11:08:736;12:11:08:727;1448407627.28;(0.8158451080322265, 0.6298752678765192);18.5393218994;0.691999492085;;;;;;;;;;;;;;0;0;0;0;0;0;0;0;0;();(-2000.0, -2000.0);
12:11:08:754;12:11:08:727;1448407627.28;(0.8158451080322265, 0.6298752678765192);18.5393218994;0.691999492085;;;;;;;;;;;;;;0;0;0;0;0;0;0;0;0;();(-2000.0, -2000.0);
12:11:08:771;12:11:08:727;1448407627.28;(0.8158451080322265, 0.6298752678765192);18.5393218994;0.691999492085;;;;;;;;;;;;;;0;0;0;0;0;0;0;0;0;();(-2000.0, -2000.0);
12:11:08:788;12:11:08:727;1448407627.28;(0.8158451080322265, 0.6298752678765192);18.5393218994;0.691999492085;;;;;;;;;;;;;;0;0;0;0;0;0;0;0;0;();(-2000.0, -2000.0);
12:11:08:821;12:11:08:797;1448407627.35;(0.7733168601989746, 0.3830039978027344);41.6693305969;0.631182423172;;;;;;;;;;;;;;0;0;0;0;0;0;0;0;0;();(-2000.0, -2000.0);
12:11:08:838;12:11:08:797;1448407627.35;(0.7733168601989746, 0.3830039978027344);41.6693305969;0.631182423172;;;;;;;;;;;;;;0;0;0;0;0;0;0;0;0;();(-2000.0, -2000.0);
12:11:08:854;12:11:08:797;1448407627.35;(0.7733168601989746, 0.3830039978027344);41.6693305969;0.631182423172;;;;;;;;;;;;;;0;0;0;0;0;0;0;0;0;();(-2000.0, -2000.0);
12:11:08:870;12:11:08:863;1448407627.42;(0, 0);0;0;;;;;;;;;;;;;;0;0;0;0;0;0;0;0;0;();(-2000.0, -2000.0);
12:11:08:888;12:11:08:863;1448407627.42;(0, 0);0;0;;;;;;;;;;;;;;0;0;0;0;0;0;0;0;0;();(-2000.0, -2000.0);
12:11:08:921;12:11:08:863;1448407627.42;(0, 0);0;0;;;;;;;;;;;;;;0;0;0;0;0;0;0;0;0;();(-2000.0, -2000.0);
12:11:08:938;12:11:08:929;1448407627.48;(0.7802870273590088, 0.3735413869222005);36.6995773315;0.704498435679;;;;;;;;;;;;;;0;0;0;0;0;0;0;0;0;();(-2000.0, -2000.0);
12:11:08:955;12:11:08:929;1448407627.48;(0.7802870273590088, 0.3735413869222005);36.6995773315;0.704498435679;;;;;;;;;;;;;;0;0;0;0;0;0;0;0;0;();(-2000.0, -2000.0);
12:11:08:970;12:11:08:929;1448407627.48;(0.7802870273590088, 0.3735413869222005);36.6995773315;0.704498435679;;;;;;;;;;;;;;0;0;0;0;0;0;0;0;0;();(-2000.0, -2000.0);
12:11:08:988;12:11:08:929;1448407627.48;(0.7802870273590088, 0.3735413869222005);36.6995773315;0.704498435679;;;;;;;;;;;;;;0;0;0;0;0;0;0;0;0;();(-2000.0, -2000.0);
12:11:09:021;12:11:08:992;1448407627.55;(0, 0);0;0;;;;;;;;;;;;;;0;0;0;0;0;0;0;0;0;();(-2000.0, -2000.0);
12:11:09:037;12:11:08:992;1448407627.55;(0, 0);0;0;;;;;;;;;;;;;;0;0;0;0;0;0;0;0;0;();(-2000.0, -2000.0);
12:11:09:053;12:11:08:992;1448407627.55;(0, 0);0;0;;;;;;;;;;;;;;0;0;0;0;0;0;0;0;0;();(-2000.0, -2000.0);
12:11:09:070;12:11:09:059;1448407627.62;(0, 0);0;0;;;;;;;;;;;;;;0;0;0;0;0;0;0;0;0;();(-2000.0, -2000.0);
12:11:09:086;12:11:09:059;1448407627.62;(0, 0);0;0;;;;;;;;;;;;;;0;0;0;0;0;0;0;0;0;();(-2000.0, -2000.0);
12:11:09:120;12:11:09:059;1448407627.62;(0, 0);0;0;;;;;;;;;;;;;;0;0;0;0;0;0;0;0;0;();(-2000.0, -2000.0);
12:11:09:138;12:11:09:126;1448407627.68;(0, 0);0;0;;;;;;;;;;;;;;0;0;0;0;0;0;0;0;0;();(-2000.0, -2000.0);
12:11:09:154;12:11:09:126;1448407627.68;(0, 0);0;0;;;;;;;;;;;;;;0;0;0;0;0;0;0;0;0;();(-2000.0, -2000.0);
12:11:09:170;12:11:09:126;1448407627.68;(0, 0);0;0;;;;;;;;;;;;;;0;0;0;0;0;0;0;0;0;();(-2000.0, -2000.0);
12:11:09:187;12:11:09:126;1448407627.68;(0, 0);0;0;;;;;;;;;;;;;;0;0;0;0;0;0;0;0;0;();(-2000.0, -2000.0);
12:11:09:220;12:11:09:192;1448407627.75;(0, 0);0;0;;;;;;;;;;;;;;0;0;0;0;0;0;0;0;0;();(-2000.0, -2000.0);
12:11:09:238;12:11:09:192;1448407627.75;(0, 0);0;0;;;;;;;;;;;;;;0;0;0;0;0;0;0;0;0;();(-2000.0, -2000.0);
12:11:09:255;12:11:09:192;1448407627.75;(0, 0);0;0;;;;;;;;;;;;;;0;0;0;0;0;0;0;0;0;();(-2000.0, -2000.0);
12:11:09:272;12:11:09:263;1448407627.82;(0.7774673461914062, 0.3817877451578776);47.00623703;0.736478657482;;;;;;;;;;;;;;0;0;0;0;0;0;0;0;0;();(-2000.0, -2000.0);
12:11:09:288;12:11:09:263;1448407627.82;(0.7774673461914062, 0.3817877451578776);47.00623703;0.736478657482;;;;;;;;;;;;;;0;0;0;0;0;0;0;0;0;();(-2000.0, -2000.0);
12:11:09:321;12:11:09:263;1448407627.82;(0.7774673461914062, 0.3817877451578776);47.00623703;0.736478657482;;;;;;;;;;;;;;0;0;0;0;0;0;0;0;0;();(-2000.0, -2000.0);
12:11:09:338;12:11:09:323;1448407627.88;(0, 0);0;0;;;;;;;;;;;;;;0;0;0;0;0;0;0;0;0;();(-2000.0, -2000.0);
12:11:09:355;12:11:09:323;1448407627.88;(0, 0);0;0;;;;;;;;;;;;;;0;0;0;0;0;0;0;0;0;();(-2000.0, -2000.0);
12:11:09:371;12:11:09:323;1448407627.88;(0, 0);0;0;;;;;;;;;;;;;;0;0;0;0;0;0;0;0;0;();(-2000.0, -2000.0);
12:11:09:388;12:11:09:323;1448407627.88;(0, 0);0;0;;;;;;;;;;;;;;0;0;0;0;0;0;0;0;0;();(-2000.0, -2000.0);
12:11:09:420;12:11:09:396;1448407627.95;(0, 0);0;0;;;;;;;;;;;;;;0;0;0;0;0;0;0;0;0;();(-2000.0, -2000.0);
12:11:09:437;12:11:09:396;1448407627.95;(0, 0);0;0;;;;;;;;;;;;;;0;0;0;0;0;0;0;0;0;();(-2000.0, -2000.0);
12:11:09:454;12:11:09:396;1448407627.95;(0, 0);0;0;;;;;;;;;;;;;;0;0;0;0;0;0;0;0;0;();(-2000.0, -2000.0);
12:11:09:875;12:11:09:459;1448407628.02;(0, 0);0;0;;;;;;;;;;;;;;0;0;0;0;0;0;0;0;0;();(-2000.0, -2000.0);
12:11:09:889;12:11:09:884;1448407628.12;(0, 0);0;0;;;;;;;;;;;;;;0;0;0;0;0;0;0;0;0;();(-2000.0, -2000.0);
12:11:09:906;12:11:09:901;1448407628.25;(0, 0);0;0;;;;;;;;;;;;;;0;0;0;0;0;0;0;0;0;();(-2000.0, -2000.0);
12:11:09:921;12:11:09:919;1448407628.42;(0, 0);0;0;;;;;;;;;;;;;;0;0;0;0;0;0;0;0;0;();(-2000.0, -2000.0);
12:11:09:928;12:11:09:926;1448407628.48;(0, 0);0;0;;;;;;;;;;;;;;0;0;0;0;0;0;0;0;0;();(-2000.0, -2000.0);
12:11:09:932;12:11:09:926;1448407628.48;(0, 0);0;0;;;;;;;;;;;;;;0;0;0;0;0;0;0;0;0;();(-2000.0, -2000.0);
12:11:09:936;12:11:09:926;1448407628.48;(0, 0);0;0;;;;;;;;;;;;;;0;0;0;0;0;0;0;0;0;();(-2000.0, -2000.0);
12:11:09:940;12:11:09:926;1448407628.48;(0, 0);0;0;;;;;;;;;;;;;;0;0;0;0;0;0;0;0;0;();(-2000.0, -2000.0);
12:11:09:944;12:11:09:926;1448407628.48;(0, 0);0;0;;;;;;;;;;;;;;0;0;0;0;0;0;0;0;0;();(-2000.0, -2000.0);
12:11:09:948;12:11:09:926;1448407628.48;(0, 0);0;0;;;;;;;;;;;;;;0;0;0;0;0;0;0;0;0;();(-2000.0, -2000.0);
12:11:09:951;12:11:09:926;1448407628.48;(0, 0);0;0;;;;;;;;;;;;;;0;0;0;0;0;0;0;0;0;();(-2000.0, -2000.0);
12:11:09:954;12:11:09:926;1448407628.48;(0, 0);0;0;;;;;;;;;;;;;;0;0;0;0;0;0;0;0;0;();(-2000.0, -2000.0);
12:11:09:958;12:11:09:926;1448407628.48;(0, 0);0;0;;;;;;;;;;;;;;0;0;0;0;0;0;0;0;0;();(-2000.0, -2000.0);
12:11:09:961;12:11:09:926;1448407628.48;(0, 0);0;0;;;;;;;;;;;;;;0;0;0;0;0;0;0;0;0;();(-2000.0, -2000.0);
12:11:09:964;12:11:09:926;1448407628.48;(0, 0);0;0;;;;;;;;;;;;;;0;0;0;0;0;0;0;0;0;();(-2000.0, -2000.0);
12:11:09:967;12:11:09:926;1448407628.48;(0, 0);0;0;;;;;;;;;;;;;;0;0;0;0;0;0;0;0;0;();(-2000.0, -2000.0);
12:11:09:970;12:11:09:926;1448407628.48;(0, 0);0;0;;;;;;;;;;;;;;0;0;0;0;0;0;0;0;0;();(-2000.0, -2000.0);
12:11:09:974;12:11:09:926;1448407628.48;(0, 0);0;0;;;;;;;;;;;;;;0;0;0;0;0;0;0;0;0;();(-2000.0, -2000.0);
12:11:09:977;12:11:09:926;1448407628.48;(0, 0);0;0;;;;;;;;;;;;;;0;0;0;0;0;0;0;0;0;();(-2000.0, -2000.0);
12:11:09:980;12:11:09:926;1448407628.48;(0, 0);0;0;;;;;;;;;;;;;;0;0;0;0;0;0;0;0;0;();(-2000.0, -2000.0);
12:11:09:983;12:11:09:926;1448407628.48;(0, 0);0;0;;;;;;;;;;;;;;0;0;0;0;0;0;0;0;0;();(-2000.0, -2000.0);
12:11:09:989;12:11:09:987;1448407628.55;(0.08010860085487366, 0.5894588894314237);23.1470050812;0.600387456791;;;;;;;;;;;;;;0;0;0;0;0;0;0;0;0;();(-2000.0, -2000.0);
12:11:09:992;12:11:09:987;1448407628.55;(0.08010860085487366, 0.5894588894314237);23.1470050812;0.600387456791;;;;;;;;;;;;;;0;0;0;0;0;0;0;0;0;();(-2000.0, -2000.0);
12:11:10:020;12:11:09:987;1448407628.55;(0.08010860085487366, 0.5894588894314237);23.1470050812;0.600387456791;;;;;;;;;;;;;;0;0;0;0;0;0;0;0;0;();(-2000.0, -2000.0);
12:11:10:037;12:11:09:987;1448407628.55;(0.08010860085487366, 0.5894588894314237);23.1470050812;0.600387456791;;;;;;;;;;;;;;0;0;0;0;0;0;0;0;0;();(-2000.0, -2000.0);
12:11:10:056;12:11:10:054;1448407628.62;(0, 0);0;0;;;;;;;;;;;;;;0;0;0;0;0;0;0;0;0;();(-2000.0, -2000.0);
12:11:10:070;12:11:10:054;1448407628.62;(0, 0);0;0;;;;;;;;;;;;;;0;0;0;0;0;0;0;0;0;();(-2000.0, -2000.0);
12:11:10:088;12:11:10:054;1448407628.62;(0, 0);0;0;;;;;;;;;;;;;;0;0;0;0;0;0;0;0;0;();(-2000.0, -2000.0);
12:11:10:124;12:11:10:122;1448407628.68;(0, 0);0;0;;;;;;;;;;;;;;0;0;0;0;0;0;0;0;0;();(-2000.0, -2000.0);
12:11:10:139;12:11:10:122;1448407628.68;(0, 0);0;0;;;;;;;;;;;;;;0;0;0;0;0;0;0;0;0;();(-2000.0, -2000.0);
12:11:10:155;12:11:10:122;1448407628.68;(0, 0);0;0;;;;;;;;;;;;;;0;0;0;0;0;0;0;0;0;();(-2000.0, -2000.0);
12:11:10:171;12:11:10:122;1448407628.68;(0, 0);0;0;;;;;;;;;;;;;;0;0;0;0;0;0;0;0;0;();(-2000.0, -2000.0);
12:11:10:205;12:11:10:186;1448407628.75;(0, 0);0;0;;;;;;;;;;;;;;0;0;0;0;0;0;0;0;0;();(-2000.0, -2000.0);
12:11:10:222;12:11:10:186;1448407628.75;(0, 0);0;0;;;;;;;;;;;;;;0;0;0;0;0;0;0;0;0;();(-2000.0, -2000.0);
12:11:10:239;12:11:10:186;1448407628.75;(0, 0);0;0;;;;;;;;;;;;;;0;0;0;0;0;0;0;0;0;();(-2000.0, -2000.0);
12:11:10:255;12:11:10:253;1448407628.78;(0.7840514183044434, 0.39769274393717446);43.5353660583;0.627073112701;;;;;;;;;;;;;;0;0;0;0;0;0;0;0;0;();(-2000.0, -2000.0);
12:11:10:271;12:11:10:255;1448407628.82;(0, 0);0;0;;;;;;;;;;;;;;0;0;0;0;0;0;0;0;0;();(-2000.0, -2000.0);
12:11:10:289;12:11:10:255;1448407628.82;(0, 0);0;0;;;;;;;;;;;;;;0;0;0;0;0;0;0;0;0;();(-2000.0, -2000.0);
12:11:10:322;12:11:10:319;1448407628.88;(0, 0);0;0;;;;;;;;;;;;;;0;0;0;0;0;0;0;0;0;();(-2000.0, -2000.0);
12:11:10:339;12:11:10:319;1448407628.88;(0, 0);0;0;;;;;;;;;;;;;;0;0;0;0;0;0;0;0;0;();(-2000.0, -2000.0);
12:11:10:355;12:11:10:319;1448407628.88;(0, 0);0;0;;;;;;;;;;;;;;0;0;0;0;0;0;0;0;0;();(-2000.0, -2000.0);
12:11:10:372;12:11:10:319;1448407628.88;(0, 0);0;0;;;;;;;;;;;;;;0;0;0;0;0;0;0;0;0;();(-2000.0, -2000.0);
12:11:10:405;12:11:10:386;1448407628.95;(0, 0);0;0;;;;;;;;;;;;;;0;0;0;0;0;0;0;0;0;();(-2000.0, -2000.0);
12:11:10:422;12:11:10:386;1448407628.95;(0, 0);0;0;;;;;;;;;;;;;;0;0;0;0;0;0;0;0;0;();(-2000.0, -2000.0);
12:11:10:439;12:11:10:386;1448407628.95;(0, 0);0;0;;;;;;;;;;;;;;0;0;0;0;0;0;0;0;0;();(-2000.0, -2000.0);
12:11:10:457;12:11:10:454;1448407628.98;(0.7707510471343995, 0.38377727932400174);36.1391105652;0.628469858678;;;;;;;;;;;;;;0;0;0;0;0;0;0;0;0;();(-2000.0, -2000.0);
12:11:10:472;12:11:10:456;1448407629.02;(0, 0);0;0;;;;;;;;;;;;;;0;0;0;0;0;0;0;0;0;();(-2000.0, -2000.0);
12:11:10:489;12:11:10:456;1448407629.02;(0, 0);0;0;;;;;;;;;;;;;;0;0;0;0;0;0;0;0;0;();(-2000.0, -2000.0);
12:11:10:522;12:11:10:518;1448407629.08;(0, 0);0;0;;;;;;;;;;;;;;0;0;0;0;0;0;0;0;0;();(-2000.0, -2000.0);
12:11:10:538;12:11:10:518;1448407629.08;(0, 0);0;0;;;;;;;;;;;;;;0;0;0;0;0;0;0;0;0;();(-2000.0, -2000.0);
12:11:10:556;12:11:10:518;1448407629.08;(0, 0);0;0;;;;;;;;;;;;;;0;0;0;0;0;0;0;0;0;();(-2000.0, -2000.0);
12:11:10:572;12:11:10:518;1448407629.08;(0, 0);0;0;;;;;;;;;;;;;;0;0;0;0;0;0;0;0;0;();(-2000.0, -2000.0);
12:11:10:588;12:11:10:586;1448407629.15;(0, 0);0;0;;;;;;;;;;;;;;0;0;0;0;0;0;0;0;0;();(-2000.0, -2000.0);
12:11:10:622;12:11:10:586;1448407629.15;(0, 0);0;0;;;;;;;;;;;;;;0;0;0;0;0;0;0;0;0;();(-2000.0, -2000.0);
12:11:10:638;12:11:10:586;1448407629.15;(0, 0);0;0;;;;;;;;;;;;;;0;0;0;0;0;0;0;0;0;();(-2000.0, -2000.0);
12:11:10:655;12:11:10:651;1448407629.22;(0, 0);0;0;;;;;;;;;;;;;;0;0;0;0;0;0;0;0;0;();(-2000.0, -2000.0);
12:11:10:672;12:11:10:651;1448407629.22;(0, 0);0;0;;;;;;;;;;;;;;0;0;0;0;0;0;0;0;0;();(-2000.0, -2000.0);
12:11:10:689;12:11:10:651;1448407629.22;(0, 0);0;0;;;;;;;;;;;;;;0;0;0;0;0;0;0;0;0;();(-2000.0, -2000.0);
12:11:10:722;12:11:10:718;1448407629.28;(0.7758071422576904, 0.3814503139919705);43.4390869141;0.662238663069;;;;;;;;;;;;;;0;0;0;0;0;0;0;0;0;();(-2000.0, -2000.0);
12:11:10:738;12:11:10:718;1448407629.28;(0.7758071422576904, 0.3814503139919705);43.4390869141;0.662238663069;;;;;;;;;;;;;;0;0;0;0;0;0;0;0;0;();(-2000.0, -2000.0);
12:11:10:756;12:11:10:718;1448407629.28;(0.7758071422576904, 0.3814503139919705);43.4390869141;0.662238663069;;;;;;;;;;;;;;0;0;0;0;0;0;0;0;0;();(-2000.0, -2000.0);
12:11:10:772;12:11:10:718;1448407629.28;(0.7758071422576904, 0.3814503139919705);43.4390869141;0.662238663069;;;;;;;;;;;;;;0;0;0;0;0;0;0;0;0;();(-2000.0, -2000.0);
12:11:10:788;12:11:10:786;1448407629.35;(0, 0);0;0;;;;;;;;;;;;;;0;0;0;0;0;0;0;0;0;();(-2000.0, -2000.0);
12:11:10:823;12:11:10:786;1448407629.35;(0, 0);0;0;;;;;;;;;;;;;;0;0;0;0;0;0;0;0;0;();(-2000.0, -2000.0);
12:11:10:838;12:11:10:786;1448407629.35;(0, 0);0;0;;;;;;;;;;;;;;0;0;0;0;0;0;0;0;0;();(-2000.0, -2000.0);
12:11:10:856;12:11:10:850;1448407629.42;(0.7692851543426513, 0.3849141862657335);32.7646522522;0.643441431505;;;;;;;;;;;;;;0;0;0;0;0;0;0;0;0;();(-2000.0, -2000.0);
12:11:10:871;12:11:10:850;1448407629.42;(0.7692851543426513, 0.3849141862657335);32.7646522522;0.643441431505;;;;;;;;;;;;;;0;0;0;0;0;0;0;0;0;();(-2000.0, -2000.0);
12:11:10:888;12:11:10:850;1448407629.42;(0.7692851543426513, 0.3849141862657335);32.7646522522;0.643441431505;;;;;;;;;;;;;;0;0;0;0;0;0;0;0;0;();(-2000.0, -2000.0);
12:11:10:922;12:11:10:918;1448407629.48;(0, 0);0;0;;;;;;;;;;;;;;0;0;0;0;0;0;0;0;0;();(-2000.0, -2000.0);
12:11:10:938;12:11:10:918;1448407629.48;(0, 0);0;0;;;;;;;;;;;;;;0;0;0;0;0;0;0;0;0;();(-2000.0, -2000.0);
12:11:10:956;12:11:10:918;1448407629.48;(0, 0);0;0;;;;;;;;;;;;;;0;0;0;0;0;0;0;0;0;();(-2000.0, -2000.0);
12:11:10:971;12:11:10:918;1448407629.48;(0, 0);0;0;;;;;;;;;;;;;;0;0;0;0;0;0;0;0;0;();(-2000.0, -2000.0);
12:11:10:990;12:11:10:983;1448407629.55;(0, 0);0;0;;;;;;;;;;;;;;0;0;0;0;0;0;0;0;0;();(-2000.0, -2000.0);
12:11:11:023;12:11:10:983;1448407629.55;(0, 0);0;0;;;;;;;;;;;;;;0;0;0;0;0;0;0;0;0;();(-2000.0, -2000.0);
12:11:11:039;12:11:10:983;1448407629.55;(0, 0);0;0;;;;;;;;;;;;;;0;0;0;0;0;0;0;0;0;();(-2000.0, -2000.0);
12:11:11:055;12:11:10:983;1448407629.55;(0, 0);0;0;;;;;;;;;;;;;;0;0;0;0;0;0;0;0;0;();(-2000.0, -2000.0);
12:11:11:072;12:11:11:064;1448407629.62;(0, 0);0;0;;;;;;;;;;;;;;0;0;0;0;0;0;0;0;0;();(-2000.0, -2000.0);
12:11:11:088;12:11:11:064;1448407629.62;(0, 0);0;0;;;;;;;;;;;;;;0;0;0;0;0;0;0;0;0;();(-2000.0, -2000.0);
12:11:11:122;12:11:11:119;1448407629.68;(0, 0);0;0;;;;;;;;;;;;;;0;0;0;0;0;0;0;0;0;();(-2000.0, -2000.0);
12:11:11:138;12:11:11:119;1448407629.68;(0, 0);0;0;;;;;;;;;;;;;;0;0;0;0;0;0;0;0;0;();(-2000.0, -2000.0);
12:11:11:155;12:11:11:119;1448407629.68;(0, 0);0;0;;;;;;;;;;;;;;0;0;0;0;0;0;0;0;0;();(-2000.0, -2000.0);
12:11:11:172;12:11:11:119;1448407629.68;(0, 0);0;0;;;;;;;;;;;;;;0;0;0;0;0;0;0;0;0;();(-2000.0, -2000.0);
12:11:11:188;12:11:11:182;1448407629.75;(0, 0);0;0;;;;;;;;;;;;;;0;0;0;0;0;0;0;0;0;();(-2000.0, -2000.0);
12:11:11:221;12:11:11:182;1448407629.75;(0, 0);0;0;;;;;;;;;;;;;;0;0;0;0;0;0;0;0;0;();(-2000.0, -2000.0);
12:11:11:238;12:11:11:182;1448407629.75;(0, 0);0;0;;;;;;;;;;;;;;0;0;0;0;0;0;0;0;0;();(-2000.0, -2000.0);
12:11:11:255;12:11:11:250;1448407629.82;(0, 0);0;0;;;;;;;;;;;;;;0;0;0;0;0;0;0;0;0;();(-2000.0, -2000.0);
12:11:11:272;12:11:11:250;1448407629.82;(0, 0);0;0;;;;;;;;;;;;;;0;0;0;0;0;0;0;0;0;();(-2000.0, -2000.0);
12:11:11:289;12:11:11:250;1448407629.82;(0, 0);0;0;;;;;;;;;;;;;;0;0;0;0;0;0;0;0;0;();(-2000.0, -2000.0);
12:11:11:322;12:11:11:314;1448407629.88;(0, 0);0;0;;;;;;;;;;;;;;0;0;0;0;0;0;0;0;0;();(-2000.0, -2000.0);
12:11:11:339;12:11:11:314;1448407629.88;(0, 0);0;0;;;;;;;;;;;;;;0;0;0;0;0;0;0;0;0;();(-2000.0, -2000.0);
12:11:11:355;12:11:11:314;1448407629.88;(0, 0);0;0;;;;;;;;;;;;;;0;0;0;0;0;0;0;0;0;();(-2000.0, -2000.0);
12:11:11:373;12:11:11:314;1448407629.88;(0, 0);0;0;;;;;;;;;;;;;;0;0;0;0;0;0;0;0;0;();(-2000.0, -2000.0);
12:11:11:389;12:11:11:383;1448407629.95;(0, 0);0;0;;;;;;;;;;;;;;0;0;0;0;0;0;0;0;0;();(-2000.0, -2000.0);
12:11:11:421;12:11:11:383;1448407629.95;(0, 0);0;0;;;;;;;;;;;;;;0;0;0;0;0;0;0;0;0;();(-2000.0, -2000.0);
12:11:11:439;12:11:11:383;1448407629.95;(0, 0);0;0;;;;;;;;;;;;;;0;0;0;0;0;0;0;0;0;();(-2000.0, -2000.0);
12:11:11:455;12:11:11:450;1448407630.02;(0, 0);0;0;;;;;;;;;;;;;;0;0;0;0;0;0;0;0;0;();(-2000.0, -2000.0);
12:11:11:471;12:11:11:450;1448407630.02;(0, 0);0;0;;;;;;;;;;;;;;0;0;0;0;0;0;0;0;0;();(-2000.0, -2000.0);
12:11:11:489;12:11:11:450;1448407630.02;(0, 0);0;0;;;;;;;;;;;;;;0;0;0;0;0;0;0;0;0;();(-2000.0, -2000.0);
12:11:11:523;12:11:11:515;1448407630.08;(0, 0);0;0;;;;;;;;;;;;;;0;0;0;0;0;0;0;0;0;();(-2000.0, -2000.0);
12:11:11:539;12:11:11:515;1448407630.08;(0, 0);0;0;;;;;;;;;;;;;;0;0;0;0;0;0;0;0;0;();(-2000.0, -2000.0);
12:11:11:555;12:11:11:515;1448407630.08;(0, 0);0;0;;;;;;;;;;;;;;0;0;0;0;0;0;0;0;0;();(-2000.0, -2000.0);
12:11:11:572;12:11:11:515;1448407630.08;(0, 0);0;0;;;;;;;;;;;;;;0;0;0;0;0;0;0;0;0;();(-2000.0, -2000.0);
12:11:11:589;12:11:11:583;1448407630.15;(0, 0);0;0;;;;;;;;;;;;;;0;0;0;0;0;0;0;0;0;();(-2000.0, -2000.0);
12:11:11:622;12:11:11:583;1448407630.15;(0, 0);0;0;;;;;;;;;;;;;;0;0;0;0;0;0;0;0;0;();(-2000.0, -2000.0);
12:11:11:640;12:11:11:583;1448407630.15;(0, 0);0;0;;;;;;;;;;;;;;0;0;0;0;0;0;0;0;0;();(-2000.0, -2000.0);
12:11:11:657;12:11:11:648;1448407630.22;(0.370398211479187, 0.3896486494276259);55.6303749084;0.603444000041;;;;;;;;;;;;;;0;0;0;0;0;0;0;0;0;();(-2000.0, -2000.0);
12:11:11:673;12:11:11:648;1448407630.22;(0.370398211479187, 0.3896486494276259);55.6303749084;0.603444000041;;;;;;;;;;;;;;0;0;0;0;0;0;0;0;0;();(-2000.0, -2000.0);
12:11:11:689;12:11:11:648;1448407630.22;(0.370398211479187, 0.3896486494276259);55.6303749084;0.603444000041;;;;;;;;;;;;;;0;0;0;0;0;0;0;0;0;();(-2000.0, -2000.0);
12:11:11:723;12:11:11:714;1448407630.28;(0, 0);0;0;;;;;;;;;;;;;;0;0;0;0;0;0;0;0;0;();(-2000.0, -2000.0);
12:11:11:739;12:11:11:714;1448407630.28;(0, 0);0;0;;;;;;;;;;;;;;0;0;0;0;0;0;0;0;0;();(-2000.0, -2000.0);
12:11:11:756;12:11:11:714;1448407630.28;(0, 0);0;0;;;;;;;;;;;;;;0;0;0;0;0;0;0;0;0;();(-2000.0, -2000.0);
12:11:11:772;12:11:11:714;1448407630.28;(0, 0);0;0;;;;;;;;;;;;;;0;0;0;0;0;0;0;0;0;();(-2000.0, -2000.0);
12:11:11:788;12:11:11:780;1448407630.35;(0, 0);0;0;;;;;;;;;;;;;;0;0;0;0;0;0;0;0;0;();(-2000.0, -2000.0);
12:11:11:822;12:11:11:780;1448407630.35;(0, 0);0;0;;;;;;;;;;;;;;0;0;0;0;0;0;0;0;0;();(-2000.0, -2000.0);
12:11:11:839;12:11:11:780;1448407630.35;(0, 0);0;0;;;;;;;;;;;;;;0;0;0;0;0;0;0;0;0;();(-2000.0, -2000.0);
12:11:11:856;12:11:11:846;1448407630.42;(0, 0);0;0;;;;;;;;;;;;;;0;0;0;0;0;0;0;0;0;();(-2000.0, -2000.0);
12:11:11:873;12:11:11:846;1448407630.42;(0, 0);0;0;;;;;;;;;;;;;;0;0;0;0;0;0;0;0;0;();(-2000.0, -2000.0);
12:11:11:889;12:11:11:846;1448407630.42;(0, 0);0;0;;;;;;;;;;;;;;0;0;0;0;0;0;0;0;0;();(-2000.0, -2000.0);
12:11:11:922;12:11:11:914;1448407630.48;(0, 0);0;0;;;;;;;;;;;;;;0;0;0;0;0;0;0;0;0;();(-2000.0, -2000.0);
12:11:11:939;12:11:11:914;1448407630.48;(0, 0);0;0;;;;;;;;;;;;;;0;0;0;0;0;0;0;0;0;();(-2000.0, -2000.0);
12:11:11:956;12:11:11:914;1448407630.48;(0, 0);0;0;;;;;;;;;;;;;;0;0;0;0;0;0;0;0;0;();(-2000.0, -2000.0);
12:11:11:972;12:11:11:914;1448407630.48;(0, 0);0;0;;;;;;;;;;;;;;0;0;0;0;0;0;0;0;0;();(-2000.0, -2000.0);
12:11:11:989;12:11:11:983;1448407630.55;(0, 0);0;0;;;;;;;;;;;;;;0;0;0;0;0;0;0;0;0;();(-2000.0, -2000.0);
12:11:12:023;12:11:11:983;1448407630.55;(0, 0);0;0;;;;;;;;;;;;;;0;0;0;0;0;0;0;0;0;();(-2000.0, -2000.0);
12:11:12:040;12:11:11:983;1448407630.55;(0, 0);0;0;;;;;;;;;;;;;;0;0;0;0;0;0;0;0;0;();(-2000.0, -2000.0);
12:11:12:056;12:11:12:048;1448407630.62;(0, 0);0;0;;;;;;;;;;;;;;0;0;0;0;0;0;0;0;0;();(-2000.0, -2000.0);
12:11:12:073;12:11:12:048;1448407630.62;(0, 0);0;0;;;;;;;;;;;;;;0;0;0;0;0;0;0;0;0;();(-2000.0, -2000.0);
12:11:12:089;12:11:12:048;1448407630.62;(0, 0);0;0;;;;;;;;;;;;;;0;0;0;0;0;0;0;0;0;();(-2000.0, -2000.0);
12:11:12:123;12:11:12:111;1448407630.68;(0, 0);0;0;;;;;;;;;;;;;;0;0;0;0;0;0;0;0;0;();(-2000.0, -2000.0);
12:11:12:141;12:11:12:111;1448407630.68;(0, 0);0;0;;;;;;;;;;;;;;0;0;0;0;0;0;0;0;0;();(-2000.0, -2000.0);
12:11:12:157;12:11:12:111;1448407630.68;(0, 0);0;0;;;;;;;;;;;;;;0;0;0;0;0;0;0;0;0;();(-2000.0, -2000.0);
12:11:12:172;12:11:12:111;1448407630.68;(0, 0);0;0;;;;;;;;;;;;;;0;0;0;0;0;0;0;0;0;();(-2000.0, -2000.0);
12:11:12:189;12:11:12:178;1448407630.75;(0, 0);0;0;;;;;;;;;;;;;;0;0;0;0;0;0;0;0;0;();(-2000.0, -2000.0);
12:11:12:222;12:11:12:178;1448407630.75;(0, 0);0;0;;;;;;;;;;;;;;0;0;0;0;0;0;0;0;0;();(-2000.0, -2000.0);
12:11:12:239;12:11:12:178;1448407630.75;(0, 0);0;0;;;;;;;;;;;;;;0;0;0;0;0;0;0;0;0;();(-2000.0, -2000.0);
12:11:12:256;12:11:12:249;1448407630.82;(0.39401395320892335, 0.40728869967990455);58.3287849426;0.617158061545;;;;;;;;;;;;;;0;0;0;0;0;0;0;0;0;();(-2000.0, -2000.0);
12:11:12:273;12:11:12:249;1448407630.82;(0.39401395320892335, 0.40728869967990455);58.3287849426;0.617158061545;;;;;;;;;;;;;;0;0;0;0;0;0;0;0;0;();(-2000.0, -2000.0);
12:11:12:289;12:11:12:249;1448407630.82;(0.39401395320892335, 0.40728869967990455);58.3287849426;0.617158061545;;;;;;;;;;;;;;0;0;0;0;0;0;0;0;0;();(-2000.0, -2000.0);
12:11:12:323;12:11:12:310;1448407630.88;(0, 0);0;0;;;;;;;;;;;;;;0;0;0;0;0;0;0;0;0;();(-2000.0, -2000.0);
12:11:12:340;12:11:12:310;1448407630.88;(0, 0);0;0;;;;;;;;;;;;;;0;0;0;0;0;0;0;0;0;();(-2000.0, -2000.0);
12:11:12:356;12:11:12:310;1448407630.88;(0, 0);0;0;;;;;;;;;;;;;;0;0;0;0;0;0;0;0;0;();(-2000.0, -2000.0);
12:11:12:372;12:11:12:310;1448407630.88;(0, 0);0;0;;;;;;;;;;;;;;0;0;0;0;0;0;0;0;0;();(-2000.0, -2000.0);
12:11:12:390;12:11:12:377;1448407630.95;(0, 0);0;0;;;;;;;;;;;;;;0;0;0;0;0;0;0;0;0;();(-2000.0, -2000.0);
12:11:12:423;12:11:12:377;1448407630.95;(0, 0);0;0;;;;;;;;;;;;;;0;0;0;0;0;0;0;0;0;();(-2000.0, -2000.0);
12:11:12:441;12:11:12:377;1448407630.95;(0, 0);0;0;;;;;;;;;;;;;;0;0;0;0;0;0;0;0;0;();(-2000.0, -2000.0);
12:11:12:457;12:11:12:449;1448407631.02;(0.39617607593536375, 0.4095566643608941);59.6566390991;0.600506713437;;;;;;;;;;;;;;0;0;0;0;0;0;0;0;0;();(-2000.0, -2000.0);
12:11:12:472;12:11:12:449;1448407631.02;(0.39617607593536375, 0.4095566643608941);59.6566390991;0.600506713437;;;;;;;;;;;;;;0;0;0;0;0;0;0;0;0;();(-2000.0, -2000.0);
12:11:12:490;12:11:12:449;1448407631.02;(0.39617607593536375, 0.4095566643608941);59.6566390991;0.600506713437;;;;;;;;;;;;;;0;0;0;0;0;0;0;0;0;();(-2000.0, -2000.0);
12:11:12:523;12:11:12:510;1448407631.08;(0.39504892826080323, 0.4090276506212023);59.4237937927;0.620303981974;;;;;;;;;;;;;;0;0;0;0;0;0;0;0;0;();(-2000.0, -2000.0);
12:11:12:539;12:11:12:510;1448407631.08;(0.39504892826080323, 0.4090276506212023);59.4237937927;0.620303981974;;;;;;;;;;;;;;0;0;0;0;0;0;0;0;0;();(-2000.0, -2000.0);
12:11:12:556;12:11:12:510;1448407631.08;(0.39504892826080323, 0.4090276506212023);59.4237937927;0.620303981974;;;;;;;;;;;;;;0;0;0;0;0;0;0;0;0;();(-2000.0, -2000.0);
12:11:12:573;12:11:12:510;1448407631.08;(0.39504892826080323, 0.4090276506212023);59.4237937927;0.620303981974;;;;;;;;;;;;;;0;0;0;0;0;0;0;0;0;();(-2000.0, -2000.0);
12:11:12:590;12:11:12:578;1448407631.15;(0, 0);0;0;;;;;;;;;;;;;;0;0;0;0;0;0;0;0;0;();(-2000.0, -2000.0);
12:11:12:623;12:11:12:578;1448407631.15;(0, 0);0;0;;;;;;;;;;;;;;0;0;0;0;0;0;0;0;0;();(-2000.0, -2000.0);
12:11:12:639;12:11:12:578;1448407631.15;(0, 0);0;0;;;;;;;;;;;;;;0;0;0;0;0;0;0;0;0;();(-2000.0, -2000.0);
12:11:12:657;12:11:12:656;1448407631.22;(0, 0);0;0;;;;;;;;;;;;;;0;0;0;0;0;0;0;0;0;();(-2000.0, -2000.0);
12:11:12:672;12:11:12:656;1448407631.22;(0, 0);0;0;;;;;;;;;;;;;;0;0;0;0;0;0;0;0;0;();(-2000.0, -2000.0);
12:11:12:690;12:11:12:656;1448407631.22;(0, 0);0;0;;;;;;;;;;;;;;0;0;0;0;0;0;0;0;0;();(-2000.0, -2000.0);
12:11:12:723;12:11:12:710;1448407631.28;(0.39351959228515626, 0.3928293863932292);60.7439002991;0.613314213607;;;;;;;;;;;;;;0;0;0;0;0;0;0;0;0;();(-2000.0, -2000.0);
12:11:12:739;12:11:12:710;1448407631.28;(0.39351959228515626, 0.3928293863932292);60.7439002991;0.613314213607;;;;;;;;;;;;;;0;0;0;0;0;0;0;0;0;();(-2000.0, -2000.0);
12:11:12:756;12:11:12:710;1448407631.28;(0.39351959228515626, 0.3928293863932292);60.7439002991;0.613314213607;;;;;;;;;;;;;;0;0;0;0;0;0;0;0;0;();(-2000.0, -2000.0);
12:11:12:773;12:11:12:710;1448407631.28;(0.39351959228515626, 0.3928293863932292);60.7439002991;0.613314213607;;;;;;;;;;;;;;0;0;0;0;0;0;0;0;0;();(-2000.0, -2000.0);
12:11:12:790;12:11:12:778;1448407631.35;(0, 0);0;0;;;;;;;;;;;;;;0;0;0;0;0;0;0;0;0;();(-2000.0, -2000.0);
12:11:12:822;12:11:12:778;1448407631.35;(0, 0);0;0;;;;;;;;;;;;;;0;0;0;0;0;0;0;0;0;();(-2000.0, -2000.0);
12:11:12:840;12:11:12:778;1448407631.35;(0, 0);0;0;;;;;;;;;;;;;;0;0;0;0;0;0;0;0;0;();(-2000.0, -2000.0);
12:11:12:858;12:11:12:848;1448407631.42;(0, 0);0;0;;;;;;;;;;;;;;0;0;0;0;0;0;0;0;0;();(-2000.0, -2000.0);
12:11:12:874;12:11:12:848;1448407631.42;(0, 0);0;0;;;;;;;;;;;;;;0;0;0;0;0;0;0;0;0;();(-2000.0, -2000.0);
12:11:12:890;12:11:12:848;1448407631.42;(0, 0);0;0;;;;;;;;;;;;;;0;0;0;0;0;0;0;0;0;();(-2000.0, -2000.0);
12:11:12:923;12:11:12:913;1448407631.48;(0, 0);0;0;;;;;;;;;;;;;;0;0;0;0;0;0;0;0;0;();(-2000.0, -2000.0);
12:11:12:940;12:11:12:913;1448407631.48;(0, 0);0;0;;;;;;;;;;;;;;0;0;0;0;0;0;0;0;0;();(-2000.0, -2000.0);
12:11:12:956;12:11:12:913;1448407631.48;(0, 0);0;0;;;;;;;;;;;;;;0;0;0;0;0;0;0;0;0;();(-2000.0, -2000.0);
12:11:12:973;12:11:12:913;1448407631.48;(0, 0);0;0;;;;;;;;;;;;;;0;0;0;0;0;0;0;0;0;();(-2000.0, -2000.0);
12:11:12:990;12:11:12:978;1448407631.55;(0, 0);0;0;;;;;;;;;;;;;;0;0;0;0;0;0;0;0;0;();(-2000.0, -2000.0);
12:11:13:024;12:11:12:978;1448407631.55;(0, 0);0;0;;;;;;;;;;;;;;0;0;0;0;0;0;0;0;0;();(-2000.0, -2000.0);
12:11:13:040;12:11:12:978;1448407631.55;(0, 0);0;0;;;;;;;;;;;;;;0;0;0;0;0;0;0;0;0;();(-2000.0, -2000.0);
12:11:13:057;12:11:13:044;1448407631.62;(0, 0);0;0;;;;;;;;;;;;;;0;0;0;0;0;0;0;0;0;();(-2000.0, -2000.0);
12:11:13:073;12:11:13:044;1448407631.62;(0, 0);0;0;;;;;;;;;;;;;;0;0;0;0;0;0;0;0;0;();(-2000.0, -2000.0);
12:11:13:091;12:11:13:044;1448407631.62;(0, 0);0;0;;;;;;;;;;;;;;0;0;0;0;0;0;0;0;0;();(-2000.0, -2000.0);
12:11:13:123;12:11:13:106;1448407631.68;(0, 0);0;0;;;;;;;;;;;;;;0;0;0;0;0;0;0;0;0;();(-2000.0, -2000.0);
12:11:13:140;12:11:13:106;1448407631.68;(0, 0);0;0;;;;;;;;;;;;;;0;0;0;0;0;0;0;0;0;();(-2000.0, -2000.0);
12:11:13:157;12:11:13:106;1448407631.68;(0, 0);0;0;;;;;;;;;;;;;;0;0;0;0;0;0;0;0;0;();(-2000.0, -2000.0);
12:11:13:176;12:11:13:173;1448407631.72;(0.08245961368083954, 0.6051829867892795);34.0615959167;0.621141239507;;;;;;;;;;;;;;0;0;0;0;0;0;0;0;0;();(-2000.0, -2000.0);
12:11:13:190;12:11:13:175;1448407631.75;(0, 0);0;0;;;;;;;;;;;;;;0;0;0;0;0;0;0;0;0;();(-2000.0, -2000.0);
12:11:13:223;12:11:13:175;1448407631.75;(0, 0);0;0;;;;;;;;;;;;;;0;0;0;0;0;0;0;0;0;();(-2000.0, -2000.0);
12:11:13:240;12:11:13:175;1448407631.75;(0, 0);0;0;;;;;;;;;;;;;;0;0;0;0;0;0;0;0;0;();(-2000.0, -2000.0);
12:11:13:256;12:11:13:244;1448407631.82;(0, 0);0;0;;;;;;;;;;;;;;0;0;0;0;0;0;0;0;0;();(-2000.0, -2000.0);
12:11:13:274;12:11:13:244;1448407631.82;(0, 0);0;0;;;;;;;;;;;;;;0;0;0;0;0;0;0;0;0;();(-2000.0, -2000.0);
12:11:13:290;12:11:13:244;1448407631.82;(0, 0);0;0;;;;;;;;;;;;;;0;0;0;0;0;0;0;0;0;();(-2000.0, -2000.0);
12:11:13:323;12:11:13:307;1448407631.88;(0.48441081047058104, 0.3822697957356771);55.8839225769;0.687002809418;;;;;;;;;;;;;;0;0;0;0;0;0;0;0;0;();(-2000.0, -2000.0);
12:11:13:340;12:11:13:307;1448407631.88;(0.48441081047058104, 0.3822697957356771);55.8839225769;0.687002809418;;;;;;;;;;;;;;0;0;0;0;0;0;0;0;0;();(-2000.0, -2000.0);
12:11:13:357;12:11:13:307;1448407631.88;(0.48441081047058104, 0.3822697957356771);55.8839225769;0.687002809418;;;;;;;;;;;;;;0;0;0;0;0;0;0;0;0;();(-2000.0, -2000.0);
12:11:13:375;12:11:13:373;1448407631.92;(0.47778544425964353, 0.39733089870876737);60.590461731;0.686601199259;;;;;;;;;;;;;;0;0;0;0;0;0;0;0;0;();(-2000.0, -2000.0);
12:11:13:390;12:11:13:375;1448407631.95;(0.47588658332824707, 0.39665730794270837);58.4621887207;0.671926225397;;;;;;;;;;;;;;0;0;0;0;0;0;0;0;0;();(-2000.0, -2000.0);
12:11:13:424;12:11:13:375;1448407631.95;(0.47588658332824707, 0.39665730794270837);58.4621887207;0.671926225397;;;;;;;;;;;;;;0;0;0;0;0;0;0;0;0;();(-2000.0, -2000.0);
12:11:13:444;12:11:13:440;1448407632.02;(0.47686290740966797, 0.3836893293592665);55.9930458069;0.645298334148;;;;;;;;;;;;;;0;0;0;0;0;0;0;0;0;();(-2000.0, -2000.0);
12:11:13:458;12:11:13:440;1448407632.02;(0.47686290740966797, 0.3836893293592665);55.9930458069;0.645298334148;;;;;;;;;;;;;;0;0;0;0;0;0;0;0;0;();(-2000.0, -2000.0);
12:11:13:475;12:11:13:440;1448407632.02;(0.47686290740966797, 0.3836893293592665);55.9930458069;0.645298334148;;;;;;;;;;;;;;0;0;0;0;0;0;0;0;0;();(-2000.0, -2000.0);
12:11:13:491;12:11:13:440;1448407632.02;(0.47686290740966797, 0.3836893293592665);55.9930458069;0.645298334148;;;;;;;;;;;;;;0;0;0;0;0;0;0;0;0;();(-2000.0, -2000.0);
12:11:13:524;12:11:13:506;1448407632.08;(0.48447246551513673, 0.3888372209337022);52.8602104187;0.656717150292;;;;;;;;;;;;;;0;0;0;0;0;0;0;0;0;();(-2000.0, -2000.0);
12:11:13:540;12:11:13:506;1448407632.08;(0.48447246551513673, 0.3888372209337022);52.8602104187;0.656717150292;;;;;;;;;;;;;;0;0;0;0;0;0;0;0;0;();(-2000.0, -2000.0);
12:11:13:560;12:11:13:506;1448407632.08;(0.48447246551513673, 0.3888372209337022);52.8602104187;0.656717150292;;;;;;;;;;;;;;0;0;0;0;0;0;0;0;0;();(-2000.0, -2000.0);
12:11:13:575;12:11:13:573;1448407632.12;(0.4758261203765869, 0.406470447116428);58.7907409668;0.65872893616;;;;;;;;;;;;;;0;0;0;0;0;0;0;0;0;();(-2000.0, -2000.0);
12:11:13:591;12:11:13:575;1448407632.15;(0.4817484378814697, 0.3903853522406684);51.819442749;0.705450909915;;;;;;;;;;;;;;0;0;0;0;0;0;0;0;0;();(-2000.0, -2000.0);
12:11:13:607;12:11:13:575;1448407632.15;(0.4817484378814697, 0.3903853522406684);51.819442749;0.705450909915;;;;;;;;;;;;;;0;0;0;0;0;0;0;0;0;();(-2000.0, -2000.0);
12:11:13:641;12:11:13:639;1448407632.22;(0.471156644821167, 0.4057612948947482);54.7549247742;0.741107453522;;;;;;;;;;;;;;0;0;0;0;0;0;0;0;0;();(-2000.0, -2000.0);
12:11:13:657;12:11:13:639;1448407632.22;(0.471156644821167, 0.4057612948947482);54.7549247742;0.741107453522;;;;;;;;;;;;;;0;0;0;0;0;0;0;0;0;();(-2000.0, -2000.0);
12:11:13:674;12:11:13:639;1448407632.22;(0.471156644821167, 0.4057612948947482);54.7549247742;0.741107453522;;;;;;;;;;;;;;0;0;0;0;0;0;0;0;0;();(-2000.0, -2000.0);
12:11:13:691;12:11:13:639;1448407632.22;(0.471156644821167, 0.4057612948947482);54.7549247742;0.741107453522;;;;;;;;;;;;;;0;0;0;0;0;0;0;0;0;();(-2000.0, -2000.0);
12:11:13:708;12:11:13:706;1448407632.28;(0, 0);0;0;;;;;;;;;;;;;;0;0;0;0;0;0;0;0;0;();(-2000.0, -2000.0);
12:11:13:741;12:11:13:706;1448407632.28;(0, 0);0;0;;;;;;;;;;;;;;0;0;0;0;0;0;0;0;0;();(-2000.0, -2000.0);
12:11:13:759;12:11:13:706;1448407632.28;(0, 0);0;0;;;;;;;;;;;;;;0;0;0;0;0;0;0;0;0;();(-2000.0, -2000.0);
12:11:13:777;12:11:13:773;1448407632.32;(0.4635349750518799, 0.3971508449978298);49.4937362671;0.708337394741;;;;;;;;;;;;;;0;0;0;0;0;0;0;0;0;();(-2000.0, -2000.0);
12:11:13:792;12:11:13:776;1448407632.35;(0, 0);0;0;;;;;;;;;;;;;;0;0;0;0;0;0;0;0;0;();(-2000.0, -2000.0);
12:11:13:809;12:11:13:776;1448407632.35;(0, 0);0;0;;;;;;;;;;;;;;0;0;0;0;0;0;0;0;0;();(-2000.0, -2000.0);
12:11:13:840;12:11:13:838;1448407632.42;(0, 0);0;0;;;;;;;;;;;;;;0;0;0;0;0;0;0;0;0;();(-2000.0, -2000.0);
12:11:13:857;12:11:13:838;1448407632.42;(0, 0);0;0;;;;;;;;;;;;;;0;0;0;0;0;0;0;0;0;();(-2000.0, -2000.0);
12:11:13:874;12:11:13:838;1448407632.42;(0, 0);0;0;;;;;;;;;;;;;;0;0;0;0;0;0;0;0;0;();(-2000.0, -2000.0);
12:11:13:891;12:11:13:838;1448407632.42;(0, 0);0;0;;;;;;;;;;;;;;0;0;0;0;0;0;0;0;0;();(-2000.0, -2000.0);
12:11:13:924;12:11:13:907;1448407632.48;(0.5020395278930664, 0.37126918368869355);48.3967170715;1.0;;;;;;;;;;;;;;0;0;0;0;0;0;0;0;0;();(-2000.0, -2000.0);
12:11:13:941;12:11:13:907;1448407632.48;(0.5020395278930664, 0.37126918368869355);48.3967170715;1.0;;;;;;;;;;;;;;0;0;0;0;0;0;0;0;0;();(-2000.0, -2000.0);
12:11:13:958;12:11:13:907;1448407632.48;(0.5020395278930664, 0.37126918368869355);48.3967170715;1.0;;;;;;;;;;;;;;0;0;0;0;0;0;0;0;0;();(-2000.0, -2000.0);
12:11:13:974;12:11:13:971;1448407632.55;(0.5010462760925293, 0.3722552405463324);47.7857170105;0.991372814377;;;;;;;;;;;;;;0;0;0;0;0;0;0;0;0;();(-2000.0, -2000.0);
12:11:13:992;12:11:13:971;1448407632.55;(0.5010462760925293, 0.3722552405463324);47.7857170105;0.991372814377;;;;;;;;;;;;;;0;0;0;0;0;0;0;0;0;();(-2000.0, -2000.0);
12:11:14:025;12:11:13:971;1448407632.55;(0.5010462760925293, 0.3722552405463324);47.7857170105;0.991372814377;;;;;;;;;;;;;;0;0;0;0;0;0;0;0;0;();(-2000.0, -2000.0);
12:11:14:042;12:11:14:038;1448407632.58;(0.49842324256896975, 0.37401123046874996);47.5340003967;1.0;;;;;;;;;;;;;;0;0;0;0;0;0;0;0;0;();(-2000.0, -2000.0);
12:11:14:057;12:11:14:038;1448407632.58;(0.49842324256896975, 0.37401123046874996);47.5340003967;1.0;;;;;;;;;;;;;;0;0;0;0;0;0;0;0;0;();(-2000.0, -2000.0);
12:11:14:074;12:11:14:038;1448407632.58;(0.49842324256896975, 0.37401123046874996);47.5340003967;1.0;;;;;;;;;;;;;;0;0;0;0;0;0;0;0;0;();(-2000.0, -2000.0);
12:11:14:091;12:11:14:038;1448407632.58;(0.49842324256896975, 0.37401123046874996);47.5340003967;1.0;;;;;;;;;;;;;;0;0;0;0;0;0;0;0;0;();(-2000.0, -2000.0);
12:11:14:108;12:11:14:104;1448407632.68;(0.5130372047424316, 0.3698182423909505);47.9942131042;1.0;;;;;;;;;;;;;;0;0;0;0;0;0;0;0;0;();(-2000.0, -2000.0);
12:11:14:141;12:11:14:104;1448407632.68;(0.5130372047424316, 0.3698182423909505);47.9942131042;1.0;;;;;;;;;;;;;;0;0;0;0;0;0;0;0;0;();(-2000.0, -2000.0);
12:11:14:157;12:11:14:104;1448407632.68;(0.5130372047424316, 0.3698182423909505);47.9942131042;1.0;;;;;;;;;;;;;;0;0;0;0;0;0;0;0;0;();(-2000.0, -2000.0);
12:11:14:174;12:11:14:169;1448407632.72;(0.5118425369262696, 0.371221923828125);47.6242256165;0.880336453037;;;;;;;;;;;;;;0;0;0;0;0;0;0;0;0;();(-2000.0, -2000.0);
12:11:14:191;12:11:14:169;1448407632.72;(0.5118425369262696, 0.371221923828125);47.6242256165;0.880336453037;;;;;;;;;;;;;;0;0;0;0;0;0;0;0;0;();(-2000.0, -2000.0);
12:11:14:225;12:11:14:169;1448407632.72;(0.5118425369262696, 0.371221923828125);47.6242256165;0.880336453037;;;;;;;;;;;;;;0;0;0;0;0;0;0;0;0;();(-2000.0, -2000.0);
12:11:14:241;12:11:14:239;1448407632.82;(0.5045501708984375, 0.37594960530598953);48.6112518311;0.874042250493;;;;;;;;;;;;;;0;0;0;0;0;0;0;0;0;();(-2000.0, -2000.0);
12:11:14:258;12:11:14:239;1448407632.82;(0.5045501708984375, 0.37594960530598953);48.6112518311;0.874042250493;;;;;;;;;;;;;;0;0;0;0;0;0;0;0;0;();(-2000.0, -2000.0);
12:11:14:274;12:11:14:239;1448407632.82;(0.5045501708984375, 0.37594960530598953);48.6112518311;0.874042250493;;;;;;;;;;;;;;0;0;0;0;0;0;0;0;0;();(-2000.0, -2000.0);
12:11:14:291;12:11:14:239;1448407632.82;(0.5045501708984375, 0.37594960530598953);48.6112518311;0.874042250493;;;;;;;;;;;;;;0;0;0;0;0;0;0;0;0;();(-2000.0, -2000.0);
12:11:14:308;12:11:14:304;1448407632.88;(0.5016446113586426, 0.3774410671657986);47.6805000305;0.91661263385;;;;;;;;;;;;;;0;0;0;0;0;0;0;0;0;();(-2000.0, -2000.0);
12:11:14:341;12:11:14:304;1448407632.88;(0.5016446113586426, 0.3774410671657986);47.6805000305;0.91661263385;;;;;;;;;;;;;;0;0;0;0;0;0;0;0;0;();(-2000.0, -2000.0);
12:11:14:358;12:11:14:304;1448407632.88;(0.5016446113586426, 0.3774410671657986);47.6805000305;0.91661263385;;;;;;;;;;;;;;0;0;0;0;0;0;0;0;0;();(-2000.0, -2000.0);
12:11:14:374;12:11:14:370;1448407632.95;(0.49948945045471194, 0.37885517544216585);47.5410575867;0.951917968179;;;;;;;;;;;;;;0;0;0;0;0;0;0;0;0;();(-2000.0, -2000.0);
12:11:14:391;12:11:14:370;1448407632.95;(0.49948945045471194, 0.37885517544216585);47.5410575867;0.951917968179;;;;;;;;;;;;;;0;0;0;0;0;0;0;0;0;();(-2000.0, -2000.0);
12:11:14:408;12:11:14:370;1448407632.95;(0.49948945045471194, 0.37885517544216585);47.5410575867;0.951917968179;;;;;;;;;;;;;;0;0;0;0;0;0;0;0;0;();(-2000.0, -2000.0);
12:11:14:441;12:11:14:434;1448407632.98;(0.49827914237976073, 0.37939533657497826);47.1229095459;0.90663868692;;;;;;;;;;;;;;0;0;0;0;0;0;0;0;0;();(-2000.0, -2000.0);
12:11:14:458;12:11:14:434;1448407632.98;(0.49827914237976073, 0.37939533657497826);47.1229095459;0.90663868692;;;;;;;;;;;;;;0;0;0;0;0;0;0;0;0;();(-2000.0, -2000.0);
12:11:14:475;12:11:14:434;1448407632.98;(0.49827914237976073, 0.37939533657497826);47.1229095459;0.90663868692;;;;;;;;;;;;;;0;0;0;0;0;0;0;0;0;();(-2000.0, -2000.0);
12:11:14:491;12:11:14:434;1448407632.98;(0.49827914237976073, 0.37939533657497826);47.1229095459;0.90663868692;;;;;;;;;;;;;;0;0;0;0;0;0;0;0;0;();(-2000.0, -2000.0);
12:11:14:508;12:11:14:503;1448407633.08;(0.4952293872833252, 0.38825399610731337);51.3930053711;0.854401689849;;;;;;;;;;;;;;0;0;0;0;0;0;0;0;0;();(-2000.0, -2000.0);
12:11:14:541;12:11:14:503;1448407633.08;(0.4952293872833252, 0.38825399610731337);51.3930053711;0.854401689849;;;;;;;;;;;;;;0;0;0;0;0;0;0;0;0;();(-2000.0, -2000.0);
12:11:14:558;12:11:14:503;1448407633.08;(0.4952293872833252, 0.38825399610731337);51.3930053711;0.854401689849;;;;;;;;;;;;;;0;0;0;0;0;0;0;0;0;();(-2000.0, -2000.0);
12:11:14:576;12:11:14:575;1448407633.15;(0.49314064979553224, 0.39063292609320743);51.881816864;0.899557751463;;;;;;;;;;;;;;0;0;0;0;0;0;0;0;0;();(-2000.0, -2000.0);
12:11:14:591;12:11:14:575;1448407633.15;(0.49314064979553224, 0.39063292609320743);51.881816864;0.899557751463;;;;;;;;;;;;;;0;0;0;0;0;0;0;0;0;();(-2000.0, -2000.0);
12:11:14:609;12:11:14:575;1448407633.15;(0.49314064979553224, 0.39063292609320743);51.881816864;0.899557751463;;;;;;;;;;;;;;0;0;0;0;0;0;0;0;0;();(-2000.0, -2000.0);
12:11:14:643;12:11:14:634;1448407633.18;(0.49240360260009763, 0.3905989752875434);51.6386833191;0.825554315698;;;;;;;;;;;;;;0;0;0;0;0;0;0;0;0;();(-2000.0, -2000.0);
12:11:14:659;12:11:14:634;1448407633.18;(0.49240360260009763, 0.3905989752875434);51.6386833191;0.825554315698;;;;;;;;;;;;;;0;0;0;0;0;0;0;0;0;();(-2000.0, -2000.0);
12:11:14:675;12:11:14:634;1448407633.18;(0.49240360260009763, 0.3905989752875434);51.6386833191;0.825554315698;;;;;;;;;;;;;;0;0;0;0;0;0;0;0;0;();(-2000.0, -2000.0);
12:11:14:692;12:11:14:634;1448407633.18;(0.49240360260009763, 0.3905989752875434);51.6386833191;0.825554315698;;;;;;;;;;;;;;0;0;0;0;0;0;0;0;0;();(-2000.0, -2000.0);
12:11:14:711;12:11:14:707;1448407633.28;(0.3929874897003174, 0.564866468641493);23.3781032562;0.785096351141;;;;;;;;;;;;;;0;0;0;0;0;0;0;0;0;();(-2000.0, -2000.0);
12:11:14:743;12:11:14:707;1448407633.28;(0.3929874897003174, 0.564866468641493);23.3781032562;0.785096351141;;;;;;;;;;;;;;0;0;0;0;0;0;0;0;0;();(-2000.0, -2000.0);
12:11:14:759;12:11:14:707;1448407633.28;(0.3929874897003174, 0.564866468641493);23.3781032562;0.785096351141;;;;;;;;;;;;;;0;0;0;0;0;0;0;0;0;();(-2000.0, -2000.0);
12:11:14:776;12:11:14:707;1448407633.28;(0.3929874897003174, 0.564866468641493);23.3781032562;0.785096351141;;;;;;;;;;;;;;0;0;0;0;0;0;0;0;0;();(-2000.0, -2000.0);
12:11:14:793;12:11:14:781;1448407633.32;(0.4904937267303467, 0.38555806477864585);49.6361083984;0.852694104744;;;;;;;;;;;;;;0;0;0;0;0;0;0;0;0;();(-2000.0, -2000.0);
12:11:14:808;12:11:14:781;1448407633.32;(0.4904937267303467, 0.38555806477864585);49.6361083984;0.852694104744;;;;;;;;;;;;;;0;0;0;0;0;0;0;0;0;();(-2000.0, -2000.0);
12:11:14:842;12:11:14:834;1448407633.38;(0.4892873764038086, 0.38476880391438806);48.7822151184;0.771260668163;;;;;;;;;;;;;;0;0;0;0;0;0;0;0;0;();(-2000.0, -2000.0);
12:11:14:859;12:11:14:834;1448407633.38;(0.4892873764038086, 0.38476880391438806);48.7822151184;0.771260668163;;;;;;;;;;;;;;0;0;0;0;0;0;0;0;0;();(-2000.0, -2000.0);
12:11:14:875;12:11:14:834;1448407633.38;(0.4892873764038086, 0.38476880391438806);48.7822151184;0.771260668163;;;;;;;;;;;;;;0;0;0;0;0;0;0;0;0;();(-2000.0, -2000.0);
12:11:14:893;12:11:14:834;1448407633.38;(0.4892873764038086, 0.38476880391438806);48.7822151184;0.771260668163;;;;;;;;;;;;;;0;0;0;0;0;0;0;0;0;();(-2000.0, -2000.0);
12:11:14:908;12:11:14:903;1448407633.45;(0, 0);0;0;;;;;;;;;;;;;;0;0;0;0;0;0;0;0;0;();(-2000.0, -2000.0);
12:11:15:365;12:11:14:903;1448407633.45;(0, 0);0;0;;;;;;;;;;;;;;0;0;0;0;0;0;0;0;0;();(-2000.0, -2000.0);
12:11:15:381;12:11:15:376;1448407633.55;(0.5057722091674804, 0.3869608137342665);51.8743171692;0.922917591385;;;;;;;;;;;;;;0;0;0;0;0;0;0;0;0;();(-2000.0, -2000.0);
12:11:15:394;12:11:15:384;1448407633.62;(0.5045007228851318, 0.3866114298502604);49.670425415;0.806528494157;;;;;;;;;;;;;;0;0;0;0;0;0;0;0;0;();(-2000.0, -2000.0);
12:11:15:407;12:11:15:397;1448407633.68;(0.39588849544525145, 0.5657025655110677);24.0333213806;0.913171370557;;;;;;;;;;;;;;0;0;0;0;0;0;0;0;0;();(-2000.0, -2000.0);
12:11:15:422;12:11:15:415;1448407633.92;(0.5020466327667237, 0.3920744154188368);45.4351501465;0.668232122874;;;;;;;;;;;;;;0;0;0;0;0;0;0;0;0;();(-2000.0, -2000.0);
