%Timestamp,timestamp_write;timestamp_gotpupil;eyeTrackerTime;normPos;diameter;confidence;timestamp_gotbitdata;CRC;SEQ;AnalogOutp1;AnalogOutp2;AnalogOutp3;AnalogOutp4;AnalogOutp5;AnalogOutp6;DigitalOutp1;DigitalOutp2;DigitalOutp3;DigitalOutp4;nplanes;listofAirplanesonScreen;lastAction;lastActionDetails;lastActionAirplaneNumber;calculatedScore;positiveScore;negativeScore;collidedAirplaneNumbers;targetPositions;collisionPoint
12:22:01:210;12:22:01:199;1448408279.72;(0.6889416694641113, 0.8175800641377767);89.5558776855;0.726906567906;;;;;;;;;;;;;;0;0;0;0;0;0;0;0;0;();(-2000.0, -2000.0);
12:22:01:224;12:22:01:211;1448408279.75;(0.6944427013397216, 0.8170897165934244);90.758934021;0.700653464558;;;;;;;;;;;;;;0;0;0;0;0;0;0;0;0;();(-2000.0, -2000.0);
12:22:01:232;12:22:01:211;1448408279.75;(0.6944427013397216, 0.8170897165934244);90.758934021;0.700653464558;;;;;;;;;;;;;;0;0;0;0;0;0;0;0;0;();(-2000.0, -2000.0);
12:22:01:240;12:22:01:211;1448408279.75;(0.6944427013397216, 0.8170897165934244);90.758934021;0.700653464558;;;;;;;;;;;;;;0;0;0;0;0;0;0;0;0;();(-2000.0, -2000.0);
12:22:01:247;12:22:01:211;1448408279.75;(0.6944427013397216, 0.8170897165934244);90.758934021;0.700653464558;;;;;;;;;;;;;;0;0;0;0;0;0;0;0;0;();(-2000.0, -2000.0);
12:22:01:251;12:22:01:211;1448408279.75;(0.6944427013397216, 0.8170897165934244);90.758934021;0.700653464558;;;;;;;;;;;;;;0;0;0;0;0;0;0;0;0;();(-2000.0, -2000.0);
12:22:01:254;12:22:01:211;1448408279.75;(0.6944427013397216, 0.8170897165934244);90.758934021;0.700653464558;;;;;;;;;;;;;;0;0;0;0;0;0;0;0;0;();(-2000.0, -2000.0);
12:22:01:258;12:22:01:211;1448408279.75;(0.6944427013397216, 0.8170897165934244);90.758934021;0.700653464558;;;;;;;;;;;;;;0;0;0;0;0;0;0;0;0;();(-2000.0, -2000.0);
12:22:01:262;12:22:01:211;1448408279.75;(0.6944427013397216, 0.8170897165934244);90.758934021;0.700653464558;;;;;;;;;;;;;;0;0;0;0;0;0;0;0;0;();(-2000.0, -2000.0);
12:22:01:266;12:22:01:211;1448408279.75;(0.6944427013397216, 0.8170897165934244);90.758934021;0.700653464558;;;;;;;;;;;;;;0;0;0;0;0;0;0;0;0;();(-2000.0, -2000.0);
12:22:01:270;12:22:01:211;1448408279.75;(0.6944427013397216, 0.8170897165934244);90.758934021;0.700653464558;;;;;;;;;;;;;;0;0;0;0;0;0;0;0;0;();(-2000.0, -2000.0);
12:22:01:274;12:22:01:272;1448408279.78;(0, 0);0;0;;;;;;;;;;;;;;0;0;0;0;0;0;0;0;0;();(-2000.0, -2000.0);
12:22:01:279;12:22:01:277;1448408279.82;(0.7030288696289062, 0.8130085733201768);91.1560440063;0.845671615654;;;;;;;;;;;;;;0;0;0;0;0;0;0;0;0;();(-2000.0, -2000.0);
12:22:01:282;12:22:01:277;1448408279.82;(0.7030288696289062, 0.8130085733201768);91.1560440063;0.845671615654;;;;;;;;;;;;;;0;0;0;0;0;0;0;0;0;();(-2000.0, -2000.0);
12:22:01:286;12:22:01:277;1448408279.82;(0.7030288696289062, 0.8130085733201768);91.1560440063;0.845671615654;;;;;;;;;;;;;;0;0;0;0;0;0;0;0;0;();(-2000.0, -2000.0);
12:22:01:289;12:22:01:277;1448408279.82;(0.7030288696289062, 0.8130085733201768);91.1560440063;0.845671615654;;;;;;;;;;;;;;0;0;0;0;0;0;0;0;0;();(-2000.0, -2000.0);
12:22:01:293;12:22:01:277;1448408279.82;(0.7030288696289062, 0.8130085733201768);91.1560440063;0.845671615654;;;;;;;;;;;;;;0;0;0;0;0;0;0;0;0;();(-2000.0, -2000.0);
12:22:01:297;12:22:01:277;1448408279.82;(0.7030288696289062, 0.8130085733201768);91.1560440063;0.845671615654;;;;;;;;;;;;;;0;0;0;0;0;0;0;0;0;();(-2000.0, -2000.0);
12:22:01:301;12:22:01:277;1448408279.82;(0.7030288696289062, 0.8130085733201768);91.1560440063;0.845671615654;;;;;;;;;;;;;;0;0;0;0;0;0;0;0;0;();(-2000.0, -2000.0);
12:22:01:304;12:22:01:277;1448408279.82;(0.7030288696289062, 0.8130085733201768);91.1560440063;0.845671615654;;;;;;;;;;;;;;0;0;0;0;0;0;0;0;0;();(-2000.0, -2000.0);
12:22:01:308;12:22:01:277;1448408279.82;(0.7030288696289062, 0.8130085733201768);91.1560440063;0.845671615654;;;;;;;;;;;;;;0;0;0;0;0;0;0;0;0;();(-2000.0, -2000.0);
12:22:01:312;12:22:01:277;1448408279.82;(0.7030288696289062, 0.8130085733201768);91.1560440063;0.845671615654;;;;;;;;;;;;;;0;0;0;0;0;0;0;0;0;();(-2000.0, -2000.0);
12:22:01:330;12:22:01:277;1448408279.82;(0.7030288696289062, 0.8130085733201768);91.1560440063;0.845671615654;;;;;;;;;;;;;;0;0;0;0;0;0;0;0;0;();(-2000.0, -2000.0);
12:22:01:364;12:22:01:337;1448408279.88;(0, 0);0;0;;;;;;;;;;;;;;0;0;0;0;0;0;0;0;0;();(-2000.0, -2000.0);
12:22:01:379;12:22:01:337;1448408279.88;(0, 0);0;0;;;;;;;;;;;;;;0;0;0;0;0;0;0;0;0;();(-2000.0, -2000.0);
12:22:01:397;12:22:01:337;1448408279.88;(0, 0);0;0;;;;;;;;;;;;;;0;0;0;0;0;0;0;0;0;();(-2000.0, -2000.0);
12:22:01:413;12:22:01:400;1448408279.95;(0, 0);0;0;;;;;;;;;;;;;;0;0;0;0;0;0;0;0;0;();(-2000.0, -2000.0);
12:22:01:430;12:22:01:400;1448408279.95;(0, 0);0;0;;;;;;;;;;;;;;0;0;0;0;0;0;0;0;0;();(-2000.0, -2000.0);
12:22:01:463;12:22:01:400;1448408279.95;(0, 0);0;0;;;;;;;;;;;;;;0;0;0;0;0;0;0;0;0;();(-2000.0, -2000.0);
12:22:01:480;12:22:01:472;1448408280.02;(0, 0);0;0;;;;;;;;;;;;;;0;0;0;0;0;0;0;0;0;();(-2000.0, -2000.0);
12:22:01:496;12:22:01:472;1448408280.02;(0, 0);0;0;;;;;;;;;;;;;;0;0;0;0;0;0;0;0;0;();(-2000.0, -2000.0);
12:22:01:513;12:22:01:472;1448408280.02;(0, 0);0;0;;;;;;;;;;;;;;0;0;0;0;0;0;0;0;0;();(-2000.0, -2000.0);
12:22:01:530;12:22:01:472;1448408280.02;(0, 0);0;0;;;;;;;;;;;;;;0;0;0;0;0;0;0;0;0;();(-2000.0, -2000.0);
12:22:01:563;12:22:01:472;1448408280.02;(0, 0);0;0;;;;;;;;;;;;;;0;0;0;0;0;0;0;0;0;();(-2000.0, -2000.0);
12:22:01:580;12:22:01:472;1448408280.02;(0, 0);0;0;;;;;;;;;;;;;;0;0;0;0;0;0;0;0;0;();(-2000.0, -2000.0);
12:22:01:596;12:22:01:472;1448408280.02;(0, 0);0;0;;;;;;;;;;;;;;0;0;0;0;0;0;0;0;0;();(-2000.0, -2000.0);
12:22:01:614;12:22:01:604;1448408280.16;(0, 0);0;0;;;;;;;;;;;;;;0;0;0;0;0;0;0;0;0;();(-2000.0, -2000.0);
12:22:01:631;12:22:01:604;1448408280.16;(0, 0);0;0;;;;;;;;;;;;;;0;0;0;0;0;0;0;0;0;();(-2000.0, -2000.0);
12:22:01:664;12:22:01:604;1448408280.16;(0, 0);0;0;;;;;;;;;;;;;;0;0;0;0;0;0;0;0;0;();(-2000.0, -2000.0);
12:22:01:680;12:22:01:669;1448408280.22;(0.6556107044219971, 0.8237563663058811);89.3602371216;0.915367947806;;;;;;;;;;;;;;0;0;0;0;0;0;0;0;0;();(-2000.0, -2000.0);
12:22:01:697;12:22:01:669;1448408280.22;(0.6556107044219971, 0.8237563663058811);89.3602371216;0.915367947806;;;;;;;;;;;;;;0;0;0;0;0;0;0;0;0;();(-2000.0, -2000.0);
12:22:01:714;12:22:01:669;1448408280.22;(0.6556107044219971, 0.8237563663058811);89.3602371216;0.915367947806;;;;;;;;;;;;;;0;0;0;0;0;0;0;0;0;();(-2000.0, -2000.0);
12:22:01:730;12:22:01:669;1448408280.22;(0.6556107044219971, 0.8237563663058811);89.3602371216;0.915367947806;;;;;;;;;;;;;;0;0;0;0;0;0;0;0;0;();(-2000.0, -2000.0);
12:22:01:764;12:22:01:736;1448408280.28;(0.254095721244812, 0.847529771592882);21.9555034637;0.859976909326;;;;;;;;;;;;;;0;0;0;0;0;0;0;0;0;();(-2000.0, -2000.0);
12:22:01:781;12:22:01:736;1448408280.28;(0.254095721244812, 0.847529771592882);21.9555034637;0.859976909326;;;;;;;;;;;;;;0;0;0;0;0;0;0;0;0;();(-2000.0, -2000.0);
12:22:01:797;12:22:01:736;1448408280.28;(0.254095721244812, 0.847529771592882);21.9555034637;0.859976909326;;;;;;;;;;;;;;0;0;0;0;0;0;0;0;0;();(-2000.0, -2000.0);
12:22:01:815;12:22:01:806;1448408280.35;(0, 0);0;0;;;;;;;;;;;;;;0;0;0;0;0;0;0;0;0;();(-2000.0, -2000.0);
12:22:01:831;12:22:01:806;1448408280.35;(0, 0);0;0;;;;;;;;;;;;;;0;0;0;0;0;0;0;0;0;();(-2000.0, -2000.0);
12:22:01:864;12:22:01:806;1448408280.35;(0, 0);0;0;;;;;;;;;;;;;;0;0;0;0;0;0;0;0;0;();(-2000.0, -2000.0);
12:22:01:881;12:22:01:865;1448408280.42;(0.671968936920166, 0.820856793721517);89.580871582;0.747493856019;;;;;;;;;;;;;;0;0;0;0;0;0;0;0;0;();(-2000.0, -2000.0);
12:22:01:898;12:22:01:865;1448408280.42;(0.671968936920166, 0.820856793721517);89.580871582;0.747493856019;;;;;;;;;;;;;;0;0;0;0;0;0;0;0;0;();(-2000.0, -2000.0);
12:22:01:914;12:22:01:865;1448408280.42;(0.671968936920166, 0.820856793721517);89.580871582;0.747493856019;;;;;;;;;;;;;;0;0;0;0;0;0;0;0;0;();(-2000.0, -2000.0);
12:22:01:930;12:22:01:865;1448408280.42;(0.671968936920166, 0.820856793721517);89.580871582;0.747493856019;;;;;;;;;;;;;;0;0;0;0;0;0;0;0;0;();(-2000.0, -2000.0);
12:22:01:963;12:22:01:935;1448408280.48;(0.6743890762329101, 0.8167228486802842);89.6725997925;0.925486241758;;;;;;;;;;;;;;0;0;0;0;0;0;0;0;0;();(-2000.0, -2000.0);
12:22:01:980;12:22:01:935;1448408280.48;(0.6743890762329101, 0.8167228486802842);89.6725997925;0.925486241758;;;;;;;;;;;;;;0;0;0;0;0;0;0;0;0;();(-2000.0, -2000.0);
12:22:01:997;12:22:01:935;1448408280.48;(0.6743890762329101, 0.8167228486802842);89.6725997925;0.925486241758;;;;;;;;;;;;;;0;0;0;0;0;0;0;0;0;();(-2000.0, -2000.0);
12:22:02:014;12:22:02:003;1448408280.58;(0.6520520210266113, 0.8085724194844564);89.0110397339;0.740461616963;;;;;;;;;;;;;;0;0;0;0;0;0;0;0;0;();(-2000.0, -2000.0);
12:22:02:030;12:22:02:003;1448408280.58;(0.6520520210266113, 0.8085724194844564);89.0110397339;0.740461616963;;;;;;;;;;;;;;0;0;0;0;0;0;0;0;0;();(-2000.0, -2000.0);
12:22:02:064;12:22:02:003;1448408280.58;(0.6520520210266113, 0.8085724194844564);89.0110397339;0.740461616963;;;;;;;;;;;;;;0;0;0;0;0;0;0;0;0;();(-2000.0, -2000.0);
12:22:02:080;12:22:02:063;1448408280.62;(0.32069954872131345, 0.6661675771077473);26.7996025085;0.79358108647;;;;;;;;;;;;;;0;0;0;0;0;0;0;0;0;();(-2000.0, -2000.0);
12:22:02:097;12:22:02:063;1448408280.62;(0.32069954872131345, 0.6661675771077473);26.7996025085;0.79358108647;;;;;;;;;;;;;;0;0;0;0;0;0;0;0;0;();(-2000.0, -2000.0);
12:22:02:114;12:22:02:063;1448408280.62;(0.32069954872131345, 0.6661675771077473);26.7996025085;0.79358108647;;;;;;;;;;;;;;0;0;0;0;0;0;0;0;0;();(-2000.0, -2000.0);
12:22:02:131;12:22:02:063;1448408280.62;(0.32069954872131345, 0.6661675771077473);26.7996025085;0.79358108647;;;;;;;;;;;;;;0;0;0;0;0;0;0;0;0;();(-2000.0, -2000.0);
12:22:02:163;12:22:02:135;1448408280.68;(0, 0);0;0;;;;;;;;;;;;;;0;0;0;0;0;0;0;0;0;();(-2000.0, -2000.0);
12:22:02:180;12:22:02:135;1448408280.68;(0, 0);0;0;;;;;;;;;;;;;;0;0;0;0;0;0;0;0;0;();(-2000.0, -2000.0);
12:22:02:198;12:22:02:196;1448408280.72;(0, 0);0;0;;;;;;;;;;;;;;0;0;0;0;0;0;0;0;0;();(-2000.0, -2000.0);
12:22:02:215;12:22:02:197;1448408280.75;(0.5089059829711914, 0.7658355289035373);20.0768089294;0.610861493012;;;;;;;;;;;;;;0;0;0;0;0;0;0;0;0;();(-2000.0, -2000.0);
12:22:02:230;12:22:02:197;1448408280.75;(0.5089059829711914, 0.7658355289035373);20.0768089294;0.610861493012;;;;;;;;;;;;;;0;0;0;0;0;0;0;0;0;();(-2000.0, -2000.0);
12:22:02:265;12:22:02:197;1448408280.75;(0.5089059829711914, 0.7658355289035373);20.0768089294;0.610861493012;;;;;;;;;;;;;;0;0;0;0;0;0;0;0;0;();(-2000.0, -2000.0);
12:22:02:281;12:22:02:269;1448408280.82;(0.319822359085083, 0.6668078316582573);26.6730442047;0.828990379844;;;;;;;;;;;;;;0;0;0;0;0;0;0;0;0;();(-2000.0, -2000.0);
12:22:02:298;12:22:02:269;1448408280.82;(0.319822359085083, 0.6668078316582573);26.6730442047;0.828990379844;;;;;;;;;;;;;;0;0;0;0;0;0;0;0;0;();(-2000.0, -2000.0);
12:22:02:314;12:22:02:269;1448408280.82;(0.319822359085083, 0.6668078316582573);26.6730442047;0.828990379844;;;;;;;;;;;;;;0;0;0;0;0;0;0;0;0;();(-2000.0, -2000.0);
12:22:02:331;12:22:02:269;1448408280.82;(0.319822359085083, 0.6668078316582573);26.6730442047;0.828990379844;;;;;;;;;;;;;;0;0;0;0;0;0;0;0;0;();(-2000.0, -2000.0);
12:22:02:364;12:22:02:340;1448408280.88;(0.6632495880126953, 0.8065089437696669);89.2746124268;0.786611813421;;;;;;;;;;;;;;0;0;0;0;0;0;0;0;0;();(-2000.0, -2000.0);
12:22:02:381;12:22:02:340;1448408280.88;(0.6632495880126953, 0.8065089437696669);89.2746124268;0.786611813421;;;;;;;;;;;;;;0;0;0;0;0;0;0;0;0;();(-2000.0, -2000.0);
12:22:02:398;12:22:02:395;1448408280.92;(0.8986427307128906, 0.8670538902282715);19.5852031708;0.708559587983;;;;;;;;;;;;;;0;0;0;0;0;0;0;0;0;();(-2000.0, -2000.0);
12:22:02:413;12:22:02:398;1448408280.95;(0.32692394256591795, 0.6810120900472005);23.4001808167;0.739803443459;;;;;;;;;;;;;;0;0;0;0;0;0;0;0;0;();(-2000.0, -2000.0);
12:22:02:431;12:22:02:398;1448408280.95;(0.32692394256591795, 0.6810120900472005);23.4001808167;0.739803443459;;;;;;;;;;;;;;0;0;0;0;0;0;0;0;0;();(-2000.0, -2000.0);
12:22:02:464;12:22:02:398;1448408280.95;(0.32692394256591795, 0.6810120900472005);23.4001808167;0.739803443459;;;;;;;;;;;;;;0;0;0;0;0;0;0;0;0;();(-2000.0, -2000.0);
12:22:02:481;12:22:02:469;1448408281.02;(0.3250802755355835, 0.6816179699367947);22.3865680695;0.891781216203;;;;;;;;;;;;;;0;0;0;0;0;0;0;0;0;();(-2000.0, -2000.0);
12:22:02:496;12:22:02:469;1448408281.02;(0.3250802755355835, 0.6816179699367947);22.3865680695;0.891781216203;;;;;;;;;;;;;;0;0;0;0;0;0;0;0;0;();(-2000.0, -2000.0);
12:22:02:514;12:22:02:469;1448408281.02;(0.3250802755355835, 0.6816179699367947);22.3865680695;0.891781216203;;;;;;;;;;;;;;0;0;0;0;0;0;0;0;0;();(-2000.0, -2000.0);
12:22:02:531;12:22:02:529;1448408281.08;(0.684715747833252, 0.806769159105089);87.7327804565;0.919201180048;;;;;;;;;;;;;;0;0;0;0;0;0;0;0;0;();(-2000.0, -2000.0);
12:22:02:563;12:22:02:529;1448408281.08;(0.684715747833252, 0.806769159105089);87.7327804565;0.919201180048;;;;;;;;;;;;;;0;0;0;0;0;0;0;0;0;();(-2000.0, -2000.0);
12:22:02:582;12:22:02:529;1448408281.08;(0.684715747833252, 0.806769159105089);87.7327804565;0.919201180048;;;;;;;;;;;;;;0;0;0;0;0;0;0;0;0;();(-2000.0, -2000.0);
12:22:02:599;12:22:02:529;1448408281.08;(0.684715747833252, 0.806769159105089);87.7327804565;0.919201180048;;;;;;;;;;;;;;0;0;0;0;0;0;0;0;0;();(-2000.0, -2000.0);
12:22:02:615;12:22:02:607;1448408281.15;(0, 0);0;0;;;;;;;;;;;;;;0;0;0;0;0;0;0;0;0;();(-2000.0, -2000.0);
12:22:02:632;12:22:02:607;1448408281.15;(0, 0);0;0;;;;;;;;;;;;;;0;0;0;0;0;0;0;0;0;();(-2000.0, -2000.0);
12:22:02:667;12:22:02:664;1448408281.18;(0.6876955986022949, 0.8071315659417047);89.6465148926;0.978985972045;;;;;;;;;;;;;;0;0;0;0;0;0;0;0;0;();(-2000.0, -2000.0);
12:22:02:681;12:22:02:668;1448408281.22;(0.6879164218902588, 0.8086643113030327);90.2326126099;0.870788112633;;;;;;;;;;;;;;0;0;0;0;0;0;0;0;0;();(-2000.0, -2000.0);
12:22:02:699;12:22:02:668;1448408281.22;(0.6879164218902588, 0.8086643113030327);90.2326126099;0.870788112633;;;;;;;;;;;;;;0;0;0;0;0;0;0;0;0;();(-2000.0, -2000.0);
12:22:02:715;12:22:02:668;1448408281.22;(0.6879164218902588, 0.8086643113030327);90.2326126099;0.870788112633;;;;;;;;;;;;;;0;0;0;0;0;0;0;0;0;();(-2000.0, -2000.0);
12:22:02:732;12:22:02:728;1448408281.25;(0.3238637447357178, 0.6812160068088108);24.4043388367;0.810821152988;;;;;;;;;;;;;;0;0;0;0;0;0;0;0;0;();(-2000.0, -2000.0);
12:22:02:767;12:22:02:730;1448408281.28;(0.6905006885528564, 0.8065203772650824);88.8585205078;0.625637394048;;;;;;;;;;;;;;0;0;0;0;0;0;0;0;0;();(-2000.0, -2000.0);
12:22:02:782;12:22:02:730;1448408281.28;(0.6905006885528564, 0.8065203772650824);88.8585205078;0.625637394048;;;;;;;;;;;;;;0;0;0;0;0;0;0;0;0;();(-2000.0, -2000.0);
12:22:02:798;12:22:02:730;1448408281.28;(0.6905006885528564, 0.8065203772650824);88.8585205078;0.625637394048;;;;;;;;;;;;;;0;0;0;0;0;0;0;0;0;();(-2000.0, -2000.0);
12:22:02:816;12:22:02:811;1448408281.32;(0.6915427207946777, 0.8070405748155383);88.7673721313;0.841692503083;;;;;;;;;;;;;;0;0;0;0;0;0;0;0;0;();(-2000.0, -2000.0);
12:22:02:832;12:22:02:814;1448408281.35;(0.6908360004425049, 0.8074229770236545);87.0933380127;0.924097609218;;;;;;;;;;;;;;0;0;0;0;0;0;0;0;0;();(-2000.0, -2000.0);
12:22:02:866;12:22:02:862;1448408281.42;(0.6449899196624755, 0.8424496332804362);83.5771560669;0.663423607617;;;;;;;;;;;;;;0;0;0;0;0;0;0;0;0;();(-2000.0, -2000.0);
12:22:02:882;12:22:02:862;1448408281.42;(0.6449899196624755, 0.8424496332804362);83.5771560669;0.663423607617;;;;;;;;;;;;;;0;0;0;0;0;0;0;0;0;();(-2000.0, -2000.0);
12:22:02:899;12:22:02:862;1448408281.42;(0.6449899196624755, 0.8424496332804362);83.5771560669;0.663423607617;;;;;;;;;;;;;;0;0;0;0;0;0;0;0;0;();(-2000.0, -2000.0);
12:22:02:915;12:22:02:862;1448408281.42;(0.6449899196624755, 0.8424496332804362);83.5771560669;0.663423607617;;;;;;;;;;;;;;0;0;0;0;0;0;0;0;0;();(-2000.0, -2000.0);
12:22:02:930;12:22:02:928;1448408281.45;(0.45626034736633303, 0.8550496843126085);31.4147186279;0.608811971142;;;;;;;;;;;;;;0;0;0;0;0;0;0;0;0;();(-2000.0, -2000.0);
12:22:02:965;12:22:02:928;1448408281.45;(0.45626034736633303, 0.8550496843126085);31.4147186279;0.608811971142;;;;;;;;;;;;;;0;0;0;0;0;0;0;0;0;();(-2000.0, -2000.0);
12:22:02:981;12:22:02:928;1448408281.45;(0.45626034736633303, 0.8550496843126085);31.4147186279;0.608811971142;;;;;;;;;;;;;;0;0;0;0;0;0;0;0;0;();(-2000.0, -2000.0);
12:22:02:999;12:22:02:997;1448408281.54;(0, 0);0;0;;;;;;;;;;;;;;0;0;0;0;0;0;0;0;0;();(-2000.0, -2000.0);
12:22:03:014;12:22:02:999;1448408281.55;(0, 0);0;0;;;;;;;;;;;;;;0;0;0;0;0;0;0;0;0;();(-2000.0, -2000.0);
12:22:03:031;12:22:02:999;1448408281.55;(0, 0);0;0;;;;;;;;;;;;;;0;0;0;0;0;0;0;0;0;();(-2000.0, -2000.0);
12:22:03:064;12:22:03:060;1448408281.58;(0.6145909786224365, 0.8248666021558974);86.6556777954;0.849140536682;;;;;;;;;;;;;;0;0;0;0;0;0;0;0;0;();(-2000.0, -2000.0);
12:22:03:081;12:22:03:060;1448408281.58;(0.6145909786224365, 0.8248666021558974);86.6556777954;0.849140536682;;;;;;;;;;;;;;0;0;0;0;0;0;0;0;0;();(-2000.0, -2000.0);
12:22:03:098;12:22:03:060;1448408281.58;(0.6145909786224365, 0.8248666021558974);86.6556777954;0.849140536682;;;;;;;;;;;;;;0;0;0;0;0;0;0;0;0;();(-2000.0, -2000.0);
12:22:03:114;12:22:03:060;1448408281.58;(0.6145909786224365, 0.8248666021558974);86.6556777954;0.849140536682;;;;;;;;;;;;;;0;0;0;0;0;0;0;0;0;();(-2000.0, -2000.0);
12:22:03:131;12:22:03:129;1448408281.69;(0.6260594367980957, 0.8189707967970106);84.8983840942;0.69248432677;;;;;;;;;;;;;;0;0;0;0;0;0;0;0;0;();(-2000.0, -2000.0);
12:22:03:164;12:22:03:129;1448408281.69;(0.6260594367980957, 0.8189707967970106);84.8983840942;0.69248432677;;;;;;;;;;;;;;0;0;0;0;0;0;0;0;0;();(-2000.0, -2000.0);
12:22:03:182;12:22:03:129;1448408281.69;(0.6260594367980957, 0.8189707967970106);84.8983840942;0.69248432677;;;;;;;;;;;;;;0;0;0;0;0;0;0;0;0;();(-2000.0, -2000.0);
12:22:03:198;12:22:03:192;1448408281.72;(0.31902899742126467, 0.6495264689127604);25.6275749207;0.659727474095;;;;;;;;;;;;;;0;0;0;0;0;0;0;0;0;();(-2000.0, -2000.0);
12:22:03:214;12:22:03:192;1448408281.72;(0.31902899742126467, 0.6495264689127604);25.6275749207;0.659727474095;;;;;;;;;;;;;;0;0;0;0;0;0;0;0;0;();(-2000.0, -2000.0);
12:22:03:231;12:22:03:192;1448408281.72;(0.31902899742126467, 0.6495264689127604);25.6275749207;0.659727474095;;;;;;;;;;;;;;0;0;0;0;0;0;0;0;0;();(-2000.0, -2000.0);
12:22:03:264;12:22:03:262;1448408281.82;(0.3156219482421875, 0.6552711910671658);25.4643383026;0.663091373847;;;;;;;;;;;;;;0;0;0;0;0;0;0;0;0;();(-2000.0, -2000.0);
12:22:03:281;12:22:03:262;1448408281.82;(0.3156219482421875, 0.6552711910671658);25.4643383026;0.663091373847;;;;;;;;;;;;;;0;0;0;0;0;0;0;0;0;();(-2000.0, -2000.0);
12:22:03:298;12:22:03:262;1448408281.82;(0.3156219482421875, 0.6552711910671658);25.4643383026;0.663091373847;;;;;;;;;;;;;;0;0;0;0;0;0;0;0;0;();(-2000.0, -2000.0);
12:22:03:314;12:22:03:262;1448408281.82;(0.3156219482421875, 0.6552711910671658);25.4643383026;0.663091373847;;;;;;;;;;;;;;0;0;0;0;0;0;0;0;0;();(-2000.0, -2000.0);
12:22:03:331;12:22:03:325;1448408281.88;(0.6100697040557861, 0.8209609031677246);82.1802368164;0.934572470838;;;;;;;;;;;;;;0;0;0;0;0;0;0;0;0;();(-2000.0, -2000.0);
12:22:03:365;12:22:03:325;1448408281.88;(0.6100697040557861, 0.8209609031677246);82.1802368164;0.934572470838;;;;;;;;;;;;;;0;0;0;0;0;0;0;0;0;();(-2000.0, -2000.0);
12:22:03:381;12:22:03:325;1448408281.88;(0.6100697040557861, 0.8209609031677246);82.1802368164;0.934572470838;;;;;;;;;;;;;;0;0;0;0;0;0;0;0;0;();(-2000.0, -2000.0);
12:22:03:398;12:22:03:393;1448408281.95;(0.31666724681854247, 0.6594245910644532);23.5928211212;0.65898979145;;;;;;;;;;;;;;0;0;0;0;0;0;0;0;0;();(-2000.0, -2000.0);
12:22:03:414;12:22:03:393;1448408281.95;(0.31666724681854247, 0.6594245910644532);23.5928211212;0.65898979145;;;;;;;;;;;;;;0;0;0;0;0;0;0;0;0;();(-2000.0, -2000.0);
12:22:03:431;12:22:03:393;1448408281.95;(0.31666724681854247, 0.6594245910644532);23.5928211212;0.65898979145;;;;;;;;;;;;;;0;0;0;0;0;0;0;0;0;();(-2000.0, -2000.0);
12:22:03:467;12:22:03:464;1448408281.98;(0.6170786857604981, 0.826005056169298);79.2273178101;1.0;;;;;;;;;;;;;;0;0;0;0;0;0;0;0;0;();(-2000.0, -2000.0);
12:22:03:483;12:22:03:466;1448408282.02;(0.6197293281555176, 0.8237298753526476);78.959487915;0.959299941986;;;;;;;;;;;;;;0;0;0;0;0;0;0;0;0;();(-2000.0, -2000.0);
12:22:03:499;12:22:03:466;1448408282.02;(0.6197293281555176, 0.8237298753526476);78.959487915;0.959299941986;;;;;;;;;;;;;;0;0;0;0;0;0;0;0;0;();(-2000.0, -2000.0);
12:22:03:516;12:22:03:466;1448408282.02;(0.6197293281555176, 0.8237298753526476);78.959487915;0.959299941986;;;;;;;;;;;;;;0;0;0;0;0;0;0;0;0;();(-2000.0, -2000.0);
12:22:03:531;12:22:03:527;1448408282.08;(0.8859375, 0.8833333333333333);18.1989040375;0.782477131394;;;;;;;;;;;;;;0;0;0;0;0;0;0;0;0;();(-2000.0, -2000.0);
12:22:03:565;12:22:03:527;1448408282.08;(0.8859375, 0.8833333333333333);18.1989040375;0.782477131394;;;;;;;;;;;;;;0;0;0;0;0;0;0;0;0;();(-2000.0, -2000.0);
12:22:03:581;12:22:03:527;1448408282.08;(0.8859375, 0.8833333333333333);18.1989040375;0.782477131394;;;;;;;;;;;;;;0;0;0;0;0;0;0;0;0;();(-2000.0, -2000.0);
12:22:03:598;12:22:03:593;1448408282.15;(0.6336389541625976, 0.8334767235649957);75.0116729736;0.96393707491;;;;;;;;;;;;;;0;0;0;0;0;0;0;0;0;();(-2000.0, -2000.0);
12:22:03:615;12:22:03:593;1448408282.15;(0.6336389541625976, 0.8334767235649957);75.0116729736;0.96393707491;;;;;;;;;;;;;;0;0;0;0;0;0;0;0;0;();(-2000.0, -2000.0);
12:22:03:632;12:22:03:593;1448408282.15;(0.6336389541625976, 0.8334767235649957);75.0116729736;0.96393707491;;;;;;;;;;;;;;0;0;0;0;0;0;0;0;0;();(-2000.0, -2000.0);
12:22:03:665;12:22:03:657;1448408282.22;(0.6361090183258057, 0.8306007597181533);73.1071853638;0.845656816508;;;;;;;;;;;;;;0;0;0;0;0;0;0;0;0;();(-2000.0, -2000.0);
12:22:03:681;12:22:03:657;1448408282.22;(0.6361090183258057, 0.8306007597181533);73.1071853638;0.845656816508;;;;;;;;;;;;;;0;0;0;0;0;0;0;0;0;();(-2000.0, -2000.0);
12:22:03:698;12:22:03:657;1448408282.22;(0.6361090183258057, 0.8306007597181533);73.1071853638;0.845656816508;;;;;;;;;;;;;;0;0;0;0;0;0;0;0;0;();(-2000.0, -2000.0);
12:22:03:715;12:22:03:657;1448408282.22;(0.6361090183258057, 0.8306007597181533);73.1071853638;0.845656816508;;;;;;;;;;;;;;0;0;0;0;0;0;0;0;0;();(-2000.0, -2000.0);
12:22:03:732;12:22:03:726;1448408282.28;(0.6356511116027832, 0.8084200117323134);72.4260406494;1.0;;;;;;;;;;;;;;0;0;0;0;0;0;0;0;0;();(-2000.0, -2000.0);
12:22:03:765;12:22:03:726;1448408282.28;(0.6356511116027832, 0.8084200117323134);72.4260406494;1.0;;;;;;;;;;;;;;0;0;0;0;0;0;0;0;0;();(-2000.0, -2000.0);
12:22:03:783;12:22:03:726;1448408282.28;(0.6356511116027832, 0.8084200117323134);72.4260406494;1.0;;;;;;;;;;;;;;0;0;0;0;0;0;0;0;0;();(-2000.0, -2000.0);
12:22:03:799;12:22:03:795;1448408282.35;(0.6418546676635742, 0.8045195473564996);67.0522460938;0.631848374406;;;;;;;;;;;;;;0;0;0;0;0;0;0;0;0;();(-2000.0, -2000.0);
12:22:03:815;12:22:03:795;1448408282.35;(0.6418546676635742, 0.8045195473564996);67.0522460938;0.631848374406;;;;;;;;;;;;;;0;0;0;0;0;0;0;0;0;();(-2000.0, -2000.0);
12:22:03:832;12:22:03:795;1448408282.35;(0.6418546676635742, 0.8045195473564996);67.0522460938;0.631848374406;;;;;;;;;;;;;;0;0;0;0;0;0;0;0;0;();(-2000.0, -2000.0);
12:22:03:865;12:22:03:857;1448408282.42;(0.6390410423278808, 0.8076421419779459);71.6561813354;1.0;;;;;;;;;;;;;;0;0;0;0;0;0;0;0;0;();(-2000.0, -2000.0);
12:22:03:881;12:22:03:857;1448408282.42;(0.6390410423278808, 0.8076421419779459);71.6561813354;1.0;;;;;;;;;;;;;;0;0;0;0;0;0;0;0;0;();(-2000.0, -2000.0);
12:22:03:900;12:22:03:857;1448408282.42;(0.6390410423278808, 0.8076421419779459);71.6561813354;1.0;;;;;;;;;;;;;;0;0;0;0;0;0;0;0;0;();(-2000.0, -2000.0);
12:22:03:916;12:22:03:857;1448408282.42;(0.6390410423278808, 0.8076421419779459);71.6561813354;1.0;;;;;;;;;;;;;;0;0;0;0;0;0;0;0;0;();(-2000.0, -2000.0);
12:22:03:933;12:22:03:928;1448408282.48;(0, 0);0;0;;;;;;;;;;;;;;0;0;0;0;0;0;0;0;0;();(-2000.0, -2000.0);
12:22:03:950;12:22:03:928;1448408282.48;(0, 0);0;0;;;;;;;;;;;;;;0;0;0;0;0;0;0;0;0;();(-2000.0, -2000.0);
12:22:03:983;12:22:03:928;1448408282.48;(0, 0);0;0;;;;;;;;;;;;;;0;0;0;0;0;0;0;0;0;();(-2000.0, -2000.0);
12:22:04:000;12:22:03:991;1448408282.55;(0.40997002124786375, 0.6730713102552626);28.5943050385;0.615488161123;;;;;;;;;;;;;;0;0;0;0;0;0;0;0;0;();(-2000.0, -2000.0);
12:22:04:017;12:22:03:991;1448408282.55;(0.40997002124786375, 0.6730713102552626);28.5943050385;0.615488161123;;;;;;;;;;;;;;0;0;0;0;0;0;0;0;0;();(-2000.0, -2000.0);
12:22:04:033;12:22:03:991;1448408282.55;(0.40997002124786375, 0.6730713102552626);28.5943050385;0.615488161123;;;;;;;;;;;;;;0;0;0;0;0;0;0;0;0;();(-2000.0, -2000.0);
12:22:04:050;12:22:03:991;1448408282.55;(0.40997002124786375, 0.6730713102552626);28.5943050385;0.615488161123;;;;;;;;;;;;;;0;0;0;0;0;0;0;0;0;();(-2000.0, -2000.0);
12:22:04:082;12:22:04:059;1448408282.62;(0.7088913917541504, 0.7700905481974284);71.326499939;0.904731339532;;;;;;;;;;;;;;0;0;0;0;0;0;0;0;0;();(-2000.0, -2000.0);
12:22:04:099;12:22:04:059;1448408282.62;(0.7088913917541504, 0.7700905481974284);71.326499939;0.904731339532;;;;;;;;;;;;;;0;0;0;0;0;0;0;0;0;();(-2000.0, -2000.0);
12:22:04:115;12:22:04:059;1448408282.62;(0.7088913917541504, 0.7700905481974284);71.326499939;0.904731339532;;;;;;;;;;;;;;0;0;0;0;0;0;0;0;0;();(-2000.0, -2000.0);
12:22:04:131;12:22:04:125;1448408282.68;(0.7070125102996826, 0.7712230258517795);72.5985565186;0.985470344743;;;;;;;;;;;;;;0;0;0;0;0;0;0;0;0;();(-2000.0, -2000.0);
12:22:04:165;12:22:04:125;1448408282.68;(0.7070125102996826, 0.7712230258517795);72.5985565186;0.985470344743;;;;;;;;;;;;;;0;0;0;0;0;0;0;0;0;();(-2000.0, -2000.0);
12:22:04:182;12:22:04:125;1448408282.68;(0.7070125102996826, 0.7712230258517795);72.5985565186;0.985470344743;;;;;;;;;;;;;;0;0;0;0;0;0;0;0;0;();(-2000.0, -2000.0);
12:22:04:199;12:22:04:189;1448408282.75;(0.7045993328094482, 0.7724558724297418);73.0151062012;0.812500763896;;;;;;;;;;;;;;0;0;0;0;0;0;0;0;0;();(-2000.0, -2000.0);
12:22:04:215;12:22:04:189;1448408282.75;(0.7045993328094482, 0.7724558724297418);73.0151062012;0.812500763896;;;;;;;;;;;;;;0;0;0;0;0;0;0;0;0;();(-2000.0, -2000.0);
12:22:04:232;12:22:04:189;1448408282.75;(0.7045993328094482, 0.7724558724297418);73.0151062012;0.812500763896;;;;;;;;;;;;;;0;0;0;0;0;0;0;0;0;();(-2000.0, -2000.0);
12:22:04:249;12:22:04:189;1448408282.75;(0.7045993328094482, 0.7724558724297418);73.0151062012;0.812500763896;;;;;;;;;;;;;;0;0;0;0;0;0;0;0;0;();(-2000.0, -2000.0);
12:22:04:283;12:22:04:257;1448408282.82;(0.7021503925323487, 0.7719126595391168);77.2090988159;0.889631130702;;;;;;;;;;;;;;0;0;0;0;0;0;0;0;0;();(-2000.0, -2000.0);
12:22:04:298;12:22:04:257;1448408282.82;(0.7021503925323487, 0.7719126595391168);77.2090988159;0.889631130702;;;;;;;;;;;;;;0;0;0;0;0;0;0;0;0;();(-2000.0, -2000.0);
12:22:04:315;12:22:04:257;1448408282.82;(0.7021503925323487, 0.7719126595391168);77.2090988159;0.889631130702;;;;;;;;;;;;;;0;0;0;0;0;0;0;0;0;();(-2000.0, -2000.0);
12:22:04:332;12:22:04:323;1448408282.88;(0.7331511974334717, 0.7338836034138998);74.2018051147;0.851098221114;;;;;;;;;;;;;;0;0;0;0;0;0;0;0;0;();(-2000.0, -2000.0);
12:22:04:365;12:22:04:323;1448408282.88;(0.7331511974334717, 0.7338836034138998);74.2018051147;0.851098221114;;;;;;;;;;;;;;0;0;0;0;0;0;0;0;0;();(-2000.0, -2000.0);
12:22:04:383;12:22:04:323;1448408282.88;(0.7331511974334717, 0.7338836034138998);74.2018051147;0.851098221114;;;;;;;;;;;;;;0;0;0;0;0;0;0;0;0;();(-2000.0, -2000.0);
12:22:04:400;12:22:04:392;1448408282.95;(0.728783369064331, 0.73363037109375);74.7975463867;0.971750936927;;;;;;;;;;;;;;0;0;0;0;0;0;0;0;0;();(-2000.0, -2000.0);
12:22:04:418;12:22:04:392;1448408282.95;(0.728783369064331, 0.73363037109375);74.7975463867;0.971750936927;;;;;;;;;;;;;;0;0;0;0;0;0;0;0;0;();(-2000.0, -2000.0);
12:22:04:434;12:22:04:392;1448408282.95;(0.728783369064331, 0.73363037109375);74.7975463867;0.971750936927;;;;;;;;;;;;;;0;0;0;0;0;0;0;0;0;();(-2000.0, -2000.0);
12:22:04:450;12:22:04:392;1448408282.95;(0.728783369064331, 0.73363037109375);74.7975463867;0.971750936927;;;;;;;;;;;;;;0;0;0;0;0;0;0;0;0;();(-2000.0, -2000.0);
12:22:04:482;12:22:04:456;1448408282.99;(0.7261356353759766, 0.7336996078491211);74.5784759521;0.932601661698;;;;;;;;;;;;;;0;0;0;0;0;0;0;0;0;();(-2000.0, -2000.0);
12:22:04:499;12:22:04:456;1448408282.99;(0.7261356353759766, 0.7336996078491211);74.5784759521;0.932601661698;;;;;;;;;;;;;;0;0;0;0;0;0;0;0;0;();(-2000.0, -2000.0);
12:22:04:516;12:22:04:456;1448408282.99;(0.7261356353759766, 0.7336996078491211);74.5784759521;0.932601661698;;;;;;;;;;;;;;0;0;0;0;0;0;0;0;0;();(-2000.0, -2000.0);
12:22:04:532;12:22:04:522;1448408283.08;(0.7197118282318116, 0.7375458823310004);77.0098419189;0.884328919539;;;;;;;;;;;;;;0;0;0;0;0;0;0;0;0;();(-2000.0, -2000.0);
12:22:04:549;12:22:04:522;1448408283.08;(0.7197118282318116, 0.7375458823310004);77.0098419189;0.884328919539;;;;;;;;;;;;;;0;0;0;0;0;0;0;0;0;();(-2000.0, -2000.0);
12:22:04:582;12:22:04:522;1448408283.08;(0.7197118282318116, 0.7375458823310004);77.0098419189;0.884328919539;;;;;;;;;;;;;;0;0;0;0;0;0;0;0;0;();(-2000.0, -2000.0);
12:22:04:599;12:22:04:593;1448408283.16;(0.7172159671783447, 0.7398351881239149);78.5555114746;0.9391536686;;;;;;;;;;;;;;0;0;0;0;0;0;0;0;0;();(-2000.0, -2000.0);
12:22:04:615;12:22:04:593;1448408283.16;(0.7172159671783447, 0.7398351881239149);78.5555114746;0.9391536686;;;;;;;;;;;;;;0;0;0;0;0;0;0;0;0;();(-2000.0, -2000.0);
12:22:04:632;12:22:04:593;1448408283.16;(0.7172159671783447, 0.7398351881239149);78.5555114746;0.9391536686;;;;;;;;;;;;;;0;0;0;0;0;0;0;0;0;();(-2000.0, -2000.0);
12:22:04:666;12:22:04:652;1448408283.18;(0.7147307395935059, 0.7420495775010851);78.8343048096;0.915732448509;;;;;;;;;;;;;;0;0;0;0;0;0;0;0;0;();(-2000.0, -2000.0);
12:22:04:683;12:22:04:652;1448408283.18;(0.7147307395935059, 0.7420495775010851);78.8343048096;0.915732448509;;;;;;;;;;;;;;0;0;0;0;0;0;0;0;0;();(-2000.0, -2000.0);
12:22:04:699;12:22:04:652;1448408283.18;(0.7147307395935059, 0.7420495775010851);78.8343048096;0.915732448509;;;;;;;;;;;;;;0;0;0;0;0;0;0;0;0;();(-2000.0, -2000.0);
12:22:04:715;12:22:04:652;1448408283.18;(0.7147307395935059, 0.7420495775010851);78.8343048096;0.915732448509;;;;;;;;;;;;;;0;0;0;0;0;0;0;0;0;();(-2000.0, -2000.0);
12:22:04:733;12:22:04:722;1448408283.28;(0.7088286876678467, 0.7524177551269531);80.579864502;0.763891146218;;;;;;;;;;;;;;0;0;0;0;0;0;0;0;0;();(-2000.0, -2000.0);
12:22:04:749;12:22:04:722;1448408283.28;(0.7088286876678467, 0.7524177551269531);80.579864502;0.763891146218;;;;;;;;;;;;;;0;0;0;0;0;0;0;0;0;();(-2000.0, -2000.0);
12:22:04:783;12:22:04:722;1448408283.28;(0.7088286876678467, 0.7524177551269531);80.579864502;0.763891146218;;;;;;;;;;;;;;0;0;0;0;0;0;0;0;0;();(-2000.0, -2000.0);
12:22:04:799;12:22:04:788;1448408283.32;(0.9148174285888672, 0.8079017745123969);19.0849742889;0.802371508851;;;;;;;;;;;;;;0;0;0;0;0;0;0;0;0;();(-2000.0, -2000.0);
12:22:04:816;12:22:04:788;1448408283.32;(0.9148174285888672, 0.8079017745123969);19.0849742889;0.802371508851;;;;;;;;;;;;;;0;0;0;0;0;0;0;0;0;();(-2000.0, -2000.0);
12:22:04:833;12:22:04:788;1448408283.32;(0.9148174285888672, 0.8079017745123969);19.0849742889;0.802371508851;;;;;;;;;;;;;;0;0;0;0;0;0;0;0;0;();(-2000.0, -2000.0);
12:22:04:849;12:22:04:788;1448408283.32;(0.9148174285888672, 0.8079017745123969);19.0849742889;0.802371508851;;;;;;;;;;;;;;0;0;0;0;0;0;0;0;0;();(-2000.0, -2000.0);
12:22:04:882;12:22:04:854;1448408283.41;(0.7237272262573242, 0.7350202348497179);81.0643463135;0.895196673028;;;;;;;;;;;;;;0;0;0;0;0;0;0;0;0;();(-2000.0, -2000.0);
12:22:04:899;12:22:04:854;1448408283.41;(0.7237272262573242, 0.7350202348497179);81.0643463135;0.895196673028;;;;;;;;;;;;;;0;0;0;0;0;0;0;0;0;();(-2000.0, -2000.0);
12:22:04:917;12:22:04:854;1448408283.41;(0.7237272262573242, 0.7350202348497179);81.0643463135;0.895196673028;;;;;;;;;;;;;;0;0;0;0;0;0;0;0;0;();(-2000.0, -2000.0);
12:22:04:932;12:22:04:923;1448408283.49;(0.7222572803497315, 0.744523196750217);80.0940933228;0.978672319577;;;;;;;;;;;;;;0;0;0;0;0;0;0;0;0;();(-2000.0, -2000.0);
12:22:04:949;12:22:04:923;1448408283.49;(0.7222572803497315, 0.744523196750217);80.0940933228;0.978672319577;;;;;;;;;;;;;;0;0;0;0;0;0;0;0;0;();(-2000.0, -2000.0);
12:22:04:984;12:22:04:923;1448408283.49;(0.7222572803497315, 0.744523196750217);80.0940933228;0.978672319577;;;;;;;;;;;;;;0;0;0;0;0;0;0;0;0;();(-2000.0, -2000.0);
12:22:05:000;12:22:04:988;1448408283.55;(0.7206989288330078, 0.7518202039930555);80.7315979004;1.0;;;;;;;;;;;;;;0;0;0;0;0;0;0;0;0;();(-2000.0, -2000.0);
12:22:05:017;12:22:04:988;1448408283.55;(0.7206989288330078, 0.7518202039930555);80.7315979004;1.0;;;;;;;;;;;;;;0;0;0;0;0;0;0;0;0;();(-2000.0, -2000.0);
12:22:05:033;12:22:04:988;1448408283.55;(0.7206989288330078, 0.7518202039930555);80.7315979004;1.0;;;;;;;;;;;;;;0;0;0;0;0;0;0;0;0;();(-2000.0, -2000.0);
12:22:05:049;12:22:04:988;1448408283.55;(0.7206989288330078, 0.7518202039930555);80.7315979004;1.0;;;;;;;;;;;;;;0;0;0;0;0;0;0;0;0;();(-2000.0, -2000.0);
12:22:05:083;12:22:05:051;1448408283.58;(0.7211845397949219, 0.7489752663506402);75.937789917;0.679573019619;;;;;;;;;;;;;;0;0;0;0;0;0;0;0;0;();(-2000.0, -2000.0);
12:22:05:100;12:22:05:051;1448408283.58;(0.7211845397949219, 0.7489752663506402);75.937789917;0.679573019619;;;;;;;;;;;;;;0;0;0;0;0;0;0;0;0;();(-2000.0, -2000.0);
12:22:05:116;12:22:05:051;1448408283.58;(0.7211845397949219, 0.7489752663506402);75.937789917;0.679573019619;;;;;;;;;;;;;;0;0;0;0;0;0;0;0;0;();(-2000.0, -2000.0);
12:22:05:133;12:22:05:122;1448408283.68;(0.7190610408782959, 0.7575386259290907);80.837928772;1.0;;;;;;;;;;;;;;0;0;0;0;0;0;0;0;0;();(-2000.0, -2000.0);
12:22:05:150;12:22:05:122;1448408283.68;(0.7190610408782959, 0.7575386259290907);80.837928772;1.0;;;;;;;;;;;;;;0;0;0;0;0;0;0;0;0;();(-2000.0, -2000.0);
12:22:05:183;12:22:05:122;1448408283.68;(0.7190610408782959, 0.7575386259290907);80.837928772;1.0;;;;;;;;;;;;;;0;0;0;0;0;0;0;0;0;();(-2000.0, -2000.0);
12:22:05:200;12:22:05:188;1448408283.75;(0.7068477153778077, 0.7745407952202691);79.8643264771;0.881103717858;;;;;;;;;;;;;;0;0;0;0;0;0;0;0;0;();(-2000.0, -2000.0);
12:22:05:216;12:22:05:188;1448408283.75;(0.7068477153778077, 0.7745407952202691);79.8643264771;0.881103717858;;;;;;;;;;;;;;0;0;0;0;0;0;0;0;0;();(-2000.0, -2000.0);
12:22:05:233;12:22:05:188;1448408283.75;(0.7068477153778077, 0.7745407952202691);79.8643264771;0.881103717858;;;;;;;;;;;;;;0;0;0;0;0;0;0;0;0;();(-2000.0, -2000.0);
12:22:05:249;12:22:05:188;1448408283.75;(0.7068477153778077, 0.7745407952202691);79.8643264771;0.881103717858;;;;;;;;;;;;;;0;0;0;0;0;0;0;0;0;();(-2000.0, -2000.0);
12:22:05:282;12:22:05:252;1448408283.78;(0.7045660495758057, 0.7798563003540039);80.4203414917;0.853253876255;;;;;;;;;;;;;;0;0;0;0;0;0;0;0;0;();(-2000.0, -2000.0);
12:22:05:299;12:22:05:252;1448408283.78;(0.7045660495758057, 0.7798563003540039);80.4203414917;0.853253876255;;;;;;;;;;;;;;0;0;0;0;0;0;0;0;0;();(-2000.0, -2000.0);
12:22:05:318;12:22:05:316;1448408283.82;(0.7041885375976562, 0.7802683936225043);81.9707794189;0.927449865494;;;;;;;;;;;;;;0;0;0;0;0;0;0;0;0;();(-2000.0, -2000.0);
12:22:05:333;12:22:05:323;1448408283.88;(0.7036059856414795, 0.7785513136121962);81.8437042236;0.995398059767;;;;;;;;;;;;;;0;0;0;0;0;0;0;0;0;();(-2000.0, -2000.0);
12:22:05:350;12:22:05:323;1448408283.88;(0.7036059856414795, 0.7785513136121962);81.8437042236;0.995398059767;;;;;;;;;;;;;;0;0;0;0;0;0;0;0;0;();(-2000.0, -2000.0);
12:22:05:383;12:22:05:323;1448408283.88;(0.7036059856414795, 0.7785513136121962);81.8437042236;0.995398059767;;;;;;;;;;;;;;0;0;0;0;0;0;0;0;0;();(-2000.0, -2000.0);
12:22:05:399;12:22:05:388;1448408283.95;(0.7034805297851563, 0.7761409547593858);82.6242980957;0.998473691619;;;;;;;;;;;;;;0;0;0;0;0;0;0;0;0;();(-2000.0, -2000.0);
12:22:05:417;12:22:05:388;1448408283.95;(0.7034805297851563, 0.7761409547593858);82.6242980957;0.998473691619;;;;;;;;;;;;;;0;0;0;0;0;0;0;0;0;();(-2000.0, -2000.0);
12:22:05:433;12:22:05:388;1448408283.95;(0.7034805297851563, 0.7761409547593858);82.6242980957;0.998473691619;;;;;;;;;;;;;;0;0;0;0;0;0;0;0;0;();(-2000.0, -2000.0);
12:22:05:450;12:22:05:388;1448408283.95;(0.7034805297851563, 0.7761409547593858);82.6242980957;0.998473691619;;;;;;;;;;;;;;0;0;0;0;0;0;0;0;0;();(-2000.0, -2000.0);
12:22:05:483;12:22:05:453;1448408284.02;(0.7040102481842041, 0.7751297420925565);82.5951690674;1.0;;;;;;;;;;;;;;0;0;0;0;0;0;0;0;0;();(-2000.0, -2000.0);
12:22:05:500;12:22:05:453;1448408284.02;(0.7040102481842041, 0.7751297420925565);82.5951690674;1.0;;;;;;;;;;;;;;0;0;0;0;0;0;0;0;0;();(-2000.0, -2000.0);
12:22:05:520;12:22:05:518;1448408284.08;(0.7002871990203857, 0.7810340245564779);81.9300003052;0.992107992207;;;;;;;;;;;;;;0;0;0;0;0;0;0;0;0;();(-2000.0, -2000.0);
12:22:05:533;12:22:05:518;1448408284.08;(0.7002871990203857, 0.7810340245564779);81.9300003052;0.992107992207;;;;;;;;;;;;;;0;0;0;0;0;0;0;0;0;();(-2000.0, -2000.0);
12:22:05:550;12:22:05:518;1448408284.08;(0.7002871990203857, 0.7810340245564779);81.9300003052;0.992107992207;;;;;;;;;;;;;;0;0;0;0;0;0;0;0;0;();(-2000.0, -2000.0);
12:22:05:583;12:22:05:518;1448408284.08;(0.7002871990203857, 0.7810340245564779);81.9300003052;0.992107992207;;;;;;;;;;;;;;0;0;0;0;0;0;0;0;0;();(-2000.0, -2000.0);
12:22:05:600;12:22:05:588;1448408284.15;(0.7002430915832519, 0.7819053014119466);81.8999481201;0.959143955037;;;;;;;;;;;;;;0;0;0;0;0;0;0;0;0;();(-2000.0, -2000.0);
12:22:05:616;12:22:05:588;1448408284.15;(0.7002430915832519, 0.7819053014119466);81.8999481201;0.959143955037;;;;;;;;;;;;;;0;0;0;0;0;0;0;0;0;();(-2000.0, -2000.0);
12:22:05:633;12:22:05:588;1448408284.15;(0.7002430915832519, 0.7819053014119466);81.8999481201;0.959143955037;;;;;;;;;;;;;;0;0;0;0;0;0;0;0;0;();(-2000.0, -2000.0);
12:22:05:651;12:22:05:649;1448408284.22;(0.6999397277832031, 0.7808952967325846);80.9960250854;0.942383726007;;;;;;;;;;;;;;0;0;0;0;0;0;0;0;0;();(-2000.0, -2000.0);
12:22:05:683;12:22:05:649;1448408284.22;(0.6999397277832031, 0.7808952967325846);80.9960250854;0.942383726007;;;;;;;;;;;;;;0;0;0;0;0;0;0;0;0;();(-2000.0, -2000.0);
12:22:05:702;12:22:05:649;1448408284.22;(0.6999397277832031, 0.7808952967325846);80.9960250854;0.942383726007;;;;;;;;;;;;;;0;0;0;0;0;0;0;0;0;();(-2000.0, -2000.0);
12:22:05:717;12:22:05:649;1448408284.22;(0.6999397277832031, 0.7808952967325846);80.9960250854;0.942383726007;;;;;;;;;;;;;;0;0;0;0;0;0;0;0;0;();(-2000.0, -2000.0);
12:22:05:734;12:22:05:722;1448408284.28;(0.7006734848022461, 0.7806940926445856);80.2148361206;0.881788763989;;;;;;;;;;;;;;0;0;0;0;0;0;0;0;0;();(-2000.0, -2000.0);
12:22:05:751;12:22:05:722;1448408284.28;(0.7006734848022461, 0.7806940926445856);80.2148361206;0.881788763989;;;;;;;;;;;;;;0;0;0;0;0;0;0;0;0;();(-2000.0, -2000.0);
12:22:05:784;12:22:05:722;1448408284.28;(0.7006734848022461, 0.7806940926445856);80.2148361206;0.881788763989;;;;;;;;;;;;;;0;0;0;0;0;0;0;0;0;();(-2000.0, -2000.0);
12:22:05:801;12:22:05:784;1448408284.32;(0.7019469261169433, 0.779096327887641);78.842628479;1.0;;;;;;;;;;;;;;0;0;0;0;0;0;0;0;0;();(-2000.0, -2000.0);
12:22:05:818;12:22:05:784;1448408284.32;(0.7019469261169433, 0.779096327887641);78.842628479;1.0;;;;;;;;;;;;;;0;0;0;0;0;0;0;0;0;();(-2000.0, -2000.0);
12:22:05:834;12:22:05:784;1448408284.32;(0.7019469261169433, 0.779096327887641);78.842628479;1.0;;;;;;;;;;;;;;0;0;0;0;0;0;0;0;0;();(-2000.0, -2000.0);
12:22:05:853;12:22:05:850;1448408284.38;(0.8829743385314941, 0.87571136686537);28.3846549988;0.682789836195;;;;;;;;;;;;;;0;0;0;0;0;0;0;0;0;();(-2000.0, -2000.0);
12:22:05:884;12:22:05:852;1448408284.42;(0.6551340103149415, 0.8396294169955784);76.9372406006;0.658769915705;;;;;;;;;;;;;;0;0;0;0;0;0;0;0;0;();(-2000.0, -2000.0);
12:22:05:901;12:22:05:852;1448408284.42;(0.6551340103149415, 0.8396294169955784);76.9372406006;0.658769915705;;;;;;;;;;;;;;0;0;0;0;0;0;0;0;0;();(-2000.0, -2000.0);
12:22:05:919;12:22:05:917;1448408284.48;(0.6336951732635498, 0.8547289848327637);77.552192688;0.817384386978;;;;;;;;;;;;;;0;0;0;0;0;0;0;0;0;();(-2000.0, -2000.0);
12:22:05:934;12:22:05:917;1448408284.48;(0.6336951732635498, 0.8547289848327637);77.552192688;0.817384386978;;;;;;;;;;;;;;0;0;0;0;0;0;0;0;0;();(-2000.0, -2000.0);
12:22:05:950;12:22:05:917;1448408284.48;(0.6336951732635498, 0.8547289848327637);77.552192688;0.817384386978;;;;;;;;;;;;;;0;0;0;0;0;0;0;0;0;();(-2000.0, -2000.0);
12:22:05:984;12:22:05:981;1448408284.55;(0.6351410865783691, 0.8518146408928765);75.7467803955;0.918113229603;;;;;;;;;;;;;;0;0;0;0;0;0;0;0;0;();(-2000.0, -2000.0);
12:22:06:001;12:22:05:981;1448408284.55;(0.6351410865783691, 0.8518146408928765);75.7467803955;0.918113229603;;;;;;;;;;;;;;0;0;0;0;0;0;0;0;0;();(-2000.0, -2000.0);
12:22:06:018;12:22:05:981;1448408284.55;(0.6351410865783691, 0.8518146408928765);75.7467803955;0.918113229603;;;;;;;;;;;;;;0;0;0;0;0;0;0;0;0;();(-2000.0, -2000.0);
12:22:06:034;12:22:05:981;1448408284.55;(0.6351410865783691, 0.8518146408928765);75.7467803955;0.918113229603;;;;;;;;;;;;;;0;0;0;0;0;0;0;0;0;();(-2000.0, -2000.0);
12:22:06:052;12:22:06:049;1448408284.62;(0.6356384754180908, 0.8512315326266818);76.536567688;0.91196656967;;;;;;;;;;;;;;0;0;0;0;0;0;0;0;0;();(-2000.0, -2000.0);
12:22:06:084;12:22:06:049;1448408284.62;(0.6356384754180908, 0.8512315326266818);76.536567688;0.91196656967;;;;;;;;;;;;;;0;0;0;0;0;0;0;0;0;();(-2000.0, -2000.0);
12:22:06:101;12:22:06:049;1448408284.62;(0.6356384754180908, 0.8512315326266818);76.536567688;0.91196656967;;;;;;;;;;;;;;0;0;0;0;0;0;0;0;0;();(-2000.0, -2000.0);
12:22:06:119;12:22:06:117;1448408284.68;(0.5823460578918457, 0.8704990598890516);75.8172225952;0.750337408127;;;;;;;;;;;;;;0;0;0;0;0;0;0;0;0;();(-2000.0, -2000.0);
12:22:06:135;12:22:06:117;1448408284.68;(0.5823460578918457, 0.8704990598890516);75.8172225952;0.750337408127;;;;;;;;;;;;;;0;0;0;0;0;0;0;0;0;();(-2000.0, -2000.0);
12:22:06:150;12:22:06:117;1448408284.68;(0.5823460578918457, 0.8704990598890516);75.8172225952;0.750337408127;;;;;;;;;;;;;;0;0;0;0;0;0;0;0;0;();(-2000.0, -2000.0);
12:22:06:183;12:22:06:181;1448408284.75;(0, 0);0;0;;;;;;;;;;;;;;0;0;0;0;0;0;0;0;0;();(-2000.0, -2000.0);
12:22:06:201;12:22:06:181;1448408284.75;(0, 0);0;0;;;;;;;;;;;;;;0;0;0;0;0;0;0;0;0;();(-2000.0, -2000.0);
12:22:06:218;12:22:06:181;1448408284.75;(0, 0);0;0;;;;;;;;;;;;;;0;0;0;0;0;0;0;0;0;();(-2000.0, -2000.0);
12:22:06:234;12:22:06:181;1448408284.75;(0, 0);0;0;;;;;;;;;;;;;;0;0;0;0;0;0;0;0;0;();(-2000.0, -2000.0);
12:22:06:251;12:22:06:249;1448408284.82;(0.5762174606323243, 0.8687395095825196);71.8909225464;0.859477617218;;;;;;;;;;;;;;0;0;0;0;0;0;0;0;0;();(-2000.0, -2000.0);
12:22:06:284;12:22:06:249;1448408284.82;(0.5762174606323243, 0.8687395095825196);71.8909225464;0.859477617218;;;;;;;;;;;;;;0;0;0;0;0;0;0;0;0;();(-2000.0, -2000.0);
12:22:06:302;12:22:06:249;1448408284.82;(0.5762174606323243, 0.8687395095825196);71.8909225464;0.859477617218;;;;;;;;;;;;;;0;0;0;0;0;0;0;0;0;();(-2000.0, -2000.0);
12:22:06:318;12:22:06:314;1448408284.88;(0, 0);0;0;;;;;;;;;;;;;;0;0;0;0;0;0;0;0;0;();(-2000.0, -2000.0);
12:22:06:335;12:22:06:314;1448408284.88;(0, 0);0;0;;;;;;;;;;;;;;0;0;0;0;0;0;0;0;0;();(-2000.0, -2000.0);
12:22:06:351;12:22:06:314;1448408284.88;(0, 0);0;0;;;;;;;;;;;;;;0;0;0;0;0;0;0;0;0;();(-2000.0, -2000.0);
12:22:06:385;12:22:06:381;1448408284.95;(0, 0);0;0;;;;;;;;;;;;;;0;0;0;0;0;0;0;0;0;();(-2000.0, -2000.0);
12:22:06:400;12:22:06:381;1448408284.95;(0, 0);0;0;;;;;;;;;;;;;;0;0;0;0;0;0;0;0;0;();(-2000.0, -2000.0);
12:22:06:418;12:22:06:381;1448408284.95;(0, 0);0;0;;;;;;;;;;;;;;0;0;0;0;0;0;0;0;0;();(-2000.0, -2000.0);
12:22:06:434;12:22:06:381;1448408284.95;(0, 0);0;0;;;;;;;;;;;;;;0;0;0;0;0;0;0;0;0;();(-2000.0, -2000.0);
12:22:06:451;12:22:06:445;1448408285.02;(0.5847206115722656, 0.864162540435791);71.6179504395;0.812963516177;;;;;;;;;;;;;;0;0;0;0;0;0;0;0;0;();(-2000.0, -2000.0);
12:22:06:484;12:22:06:445;1448408285.02;(0.5847206115722656, 0.864162540435791);71.6179504395;0.812963516177;;;;;;;;;;;;;;0;0;0;0;0;0;0;0;0;();(-2000.0, -2000.0);
12:22:06:501;12:22:06:445;1448408285.02;(0.5847206115722656, 0.864162540435791);71.6179504395;0.812963516177;;;;;;;;;;;;;;0;0;0;0;0;0;0;0;0;();(-2000.0, -2000.0);
12:22:06:517;12:22:06:513;1448408285.08;(0.5874584197998047, 0.8631092071533203);70.6591949463;0.806596284745;;;;;;;;;;;;;;0;0;0;0;0;0;0;0;0;();(-2000.0, -2000.0);
12:22:06:533;12:22:06:513;1448408285.08;(0.5874584197998047, 0.8631092071533203);70.6591949463;0.806596284745;;;;;;;;;;;;;;0;0;0;0;0;0;0;0;0;();(-2000.0, -2000.0);
12:22:06:550;12:22:06:513;1448408285.08;(0.5874584197998047, 0.8631092071533203);70.6591949463;0.806596284745;;;;;;;;;;;;;;0;0;0;0;0;0;0;0;0;();(-2000.0, -2000.0);
12:22:06:584;12:22:06:580;1448408285.12;(0.5885050296783447, 0.8587746090359158);70.8855056763;1.0;;;;;;;;;;;;;;0;0;0;0;0;0;0;0;0;();(-2000.0, -2000.0);
12:22:06:602;12:22:06:580;1448408285.12;(0.5885050296783447, 0.8587746090359158);70.8855056763;1.0;;;;;;;;;;;;;;0;0;0;0;0;0;0;0;0;();(-2000.0, -2000.0);
12:22:06:617;12:22:06:580;1448408285.12;(0.5885050296783447, 0.8587746090359158);70.8855056763;1.0;;;;;;;;;;;;;;0;0;0;0;0;0;0;0;0;();(-2000.0, -2000.0);
12:22:06:635;12:22:06:580;1448408285.12;(0.5885050296783447, 0.8587746090359158);70.8855056763;1.0;;;;;;;;;;;;;;0;0;0;0;0;0;0;0;0;();(-2000.0, -2000.0);
12:22:06:650;12:22:06:647;1448408285.22;(0.5820557117462158, 0.8499351713392469);72.3285217285;0.837376107859;;;;;;;;;;;;;;0;0;0;0;0;0;0;0;0;();(-2000.0, -2000.0);
12:22:06:683;12:22:06:647;1448408285.22;(0.5820557117462158, 0.8499351713392469);72.3285217285;0.837376107859;;;;;;;;;;;;;;0;0;0;0;0;0;0;0;0;();(-2000.0, -2000.0);
12:22:06:701;12:22:06:647;1448408285.22;(0.5820557117462158, 0.8499351713392469);72.3285217285;0.837376107859;;;;;;;;;;;;;;0;0;0;0;0;0;0;0;0;();(-2000.0, -2000.0);
12:22:06:718;12:22:06:713;1448408285.28;(0.5870452404022217, 0.8485080613030328);73.0646209717;0.713826180475;;;;;;;;;;;;;;0;0;0;0;0;0;0;0;0;();(-2000.0, -2000.0);
12:22:06:734;12:22:06:713;1448408285.28;(0.5870452404022217, 0.8485080613030328);73.0646209717;0.713826180475;;;;;;;;;;;;;;0;0;0;0;0;0;0;0;0;();(-2000.0, -2000.0);
12:22:06:752;12:22:06:713;1448408285.28;(0.5870452404022217, 0.8485080613030328);73.0646209717;0.713826180475;;;;;;;;;;;;;;0;0;0;0;0;0;0;0;0;();(-2000.0, -2000.0);
12:22:06:784;12:22:06:775;1448408285.32;(0.5856254577636719, 0.8488670772976346);73.2405548096;0.634090944971;;;;;;;;;;;;;;0;0;0;0;0;0;0;0;0;();(-2000.0, -2000.0);
12:22:06:802;12:22:06:775;1448408285.32;(0.5856254577636719, 0.8488670772976346);73.2405548096;0.634090944971;;;;;;;;;;;;;;0;0;0;0;0;0;0;0;0;();(-2000.0, -2000.0);
12:22:06:819;12:22:06:775;1448408285.32;(0.5856254577636719, 0.8488670772976346);73.2405548096;0.634090944971;;;;;;;;;;;;;;0;0;0;0;0;0;0;0;0;();(-2000.0, -2000.0);
12:22:06:835;12:22:06:775;1448408285.32;(0.5856254577636719, 0.8488670772976346);73.2405548096;0.634090944971;;;;;;;;;;;;;;0;0;0;0;0;0;0;0;0;();(-2000.0, -2000.0);
12:22:06:851;12:22:06:847;1448408285.42;(0.5875895977020263, 0.8430053287082249);74.0789031982;0.975520276195;;;;;;;;;;;;;;0;0;0;0;0;0;0;0;0;();(-2000.0, -2000.0);
12:22:06:885;12:22:06:847;1448408285.42;(0.5875895977020263, 0.8430053287082249);74.0789031982;0.975520276195;;;;;;;;;;;;;;0;0;0;0;0;0;0;0;0;();(-2000.0, -2000.0);
12:22:06:902;12:22:06:847;1448408285.42;(0.5875895977020263, 0.8430053287082249);74.0789031982;0.975520276195;;;;;;;;;;;;;;0;0;0;0;0;0;0;0;0;();(-2000.0, -2000.0);
12:22:06:919;12:22:06:915;1448408285.48;(0.6191424369812012, 0.8380647659301758);73.3519439697;0.633922963258;;;;;;;;;;;;;;0;0;0;0;0;0;0;0;0;();(-2000.0, -2000.0);
12:22:06:936;12:22:06:915;1448408285.48;(0.6191424369812012, 0.8380647659301758);73.3519439697;0.633922963258;;;;;;;;;;;;;;0;0;0;0;0;0;0;0;0;();(-2000.0, -2000.0);
12:22:06:951;12:22:06:915;1448408285.48;(0.6191424369812012, 0.8380647659301758);73.3519439697;0.633922963258;;;;;;;;;;;;;;0;0;0;0;0;0;0;0;0;();(-2000.0, -2000.0);
12:22:06:985;12:22:06:976;1448408285.55;(0.6205164432525635, 0.8514508989122178);79.3117980957;0.794585512015;;;;;;;;;;;;;;0;0;0;0;0;0;0;0;0;();(-2000.0, -2000.0);
12:22:07:001;12:22:06:976;1448408285.55;(0.6205164432525635, 0.8514508989122178);79.3117980957;0.794585512015;;;;;;;;;;;;;;0;0;0;0;0;0;0;0;0;();(-2000.0, -2000.0);
12:22:07:017;12:22:06:976;1448408285.55;(0.6205164432525635, 0.8514508989122178);79.3117980957;0.794585512015;;;;;;;;;;;;;;0;0;0;0;0;0;0;0;0;();(-2000.0, -2000.0);
12:22:07:034;12:22:06:976;1448408285.55;(0.6205164432525635, 0.8514508989122178);79.3117980957;0.794585512015;;;;;;;;;;;;;;0;0;0;0;0;0;0;0;0;();(-2000.0, -2000.0);
12:22:07:051;12:22:07:047;1448408285.62;(0.6165861129760742, 0.8439535776774089);76.7483978271;0.872377131615;;;;;;;;;;;;;;0;0;0;0;0;0;0;0;0;();(-2000.0, -2000.0);
12:22:07:084;12:22:07:047;1448408285.62;(0.6165861129760742, 0.8439535776774089);76.7483978271;0.872377131615;;;;;;;;;;;;;;0;0;0;0;0;0;0;0;0;();(-2000.0, -2000.0);
12:22:07:101;12:22:07:047;1448408285.62;(0.6165861129760742, 0.8439535776774089);76.7483978271;0.872377131615;;;;;;;;;;;;;;0;0;0;0;0;0;0;0;0;();(-2000.0, -2000.0);
12:22:07:117;12:22:07:109;1448408285.68;(0.6165314674377441, 0.8434093475341797);78.0129165649;0.889404872623;;;;;;;;;;;;;;0;0;0;0;0;0;0;0;0;();(-2000.0, -2000.0);
12:22:07:136;12:22:07:109;1448408285.68;(0.6165314674377441, 0.8434093475341797);78.0129165649;0.889404872623;;;;;;;;;;;;;;0;0;0;0;0;0;0;0;0;();(-2000.0, -2000.0);
12:22:07:151;12:22:07:109;1448408285.68;(0.6165314674377441, 0.8434093475341797);78.0129165649;0.889404872623;;;;;;;;;;;;;;0;0;0;0;0;0;0;0;0;();(-2000.0, -2000.0);
12:22:07:184;12:22:07:177;1448408285.75;(0.6170703411102295, 0.843237124549018);79.2109985352;0.976197623271;;;;;;;;;;;;;;0;0;0;0;0;0;0;0;0;();(-2000.0, -2000.0);
12:22:07:202;12:22:07:177;1448408285.75;(0.6170703411102295, 0.843237124549018);79.2109985352;0.976197623271;;;;;;;;;;;;;;0;0;0;0;0;0;0;0;0;();(-2000.0, -2000.0);
12:22:07:219;12:22:07:177;1448408285.75;(0.6170703411102295, 0.843237124549018);79.2109985352;0.976197623271;;;;;;;;;;;;;;0;0;0;0;0;0;0;0;0;();(-2000.0, -2000.0);
12:22:07:235;12:22:07:177;1448408285.75;(0.6170703411102295, 0.843237124549018);79.2109985352;0.976197623271;;;;;;;;;;;;;;0;0;0;0;0;0;0;0;0;();(-2000.0, -2000.0);
12:22:07:252;12:22:07:246;1448408285.82;(0.6159565925598145, 0.8438778029547798);79.8248596191;0.97559767226;;;;;;;;;;;;;;0;0;0;0;0;0;0;0;0;();(-2000.0, -2000.0);
12:22:07:285;12:22:07:246;1448408285.82;(0.6159565925598145, 0.8438778029547798);79.8248596191;0.97559767226;;;;;;;;;;;;;;0;0;0;0;0;0;0;0;0;();(-2000.0, -2000.0);
12:22:07:302;12:22:07:246;1448408285.82;(0.6159565925598145, 0.8438778029547798);79.8248596191;0.97559767226;;;;;;;;;;;;;;0;0;0;0;0;0;0;0;0;();(-2000.0, -2000.0);
12:22:07:319;12:22:07:315;1448408285.88;(0.6146631717681885, 0.8430292129516601);80.5346298218;0.826541963961;;;;;;;;;;;;;;0;0;0;0;0;0;0;0;0;();(-2000.0, -2000.0);
12:22:07:335;12:22:07:315;1448408285.88;(0.6146631717681885, 0.8430292129516601);80.5346298218;0.826541963961;;;;;;;;;;;;;;0;0;0;0;0;0;0;0;0;();(-2000.0, -2000.0);
12:22:07:352;12:22:07:315;1448408285.88;(0.6146631717681885, 0.8430292129516601);80.5346298218;0.826541963961;;;;;;;;;;;;;;0;0;0;0;0;0;0;0;0;();(-2000.0, -2000.0);
12:22:07:385;12:22:07:378;1448408285.95;(0, 0);0;0;;;;;;;;;;;;;;0;0;0;0;0;0;0;0;0;();(-2000.0, -2000.0);
12:22:07:403;12:22:07:378;1448408285.95;(0, 0);0;0;;;;;;;;;;;;;;0;0;0;0;0;0;0;0;0;();(-2000.0, -2000.0);
12:22:07:419;12:22:07:378;1448408285.95;(0, 0);0;0;;;;;;;;;;;;;;0;0;0;0;0;0;0;0;0;();(-2000.0, -2000.0);
12:22:07:436;12:22:07:378;1448408285.95;(0, 0);0;0;;;;;;;;;;;;;;0;0;0;0;0;0;0;0;0;();(-2000.0, -2000.0);
12:22:07:453;12:22:07:440;1448408285.98;(0.931131649017334, 0.5175819820827908);28.8853549957;0.636256940581;;;;;;;;;;;;;;0;0;0;0;0;0;0;0;0;();(-2000.0, -2000.0);
12:22:07:486;12:22:07:440;1448408285.98;(0.931131649017334, 0.5175819820827908);28.8853549957;0.636256940581;;;;;;;;;;;;;;0;0;0;0;0;0;0;0;0;();(-2000.0, -2000.0);
12:22:07:503;12:22:07:440;1448408285.98;(0.931131649017334, 0.5175819820827908);28.8853549957;0.636256940581;;;;;;;;;;;;;;0;0;0;0;0;0;0;0;0;();(-2000.0, -2000.0);
12:22:07:520;12:22:07:516;1448408286.05;(0.8676095008850098, 0.7024782816569011);27.6410541534;0.627503262661;;;;;;;;;;;;;;0;0;0;0;0;0;0;0;0;();(-2000.0, -2000.0);
12:22:07:537;12:22:07:516;1448408286.05;(0.8676095008850098, 0.7024782816569011);27.6410541534;0.627503262661;;;;;;;;;;;;;;0;0;0;0;0;0;0;0;0;();(-2000.0, -2000.0);
12:22:07:553;12:22:07:516;1448408286.05;(0.8676095008850098, 0.7024782816569011);27.6410541534;0.627503262661;;;;;;;;;;;;;;0;0;0;0;0;0;0;0;0;();(-2000.0, -2000.0);
12:22:07:585;12:22:07:578;1448408286.13;(0.6321761131286621, 0.8445352978176541);83.0751495361;0.80884907447;;;;;;;;;;;;;;0;0;0;0;0;0;0;0;0;();(-2000.0, -2000.0);
12:22:07:602;12:22:07:578;1448408286.13;(0.6321761131286621, 0.8445352978176541);83.0751495361;0.80884907447;;;;;;;;;;;;;;0;0;0;0;0;0;0;0;0;();(-2000.0, -2000.0);
12:22:07:619;12:22:07:578;1448408286.13;(0.6321761131286621, 0.8445352978176541);83.0751495361;0.80884907447;;;;;;;;;;;;;;0;0;0;0;0;0;0;0;0;();(-2000.0, -2000.0);
12:22:07:636;12:22:07:578;1448408286.13;(0.6321761131286621, 0.8445352978176541);83.0751495361;0.80884907447;;;;;;;;;;;;;;0;0;0;0;0;0;0;0;0;();(-2000.0, -2000.0);
12:22:07:652;12:22:07:642;1448408286.22;(0.6336594581604004, 0.8418055216471354);82.8647842407;0.944366522332;;;;;;;;;;;;;;0;0;0;0;0;0;0;0;0;();(-2000.0, -2000.0);
12:22:07:686;12:22:07:642;1448408286.22;(0.6336594581604004, 0.8418055216471354);82.8647842407;0.944366522332;;;;;;;;;;;;;;0;0;0;0;0;0;0;0;0;();(-2000.0, -2000.0);
12:22:07:701;12:22:07:642;1448408286.22;(0.6336594581604004, 0.8418055216471354);82.8647842407;0.944366522332;;;;;;;;;;;;;;0;0;0;0;0;0;0;0;0;();(-2000.0, -2000.0);
12:22:07:718;12:22:07:709;1448408286.28;(0.6335893154144288, 0.8414980252583821);83.0038833618;0.963963093954;;;;;;;;;;;;;;0;0;0;0;0;0;0;0;0;();(-2000.0, -2000.0);
12:22:07:735;12:22:07:709;1448408286.28;(0.6335893154144288, 0.8414980252583821);83.0038833618;0.963963093954;;;;;;;;;;;;;;0;0;0;0;0;0;0;0;0;();(-2000.0, -2000.0);
12:22:07:751;12:22:07:709;1448408286.28;(0.6335893154144288, 0.8414980252583821);83.0038833618;0.963963093954;;;;;;;;;;;;;;0;0;0;0;0;0;0;0;0;();(-2000.0, -2000.0);
12:22:07:786;12:22:07:773;1448408286.35;(0, 0);0;0;;;;;;;;;;;;;;0;0;0;0;0;0;0;0;0;();(-2000.0, -2000.0);
12:22:07:802;12:22:07:773;1448408286.35;(0, 0);0;0;;;;;;;;;;;;;;0;0;0;0;0;0;0;0;0;();(-2000.0, -2000.0);
12:22:07:819;12:22:07:773;1448408286.35;(0, 0);0;0;;;;;;;;;;;;;;0;0;0;0;0;0;0;0;0;();(-2000.0, -2000.0);
12:22:07:835;12:22:07:773;1448408286.35;(0, 0);0;0;;;;;;;;;;;;;;0;0;0;0;0;0;0;0;0;();(-2000.0, -2000.0);
12:22:07:853;12:22:07:840;1448408286.38;(0.7131358623504639, 0.7592541800604926);82.5096817017;0.895874701416;;;;;;;;;;;;;;0;0;0;0;0;0;0;0;0;();(-2000.0, -2000.0);
12:22:07:886;12:22:07:840;1448408286.38;(0.7131358623504639, 0.7592541800604926);82.5096817017;0.895874701416;;;;;;;;;;;;;;0;0;0;0;0;0;0;0;0;();(-2000.0, -2000.0);
12:22:07:903;12:22:07:840;1448408286.38;(0.7131358623504639, 0.7592541800604926);82.5096817017;0.895874701416;;;;;;;;;;;;;;0;0;0;0;0;0;0;0;0;();(-2000.0, -2000.0);
12:22:07:919;12:22:07:911;1448408286.48;(0.7133223056793213, 0.7634002473619249);83.7428970337;0.979610592757;;;;;;;;;;;;;;0;0;0;0;0;0;0;0;0;();(-2000.0, -2000.0);
12:22:07:936;12:22:07:911;1448408286.48;(0.7133223056793213, 0.7634002473619249);83.7428970337;0.979610592757;;;;;;;;;;;;;;0;0;0;0;0;0;0;0;0;();(-2000.0, -2000.0);
12:22:07:953;12:22:07:911;1448408286.48;(0.7133223056793213, 0.7634002473619249);83.7428970337;0.979610592757;;;;;;;;;;;;;;0;0;0;0;0;0;0;0;0;();(-2000.0, -2000.0);
12:22:07:986;12:22:07:973;1448408286.55;(0.7122698307037354, 0.7651864157782661);83.7121429443;0.944164431797;;;;;;;;;;;;;;0;0;0;0;0;0;0;0;0;();(-2000.0, -2000.0);
12:22:08:001;12:22:07:973;1448408286.55;(0.7122698307037354, 0.7651864157782661);83.7121429443;0.944164431797;;;;;;;;;;;;;;0;0;0;0;0;0;0;0;0;();(-2000.0, -2000.0);
12:22:08:020;12:22:07:973;1448408286.55;(0.7122698307037354, 0.7651864157782661);83.7121429443;0.944164431797;;;;;;;;;;;;;;0;0;0;0;0;0;0;0;0;();(-2000.0, -2000.0);
12:22:08:036;12:22:07:973;1448408286.55;(0.7122698307037354, 0.7651864157782661);83.7121429443;0.944164431797;;;;;;;;;;;;;;0;0;0;0;0;0;0;0;0;();(-2000.0, -2000.0);
12:22:08:053;12:22:08:041;1448408286.62;(0.711780309677124, 0.7664826711018881);83.6937866211;1.0;;;;;;;;;;;;;;0;0;0;0;0;0;0;0;0;();(-2000.0, -2000.0);
12:22:08:086;12:22:08:041;1448408286.62;(0.711780309677124, 0.7664826711018881);83.6937866211;1.0;;;;;;;;;;;;;;0;0;0;0;0;0;0;0;0;();(-2000.0, -2000.0);
12:22:08:102;12:22:08:041;1448408286.62;(0.711780309677124, 0.7664826711018881);83.6937866211;1.0;;;;;;;;;;;;;;0;0;0;0;0;0;0;0;0;();(-2000.0, -2000.0);
12:22:08:119;12:22:08:108;1448408286.68;(0.7110673904418945, 0.7676026662190756);83.3924942017;1.0;;;;;;;;;;;;;;0;0;0;0;0;0;0;0;0;();(-2000.0, -2000.0);
12:22:08:136;12:22:08:108;1448408286.68;(0.7110673904418945, 0.7676026662190756);83.3924942017;1.0;;;;;;;;;;;;;;0;0;0;0;0;0;0;0;0;();(-2000.0, -2000.0);
12:22:08:153;12:22:08:108;1448408286.68;(0.7110673904418945, 0.7676026662190756);83.3924942017;1.0;;;;;;;;;;;;;;0;0;0;0;0;0;0;0;0;();(-2000.0, -2000.0);
12:22:08:169;12:22:08:108;1448408286.68;(0.7110673904418945, 0.7676026662190756);83.3924942017;1.0;;;;;;;;;;;;;;0;0;0;0;0;0;0;0;0;();(-2000.0, -2000.0);
12:22:08:203;12:22:08:179;1448408286.75;(0.7107362747192383, 0.7676817576090494);83.3319625854;0.981359447994;;;;;;;;;;;;;;0;0;0;0;0;0;0;0;0;();(-2000.0, -2000.0);
12:22:08:220;12:22:08:179;1448408286.75;(0.7107362747192383, 0.7676817576090494);83.3319625854;0.981359447994;;;;;;;;;;;;;;0;0;0;0;0;0;0;0;0;();(-2000.0, -2000.0);
12:22:08:237;12:22:08:179;1448408286.75;(0.7107362747192383, 0.7676817576090494);83.3319625854;0.981359447994;;;;;;;;;;;;;;0;0;0;0;0;0;0;0;0;();(-2000.0, -2000.0);
12:22:08:252;12:22:08:242;1448408286.82;(0.7109529972076416, 0.7683356602986654);82.9032745361;0.957890313995;;;;;;;;;;;;;;0;0;0;0;0;0;0;0;0;();(-2000.0, -2000.0);
12:22:08:270;12:22:08:242;1448408286.82;(0.7109529972076416, 0.7683356602986654);82.9032745361;0.957890313995;;;;;;;;;;;;;;0;0;0;0;0;0;0;0;0;();(-2000.0, -2000.0);
12:22:08:302;12:22:08:242;1448408286.82;(0.7109529972076416, 0.7683356602986654);82.9032745361;0.957890313995;;;;;;;;;;;;;;0;0;0;0;0;0;0;0;0;();(-2000.0, -2000.0);
12:22:08:320;12:22:08:307;1448408286.88;(0.7102405548095703, 0.7698607550726997);83.0018997192;0.894384408084;;;;;;;;;;;;;;0;0;0;0;0;0;0;0;0;();(-2000.0, -2000.0);
12:22:08:335;12:22:08:307;1448408286.88;(0.7102405548095703, 0.7698607550726997);83.0018997192;0.894384408084;;;;;;;;;;;;;;0;0;0;0;0;0;0;0;0;();(-2000.0, -2000.0);
12:22:08:352;12:22:08:307;1448408286.88;(0.7102405548095703, 0.7698607550726997);83.0018997192;0.894384408084;;;;;;;;;;;;;;0;0;0;0;0;0;0;0;0;();(-2000.0, -2000.0);
12:22:08:370;12:22:08:307;1448408286.88;(0.7102405548095703, 0.7698607550726997);83.0018997192;0.894384408084;;;;;;;;;;;;;;0;0;0;0;0;0;0;0;0;();(-2000.0, -2000.0);
12:22:08:403;12:22:08:375;1448408286.95;(0.7095800399780273, 0.7702313105265299);82.8843002319;0.978407601686;;;;;;;;;;;;;;0;0;0;0;0;0;0;0;0;();(-2000.0, -2000.0);
12:22:08:419;12:22:08:375;1448408286.95;(0.7095800399780273, 0.7702313105265299);82.8843002319;0.978407601686;;;;;;;;;;;;;;0;0;0;0;0;0;0;0;0;();(-2000.0, -2000.0);
12:22:08:437;12:22:08:375;1448408286.95;(0.7095800399780273, 0.7702313105265299);82.8843002319;0.978407601686;;;;;;;;;;;;;;0;0;0;0;0;0;0;0;0;();(-2000.0, -2000.0);
12:22:08:453;12:22:08:441;1448408287.02;(0.709557294845581, 0.7705886628892686);83.2721710205;1.0;;;;;;;;;;;;;;0;0;0;0;0;0;0;0;0;();(-2000.0, -2000.0);
12:22:08:469;12:22:08:441;1448408287.02;(0.709557294845581, 0.7705886628892686);83.2721710205;1.0;;;;;;;;;;;;;;0;0;0;0;0;0;0;0;0;();(-2000.0, -2000.0);
12:22:08:502;12:22:08:441;1448408287.02;(0.709557294845581, 0.7705886628892686);83.2721710205;1.0;;;;;;;;;;;;;;0;0;0;0;0;0;0;0;0;();(-2000.0, -2000.0);
12:22:08:519;12:22:08:503;1448408287.05;(0.7098458766937256, 0.770819346110026);83.7802429199;0.957000676614;;;;;;;;;;;;;;0;0;0;0;0;0;0;0;0;();(-2000.0, -2000.0);
12:22:08:537;12:22:08:503;1448408287.05;(0.7098458766937256, 0.770819346110026);83.7802429199;0.957000676614;;;;;;;;;;;;;;0;0;0;0;0;0;0;0;0;();(-2000.0, -2000.0);
12:22:08:553;12:22:08:503;1448408287.05;(0.7098458766937256, 0.770819346110026);83.7802429199;0.957000676614;;;;;;;;;;;;;;0;0;0;0;0;0;0;0;0;();(-2000.0, -2000.0);
12:22:08:587;12:22:08:573;1448408287.12;(0.7210620403289795, 0.762603505452474);82.837020874;0.92662694693;;;;;;;;;;;;;;0;0;0;0;0;0;0;0;0;();(-2000.0, -2000.0);
12:22:08:604;12:22:08:573;1448408287.12;(0.7210620403289795, 0.762603505452474);82.837020874;0.92662694693;;;;;;;;;;;;;;0;0;0;0;0;0;0;0;0;();(-2000.0, -2000.0);
12:22:08:620;12:22:08:573;1448408287.12;(0.7210620403289795, 0.762603505452474);82.837020874;0.92662694693;;;;;;;;;;;;;;0;0;0;0;0;0;0;0;0;();(-2000.0, -2000.0);
12:22:08:637;12:22:08:573;1448408287.12;(0.7210620403289795, 0.762603505452474);82.837020874;0.92662694693;;;;;;;;;;;;;;0;0;0;0;0;0;0;0;0;();(-2000.0, -2000.0);
12:22:08:653;12:22:08:651;1448408287.18;(0, 0);0;0;;;;;;;;;;;;;;0;0;0;0;0;0;0;0;0;();(-2000.0, -2000.0);
12:22:08:687;12:22:08:651;1448408287.18;(0, 0);0;0;;;;;;;;;;;;;;0;0;0;0;0;0;0;0;0;();(-2000.0, -2000.0);
12:22:08:704;12:22:08:651;1448408287.18;(0, 0);0;0;;;;;;;;;;;;;;0;0;0;0;0;0;0;0;0;();(-2000.0, -2000.0);
12:22:08:720;12:22:08:713;1448408287.25;(0.729823637008667, 0.7377321667141384);62.4725608826;0.629153517191;;;;;;;;;;;;;;0;0;0;0;0;0;0;0;0;();(-2000.0, -2000.0);
12:22:08:737;12:22:08:713;1448408287.25;(0.729823637008667, 0.7377321667141384);62.4725608826;0.629153517191;;;;;;;;;;;;;;0;0;0;0;0;0;0;0;0;();(-2000.0, -2000.0);
12:22:08:754;12:22:08:713;1448408287.25;(0.729823637008667, 0.7377321667141384);62.4725608826;0.629153517191;;;;;;;;;;;;;;0;0;0;0;0;0;0;0;0;();(-2000.0, -2000.0);
12:22:08:772;12:22:08:768;1448408287.28;(0.7202517032623291, 0.7609415902031793);80.9001235962;0.997207881734;;;;;;;;;;;;;;0;0;0;0;0;0;0;0;0;();(-2000.0, -2000.0);
12:22:08:804;12:22:08:775;1448408287.36;(0.7197913646697998, 0.7614374584621854);82.4126434326;1.0;;;;;;;;;;;;;;0;0;0;0;0;0;0;0;0;();(-2000.0, -2000.0);
12:22:08:820;12:22:08:775;1448408287.36;(0.7197913646697998, 0.7614374584621854);82.4126434326;1.0;;;;;;;;;;;;;;0;0;0;0;0;0;0;0;0;();(-2000.0, -2000.0);
12:22:08:840;12:22:08:836;1448408287.38;(0.7196733951568604, 0.7615526623196072);83.0546188354;0.960154948005;;;;;;;;;;;;;;0;0;0;0;0;0;0;0;0;();(-2000.0, -2000.0);
12:22:08:854;12:22:08:838;1448408287.42;(0.7192892551422119, 0.761461427476671);83.1700057983;0.972865466217;;;;;;;;;;;;;;0;0;0;0;0;0;0;0;0;();(-2000.0, -2000.0);
12:22:08:869;12:22:08:838;1448408287.42;(0.7192892551422119, 0.761461427476671);83.1700057983;0.972865466217;;;;;;;;;;;;;;0;0;0;0;0;0;0;0;0;();(-2000.0, -2000.0);
12:22:08:903;12:22:08:838;1448408287.42;(0.7192892551422119, 0.761461427476671);83.1700057983;0.972865466217;;;;;;;;;;;;;;0;0;0;0;0;0;0;0;0;();(-2000.0, -2000.0);
12:22:08:919;12:22:08:908;1448408287.48;(0.7179848670959472, 0.7620418972439236);83.7123641968;0.931274005248;;;;;;;;;;;;;;0;0;0;0;0;0;0;0;0;();(-2000.0, -2000.0);
12:22:08:936;12:22:08:908;1448408287.48;(0.7179848670959472, 0.7620418972439236);83.7123641968;0.931274005248;;;;;;;;;;;;;;0;0;0;0;0;0;0;0;0;();(-2000.0, -2000.0);
12:22:08:953;12:22:08:908;1448408287.48;(0.7179848670959472, 0.7620418972439236);83.7123641968;0.931274005248;;;;;;;;;;;;;;0;0;0;0;0;0;0;0;0;();(-2000.0, -2000.0);
12:22:08:971;12:22:08:969;1448408287.55;(0.7167984485626221, 0.7626367992824978);83.4458465576;0.99502187739;;;;;;;;;;;;;;0;0;0;0;0;0;0;0;0;();(-2000.0, -2000.0);
12:22:09:004;12:22:08:969;1448408287.55;(0.7167984485626221, 0.7626367992824978);83.4458465576;0.99502187739;;;;;;;;;;;;;;0;0;0;0;0;0;0;0;0;();(-2000.0, -2000.0);
12:22:09:021;12:22:08:969;1448408287.55;(0.7167984485626221, 0.7626367992824978);83.4458465576;0.99502187739;;;;;;;;;;;;;;0;0;0;0;0;0;0;0;0;();(-2000.0, -2000.0);
12:22:09:037;12:22:08:969;1448408287.55;(0.7167984485626221, 0.7626367992824978);83.4458465576;0.99502187739;;;;;;;;;;;;;;0;0;0;0;0;0;0;0;0;();(-2000.0, -2000.0);
12:22:09:054;12:22:09:046;1448408287.62;(0.7160356998443603, 0.7638346354166666);84.0126190186;1.0;;;;;;;;;;;;;;0;0;0;0;0;0;0;0;0;();(-2000.0, -2000.0);
12:22:09:070;12:22:09:046;1448408287.62;(0.7160356998443603, 0.7638346354166666);84.0126190186;1.0;;;;;;;;;;;;;;0;0;0;0;0;0;0;0;0;();(-2000.0, -2000.0);
12:22:09:103;12:22:09:101;1448408287.68;(0.7157767295837403, 0.7634663475884331);84.7875900269;1.0;;;;;;;;;;;;;;0;0;0;0;0;0;0;0;0;();(-2000.0, -2000.0);
12:22:09:120;12:22:09:101;1448408287.68;(0.7157767295837403, 0.7634663475884331);84.7875900269;1.0;;;;;;;;;;;;;;0;0;0;0;0;0;0;0;0;();(-2000.0, -2000.0);
12:22:09:136;12:22:09:101;1448408287.68;(0.7157767295837403, 0.7634663475884331);84.7875900269;1.0;;;;;;;;;;;;;;0;0;0;0;0;0;0;0;0;();(-2000.0, -2000.0);
12:22:09:152;12:22:09:101;1448408287.68;(0.7157767295837403, 0.7634663475884331);84.7875900269;1.0;;;;;;;;;;;;;;0;0;0;0;0;0;0;0;0;();(-2000.0, -2000.0);
12:22:09:171;12:22:09:169;1448408287.75;(0.7154454708099365, 0.7632197697957357);85.4287719727;1.0;;;;;;;;;;;;;;0;0;0;0;0;0;0;0;0;();(-2000.0, -2000.0);
12:22:09:203;12:22:09:169;1448408287.75;(0.7154454708099365, 0.7632197697957357);85.4287719727;1.0;;;;;;;;;;;;;;0;0;0;0;0;0;0;0;0;();(-2000.0, -2000.0);
12:22:09:220;12:22:09:169;1448408287.75;(0.7154454708099365, 0.7632197697957357);85.4287719727;1.0;;;;;;;;;;;;;;0;0;0;0;0;0;0;0;0;();(-2000.0, -2000.0);
12:22:09:236;12:22:09:234;1448408287.82;(0.7154458045959473, 0.7634762446085612);85.4123916626;1.0;;;;;;;;;;;;;;0;0;0;0;0;0;0;0;0;();(-2000.0, -2000.0);
12:22:09:253;12:22:09:234;1448408287.82;(0.7154458045959473, 0.7634762446085612);85.4123916626;1.0;;;;;;;;;;;;;;0;0;0;0;0;0;0;0;0;();(-2000.0, -2000.0);
12:22:09:269;12:22:09:234;1448408287.82;(0.7154458045959473, 0.7634762446085612);85.4123916626;1.0;;;;;;;;;;;;;;0;0;0;0;0;0;0;0;0;();(-2000.0, -2000.0);
12:22:09:303;12:22:09:300;1448408287.85;(0.7150283813476562, 0.7636755413479275);85.1462631226;0.980143563445;;;;;;;;;;;;;;0;0;0;0;0;0;0;0;0;();(-2000.0, -2000.0);
12:22:09:320;12:22:09:300;1448408287.85;(0.7150283813476562, 0.7636755413479275);85.1462631226;0.980143563445;;;;;;;;;;;;;;0;0;0;0;0;0;0;0;0;();(-2000.0, -2000.0);
12:22:09:336;12:22:09:300;1448408287.85;(0.7150283813476562, 0.7636755413479275);85.1462631226;0.980143563445;;;;;;;;;;;;;;0;0;0;0;0;0;0;0;0;();(-2000.0, -2000.0);
12:22:09:354;12:22:09:300;1448408287.85;(0.7150283813476562, 0.7636755413479275);85.1462631226;0.980143563445;;;;;;;;;;;;;;0;0;0;0;0;0;0;0;0;();(-2000.0, -2000.0);
12:22:09:372;12:22:09:370;1448408287.95;(0.6965406894683838, 0.7845067342122396);85.2581558228;0.879853149974;;;;;;;;;;;;;;0;0;0;0;0;0;0;0;0;();(-2000.0, -2000.0);
12:22:09:403;12:22:09:370;1448408287.95;(0.6965406894683838, 0.7845067342122396);85.2581558228;0.879853149974;;;;;;;;;;;;;;0;0;0;0;0;0;0;0;0;();(-2000.0, -2000.0);
12:22:09:421;12:22:09:370;1448408287.95;(0.6965406894683838, 0.7845067342122396);85.2581558228;0.879853149974;;;;;;;;;;;;;;0;0;0;0;0;0;0;0;0;();(-2000.0, -2000.0);
12:22:09:438;12:22:09:432;1448408287.98;(0.6960692882537842, 0.7840773052639431);85.3364715576;0.966267298633;;;;;;;;;;;;;;0;0;0;0;0;0;0;0;0;();(-2000.0, -2000.0);
12:22:09:454;12:22:09:432;1448408287.98;(0.6960692882537842, 0.7840773052639431);85.3364715576;0.966267298633;;;;;;;;;;;;;;0;0;0;0;0;0;0;0;0;();(-2000.0, -2000.0);
12:22:09:470;12:22:09:432;1448408287.98;(0.6960692882537842, 0.7840773052639431);85.3364715576;0.966267298633;;;;;;;;;;;;;;0;0;0;0;0;0;0;0;0;();(-2000.0, -2000.0);
12:22:09:506;12:22:09:504;1448408288.08;(0.6948148250579834, 0.7837803310818142);85.3731613159;0.993120356785;;;;;;;;;;;;;;0;0;0;0;0;0;0;0;0;();(-2000.0, -2000.0);
12:22:09:520;12:22:09:504;1448408288.08;(0.6948148250579834, 0.7837803310818142);85.3731613159;0.993120356785;;;;;;;;;;;;;;0;0;0;0;0;0;0;0;0;();(-2000.0, -2000.0);
12:22:09:536;12:22:09:504;1448408288.08;(0.6948148250579834, 0.7837803310818142);85.3731613159;0.993120356785;;;;;;;;;;;;;;0;0;0;0;0;0;0;0;0;();(-2000.0, -2000.0);
12:22:09:553;12:22:09:504;1448408288.08;(0.6948148250579834, 0.7837803310818142);85.3731613159;0.993120356785;;;;;;;;;;;;;;0;0;0;0;0;0;0;0;0;();(-2000.0, -2000.0);
12:22:09:569;12:22:09:565;1448408288.15;(0.6950112819671631, 0.785007095336914);85.0875778198;0.915741712818;;;;;;;;;;;;;;0;0;0;0;0;0;0;0;0;();(-2000.0, -2000.0);
12:22:09:603;12:22:09:565;1448408288.15;(0.6950112819671631, 0.785007095336914);85.0875778198;0.915741712818;;;;;;;;;;;;;;0;0;0;0;0;0;0;0;0;();(-2000.0, -2000.0);
12:22:09:620;12:22:09:565;1448408288.15;(0.6950112819671631, 0.785007095336914);85.0875778198;0.915741712818;;;;;;;;;;;;;;0;0;0;0;0;0;0;0;0;();(-2000.0, -2000.0);
12:22:09:637;12:22:09:632;1448408288.18;(0.6947073936462402, 0.7855304929945204);84.8126754761;0.90896686857;;;;;;;;;;;;;;0;0;0;0;0;0;0;0;0;();(-2000.0, -2000.0);
12:22:09:653;12:22:09:632;1448408288.18;(0.6947073936462402, 0.7855304929945204);84.8126754761;0.90896686857;;;;;;;;;;;;;;0;0;0;0;0;0;0;0;0;();(-2000.0, -2000.0);
12:22:09:670;12:22:09:632;1448408288.18;(0.6947073936462402, 0.7855304929945204);84.8126754761;0.90896686857;;;;;;;;;;;;;;0;0;0;0;0;0;0;0;0;();(-2000.0, -2000.0);
12:22:09:704;12:22:09:701;1448408288.25;(0.6851016044616699, 0.5467075347900391);23.4400119781;0.669417694194;;;;;;;;;;;;;;0;0;0;0;0;0;0;0;0;();(-2000.0, -2000.0);
12:22:09:721;12:22:09:701;1448408288.25;(0.6851016044616699, 0.5467075347900391);23.4400119781;0.669417694194;;;;;;;;;;;;;;0;0;0;0;0;0;0;0;0;();(-2000.0, -2000.0);
12:22:09:737;12:22:09:701;1448408288.25;(0.6851016044616699, 0.5467075347900391);23.4400119781;0.669417694194;;;;;;;;;;;;;;0;0;0;0;0;0;0;0;0;();(-2000.0, -2000.0);
12:22:09:755;12:22:09:701;1448408288.25;(0.6851016044616699, 0.5467075347900391);23.4400119781;0.669417694194;;;;;;;;;;;;;;0;0;0;0;0;0;0;0;0;();(-2000.0, -2000.0);
12:22:09:771;12:22:09:766;1448408288.32;(0.4835647106170654, 0.6323837068345812);20.9830513;0.789143161774;;;;;;;;;;;;;;0;0;0;0;0;0;0;0;0;();(-2000.0, -2000.0);
12:22:09:804;12:22:09:766;1448408288.32;(0.4835647106170654, 0.6323837068345812);20.9830513;0.789143161774;;;;;;;;;;;;;;0;0;0;0;0;0;0;0;0;();(-2000.0, -2000.0);
12:22:09:821;12:22:09:766;1448408288.32;(0.4835647106170654, 0.6323837068345812);20.9830513;0.789143161774;;;;;;;;;;;;;;0;0;0;0;0;0;0;0;0;();(-2000.0, -2000.0);
12:22:09:838;12:22:09:834;1448408288.39;(0.26186380386352537, 0.6979646894666884);24.4363689423;0.678976653049;;;;;;;;;;;;;;0;0;0;0;0;0;0;0;0;();(-2000.0, -2000.0);
12:22:09:855;12:22:09:834;1448408288.39;(0.26186380386352537, 0.6979646894666884);24.4363689423;0.678976653049;;;;;;;;;;;;;;0;0;0;0;0;0;0;0;0;();(-2000.0, -2000.0);
12:22:09:871;12:22:09:834;1448408288.39;(0.26186380386352537, 0.6979646894666884);24.4363689423;0.678976653049;;;;;;;;;;;;;;0;0;0;0;0;0;0;0;0;();(-2000.0, -2000.0);
12:22:09:904;12:22:09:896;1448408288.42;(0.7091428756713867, 0.7749165429009331);80.347946167;0.843037098268;;;;;;;;;;;;;;0;0;0;0;0;0;0;0;0;();(-2000.0, -2000.0);
12:22:09:921;12:22:09:896;1448408288.42;(0.7091428756713867, 0.7749165429009331);80.347946167;0.843037098268;;;;;;;;;;;;;;0;0;0;0;0;0;0;0;0;();(-2000.0, -2000.0);
12:22:09:938;12:22:09:896;1448408288.42;(0.7091428756713867, 0.7749165429009331);80.347946167;0.843037098268;;;;;;;;;;;;;;0;0;0;0;0;0;0;0;0;();(-2000.0, -2000.0);
12:22:09:955;12:22:09:896;1448408288.42;(0.7091428756713867, 0.7749165429009331);80.347946167;0.843037098268;;;;;;;;;;;;;;0;0;0;0;0;0;0;0;0;();(-2000.0, -2000.0);
12:22:09:972;12:22:09:967;1448408288.51;(0.7109968185424804, 0.773527823554145);78.8446731567;0.889980748063;;;;;;;;;;;;;;0;0;0;0;0;0;0;0;0;();(-2000.0, -2000.0);
12:22:10:004;12:22:09:967;1448408288.51;(0.7109968185424804, 0.773527823554145);78.8446731567;0.889980748063;;;;;;;;;;;;;;0;0;0;0;0;0;0;0;0;();(-2000.0, -2000.0);
12:22:10:022;12:22:09:967;1448408288.51;(0.7109968185424804, 0.773527823554145);78.8446731567;0.889980748063;;;;;;;;;;;;;;0;0;0;0;0;0;0;0;0;();(-2000.0, -2000.0);
12:22:10:041;12:22:10:037;1448408288.62;(0.7111771583557129, 0.7738123575846354);78.729637146;0.893205069693;;;;;;;;;;;;;;0;0;0;0;0;0;0;0;0;();(-2000.0, -2000.0);
12:22:10:055;12:22:10:037;1448408288.62;(0.7111771583557129, 0.7738123575846354);78.729637146;0.893205069693;;;;;;;;;;;;;;0;0;0;0;0;0;0;0;0;();(-2000.0, -2000.0);
12:22:10:071;12:22:10:037;1448408288.62;(0.7111771583557129, 0.7738123575846354);78.729637146;0.893205069693;;;;;;;;;;;;;;0;0;0;0;0;0;0;0;0;();(-2000.0, -2000.0);
12:22:10:105;12:22:10:099;1448408288.68;(0.71109037399292, 0.7733261744181315);78.7146682739;1.0;;;;;;;;;;;;;;0;0;0;0;0;0;0;0;0;();(-2000.0, -2000.0);
12:22:10:122;12:22:10:099;1448408288.68;(0.71109037399292, 0.7733261744181315);78.7146682739;1.0;;;;;;;;;;;;;;0;0;0;0;0;0;0;0;0;();(-2000.0, -2000.0);
12:22:10:138;12:22:10:099;1448408288.68;(0.71109037399292, 0.7733261744181315);78.7146682739;1.0;;;;;;;;;;;;;;0;0;0;0;0;0;0;0;0;();(-2000.0, -2000.0);
12:22:10:155;12:22:10:099;1448408288.68;(0.71109037399292, 0.7733261744181315);78.7146682739;1.0;;;;;;;;;;;;;;0;0;0;0;0;0;0;0;0;();(-2000.0, -2000.0);
12:22:10:172;12:22:10:163;1448408288.72;(0.7114059448242187, 0.7738270865546333);78.609375;0.952193990876;;;;;;;;;;;;;;0;0;0;0;0;0;0;0;0;();(-2000.0, -2000.0);
12:22:10:204;12:22:10:163;1448408288.72;(0.7114059448242187, 0.7738270865546333);78.609375;0.952193990876;;;;;;;;;;;;;;0;0;0;0;0;0;0;0;0;();(-2000.0, -2000.0);
12:22:10:221;12:22:10:163;1448408288.72;(0.7114059448242187, 0.7738270865546333);78.609375;0.952193990876;;;;;;;;;;;;;;0;0;0;0;0;0;0;0;0;();(-2000.0, -2000.0);
12:22:10:237;12:22:10:231;1448408288.78;(0.7111777305603028, 0.7739808612399631);78.8381347656;0.965895387429;;;;;;;;;;;;;;0;0;0;0;0;0;0;0;0;();(-2000.0, -2000.0);
12:22:10:254;12:22:10:231;1448408288.78;(0.7111777305603028, 0.7739808612399631);78.8381347656;0.965895387429;;;;;;;;;;;;;;0;0;0;0;0;0;0;0;0;();(-2000.0, -2000.0);
12:22:10:271;12:22:10:231;1448408288.78;(0.7111777305603028, 0.7739808612399631);78.8381347656;0.965895387429;;;;;;;;;;;;;;0;0;0;0;0;0;0;0;0;();(-2000.0, -2000.0);
12:22:10:304;12:22:10:297;1448408288.85;(0.7104084491729736, 0.774791865878635);79.5660324097;0.866726221949;;;;;;;;;;;;;;0;0;0;0;0;0;0;0;0;();(-2000.0, -2000.0);
12:22:10:320;12:22:10:297;1448408288.85;(0.7104084491729736, 0.774791865878635);79.5660324097;0.866726221949;;;;;;;;;;;;;;0;0;0;0;0;0;0;0;0;();(-2000.0, -2000.0);
12:22:10:337;12:22:10:297;1448408288.85;(0.7104084491729736, 0.774791865878635);79.5660324097;0.866726221949;;;;;;;;;;;;;;0;0;0;0;0;0;0;0;0;();(-2000.0, -2000.0);
12:22:10:353;12:22:10:297;1448408288.85;(0.7104084491729736, 0.774791865878635);79.5660324097;0.866726221949;;;;;;;;;;;;;;0;0;0;0;0;0;0;0;0;();(-2000.0, -2000.0);
12:22:10:371;12:22:10:365;1448408288.92;(0.7211741447448731, 0.7421571731567382);81.0241546631;0.867916943588;;;;;;;;;;;;;;0;0;0;0;0;0;0;0;0;();(-2000.0, -2000.0);
12:22:10:403;12:22:10:365;1448408288.92;(0.7211741447448731, 0.7421571731567382);81.0241546631;0.867916943588;;;;;;;;;;;;;;0;0;0;0;0;0;0;0;0;();(-2000.0, -2000.0);
12:22:10:421;12:22:10:365;1448408288.92;(0.7211741447448731, 0.7421571731567382);81.0241546631;0.867916943588;;;;;;;;;;;;;;0;0;0;0;0;0;0;0;0;();(-2000.0, -2000.0);
12:22:10:437;12:22:10:430;1448408289.02;(0.7191912174224854, 0.7456422381930881);81.1620178223;0.806365040115;;;;;;;;;;;;;;0;0;0;0;0;0;0;0;0;();(-2000.0, -2000.0);
12:22:10:454;12:22:10:430;1448408289.02;(0.7191912174224854, 0.7456422381930881);81.1620178223;0.806365040115;;;;;;;;;;;;;;0;0;0;0;0;0;0;0;0;();(-2000.0, -2000.0);
12:22:10:471;12:22:10:430;1448408289.02;(0.7191912174224854, 0.7456422381930881);81.1620178223;0.806365040115;;;;;;;;;;;;;;0;0;0;0;0;0;0;0;0;();(-2000.0, -2000.0);
12:22:10:504;12:22:10:496;1448408289.05;(0.7186463356018067, 0.7469512727525499);80.3042602539;0.870857294865;;;;;;;;;;;;;;0;0;0;0;0;0;0;0;0;();(-2000.0, -2000.0);
12:22:10:521;12:22:10:496;1448408289.05;(0.7186463356018067, 0.7469512727525499);80.3042602539;0.870857294865;;;;;;;;;;;;;;0;0;0;0;0;0;0;0;0;();(-2000.0, -2000.0);
12:22:10:537;12:22:10:496;1448408289.05;(0.7186463356018067, 0.7469512727525499);80.3042602539;0.870857294865;;;;;;;;;;;;;;0;0;0;0;0;0;0;0;0;();(-2000.0, -2000.0);
12:22:10:554;12:22:10:496;1448408289.05;(0.7186463356018067, 0.7469512727525499);80.3042602539;0.870857294865;;;;;;;;;;;;;;0;0;0;0;0;0;0;0;0;();(-2000.0, -2000.0);
12:22:10:570;12:22:10:561;1448408289.12;(0.7159783840179443, 0.7532746844821506);81.0608139038;0.921129322283;;;;;;;;;;;;;;0;0;0;0;0;0;0;0;0;();(-2000.0, -2000.0);
12:22:10:604;12:22:10:561;1448408289.12;(0.7159783840179443, 0.7532746844821506);81.0608139038;0.921129322283;;;;;;;;;;;;;;0;0;0;0;0;0;0;0;0;();(-2000.0, -2000.0);
12:22:10:622;12:22:10:561;1448408289.12;(0.7159783840179443, 0.7532746844821506);81.0608139038;0.921129322283;;;;;;;;;;;;;;0;0;0;0;0;0;0;0;0;();(-2000.0, -2000.0);
12:22:10:638;12:22:10:631;1448408289.18;(0.7131804466247559, 0.7586229112413194);80.1211090088;0.927129220033;;;;;;;;;;;;;;0;0;0;0;0;0;0;0;0;();(-2000.0, -2000.0);
12:22:10:655;12:22:10:631;1448408289.18;(0.7131804466247559, 0.7586229112413194);80.1211090088;0.927129220033;;;;;;;;;;;;;;0;0;0;0;0;0;0;0;0;();(-2000.0, -2000.0);
12:22:10:671;12:22:10:631;1448408289.18;(0.7131804466247559, 0.7586229112413194);80.1211090088;0.927129220033;;;;;;;;;;;;;;0;0;0;0;0;0;0;0;0;();(-2000.0, -2000.0);
12:22:10:705;12:22:10:696;1448408289.22;(0.7113295555114746, 0.7635876973470053);80.1870956421;0.960617003552;;;;;;;;;;;;;;0;0;0;0;0;0;0;0;0;();(-2000.0, -2000.0);
12:22:10:722;12:22:10:696;1448408289.22;(0.7113295555114746, 0.7635876973470053);80.1870956421;0.960617003552;;;;;;;;;;;;;;0;0;0;0;0;0;0;0;0;();(-2000.0, -2000.0);
12:22:10:737;12:22:10:696;1448408289.22;(0.7113295555114746, 0.7635876973470053);80.1870956421;0.960617003552;;;;;;;;;;;;;;0;0;0;0;0;0;0;0;0;();(-2000.0, -2000.0);
12:22:10:755;12:22:10:696;1448408289.22;(0.7113295555114746, 0.7635876973470053);80.1870956421;0.960617003552;;;;;;;;;;;;;;0;0;0;0;0;0;0;0;0;();(-2000.0, -2000.0);
12:22:10:771;12:22:10:762;1448408289.32;(0.9602164268493653, 0.5675011528862848);26.7241725922;0.610399414888;;;;;;;;;;;;;;0;0;0;0;0;0;0;0;0;();(-2000.0, -2000.0);
12:22:10:806;12:22:10:762;1448408289.32;(0.9602164268493653, 0.5675011528862848);26.7241725922;0.610399414888;;;;;;;;;;;;;;0;0;0;0;0;0;0;0;0;();(-2000.0, -2000.0);
12:22:10:821;12:22:10:762;1448408289.32;(0.9602164268493653, 0.5675011528862848);26.7241725922;0.610399414888;;;;;;;;;;;;;;0;0;0;0;0;0;0;0;0;();(-2000.0, -2000.0);
12:22:10:838;12:22:10:830;1448408289.38;(0.9392121315002442, 0.4540343390570747);29.1579818726;0.662936091498;;;;;;;;;;;;;;0;0;0;0;0;0;0;0;0;();(-2000.0, -2000.0);
12:22:10:854;12:22:10:830;1448408289.38;(0.9392121315002442, 0.4540343390570747);29.1579818726;0.662936091498;;;;;;;;;;;;;;0;0;0;0;0;0;0;0;0;();(-2000.0, -2000.0);
12:22:10:871;12:22:10:830;1448408289.38;(0.9392121315002442, 0.4540343390570747);29.1579818726;0.662936091498;;;;;;;;;;;;;;0;0;0;0;0;0;0;0;0;();(-2000.0, -2000.0);
12:22:10:904;12:22:10:830;1448408289.38;(0.9392121315002442, 0.4540343390570747);29.1579818726;0.662936091498;;;;;;;;;;;;;;0;0;0;0;0;0;0;0;0;();(-2000.0, -2000.0);
12:22:10:922;12:22:10:913;1448408289.45;(0, 0);0;0;;;;;;;;;;;;;;0;0;0;0;0;0;0;0;0;();(-2000.0, -2000.0);
12:22:10:939;12:22:10:913;1448408289.45;(0, 0);0;0;;;;;;;;;;;;;;0;0;0;0;0;0;0;0;0;();(-2000.0, -2000.0);
12:22:10:956;12:22:10:913;1448408289.45;(0, 0);0;0;;;;;;;;;;;;;;0;0;0;0;0;0;0;0;0;();(-2000.0, -2000.0);
12:22:10:972;12:22:10:965;1448408289.52;(0.913542366027832, 0.6540782716539171);53.5756378174;0.635976596248;;;;;;;;;;;;;;0;0;0;0;0;0;0;0;0;();(-2000.0, -2000.0);
12:22:11:006;12:22:10:965;1448408289.52;(0.913542366027832, 0.6540782716539171);53.5756378174;0.635976596248;;;;;;;;;;;;;;0;0;0;0;0;0;0;0;0;();(-2000.0, -2000.0);
12:22:11:022;12:22:10:965;1448408289.52;(0.913542366027832, 0.6540782716539171);53.5756378174;0.635976596248;;;;;;;;;;;;;;0;0;0;0;0;0;0;0;0;();(-2000.0, -2000.0);
12:22:11:039;12:22:11:028;1448408289.56;(0.6743740558624267, 0.6218529595269098);76.6981735229;0.682257791278;;;;;;;;;;;;;;0;0;0;0;0;0;0;0;0;();(-2000.0, -2000.0);
12:22:11:055;12:22:11:028;1448408289.56;(0.6743740558624267, 0.6218529595269098);76.6981735229;0.682257791278;;;;;;;;;;;;;;0;0;0;0;0;0;0;0;0;();(-2000.0, -2000.0);
12:22:11:072;12:22:11:028;1448408289.56;(0.6743740558624267, 0.6218529595269098);76.6981735229;0.682257791278;;;;;;;;;;;;;;0;0;0;0;0;0;0;0;0;();(-2000.0, -2000.0);
12:22:11:106;12:22:11:028;1448408289.56;(0.6743740558624267, 0.6218529595269098);76.6981735229;0.682257791278;;;;;;;;;;;;;;0;0;0;0;0;0;0;0;0;();(-2000.0, -2000.0);
12:22:11:122;12:22:11:115;1448408289.66;(0.6730873107910156, 0.6309938006930881);78.3411254883;0.827942171759;;;;;;;;;;;;;;0;0;0;0;0;0;0;0;0;();(-2000.0, -2000.0);
12:22:11:138;12:22:11:115;1448408289.66;(0.6730873107910156, 0.6309938006930881);78.3411254883;0.827942171759;;;;;;;;;;;;;;0;0;0;0;0;0;0;0;0;();(-2000.0, -2000.0);
12:22:11:156;12:22:11:115;1448408289.66;(0.6730873107910156, 0.6309938006930881);78.3411254883;0.827942171759;;;;;;;;;;;;;;0;0;0;0;0;0;0;0;0;();(-2000.0, -2000.0);
12:22:11:172;12:22:11:162;1448408289.72;(0.6734254360198975, 0.6328294965955946);78.9827804565;0.834239454894;;;;;;;;;;;;;;0;0;0;0;0;0;0;0;0;();(-2000.0, -2000.0);
12:22:11:206;12:22:11:162;1448408289.72;(0.6734254360198975, 0.6328294965955946);78.9827804565;0.834239454894;;;;;;;;;;;;;;0;0;0;0;0;0;0;0;0;();(-2000.0, -2000.0);
12:22:11:224;12:22:11:162;1448408289.72;(0.6734254360198975, 0.6328294965955946);78.9827804565;0.834239454894;;;;;;;;;;;;;;0;0;0;0;0;0;0;0;0;();(-2000.0, -2000.0);
12:22:11:238;12:22:11:233;1448408289.78;(0.6732736110687256, 0.6329893536037869);80.12474823;0.82035280892;;;;;;;;;;;;;;0;0;0;0;0;0;0;0;0;();(-2000.0, -2000.0);
12:22:11:255;12:22:11:233;1448408289.78;(0.6732736110687256, 0.6329893536037869);80.12474823;0.82035280892;;;;;;;;;;;;;;0;0;0;0;0;0;0;0;0;();(-2000.0, -2000.0);
12:22:11:271;12:22:11:233;1448408289.78;(0.6732736110687256, 0.6329893536037869);80.12474823;0.82035280892;;;;;;;;;;;;;;0;0;0;0;0;0;0;0;0;();(-2000.0, -2000.0);
12:22:11:305;12:22:11:294;1448408289.85;(0.6735247135162353, 0.6339018079969618);80.4095611572;0.846136025505;;;;;;;;;;;;;;0;0;0;0;0;0;0;0;0;();(-2000.0, -2000.0);
12:22:11:322;12:22:11:294;1448408289.85;(0.6735247135162353, 0.6339018079969618);80.4095611572;0.846136025505;;;;;;;;;;;;;;0;0;0;0;0;0;0;0;0;();(-2000.0, -2000.0);
12:22:11:339;12:22:11:294;1448408289.85;(0.6735247135162353, 0.6339018079969618);80.4095611572;0.846136025505;;;;;;;;;;;;;;0;0;0;0;0;0;0;0;0;();(-2000.0, -2000.0);
12:22:11:356;12:22:11:294;1448408289.85;(0.6735247135162353, 0.6339018079969618);80.4095611572;0.846136025505;;;;;;;;;;;;;;0;0;0;0;0;0;0;0;0;();(-2000.0, -2000.0);
12:22:11:373;12:22:11:361;1448408289.88;(0.6740753650665283, 0.6356037139892579);82.4042816162;0.815697188156;;;;;;;;;;;;;;0;0;0;0;0;0;0;0;0;();(-2000.0, -2000.0);
12:22:11:404;12:22:11:361;1448408289.88;(0.6740753650665283, 0.6356037139892579);82.4042816162;0.815697188156;;;;;;;;;;;;;;0;0;0;0;0;0;0;0;0;();(-2000.0, -2000.0);
12:22:11:421;12:22:11:361;1448408289.88;(0.6740753650665283, 0.6356037139892579);82.4042816162;0.815697188156;;;;;;;;;;;;;;0;0;0;0;0;0;0;0;0;();(-2000.0, -2000.0);
12:22:11:439;12:22:11:429;1448408289.98;(0.6758136749267578, 0.635097058614095);82.8515167236;0.851176376581;;;;;;;;;;;;;;0;0;0;0;0;0;0;0;0;();(-2000.0, -2000.0);
12:22:11:455;12:22:11:429;1448408289.98;(0.6758136749267578, 0.635097058614095);82.8515167236;0.851176376581;;;;;;;;;;;;;;0;0;0;0;0;0;0;0;0;();(-2000.0, -2000.0);
12:22:11:471;12:22:11:429;1448408289.98;(0.6758136749267578, 0.635097058614095);82.8515167236;0.851176376581;;;;;;;;;;;;;;0;0;0;0;0;0;0;0;0;();(-2000.0, -2000.0);
12:22:11:504;12:22:11:493;1448408290.05;(0.6767908573150635, 0.6352340910169814);82.7230987549;0.885627201715;;;;;;;;;;;;;;0;0;0;0;0;0;0;0;0;();(-2000.0, -2000.0);
12:22:11:522;12:22:11:493;1448408290.05;(0.6767908573150635, 0.6352340910169814);82.7230987549;0.885627201715;;;;;;;;;;;;;;0;0;0;0;0;0;0;0;0;();(-2000.0, -2000.0);
12:22:11:539;12:22:11:493;1448408290.05;(0.6767908573150635, 0.6352340910169814);82.7230987549;0.885627201715;;;;;;;;;;;;;;0;0;0;0;0;0;0;0;0;();(-2000.0, -2000.0);
12:22:11:556;12:22:11:493;1448408290.05;(0.6767908573150635, 0.6352340910169814);82.7230987549;0.885627201715;;;;;;;;;;;;;;0;0;0;0;0;0;0;0;0;();(-2000.0, -2000.0);
12:22:11:573;12:22:11:566;1448408290.12;(0.6766365051269532, 0.6358888838026259);83.1342315674;0.944071669748;;;;;;;;;;;;;;0;0;0;0;0;0;0;0;0;();(-2000.0, -2000.0);
12:22:11:590;12:22:11:566;1448408290.12;(0.6766365051269532, 0.6358888838026259);83.1342315674;0.944071669748;;;;;;;;;;;;;;0;0;0;0;0;0;0;0;0;();(-2000.0, -2000.0);
12:22:11:622;12:22:11:566;1448408290.12;(0.6766365051269532, 0.6358888838026259);83.1342315674;0.944071669748;;;;;;;;;;;;;;0;0;0;0;0;0;0;0;0;();(-2000.0, -2000.0);
12:22:11:638;12:22:11:627;1448408290.18;(0.6762129306793213, 0.6362382041083442);82.8704833984;0.941134279859;;;;;;;;;;;;;;0;0;0;0;0;0;0;0;0;();(-2000.0, -2000.0);
12:22:11:655;12:22:11:627;1448408290.18;(0.6762129306793213, 0.6362382041083442);82.8704833984;0.941134279859;;;;;;;;;;;;;;0;0;0;0;0;0;0;0;0;();(-2000.0, -2000.0);
12:22:11:671;12:22:11:627;1448408290.18;(0.6762129306793213, 0.6362382041083442);82.8704833984;0.941134279859;;;;;;;;;;;;;;0;0;0;0;0;0;0;0;0;();(-2000.0, -2000.0);
12:22:11:705;12:22:11:693;1448408290.25;(0.676062536239624, 0.6373706181844075);83.1469039917;0.943895541688;;;;;;;;;;;;;;0;0;0;0;0;0;0;0;0;();(-2000.0, -2000.0);
12:22:11:723;12:22:11:693;1448408290.25;(0.676062536239624, 0.6373706181844075);83.1469039917;0.943895541688;;;;;;;;;;;;;;0;0;0;0;0;0;0;0;0;();(-2000.0, -2000.0);
12:22:11:740;12:22:11:693;1448408290.25;(0.676062536239624, 0.6373706181844075);83.1469039917;0.943895541688;;;;;;;;;;;;;;0;0;0;0;0;0;0;0;0;();(-2000.0, -2000.0);
12:22:11:756;12:22:11:693;1448408290.25;(0.676062536239624, 0.6373706181844075);83.1469039917;0.943895541688;;;;;;;;;;;;;;0;0;0;0;0;0;0;0;0;();(-2000.0, -2000.0);
12:22:11:771;12:22:11:760;1448408290.32;(0.6766018390655517, 0.637176259358724);83.4845733643;0.950876339938;;;;;;;;;;;;;;0;0;0;0;0;0;0;0;0;();(-2000.0, -2000.0);
12:22:11:789;12:22:11:760;1448408290.32;(0.6766018390655517, 0.637176259358724);83.4845733643;0.950876339938;;;;;;;;;;;;;;0;0;0;0;0;0;0;0;0;();(-2000.0, -2000.0);
12:22:11:823;12:22:11:760;1448408290.32;(0.6766018390655517, 0.637176259358724);83.4845733643;0.950876339938;;;;;;;;;;;;;;0;0;0;0;0;0;0;0;0;();(-2000.0, -2000.0);
12:22:11:839;12:22:11:827;1448408290.38;(0.6768973350524903, 0.6367286470201281);83.2852249146;0.992098280664;;;;;;;;;;;;;;0;0;0;0;0;0;0;0;0;();(-2000.0, -2000.0);
12:22:11:855;12:22:11:827;1448408290.38;(0.6768973350524903, 0.6367286470201281);83.2852249146;0.992098280664;;;;;;;;;;;;;;0;0;0;0;0;0;0;0;0;();(-2000.0, -2000.0);
12:22:11:873;12:22:11:827;1448408290.38;(0.6768973350524903, 0.6367286470201281);83.2852249146;0.992098280664;;;;;;;;;;;;;;0;0;0;0;0;0;0;0;0;();(-2000.0, -2000.0);
12:22:11:890;12:22:11:827;1448408290.38;(0.6768973350524903, 0.6367286470201281);83.2852249146;0.992098280664;;;;;;;;;;;;;;0;0;0;0;0;0;0;0;0;();(-2000.0, -2000.0);
12:22:11:922;12:22:11:891;1448408290.45;(0.6762949466705322, 0.6366989559597439);83.6707000732;0.933205094561;;;;;;;;;;;;;;0;0;0;0;0;0;0;0;0;();(-2000.0, -2000.0);
12:22:11:939;12:22:11:891;1448408290.45;(0.6762949466705322, 0.6366989559597439);83.6707000732;0.933205094561;;;;;;;;;;;;;;0;0;0;0;0;0;0;0;0;();(-2000.0, -2000.0);
12:22:11:955;12:22:11:891;1448408290.45;(0.6762949466705322, 0.6366989559597439);83.6707000732;0.933205094561;;;;;;;;;;;;;;0;0;0;0;0;0;0;0;0;();(-2000.0, -2000.0);
12:22:11:972;12:22:11:966;1448408290.52;(0.6754553318023682, 0.6364374584621854);83.6513595581;0.95875224394;;;;;;;;;;;;;;0;0;0;0;0;0;0;0;0;();(-2000.0, -2000.0);
12:22:11:990;12:22:11:966;1448408290.52;(0.6754553318023682, 0.6364374584621854);83.6513595581;0.95875224394;;;;;;;;;;;;;;0;0;0;0;0;0;0;0;0;();(-2000.0, -2000.0);
12:22:12:023;12:22:12:021;1448408290.58;(0.6753354072570801, 0.6360387590196397);83.4429626465;0.993474530269;;;;;;;;;;;;;;0;0;0;0;0;0;0;0;0;();(-2000.0, -2000.0);
12:22:12:039;12:22:12:021;1448408290.58;(0.6753354072570801, 0.6360387590196397);83.4429626465;0.993474530269;;;;;;;;;;;;;;0;0;0;0;0;0;0;0;0;();(-2000.0, -2000.0);
12:22:12:055;12:22:12:021;1448408290.58;(0.6753354072570801, 0.6360387590196397);83.4429626465;0.993474530269;;;;;;;;;;;;;;0;0;0;0;0;0;0;0;0;();(-2000.0, -2000.0);
12:22:12:072;12:22:12:021;1448408290.58;(0.6753354072570801, 0.6360387590196397);83.4429626465;0.993474530269;;;;;;;;;;;;;;0;0;0;0;0;0;0;0;0;();(-2000.0, -2000.0);
12:22:12:105;12:22:12:090;1448408290.65;(0.9198969841003418, 0.4405861324734158);27.4734210968;0.682771383025;;;;;;;;;;;;;;0;0;0;0;0;0;0;0;0;();(-2000.0, -2000.0);
12:22:12:123;12:22:12:090;1448408290.65;(0.9198969841003418, 0.4405861324734158);27.4734210968;0.682771383025;;;;;;;;;;;;;;0;0;0;0;0;0;0;0;0;();(-2000.0, -2000.0);
12:22:12:140;12:22:12:090;1448408290.65;(0.9198969841003418, 0.4405861324734158);27.4734210968;0.682771383025;;;;;;;;;;;;;;0;0;0;0;0;0;0;0;0;();(-2000.0, -2000.0);
12:22:12:155;12:22:12:090;1448408290.65;(0.9198969841003418, 0.4405861324734158);27.4734210968;0.682771383025;;;;;;;;;;;;;;0;0;0;0;0;0;0;0;0;();(-2000.0, -2000.0);
12:22:12:171;12:22:12:160;1448408290.72;(0.928432559967041, 0.5139192793104383);26.5208148956;0.723540247473;;;;;;;;;;;;;;0;0;0;0;0;0;0;0;0;();(-2000.0, -2000.0);
12:22:12:189;12:22:12:160;1448408290.72;(0.928432559967041, 0.5139192793104383);26.5208148956;0.723540247473;;;;;;;;;;;;;;0;0;0;0;0;0;0;0;0;();(-2000.0, -2000.0);
12:22:12:224;12:22:12:222;1448408290.78;(0.6746599197387695, 0.8457591268751357);83.0877990723;0.612760469056;;;;;;;;;;;;;;0;0;0;0;0;0;0;0;0;();(-2000.0, -2000.0);
12:22:12:239;12:22:12:222;1448408290.78;(0.6746599197387695, 0.8457591268751357);83.0877990723;0.612760469056;;;;;;;;;;;;;;0;0;0;0;0;0;0;0;0;();(-2000.0, -2000.0);
12:22:12:255;12:22:12:222;1448408290.78;(0.6746599197387695, 0.8457591268751357);83.0877990723;0.612760469056;;;;;;;;;;;;;;0;0;0;0;0;0;0;0;0;();(-2000.0, -2000.0);
12:22:12:271;12:22:12:222;1448408290.78;(0.6746599197387695, 0.8457591268751357);83.0877990723;0.612760469056;;;;;;;;;;;;;;0;0;0;0;0;0;0;0;0;();(-2000.0, -2000.0);
12:22:12:290;12:22:12:288;1448408290.82;(0.6759383201599121, 0.8459219084845648);84.8808822632;0.892078190376;;;;;;;;;;;;;;0;0;0;0;0;0;0;0;0;();(-2000.0, -2000.0);
12:22:12:323;12:22:12:290;1448408290.86;(0.6775224685668946, 0.8464935196770562);85.6451339722;0.762859588405;;;;;;;;;;;;;;0;0;0;0;0;0;0;0;0;();(-2000.0, -2000.0);
12:22:12:339;12:22:12:290;1448408290.86;(0.6775224685668946, 0.8464935196770562);85.6451339722;0.762859588405;;;;;;;;;;;;;;0;0;0;0;0;0;0;0;0;();(-2000.0, -2000.0);
12:22:12:355;12:22:12:354;1448408290.88;(0.6778501987457275, 0.8396522521972656);84.469329834;0.835851151098;;;;;;;;;;;;;;0;0;0;0;0;0;0;0;0;();(-2000.0, -2000.0);
12:22:12:373;12:22:12:359;1448408290.92;(0.6782212257385254, 0.8386941379970975);85.5627746582;0.892110363191;;;;;;;;;;;;;;0;0;0;0;0;0;0;0;0;();(-2000.0, -2000.0);
12:22:12:389;12:22:12:359;1448408290.92;(0.6782212257385254, 0.8386941379970975);85.5627746582;0.892110363191;;;;;;;;;;;;;;0;0;0;0;0;0;0;0;0;();(-2000.0, -2000.0);
12:22:12:423;12:22:12:422;1448408290.98;(0.6783580303192138, 0.8353680928548177);86.016242981;0.846766040603;;;;;;;;;;;;;;0;0;0;0;0;0;0;0;0;();(-2000.0, -2000.0);
12:22:12:439;12:22:12:422;1448408290.98;(0.6783580303192138, 0.8353680928548177);86.016242981;0.846766040603;;;;;;;;;;;;;;0;0;0;0;0;0;0;0;0;();(-2000.0, -2000.0);
12:22:12:455;12:22:12:422;1448408290.98;(0.6783580303192138, 0.8353680928548177);86.016242981;0.846766040603;;;;;;;;;;;;;;0;0;0;0;0;0;0;0;0;();(-2000.0, -2000.0);
12:22:12:473;12:22:12:422;1448408290.98;(0.6783580303192138, 0.8353680928548177);86.016242981;0.846766040603;;;;;;;;;;;;;;0;0;0;0;0;0;0;0;0;();(-2000.0, -2000.0);
12:22:12:489;12:22:12:488;1448408291.02;(0.6782800197601319, 0.8288680924309625);84.5078201294;0.744546459549;;;;;;;;;;;;;;0;0;0;0;0;0;0;0;0;();(-2000.0, -2000.0);
12:22:12:523;12:22:12:493;1448408291.05;(0, 0);0;0;;;;;;;;;;;;;;0;0;0;0;0;0;0;0;0;();(-2000.0, -2000.0);
12:22:12:539;12:22:12:493;1448408291.05;(0, 0);0;0;;;;;;;;;;;;;;0;0;0;0;0;0;0;0;0;();(-2000.0, -2000.0);
12:22:12:555;12:22:12:553;1448408291.12;(0.6781924724578857, 0.8255707210964627);85.9029464722;0.957584954219;;;;;;;;;;;;;;0;0;0;0;0;0;0;0;0;();(-2000.0, -2000.0);
12:22:12:573;12:22:12:553;1448408291.12;(0.6781924724578857, 0.8255707210964627);85.9029464722;0.957584954219;;;;;;;;;;;;;;0;0;0;0;0;0;0;0;0;();(-2000.0, -2000.0);
12:22:12:589;12:22:12:553;1448408291.12;(0.6781924724578857, 0.8255707210964627);85.9029464722;0.957584954219;;;;;;;;;;;;;;0;0;0;0;0;0;0;0;0;();(-2000.0, -2000.0);
12:22:12:623;12:22:12:621;1448408291.18;(0.6795612335205078, 0.8211549123128256);84.5562591553;0.888345487949;;;;;;;;;;;;;;0;0;0;0;0;0;0;0;0;();(-2000.0, -2000.0);
12:22:12:641;12:22:12:621;1448408291.18;(0.6795612335205078, 0.8211549123128256);84.5562591553;0.888345487949;;;;;;;;;;;;;;0;0;0;0;0;0;0;0;0;();(-2000.0, -2000.0);
12:22:12:656;12:22:12:621;1448408291.18;(0.6795612335205078, 0.8211549123128256);84.5562591553;0.888345487949;;;;;;;;;;;;;;0;0;0;0;0;0;0;0;0;();(-2000.0, -2000.0);
12:22:12:672;12:22:12:621;1448408291.18;(0.6795612335205078, 0.8211549123128256);84.5562591553;0.888345487949;;;;;;;;;;;;;;0;0;0;0;0;0;0;0;0;();(-2000.0, -2000.0);
12:22:12:689;12:22:12:685;1448408291.25;(0.6795791625976563, 0.8155523194207086);83.9262924194;0.950174663548;;;;;;;;;;;;;;0;0;0;0;0;0;0;0;0;();(-2000.0, -2000.0);
12:22:12:722;12:22:12:685;1448408291.25;(0.6795791625976563, 0.8155523194207086);83.9262924194;0.950174663548;;;;;;;;;;;;;;0;0;0;0;0;0;0;0;0;();(-2000.0, -2000.0);
12:22:12:739;12:22:12:685;1448408291.25;(0.6795791625976563, 0.8155523194207086);83.9262924194;0.950174663548;;;;;;;;;;;;;;0;0;0;0;0;0;0;0;0;();(-2000.0, -2000.0);
12:22:12:756;12:22:12:753;1448408291.32;(0, 0);0;0;;;;;;;;;;;;;;0;0;0;0;0;0;0;0;0;();(-2000.0, -2000.0);
12:22:12:773;12:22:12:753;1448408291.32;(0, 0);0;0;;;;;;;;;;;;;;0;0;0;0;0;0;0;0;0;();(-2000.0, -2000.0);
12:22:12:790;12:22:12:753;1448408291.32;(0, 0);0;0;;;;;;;;;;;;;;0;0;0;0;0;0;0;0;0;();(-2000.0, -2000.0);
12:22:12:824;12:22:12:822;1448408291.38;(0.9350014686584472, 0.507977549235026);26.6836433411;0.725710525038;;;;;;;;;;;;;;0;0;0;0;0;0;0;0;0;();(-2000.0, -2000.0);
12:22:12:839;12:22:12:822;1448408291.38;(0.9350014686584472, 0.507977549235026);26.6836433411;0.725710525038;;;;;;;;;;;;;;0;0;0;0;0;0;0;0;0;();(-2000.0, -2000.0);
12:22:12:856;12:22:12:822;1448408291.38;(0.9350014686584472, 0.507977549235026);26.6836433411;0.725710525038;;;;;;;;;;;;;;0;0;0;0;0;0;0;0;0;();(-2000.0, -2000.0);
12:22:12:874;12:22:12:822;1448408291.38;(0.9350014686584472, 0.507977549235026);26.6836433411;0.725710525038;;;;;;;;;;;;;;0;0;0;0;0;0;0;0;0;();(-2000.0, -2000.0);
12:22:12:889;12:22:12:886;1448408291.45;(0.5133836746215821, 0.8072479565938314);31.2060947418;0.650453591054;;;;;;;;;;;;;;0;0;0;0;0;0;0;0;0;();(-2000.0, -2000.0);
12:22:12:924;12:22:12:886;1448408291.45;(0.5133836746215821, 0.8072479565938314);31.2060947418;0.650453591054;;;;;;;;;;;;;;0;0;0;0;0;0;0;0;0;();(-2000.0, -2000.0);
12:22:12:940;12:22:12:886;1448408291.45;(0.5133836746215821, 0.8072479565938314);31.2060947418;0.650453591054;;;;;;;;;;;;;;0;0;0;0;0;0;0;0;0;();(-2000.0, -2000.0);
12:22:12:955;12:22:12:953;1448408291.52;(0.7110200881958008, 0.8053974363538954);82.6096954346;0.936088156048;;;;;;;;;;;;;;0;0;0;0;0;0;0;0;0;();(-2000.0, -2000.0);
12:22:12:973;12:22:12:953;1448408291.52;(0.7110200881958008, 0.8053974363538954);82.6096954346;0.936088156048;;;;;;;;;;;;;;0;0;0;0;0;0;0;0;0;();(-2000.0, -2000.0);
12:22:12:990;12:22:12:953;1448408291.52;(0.7110200881958008, 0.8053974363538954);82.6096954346;0.936088156048;;;;;;;;;;;;;;0;0;0;0;0;0;0;0;0;();(-2000.0, -2000.0);
12:22:13:024;12:22:13:015;1448408291.55;(0.7120291233062744, 0.8036155382792155);82.5876693726;0.925214563845;;;;;;;;;;;;;;0;0;0;0;0;0;0;0;0;();(-2000.0, -2000.0);
12:22:13:041;12:22:13:015;1448408291.55;(0.7120291233062744, 0.8036155382792155);82.5876693726;0.925214563845;;;;;;;;;;;;;;0;0;0;0;0;0;0;0;0;();(-2000.0, -2000.0);
12:22:13:058;12:22:13:015;1448408291.55;(0.7120291233062744, 0.8036155382792155);82.5876693726;0.925214563845;;;;;;;;;;;;;;0;0;0;0;0;0;0;0;0;();(-2000.0, -2000.0);
12:22:13:073;12:22:13:015;1448408291.55;(0.7120291233062744, 0.8036155382792155);82.5876693726;0.925214563845;;;;;;;;;;;;;;0;0;0;0;0;0;0;0;0;();(-2000.0, -2000.0);
12:22:13:089;12:22:13:087;1448408291.65;(0.7120022296905517, 0.8009016142951118);82.1057815552;1.0;;;;;;;;;;;;;;0;0;0;0;0;0;0;0;0;();(-2000.0, -2000.0);
12:22:13:122;12:22:13:087;1448408291.65;(0.7120022296905517, 0.8009016142951118);82.1057815552;1.0;;;;;;;;;;;;;;0;0;0;0;0;0;0;0;0;();(-2000.0, -2000.0);
12:22:13:140;12:22:13:087;1448408291.65;(0.7120022296905517, 0.8009016142951118);82.1057815552;1.0;;;;;;;;;;;;;;0;0;0;0;0;0;0;0;0;();(-2000.0, -2000.0);
12:22:13:156;12:22:13:152;1448408291.68;(0.7424730777740478, 0.7779268264770508);84.8196105957;0.873284070737;;;;;;;;;;;;;;0;0;0;0;0;0;0;0;0;();(-2000.0, -2000.0);
12:22:13:174;12:22:13:152;1448408291.68;(0.7424730777740478, 0.7779268264770508);84.8196105957;0.873284070737;;;;;;;;;;;;;;0;0;0;0;0;0;0;0;0;();(-2000.0, -2000.0);
12:22:13:190;12:22:13:152;1448408291.68;(0.7424730777740478, 0.7779268264770508);84.8196105957;0.873284070737;;;;;;;;;;;;;;0;0;0;0;0;0;0;0;0;();(-2000.0, -2000.0);
12:22:13:223;12:22:13:219;1448408291.78;(0.7583832263946533, 0.7524266984727648);80.910118103;0.933644027006;;;;;;;;;;;;;;0;0;0;0;0;0;0;0;0;();(-2000.0, -2000.0);
12:22:13:240;12:22:13:219;1448408291.78;(0.7583832263946533, 0.7524266984727648);80.910118103;0.933644027006;;;;;;;;;;;;;;0;0;0;0;0;0;0;0;0;();(-2000.0, -2000.0);
12:22:13:256;12:22:13:219;1448408291.78;(0.7583832263946533, 0.7524266984727648);80.910118103;0.933644027006;;;;;;;;;;;;;;0;0;0;0;0;0;0;0;0;();(-2000.0, -2000.0);
12:22:13:273;12:22:13:219;1448408291.78;(0.7583832263946533, 0.7524266984727648);80.910118103;0.933644027006;;;;;;;;;;;;;;0;0;0;0;0;0;0;0;0;();(-2000.0, -2000.0);
12:22:13:290;12:22:13:287;1448408291.85;(0.752605676651001, 0.7538458506266276);80.7786331177;1.0;;;;;;;;;;;;;;0;0;0;0;0;0;0;0;0;();(-2000.0, -2000.0);
12:22:13:323;12:22:13:287;1448408291.85;(0.752605676651001, 0.7538458506266276);80.7786331177;1.0;;;;;;;;;;;;;;0;0;0;0;0;0;0;0;0;();(-2000.0, -2000.0);
12:22:13:341;12:22:13:287;1448408291.85;(0.752605676651001, 0.7538458506266276);80.7786331177;1.0;;;;;;;;;;;;;;0;0;0;0;0;0;0;0;0;();(-2000.0, -2000.0);
12:22:13:358;12:22:13:348;1448408291.88;(0.3325967311859131, 0.830012035369873);20.5135574341;0.749615262277;;;;;;;;;;;;;;0;0;0;0;0;0;0;0;0;();(-2000.0, -2000.0);
12:22:13:374;12:22:13:348;1448408291.88;(0.3325967311859131, 0.830012035369873);20.5135574341;0.749615262277;;;;;;;;;;;;;;0;0;0;0;0;0;0;0;0;();(-2000.0, -2000.0);
12:22:13:391;12:22:13:348;1448408291.88;(0.3325967311859131, 0.830012035369873);20.5135574341;0.749615262277;;;;;;;;;;;;;;0;0;0;0;0;0;0;0;0;();(-2000.0, -2000.0);
12:22:13:424;12:22:13:417;1448408291.97;(0.7434847354888916, 0.7588284810384115);79.8510055542;1.0;;;;;;;;;;;;;;0;0;0;0;0;0;0;0;0;();(-2000.0, -2000.0);
12:22:13:440;12:22:13:417;1448408291.97;(0.7434847354888916, 0.7588284810384115);79.8510055542;1.0;;;;;;;;;;;;;;0;0;0;0;0;0;0;0;0;();(-2000.0, -2000.0);
12:22:13:456;12:22:13:417;1448408291.97;(0.7434847354888916, 0.7588284810384115);79.8510055542;1.0;;;;;;;;;;;;;;0;0;0;0;0;0;0;0;0;();(-2000.0, -2000.0);
12:22:13:474;12:22:13:417;1448408291.97;(0.7434847354888916, 0.7588284810384115);79.8510055542;1.0;;;;;;;;;;;;;;0;0;0;0;0;0;0;0;0;();(-2000.0, -2000.0);
12:22:13:491;12:22:13:487;1448408292.05;(0.7626379489898681, 0.7210149129231771);77.9712524414;0.939034385396;;;;;;;;;;;;;;0;0;0;0;0;0;0;0;0;();(-2000.0, -2000.0);
12:22:13:524;12:22:13:487;1448408292.05;(0.7626379489898681, 0.7210149129231771);77.9712524414;0.939034385396;;;;;;;;;;;;;;0;0;0;0;0;0;0;0;0;();(-2000.0, -2000.0);
12:22:13:541;12:22:13:487;1448408292.05;(0.7626379489898681, 0.7210149129231771);77.9712524414;0.939034385396;;;;;;;;;;;;;;0;0;0;0;0;0;0;0;0;();(-2000.0, -2000.0);
12:22:13:557;12:22:13:550;1448408292.12;(0.7627655982971191, 0.7236470116509331);78.6414489746;0.877118173819;;;;;;;;;;;;;;0;0;0;0;0;0;0;0;0;();(-2000.0, -2000.0);
12:22:13:574;12:22:13:550;1448408292.12;(0.7627655982971191, 0.7236470116509331);78.6414489746;0.877118173819;;;;;;;;;;;;;;0;0;0;0;0;0;0;0;0;();(-2000.0, -2000.0);
12:22:13:591;12:22:13:550;1448408292.12;(0.7627655982971191, 0.7236470116509331);78.6414489746;0.877118173819;;;;;;;;;;;;;;0;0;0;0;0;0;0;0;0;();(-2000.0, -2000.0);
12:22:13:623;12:22:13:617;1448408292.18;(0.7622637271881103, 0.726911375257704);78.0822525024;1.0;;;;;;;;;;;;;;0;0;0;0;0;0;0;0;0;();(-2000.0, -2000.0);
12:22:13:641;12:22:13:617;1448408292.18;(0.7622637271881103, 0.726911375257704);78.0822525024;1.0;;;;;;;;;;;;;;0;0;0;0;0;0;0;0;0;();(-2000.0, -2000.0);
12:22:13:657;12:22:13:617;1448408292.18;(0.7622637271881103, 0.726911375257704);78.0822525024;1.0;;;;;;;;;;;;;;0;0;0;0;0;0;0;0;0;();(-2000.0, -2000.0);
12:22:13:674;12:22:13:617;1448408292.18;(0.7622637271881103, 0.726911375257704);78.0822525024;1.0;;;;;;;;;;;;;;0;0;0;0;0;0;0;0;0;();(-2000.0, -2000.0);
12:22:13:691;12:22:13:681;1448408292.25;(0.7619532108306885, 0.7282035615709093);78.1586914062;1.0;;;;;;;;;;;;;;0;0;0;0;0;0;0;0;0;();(-2000.0, -2000.0);
12:22:13:724;12:22:13:681;1448408292.25;(0.7619532108306885, 0.7282035615709093);78.1586914062;1.0;;;;;;;;;;;;;;0;0;0;0;0;0;0;0;0;();(-2000.0, -2000.0);
12:22:13:741;12:22:13:681;1448408292.25;(0.7619532108306885, 0.7282035615709093);78.1586914062;1.0;;;;;;;;;;;;;;0;0;0;0;0;0;0;0;0;();(-2000.0, -2000.0);
12:22:13:757;12:22:13:750;1448408292.32;(0.7614691257476807, 0.7288608551025391);77.7102508545;1.0;;;;;;;;;;;;;;0;0;0;0;0;0;0;0;0;();(-2000.0, -2000.0);
12:22:13:773;12:22:13:750;1448408292.32;(0.7614691257476807, 0.7288608551025391);77.7102508545;1.0;;;;;;;;;;;;;;0;0;0;0;0;0;0;0;0;();(-2000.0, -2000.0);
12:22:13:790;12:22:13:750;1448408292.32;(0.7614691257476807, 0.7288608551025391);77.7102508545;1.0;;;;;;;;;;;;;;0;0;0;0;0;0;0;0;0;();(-2000.0, -2000.0);
12:22:13:823;12:22:13:818;1448408292.38;(0.7604544639587403, 0.7322264565361871);77.2591094971;0.917070983516;;;;;;;;;;;;;;0;0;0;0;0;0;0;0;0;();(-2000.0, -2000.0);
12:22:13:840;12:22:13:818;1448408292.38;(0.7604544639587403, 0.7322264565361871);77.2591094971;0.917070983516;;;;;;;;;;;;;;0;0;0;0;0;0;0;0;0;();(-2000.0, -2000.0);
12:22:13:857;12:22:13:818;1448408292.38;(0.7604544639587403, 0.7322264565361871);77.2591094971;0.917070983516;;;;;;;;;;;;;;0;0;0;0;0;0;0;0;0;();(-2000.0, -2000.0);
12:22:13:873;12:22:13:818;1448408292.38;(0.7604544639587403, 0.7322264565361871);77.2591094971;0.917070983516;;;;;;;;;;;;;;0;0;0;0;0;0;0;0;0;();(-2000.0, -2000.0);
12:22:13:890;12:22:13:881;1448408292.45;(0.7591690063476563, 0.7335709465874566);76.5080871582;0.956084575514;;;;;;;;;;;;;;0;0;0;0;0;0;0;0;0;();(-2000.0, -2000.0);
12:22:13:923;12:22:13:881;1448408292.45;(0.7591690063476563, 0.7335709465874566);76.5080871582;0.956084575514;;;;;;;;;;;;;;0;0;0;0;0;0;0;0;0;();(-2000.0, -2000.0);
12:22:13:941;12:22:13:881;1448408292.45;(0.7591690063476563, 0.7335709465874566);76.5080871582;0.956084575514;;;;;;;;;;;;;;0;0;0;0;0;0;0;0;0;();(-2000.0, -2000.0);
12:22:13:957;12:22:13:949;1448408292.52;(0.7576676845550537, 0.7350571738349068);76.6286010742;1.0;;;;;;;;;;;;;;0;0;0;0;0;0;0;0;0;();(-2000.0, -2000.0);
12:22:13:973;12:22:13:949;1448408292.52;(0.7576676845550537, 0.7350571738349068);76.6286010742;1.0;;;;;;;;;;;;;;0;0;0;0;0;0;0;0;0;();(-2000.0, -2000.0);
12:22:13:991;12:22:13:949;1448408292.52;(0.7576676845550537, 0.7350571738349068);76.6286010742;1.0;;;;;;;;;;;;;;0;0;0;0;0;0;0;0;0;();(-2000.0, -2000.0);
12:22:14:024;12:22:13:949;1448408292.52;(0.7576676845550537, 0.7350571738349068);76.6286010742;1.0;;;;;;;;;;;;;;0;0;0;0;0;0;0;0;0;();(-2000.0, -2000.0);
12:22:14:041;12:22:14:030;1448408292.58;(0.756893253326416, 0.7359267340766059);76.6593093872;1.0;;;;;;;;;;;;;;0;0;0;0;0;0;0;0;0;();(-2000.0, -2000.0);
12:22:14:058;12:22:14:030;1448408292.58;(0.756893253326416, 0.7359267340766059);76.6593093872;1.0;;;;;;;;;;;;;;0;0;0;0;0;0;0;0;0;();(-2000.0, -2000.0);
12:22:14:075;12:22:14:030;1448408292.58;(0.756893253326416, 0.7359267340766059);76.6593093872;1.0;;;;;;;;;;;;;;0;0;0;0;0;0;0;0;0;();(-2000.0, -2000.0);
12:22:14:090;12:22:14:079;1448408292.62;(0.7562628746032715, 0.7362507078382704);76.7477111816;1.0;;;;;;;;;;;;;;0;0;0;0;0;0;0;0;0;();(-2000.0, -2000.0);
12:22:14:123;12:22:14:079;1448408292.62;(0.7562628746032715, 0.7362507078382704);76.7477111816;1.0;;;;;;;;;;;;;;0;0;0;0;0;0;0;0;0;();(-2000.0, -2000.0);
12:22:14:140;12:22:14:079;1448408292.62;(0.7562628746032715, 0.7362507078382704);76.7477111816;1.0;;;;;;;;;;;;;;0;0;0;0;0;0;0;0;0;();(-2000.0, -2000.0);
12:22:14:157;12:22:14:079;1448408292.62;(0.7562628746032715, 0.7362507078382704);76.7477111816;1.0;;;;;;;;;;;;;;0;0;0;0;0;0;0;0;0;();(-2000.0, -2000.0);
12:22:14:174;12:22:14:163;1448408292.72;(0.7339767456054688, 0.7559243308173286);78.1516799927;1.0;;;;;;;;;;;;;;0;0;0;0;0;0;0;0;0;();(-2000.0, -2000.0);
12:22:14:190;12:22:14:163;1448408292.72;(0.7339767456054688, 0.7559243308173286);78.1516799927;1.0;;;;;;;;;;;;;;0;0;0;0;0;0;0;0;0;();(-2000.0, -2000.0);
12:22:14:224;12:22:14:213;1448408292.78;(0.7346171855926513, 0.7557297812567817);78.7611618042;1.0;;;;;;;;;;;;;;0;0;0;0;0;0;0;0;0;();(-2000.0, -2000.0);
12:22:14:240;12:22:14:213;1448408292.78;(0.7346171855926513, 0.7557297812567817);78.7611618042;1.0;;;;;;;;;;;;;;0;0;0;0;0;0;0;0;0;();(-2000.0, -2000.0);
12:22:14:257;12:22:14:213;1448408292.78;(0.7346171855926513, 0.7557297812567817);78.7611618042;1.0;;;;;;;;;;;;;;0;0;0;0;0;0;0;0;0;();(-2000.0, -2000.0);
12:22:14:273;12:22:14:213;1448408292.78;(0.7346171855926513, 0.7557297812567817);78.7611618042;1.0;;;;;;;;;;;;;;0;0;0;0;0;0;0;0;0;();(-2000.0, -2000.0);
12:22:14:291;12:22:14:282;1448408292.85;(0.734730863571167, 0.7556419796413846);79.8959960938;1.0;;;;;;;;;;;;;;0;0;0;0;0;0;0;0;0;();(-2000.0, -2000.0);
12:22:14:323;12:22:14:282;1448408292.85;(0.734730863571167, 0.7556419796413846);79.8959960938;1.0;;;;;;;;;;;;;;0;0;0;0;0;0;0;0;0;();(-2000.0, -2000.0);
12:22:14:341;12:22:14:282;1448408292.85;(0.734730863571167, 0.7556419796413846);79.8959960938;1.0;;;;;;;;;;;;;;0;0;0;0;0;0;0;0;0;();(-2000.0, -2000.0);
12:22:14:358;12:22:14:350;1448408292.92;(0.7335173606872558, 0.7553883870442708);81.0347671509;0.832538011179;;;;;;;;;;;;;;0;0;0;0;0;0;0;0;0;();(-2000.0, -2000.0);
12:22:14:373;12:22:14:350;1448408292.92;(0.7335173606872558, 0.7553883870442708);81.0347671509;0.832538011179;;;;;;;;;;;;;;0;0;0;0;0;0;0;0;0;();(-2000.0, -2000.0);
12:22:14:391;12:22:14:350;1448408292.92;(0.7335173606872558, 0.7553883870442708);81.0347671509;0.832538011179;;;;;;;;;;;;;;0;0;0;0;0;0;0;0;0;();(-2000.0, -2000.0);
12:22:14:424;12:22:14:412;1448408292.95;(0, 0);0;0;;;;;;;;;;;;;;0;0;0;0;0;0;0;0;0;();(-2000.0, -2000.0);
12:22:14:440;12:22:14:412;1448408292.95;(0, 0);0;0;;;;;;;;;;;;;;0;0;0;0;0;0;0;0;0;();(-2000.0, -2000.0);
12:22:14:457;12:22:14:412;1448408292.95;(0, 0);0;0;;;;;;;;;;;;;;0;0;0;0;0;0;0;0;0;();(-2000.0, -2000.0);
12:22:14:474;12:22:14:412;1448408292.95;(0, 0);0;0;;;;;;;;;;;;;;0;0;0;0;0;0;0;0;0;();(-2000.0, -2000.0);
12:22:14:491;12:22:14:481;1448408293.02;(0, 0);0;0;;;;;;;;;;;;;;0;0;0;0;0;0;0;0;0;();(-2000.0, -2000.0);
12:22:14:524;12:22:14:481;1448408293.02;(0, 0);0;0;;;;;;;;;;;;;;0;0;0;0;0;0;0;0;0;();(-2000.0, -2000.0);
12:22:14:541;12:22:14:481;1448408293.02;(0, 0);0;0;;;;;;;;;;;;;;0;0;0;0;0;0;0;0;0;();(-2000.0, -2000.0);
12:22:14:557;12:22:14:547;1448408293.08;(0.7270080089569092, 0.7646497938368055);77.477973938;0.658184597667;;;;;;;;;;;;;;0;0;0;0;0;0;0;0;0;();(-2000.0, -2000.0);
12:22:14:574;12:22:14:547;1448408293.08;(0.7270080089569092, 0.7646497938368055);77.477973938;0.658184597667;;;;;;;;;;;;;;0;0;0;0;0;0;0;0;0;();(-2000.0, -2000.0);
12:22:14:591;12:22:14:547;1448408293.08;(0.7270080089569092, 0.7646497938368055);77.477973938;0.658184597667;;;;;;;;;;;;;;0;0;0;0;0;0;0;0;0;();(-2000.0, -2000.0);
12:22:14:624;12:22:14:615;1448408293.18;(0.7290538787841797, 0.7660827848646377);82.3033981323;0.920055157178;;;;;;;;;;;;;;0;0;0;0;0;0;0;0;0;();(-2000.0, -2000.0);
12:22:14:641;12:22:14:615;1448408293.18;(0.7290538787841797, 0.7660827848646377);82.3033981323;0.920055157178;;;;;;;;;;;;;;0;0;0;0;0;0;0;0;0;();(-2000.0, -2000.0);
12:22:14:659;12:22:14:615;1448408293.18;(0.7290538787841797, 0.7660827848646377);82.3033981323;0.920055157178;;;;;;;;;;;;;;0;0;0;0;0;0;0;0;0;();(-2000.0, -2000.0);
12:22:14:674;12:22:14:615;1448408293.18;(0.7290538787841797, 0.7660827848646377);82.3033981323;0.920055157178;;;;;;;;;;;;;;0;0;0;0;0;0;0;0;0;();(-2000.0, -2000.0);
12:22:14:691;12:22:14:685;1448408293.25;(0.7297966957092286, 0.7649137920803494);83.139541626;0.978319478716;;;;;;;;;;;;;;0;0;0;0;0;0;0;0;0;();(-2000.0, -2000.0);
12:22:14:724;12:22:14:685;1448408293.25;(0.7297966957092286, 0.7649137920803494);83.139541626;0.978319478716;;;;;;;;;;;;;;0;0;0;0;0;0;0;0;0;();(-2000.0, -2000.0);
12:22:14:742;12:22:14:685;1448408293.25;(0.7297966957092286, 0.7649137920803494);83.139541626;0.978319478716;;;;;;;;;;;;;;0;0;0;0;0;0;0;0;0;();(-2000.0, -2000.0);
12:22:14:758;12:22:14:746;1448408293.32;(0.7302443981170654, 0.7641760508219401);83.1891479492;1.0;;;;;;;;;;;;;;0;0;0;0;0;0;0;0;0;();(-2000.0, -2000.0);
12:22:14:774;12:22:14:746;1448408293.32;(0.7302443981170654, 0.7641760508219401);83.1891479492;1.0;;;;;;;;;;;;;;0;0;0;0;0;0;0;0;0;();(-2000.0, -2000.0);
12:22:14:791;12:22:14:746;1448408293.32;(0.7302443981170654, 0.7641760508219401);83.1891479492;1.0;;;;;;;;;;;;;;0;0;0;0;0;0;0;0;0;();(-2000.0, -2000.0);
12:22:14:825;12:22:14:813;1448408293.38;(0.7311536788940429, 0.7630335489908854);83.8440704346;1.0;;;;;;;;;;;;;;0;0;0;0;0;0;0;0;0;();(-2000.0, -2000.0);
12:22:14:841;12:22:14:813;1448408293.38;(0.7311536788940429, 0.7630335489908854);83.8440704346;1.0;;;;;;;;;;;;;;0;0;0;0;0;0;0;0;0;();(-2000.0, -2000.0);
12:22:14:858;12:22:14:813;1448408293.38;(0.7311536788940429, 0.7630335489908854);83.8440704346;1.0;;;;;;;;;;;;;;0;0;0;0;0;0;0;0;0;();(-2000.0, -2000.0);
12:22:14:875;12:22:14:813;1448408293.38;(0.7311536788940429, 0.7630335489908854);83.8440704346;1.0;;;;;;;;;;;;;;0;0;0;0;0;0;0;0;0;();(-2000.0, -2000.0);
12:22:14:891;12:22:14:880;1448408293.45;(0.7314884662628174, 0.7628965377807617);84.0332489014;1.0;;;;;;;;;;;;;;0;0;0;0;0;0;0;0;0;();(-2000.0, -2000.0);
12:22:14:924;12:22:14:880;1448408293.45;(0.7314884662628174, 0.7628965377807617);84.0332489014;1.0;;;;;;;;;;;;;;0;0;0;0;0;0;0;0;0;();(-2000.0, -2000.0);
12:22:14:943;12:22:14:880;1448408293.45;(0.7314884662628174, 0.7628965377807617);84.0332489014;1.0;;;;;;;;;;;;;;0;0;0;0;0;0;0;0;0;();(-2000.0, -2000.0);
12:22:14:959;12:22:14:948;1448408293.52;(0.7315516471862793, 0.7626714282565646);84.5650939941;1.0;;;;;;;;;;;;;;0;0;0;0;0;0;0;0;0;();(-2000.0, -2000.0);
12:22:14:976;12:22:14:948;1448408293.52;(0.7315516471862793, 0.7626714282565646);84.5650939941;1.0;;;;;;;;;;;;;;0;0;0;0;0;0;0;0;0;();(-2000.0, -2000.0);
12:22:14:993;12:22:14:948;1448408293.52;(0.7315516471862793, 0.7626714282565646);84.5650939941;1.0;;;;;;;;;;;;;;0;0;0;0;0;0;0;0;0;();(-2000.0, -2000.0);
12:22:15:026;12:22:15:010;1448408293.58;(0.7316309452056885, 0.7618737326727973);85.1858978271;1.0;;;;;;;;;;;;;;0;0;0;0;0;0;0;0;0;();(-2000.0, -2000.0);
12:22:15:042;12:22:15:010;1448408293.58;(0.7316309452056885, 0.7618737326727973);85.1858978271;1.0;;;;;;;;;;;;;;0;0;0;0;0;0;0;0;0;();(-2000.0, -2000.0);
12:22:15:059;12:22:15:010;1448408293.58;(0.7316309452056885, 0.7618737326727973);85.1858978271;1.0;;;;;;;;;;;;;;0;0;0;0;0;0;0;0;0;();(-2000.0, -2000.0);
12:22:15:076;12:22:15:010;1448408293.58;(0.7316309452056885, 0.7618737326727973);85.1858978271;1.0;;;;;;;;;;;;;;0;0;0;0;0;0;0;0;0;();(-2000.0, -2000.0);
12:22:15:092;12:22:15:081;1448408293.65;(0.7321579456329346, 0.7616900761922201);85.6209106445;0.945571841125;;;;;;;;;;;;;;0;0;0;0;0;0;0;0;0;();(-2000.0, -2000.0);
12:22:15:126;12:22:15:081;1448408293.65;(0.7321579456329346, 0.7616900761922201);85.6209106445;0.945571841125;;;;;;;;;;;;;;0;0;0;0;0;0;0;0;0;();(-2000.0, -2000.0);
12:22:15:142;12:22:15:139;1448408293.68;(0.732386589050293, 0.7612590154012044);86.1230239868;0.953883431445;;;;;;;;;;;;;;0;0;0;0;0;0;0;0;0;();(-2000.0, -2000.0);
12:22:15:158;12:22:15:141;1448408293.72;(0.7327236652374267, 0.7607876247829861);86.2575912476;0.975504666852;;;;;;;;;;;;;;0;0;0;0;0;0;0;0;0;();(-2000.0, -2000.0);
12:22:15:174;12:22:15:141;1448408293.72;(0.7327236652374267, 0.7607876247829861);86.2575912476;0.975504666852;;;;;;;;;;;;;;0;0;0;0;0;0;0;0;0;();(-2000.0, -2000.0);
12:22:15:191;12:22:15:141;1448408293.72;(0.7327236652374267, 0.7607876247829861);86.2575912476;0.975504666852;;;;;;;;;;;;;;0;0;0;0;0;0;0;0;0;();(-2000.0, -2000.0);
12:22:15:226;12:22:15:209;1448408293.78;(0.7334407329559326, 0.7599824481540256);86.0639648438;0.975299814401;;;;;;;;;;;;;;0;0;0;0;0;0;0;0;0;();(-2000.0, -2000.0);
12:22:15:242;12:22:15:209;1448408293.78;(0.7334407329559326, 0.7599824481540256);86.0639648438;0.975299814401;;;;;;;;;;;;;;0;0;0;0;0;0;0;0;0;();(-2000.0, -2000.0);
12:22:15:259;12:22:15:209;1448408293.78;(0.7334407329559326, 0.7599824481540256);86.0639648438;0.975299814401;;;;;;;;;;;;;;0;0;0;0;0;0;0;0;0;();(-2000.0, -2000.0);
12:22:15:276;12:22:15:209;1448408293.78;(0.7334407329559326, 0.7599824481540256);86.0639648438;0.975299814401;;;;;;;;;;;;;;0;0;0;0;0;0;0;0;0;();(-2000.0, -2000.0);
12:22:15:292;12:22:15:281;1448408293.85;(0.733530330657959, 0.7601532618204753);86.7428207397;1.0;;;;;;;;;;;;;;0;0;0;0;0;0;0;0;0;();(-2000.0, -2000.0);
12:22:15:325;12:22:15:281;1448408293.85;(0.733530330657959, 0.7601532618204753);86.7428207397;1.0;;;;;;;;;;;;;;0;0;0;0;0;0;0;0;0;();(-2000.0, -2000.0);
12:22:15:342;12:22:15:341;1448408293.88;(0.7332805633544922, 0.7604745652940539);86.7135009766;1.0;;;;;;;;;;;;;;0;0;0;0;0;0;0;0;0;();(-2000.0, -2000.0);
12:22:15:359;12:22:15:343;1448408293.92;(0.7332067489624023, 0.7603180143568251);86.8056945801;1.0;;;;;;;;;;;;;;0;0;0;0;0;0;0;0;0;();(-2000.0, -2000.0);
12:22:15:374;12:22:15:343;1448408293.92;(0.7332067489624023, 0.7603180143568251);86.8056945801;1.0;;;;;;;;;;;;;;0;0;0;0;0;0;0;0;0;();(-2000.0, -2000.0);
12:22:15:392;12:22:15:343;1448408293.92;(0.7332067489624023, 0.7603180143568251);86.8056945801;1.0;;;;;;;;;;;;;;0;0;0;0;0;0;0;0;0;();(-2000.0, -2000.0);
12:22:15:425;12:22:15:409;1448408293.98;(0.7331748485565186, 0.7602632098727756);86.9479446411;1.0;;;;;;;;;;;;;;0;0;0;0;0;0;0;0;0;();(-2000.0, -2000.0);
12:22:15:442;12:22:15:409;1448408293.98;(0.7331748485565186, 0.7602632098727756);86.9479446411;1.0;;;;;;;;;;;;;;0;0;0;0;0;0;0;0;0;();(-2000.0, -2000.0);
12:22:15:458;12:22:15:409;1448408293.98;(0.7331748485565186, 0.7602632098727756);86.9479446411;1.0;;;;;;;;;;;;;;0;0;0;0;0;0;0;0;0;();(-2000.0, -2000.0);
12:22:15:476;12:22:15:474;1448408294.05;(0.7342158317565918, 0.760571034749349);86.7572402954;1.0;;;;;;;;;;;;;;0;0;0;0;0;0;0;0;0;();(-2000.0, -2000.0);
12:22:15:493;12:22:15:474;1448408294.05;(0.7342158317565918, 0.760571034749349);86.7572402954;1.0;;;;;;;;;;;;;;0;0;0;0;0;0;0;0;0;();(-2000.0, -2000.0);
12:22:15:510;12:22:15:474;1448408294.05;(0.7342158317565918, 0.760571034749349);86.7572402954;1.0;;;;;;;;;;;;;;0;0;0;0;0;0;0;0;0;();(-2000.0, -2000.0);
12:22:15:544;12:22:15:540;1448408294.08;(0.7343736171722413, 0.7606449339124892);86.4764556885;0.993761143783;;;;;;;;;;;;;;0;0;0;0;0;0;0;0;0;();(-2000.0, -2000.0);
12:22:15:559;12:22:15:543;1448408294.12;(0.7347258567810059, 0.7603693856133356);86.9170608521;1.0;;;;;;;;;;;;;;0;0;0;0;0;0;0;0;0;();(-2000.0, -2000.0);
12:22:15:576;12:22:15:543;1448408294.12;(0.7347258567810059, 0.7603693856133356);86.9170608521;1.0;;;;;;;;;;;;;;0;0;0;0;0;0;0;0;0;();(-2000.0, -2000.0);
12:22:15:591;12:22:15:543;1448408294.12;(0.7347258567810059, 0.7603693856133356);86.9170608521;1.0;;;;;;;;;;;;;;0;0;0;0;0;0;0;0;0;();(-2000.0, -2000.0);
12:22:15:626;12:22:15:609;1448408294.18;(0, 0);0;0;;;;;;;;;;;;;;0;0;0;0;0;0;0;0;0;();(-2000.0, -2000.0);
12:22:15:643;12:22:15:609;1448408294.18;(0, 0);0;0;;;;;;;;;;;;;;0;0;0;0;0;0;0;0;0;();(-2000.0, -2000.0);
12:22:15:660;12:22:15:609;1448408294.18;(0, 0);0;0;;;;;;;;;;;;;;0;0;0;0;0;0;0;0;0;();(-2000.0, -2000.0);
12:22:15:676;12:22:15:673;1448408294.22;(0.615756607055664, 0.5495261722140842);20.3470516205;0.722143609227;;;;;;;;;;;;;;0;0;0;0;0;0;0;0;0;();(-2000.0, -2000.0);
12:22:15:693;12:22:15:673;1448408294.22;(0.615756607055664, 0.5495261722140842);20.3470516205;0.722143609227;;;;;;;;;;;;;;0;0;0;0;0;0;0;0;0;();(-2000.0, -2000.0);
12:22:15:710;12:22:15:673;1448408294.22;(0.615756607055664, 0.5495261722140842);20.3470516205;0.722143609227;;;;;;;;;;;;;;0;0;0;0;0;0;0;0;0;();(-2000.0, -2000.0);
12:22:15:743;12:22:15:741;1448408294.28;(0, 0);0;0;;;;;;;;;;;;;;0;0;0;0;0;0;0;0;0;();(-2000.0, -2000.0);
12:22:15:759;12:22:15:741;1448408294.28;(0, 0);0;0;;;;;;;;;;;;;;0;0;0;0;0;0;0;0;0;();(-2000.0, -2000.0);
12:22:15:776;12:22:15:741;1448408294.28;(0, 0);0;0;;;;;;;;;;;;;;0;0;0;0;0;0;0;0;0;();(-2000.0, -2000.0);
12:22:15:792;12:22:15:741;1448408294.28;(0, 0);0;0;;;;;;;;;;;;;;0;0;0;0;0;0;0;0;0;();(-2000.0, -2000.0);
12:22:15:826;12:22:15:805;1448408294.36;(0.739436149597168, 0.7745829688178169);87.288482666;0.939328971505;;;;;;;;;;;;;;0;0;0;0;0;0;0;0;0;();(-2000.0, -2000.0);
12:22:15:842;12:22:15:805;1448408294.36;(0.739436149597168, 0.7745829688178169);87.288482666;0.939328971505;;;;;;;;;;;;;;0;0;0;0;0;0;0;0;0;();(-2000.0, -2000.0);
12:22:15:859;12:22:15:805;1448408294.36;(0.739436149597168, 0.7745829688178169);87.288482666;0.939328971505;;;;;;;;;;;;;;0;0;0;0;0;0;0;0;0;();(-2000.0, -2000.0);
12:22:15:876;12:22:15:872;1448408294.39;(0.7403149604797363, 0.7736515680948893);88.4229278564;0.871665443897;;;;;;;;;;;;;;0;0;0;0;0;0;0;0;0;();(-2000.0, -2000.0);
12:22:15:891;12:22:15:872;1448408294.39;(0.7403149604797363, 0.7736515680948893);88.4229278564;0.871665443897;;;;;;;;;;;;;;0;0;0;0;0;0;0;0;0;();(-2000.0, -2000.0);
12:22:15:909;12:22:15:872;1448408294.39;(0.7403149604797363, 0.7736515680948893);88.4229278564;0.871665443897;;;;;;;;;;;;;;0;0;0;0;0;0;0;0;0;();(-2000.0, -2000.0);
12:22:15:943;12:22:15:941;1448408294.5;(0.743075942993164, 0.7701941384209527);89.2770843506;0.800120035052;;;;;;;;;;;;;;0;0;0;0;0;0;0;0;0;();(-2000.0, -2000.0);
12:22:15:958;12:22:15:943;1448408294.52;(0.7438579082489014, 0.769962904188368);89.0201187134;0.912957657338;;;;;;;;;;;;;;0;0;0;0;0;0;0;0;0;();(-2000.0, -2000.0);
12:22:15:976;12:22:15:943;1448408294.52;(0.7438579082489014, 0.769962904188368);89.0201187134;0.912957657338;;;;;;;;;;;;;;0;0;0;0;0;0;0;0;0;();(-2000.0, -2000.0);
12:22:15:993;12:22:15:943;1448408294.52;(0.7438579082489014, 0.769962904188368);89.0201187134;0.912957657338;;;;;;;;;;;;;;0;0;0;0;0;0;0;0;0;();(-2000.0, -2000.0);
12:22:16:026;12:22:16:005;1448408294.58;(0.7448162078857422, 0.7692365010579427);87.9324798584;1.0;;;;;;;;;;;;;;0;0;0;0;0;0;0;0;0;();(-2000.0, -2000.0);
12:22:16:043;12:22:16:005;1448408294.58;(0.7448162078857422, 0.7692365010579427);87.9324798584;1.0;;;;;;;;;;;;;;0;0;0;0;0;0;0;0;0;();(-2000.0, -2000.0);
12:22:16:060;12:22:16:005;1448408294.58;(0.7448162078857422, 0.7692365010579427);87.9324798584;1.0;;;;;;;;;;;;;;0;0;0;0;0;0;0;0;0;();(-2000.0, -2000.0);
12:22:16:075;12:22:16:073;1448408294.65;(0.7445385456085205, 0.7693380567762587);88.3073043823;1.0;;;;;;;;;;;;;;0;0;0;0;0;0;0;0;0;();(-2000.0, -2000.0);
12:22:16:093;12:22:16:073;1448408294.65;(0.7445385456085205, 0.7693380567762587);88.3073043823;1.0;;;;;;;;;;;;;;0;0;0;0;0;0;0;0;0;();(-2000.0, -2000.0);
12:22:16:109;12:22:16:073;1448408294.65;(0.7445385456085205, 0.7693380567762587);88.3073043823;1.0;;;;;;;;;;;;;;0;0;0;0;0;0;0;0;0;();(-2000.0, -2000.0);
12:22:16:143;12:22:16:136;1448408294.68;(0.7444154262542725, 0.7689186308119031);88.5612640381;1.0;;;;;;;;;;;;;;0;0;0;0;0;0;0;0;0;();(-2000.0, -2000.0);
12:22:16:160;12:22:16:136;1448408294.68;(0.7444154262542725, 0.7689186308119031);88.5612640381;1.0;;;;;;;;;;;;;;0;0;0;0;0;0;0;0;0;();(-2000.0, -2000.0);
12:22:16:176;12:22:16:136;1448408294.68;(0.7444154262542725, 0.7689186308119031);88.5612640381;1.0;;;;;;;;;;;;;;0;0;0;0;0;0;0;0;0;();(-2000.0, -2000.0);
12:22:16:194;12:22:16:136;1448408294.68;(0.7444154262542725, 0.7689186308119031);88.5612640381;1.0;;;;;;;;;;;;;;0;0;0;0;0;0;0;0;0;();(-2000.0, -2000.0);
