%Timestamp,timestamp_write;timestamp_gotpupil;eyeTrackerTime;normPos;diameter;confidence;timestamp_gotbitdata;CRC;SEQ;AnalogOutp1;AnalogOutp2;AnalogOutp3;AnalogOutp4;AnalogOutp5;AnalogOutp6;DigitalOutp1;DigitalOutp2;DigitalOutp3;DigitalOutp4;nplanes;listofAirplanesonScreen;lastAction;lastActionDetails;lastActionAirplaneNumber;calculatedScore;positiveScore;negativeScore;collidedAirplaneNumbers;targetPositions;collisionPoint
03:30:44:121;03:30:44:113;1448461838.92;(0.4672725200653076, 0.16878865559895828);57.2214698792;1.0;;;;;;;;;;;;;;0;0;0;0;0;0;0;0;0;();(-2000.0, -2000.0);
03:30:44:132;03:30:44:113;1448461838.92;(0.4672725200653076, 0.16878865559895828);57.2214698792;1.0;;;;;;;;;;;;;;0;0;0;0;0;0;0;0;0;();(-2000.0, -2000.0);
03:30:44:137;03:30:44:113;1448461838.92;(0.4672725200653076, 0.16878865559895828);57.2214698792;1.0;;;;;;;;;;;;;;0;0;0;0;0;0;0;0;0;();(-2000.0, -2000.0);
03:30:44:142;03:30:44:113;1448461838.92;(0.4672725200653076, 0.16878865559895828);57.2214698792;1.0;;;;;;;;;;;;;;0;0;0;0;0;0;0;0;0;();(-2000.0, -2000.0);
03:30:44:149;03:30:44:144;1448461838.95;(0.46745972633361815, 0.1688952128092448);57.0976028442;1.0;;;;;;;;;;;;;;0;0;0;0;0;0;0;0;0;();(-2000.0, -2000.0);
03:30:44:154;03:30:44:144;1448461838.95;(0.46745972633361815, 0.1688952128092448);57.0976028442;1.0;;;;;;;;;;;;;;0;0;0;0;0;0;0;0;0;();(-2000.0, -2000.0);
03:30:44:188;03:30:44:184;1448461838.98;(0.46747579574584963, 0.169071536593967);56.622215271;1.0;;;;;;;;;;;;;;0;0;0;0;0;0;0;0;0;();(-2000.0, -2000.0);
03:30:44:192;03:30:44:184;1448461838.98;(0.46747579574584963, 0.169071536593967);56.622215271;1.0;;;;;;;;;;;;;;0;0;0;0;0;0;0;0;0;();(-2000.0, -2000.0);
03:30:44:196;03:30:44:184;1448461838.98;(0.46747579574584963, 0.169071536593967);56.622215271;1.0;;;;;;;;;;;;;;0;0;0;0;0;0;0;0;0;();(-2000.0, -2000.0);
03:30:44:200;03:30:44:184;1448461838.98;(0.46747579574584963, 0.169071536593967);56.622215271;1.0;;;;;;;;;;;;;;0;0;0;0;0;0;0;0;0;();(-2000.0, -2000.0);
03:30:44:203;03:30:44:184;1448461838.98;(0.46747579574584963, 0.169071536593967);56.622215271;1.0;;;;;;;;;;;;;;0;0;0;0;0;0;0;0;0;();(-2000.0, -2000.0);
03:30:44:207;03:30:44:184;1448461838.98;(0.46747579574584963, 0.169071536593967);56.622215271;1.0;;;;;;;;;;;;;;0;0;0;0;0;0;0;0;0;();(-2000.0, -2000.0);
03:30:44:211;03:30:44:184;1448461838.98;(0.46747579574584963, 0.169071536593967);56.622215271;1.0;;;;;;;;;;;;;;0;0;0;0;0;0;0;0;0;();(-2000.0, -2000.0);
03:30:44:215;03:30:44:184;1448461838.98;(0.46747579574584963, 0.169071536593967);56.622215271;1.0;;;;;;;;;;;;;;0;0;0;0;0;0;0;0;0;();(-2000.0, -2000.0);
03:30:44:218;03:30:44:184;1448461838.98;(0.46747579574584963, 0.169071536593967);56.622215271;1.0;;;;;;;;;;;;;;0;0;0;0;0;0;0;0;0;();(-2000.0, -2000.0);
03:30:44:221;03:30:44:184;1448461838.98;(0.46747579574584963, 0.169071536593967);56.622215271;1.0;;;;;;;;;;;;;;0;0;0;0;0;0;0;0;0;();(-2000.0, -2000.0);
03:30:44:224;03:30:44:184;1448461838.98;(0.46747579574584963, 0.169071536593967);56.622215271;1.0;;;;;;;;;;;;;;0;0;0;0;0;0;0;0;0;();(-2000.0, -2000.0);
03:30:44:228;03:30:44:184;1448461838.98;(0.46747579574584963, 0.169071536593967);56.622215271;1.0;;;;;;;;;;;;;;0;0;0;0;0;0;0;0;0;();(-2000.0, -2000.0);
03:30:44:233;03:30:44:228;1448461839.02;(0.4588768005371094, 0.2091803656684028);56.3682632446;0.840314309273;;;;;;;;;;;;;;0;0;0;0;0;0;0;0;0;();(-2000.0, -2000.0);
03:30:44:236;03:30:44:228;1448461839.02;(0.4588768005371094, 0.2091803656684028);56.3682632446;0.840314309273;;;;;;;;;;;;;;0;0;0;0;0;0;0;0;0;();(-2000.0, -2000.0);
03:30:44:239;03:30:44:228;1448461839.02;(0.4588768005371094, 0.2091803656684028);56.3682632446;0.840314309273;;;;;;;;;;;;;;0;0;0;0;0;0;0;0;0;();(-2000.0, -2000.0);
03:30:44:242;03:30:44:228;1448461839.02;(0.4588768005371094, 0.2091803656684028);56.3682632446;0.840314309273;;;;;;;;;;;;;;0;0;0;0;0;0;0;0;0;();(-2000.0, -2000.0);
03:30:44:246;03:30:44:228;1448461839.02;(0.4588768005371094, 0.2091803656684028);56.3682632446;0.840314309273;;;;;;;;;;;;;;0;0;0;0;0;0;0;0;0;();(-2000.0, -2000.0);
03:30:44:317;03:30:44:316;1448461839.12;(0.45706954002380373, 0.2143377516004774);58.0214614868;1.0;;;;;;;;;;;;;;0;0;0;0;0;0;0;0;0;();(-2000.0, -2000.0);
03:30:44:322;03:30:44:316;1448461839.12;(0.45706954002380373, 0.2143377516004774);58.0214614868;1.0;;;;;;;;;;;;;;0;0;0;0;0;0;0;0;0;();(-2000.0, -2000.0);
03:30:44:326;03:30:44:316;1448461839.12;(0.45706954002380373, 0.2143377516004774);58.0214614868;1.0;;;;;;;;;;;;;;0;0;0;0;0;0;0;0;0;();(-2000.0, -2000.0);
03:30:49:120;03:30:49:087;1448461843.88;(0.3265374183654785, 0.25811682807074654);61.6980209351;1.0;;;;;;;;;;;;;;0;0;0;0;0;0;0;0;0;();(-2000.0, -2000.0);
03:30:49:129;03:30:49:119;1448461843.92;(0.3265223503112793, 0.2584493001302083);61.6656990051;1.0;;;;;;;;;;;;;;0;0;0;0;0;0;0;0;0;();(-2000.0, -2000.0);
03:30:49:138;03:30:49:119;1448461843.92;(0.3265223503112793, 0.2584493001302083);61.6656990051;1.0;;;;;;;;;;;;;;0;0;0;0;0;0;0;0;0;();(-2000.0, -2000.0);
03:30:49:144;03:30:49:119;1448461843.92;(0.3265223503112793, 0.2584493001302083);61.6656990051;1.0;;;;;;;;;;;;;;0;0;0;0;0;0;0;0;0;();(-2000.0, -2000.0);
03:30:49:150;03:30:49:119;1448461843.92;(0.3265223503112793, 0.2584493001302083);61.6656990051;1.0;;;;;;;;;;;;;;0;0;0;0;0;0;0;0;0;();(-2000.0, -2000.0);
03:30:49:156;03:30:49:119;1448461843.92;(0.3265223503112793, 0.2584493001302083);61.6656990051;1.0;;;;;;;;;;;;;;0;0;0;0;0;0;0;0;0;();(-2000.0, -2000.0);
03:30:49:164;03:30:49:155;1448461843.95;(0.32756288051605226, 0.2582527160644531);61.6023178101;1.0;;;;;;;;;;;;;;0;0;0;0;0;0;0;0;0;();(-2000.0, -2000.0);
03:30:49:170;03:30:49:155;1448461843.95;(0.32756288051605226, 0.2582527160644531);61.6023178101;1.0;;;;;;;;;;;;;;0;0;0;0;0;0;0;0;0;();(-2000.0, -2000.0);
03:30:49:176;03:30:49:155;1448461843.95;(0.32756288051605226, 0.2582527160644531);61.6023178101;1.0;;;;;;;;;;;;;;0;0;0;0;0;0;0;0;0;();(-2000.0, -2000.0);
03:30:49:182;03:30:49:155;1448461843.95;(0.32756288051605226, 0.2582527160644531);61.6023178101;1.0;;;;;;;;;;;;;;0;0;0;0;0;0;0;0;0;();(-2000.0, -2000.0);
03:30:49:189;03:30:49:187;1448461843.98;(0.3273019790649414, 0.25758438110351567);61.5331344604;1.0;;;;;;;;;;;;;;0;0;0;0;0;0;0;0;0;();(-2000.0, -2000.0);
03:30:49:196;03:30:49:187;1448461843.98;(0.3273019790649414, 0.25758438110351567);61.5331344604;1.0;;;;;;;;;;;;;;0;0;0;0;0;0;0;0;0;();(-2000.0, -2000.0);
03:30:49:200;03:30:49:187;1448461843.98;(0.3273019790649414, 0.25758438110351567);61.5331344604;1.0;;;;;;;;;;;;;;0;0;0;0;0;0;0;0;0;();(-2000.0, -2000.0);
03:30:49:203;03:30:49:187;1448461843.98;(0.3273019790649414, 0.25758438110351567);61.5331344604;1.0;;;;;;;;;;;;;;0;0;0;0;0;0;0;0;0;();(-2000.0, -2000.0);
03:30:49:206;03:30:49:187;1448461843.98;(0.3273019790649414, 0.25758438110351567);61.5331344604;1.0;;;;;;;;;;;;;;0;0;0;0;0;0;0;0;0;();(-2000.0, -2000.0);
03:30:49:209;03:30:49:187;1448461843.98;(0.3273019790649414, 0.25758438110351567);61.5331344604;1.0;;;;;;;;;;;;;;0;0;0;0;0;0;0;0;0;();(-2000.0, -2000.0);
03:30:49:212;03:30:49:187;1448461843.98;(0.3273019790649414, 0.25758438110351567);61.5331344604;1.0;;;;;;;;;;;;;;0;0;0;0;0;0;0;0;0;();(-2000.0, -2000.0);
03:30:49:215;03:30:49:187;1448461843.98;(0.3273019790649414, 0.25758438110351567);61.5331344604;1.0;;;;;;;;;;;;;;0;0;0;0;0;0;0;0;0;();(-2000.0, -2000.0);
03:30:49:221;03:30:49:219;1448461844.02;(0.3270233392715454, 0.2573548210991754);61.662147522;1.0;;;;;;;;;;;;;;0;0;0;0;0;0;0;0;0;();(-2000.0, -2000.0);
03:30:49:225;03:30:49:219;1448461844.02;(0.3270233392715454, 0.2573548210991754);61.662147522;1.0;;;;;;;;;;;;;;0;0;0;0;0;0;0;0;0;();(-2000.0, -2000.0);
03:30:49:230;03:30:49:219;1448461844.02;(0.3270233392715454, 0.2573548210991754);61.662147522;1.0;;;;;;;;;;;;;;0;0;0;0;0;0;0;0;0;();(-2000.0, -2000.0);
03:30:49:233;03:30:49:219;1448461844.02;(0.3270233392715454, 0.2573548210991754);61.662147522;1.0;;;;;;;;;;;;;;0;0;0;0;0;0;0;0;0;();(-2000.0, -2000.0);
03:30:49:237;03:30:49:219;1448461844.02;(0.3270233392715454, 0.2573548210991754);61.662147522;1.0;;;;;;;;;;;;;;0;0;0;0;0;0;0;0;0;();(-2000.0, -2000.0);
03:30:49:271;03:30:49:255;1448461844.05;(0.32689208984375, 0.25707694159613714);61.6010475159;1.0;;;;;;;;;;;;;;0;0;0;0;0;0;0;0;0;();(-2000.0, -2000.0);
03:30:49:287;03:30:49:255;1448461844.05;(0.32689208984375, 0.25707694159613714);61.6010475159;1.0;;;;;;;;;;;;;;0;0;0;0;0;0;0;0;0;();(-2000.0, -2000.0);
03:30:49:305;03:30:49:287;1448461844.08;(0.3266807317733765, 0.25650177001953123);61.3008842468;1.0;;;;;;;;;;;;;;0;0;0;0;0;0;0;0;0;();(-2000.0, -2000.0);
03:30:49:321;03:30:49:287;1448461844.08;(0.3266807317733765, 0.25650177001953123);61.3008842468;1.0;;;;;;;;;;;;;;0;0;0;0;0;0;0;0;0;();(-2000.0, -2000.0);
03:30:49:338;03:30:49:323;1448461844.12;(0.3263566970825195, 0.2564452277289496);61.2042655945;1.0;;;;;;;;;;;;;;0;0;0;0;0;0;0;0;0;();(-2000.0, -2000.0);
03:30:49:354;03:30:49:323;1448461844.12;(0.3263566970825195, 0.2564452277289496);61.2042655945;1.0;;;;;;;;;;;;;;0;0;0;0;0;0;0;0;0;();(-2000.0, -2000.0);
03:30:49:373;03:30:49:355;1448461844.15;(0.32635643482208254, 0.2563779195149739);61.3567504883;1.0;;;;;;;;;;;;;;0;0;0;0;0;0;0;0;0;();(-2000.0, -2000.0);
03:30:49:405;03:30:49:387;1448461844.18;(0.32639050483703613, 0.25606935289171007);60.9911079407;1.0;;;;;;;;;;;;;;0;0;0;0;0;0;0;0;0;();(-2000.0, -2000.0);
03:30:49:420;03:30:49:387;1448461844.18;(0.32639050483703613, 0.25606935289171007);60.9911079407;1.0;;;;;;;;;;;;;;0;0;0;0;0;0;0;0;0;();(-2000.0, -2000.0);
03:30:49:437;03:30:49:423;1448461844.22;(0.3263557910919189, 0.2557444254557292);61.0808486938;1.0;;;;;;;;;;;;;;0;0;0;0;0;0;0;0;0;();(-2000.0, -2000.0);
03:30:49:454;03:30:49:423;1448461844.22;(0.3263557910919189, 0.2557444254557292);61.0808486938;1.0;;;;;;;;;;;;;;0;0;0;0;0;0;0;0;0;();(-2000.0, -2000.0);
03:30:49:487;03:30:49:456;1448461844.25;(0.3261885643005371, 0.25597796969943576);61.0334739685;1.0;;;;;;;;;;;;;;0;0;0;0;0;0;0;0;0;();(-2000.0, -2000.0);
03:30:49:505;03:30:49:487;1448461844.28;(0.3261829376220703, 0.25572263929579);61.2519035339;1.0;;;;;;;;;;;;;;0;0;0;0;0;0;0;0;0;();(-2000.0, -2000.0);
03:30:49:521;03:30:49:487;1448461844.28;(0.3261829376220703, 0.25572263929579);61.2519035339;1.0;;;;;;;;;;;;;;0;0;0;0;0;0;0;0;0;();(-2000.0, -2000.0);
03:30:49:538;03:30:49:524;1448461844.32;(0.3261075973510742, 0.25574315388997393);61.1251029968;1.0;;;;;;;;;;;;;;0;0;0;0;0;0;0;0;0;();(-2000.0, -2000.0);
03:30:49:555;03:30:49:524;1448461844.32;(0.3261075973510742, 0.25574315388997393);61.1251029968;1.0;;;;;;;;;;;;;;0;0;0;0;0;0;0;0;0;();(-2000.0, -2000.0);
03:30:49:588;03:30:49:556;1448461844.35;(0.3261204719543457, 0.2557029724121094);61.2212371826;1.0;;;;;;;;;;;;;;0;0;0;0;0;0;0;0;0;();(-2000.0, -2000.0);
03:30:49:605;03:30:49:591;1448461844.38;(0.32587101459503176, 0.2557257758246527);61.2284545898;1.0;;;;;;;;;;;;;;0;0;0;0;0;0;0;0;0;();(-2000.0, -2000.0);
03:30:49:622;03:30:49:591;1448461844.38;(0.32587101459503176, 0.2557257758246527);61.2284545898;1.0;;;;;;;;;;;;;;0;0;0;0;0;0;0;0;0;();(-2000.0, -2000.0);
03:30:49:638;03:30:49:624;1448461844.42;(0.3259360551834106, 0.2557596842447917);61.2607383728;1.0;;;;;;;;;;;;;;0;0;0;0;0;0;0;0;0;();(-2000.0, -2000.0);
03:30:49:655;03:30:49:624;1448461844.42;(0.3259360551834106, 0.2557596842447917);61.2607383728;1.0;;;;;;;;;;;;;;0;0;0;0;0;0;0;0;0;();(-2000.0, -2000.0);
03:30:49:673;03:30:49:656;1448461844.45;(0.3258445024490356, 0.255706787109375);61.2469749451;1.0;;;;;;;;;;;;;;0;0;0;0;0;0;0;0;0;();(-2000.0, -2000.0);
03:30:49:706;03:30:49:691;1448461844.48;(0.3259538173675537, 0.2560011969672309);61.1630783081;1.0;;;;;;;;;;;;;;0;0;0;0;0;0;0;0;0;();(-2000.0, -2000.0);
03:30:49:722;03:30:49:691;1448461844.48;(0.3259538173675537, 0.2560011969672309);61.1630783081;1.0;;;;;;;;;;;;;;0;0;0;0;0;0;0;0;0;();(-2000.0, -2000.0);
03:30:49:740;03:30:49:723;1448461844.52;(0.3258049488067627, 0.2562718709309896);61.442741394;1.0;;;;;;;;;;;;;;0;0;0;0;0;0;0;0;0;();(-2000.0, -2000.0);
03:30:49:757;03:30:49:756;1448461844.55;(0.3260995388031006, 0.25630908542209196);61.1845283508;1.0;;;;;;;;;;;;;;0;0;0;0;0;0;0;0;0;();(-2000.0, -2000.0);
03:30:49:772;03:30:49:756;1448461844.55;(0.3260995388031006, 0.25630908542209196);61.1845283508;1.0;;;;;;;;;;;;;;0;0;0;0;0;0;0;0;0;();(-2000.0, -2000.0);
03:30:50:319;03:30:50:291;1448461845.08;(0.32419748306274415, 0.2530035230848524);62.8075561523;1.0;03:30:50:317;0;9;-1.5;2.01377952755906;1.46627565982405;0;0;0;1;1;1;1;0;0;0;0;0;0;0;0;0;();(-2000.0, -2000.0);
03:30:50:323;03:30:50:291;1448461845.08;(0.32419748306274415, 0.2530035230848524);62.8075561523;1.0;03:30:50:323;0;9;-1.5;2.01377952755906;1.46627565982405;0;0;0;1;1;1;1;0;0;0;0;0;0;0;0;0;();(-2000.0, -2000.0);
03:30:50:327;03:30:50:291;1448461845.08;(0.32419748306274415, 0.2530035230848524);62.8075561523;1.0;03:30:50:327;0;9;-1.5;2.01377952755906;1.46627565982405;0;0;0;1;1;1;1;0;0;0;0;0;0;0;0;0;();(-2000.0, -2000.0);
03:30:50:331;03:30:50:327;1448461845.12;(0.32479407787323, 0.2544119940863715);62.5094032288;1.0;03:30:50:331;0;5;-1.5;2.10493827160494;1.46627565982405;0;0;0;1;1;1;1;0;0;0;0;0;0;0;0;0;();(-2000.0, -2000.0);
03:30:50:334;03:30:50:327;1448461845.12;(0.32479407787323, 0.2544119940863715);62.5094032288;1.0;03:30:50:334;0;5;-1.5;2.10493827160494;1.46627565982405;0;0;0;1;1;1;1;0;0;0;0;0;0;0;0;0;();(-2000.0, -2000.0);
03:30:50:338;03:30:50:327;1448461845.12;(0.32479407787323, 0.2544119940863715);62.5094032288;1.0;03:30:50:338;0;0;-1.5;2.16737288135593;1.66177908113392;0;0;0;1;1;1;1;0;0;0;0;0;0;0;0;0;();(-2000.0, -2000.0);
03:30:50:341;03:30:50:327;1448461845.12;(0.32479407787323, 0.2544119940863715);62.5094032288;1.0;03:30:50:341;0;0;-1.5;2.16737288135593;1.66177908113392;0;0;0;1;1;1;1;0;0;0;0;0;0;0;0;0;();(-2000.0, -2000.0);
03:30:50:344;03:30:50:327;1448461845.12;(0.32479407787323, 0.2544119940863715);62.5094032288;1.0;03:30:50:344;0;0;-1.5;2.16737288135593;1.66177908113392;0;0;0;1;1;1;1;0;0;0;0;0;0;0;0;0;();(-2000.0, -2000.0);
03:30:50:348;03:30:50:327;1448461845.12;(0.32479407787323, 0.2544119940863715);62.5094032288;1.0;03:30:50:348;0;0;-1.5;2.16737288135593;1.66177908113392;0;0;0;1;1;1;1;0;0;0;0;0;0;0;0;0;();(-2000.0, -2000.0);
03:30:50:351;03:30:50:327;1448461845.12;(0.32479407787323, 0.2544119940863715);62.5094032288;1.0;03:30:50:351;0;10;-1.5;2.2;1.85728250244379;0;0;0;1;1;1;1;0;0;0;0;0;0;0;0;0;();(-2000.0, -2000.0);
03:30:50:354;03:30:50:327;1448461845.12;(0.32479407787323, 0.2544119940863715);62.5094032288;1.0;03:30:50:354;0;10;-1.5;2.2;1.85728250244379;0;0;0;1;1;1;1;0;0;0;0;0;0;0;0;0;();(-2000.0, -2000.0);
03:30:50:357;03:30:50:327;1448461845.12;(0.32479407787323, 0.2544119940863715);62.5094032288;1.0;03:30:50:357;0;10;-1.5;2.2;1.85728250244379;0;0;0;1;1;1;1;0;0;0;0;0;0;0;0;0;();(-2000.0, -2000.0);
03:30:50:361;03:30:50:359;1448461845.15;(0.32559545040130616, 0.25694334242079);62.4044113159;0.949407216189;03:30:50:361;0;4;-1.5;2.26829268292683;1.46627565982405;0;0;0;1;1;1;1;0;0;0;0;0;0;0;0;0;();(-2000.0, -2000.0);
03:30:50:365;03:30:50:359;1448461845.15;(0.32559545040130616, 0.25694334242079);62.4044113159;0.949407216189;03:30:50:365;0;4;-1.5;2.26829268292683;1.46627565982405;0;0;0;1;1;1;1;0;0;0;0;0;0;0;0;0;();(-2000.0, -2000.0);
03:30:50:369;03:30:50:359;1448461845.15;(0.32559545040130616, 0.25694334242079);62.4044113159;0.949407216189;03:30:50:369;0;4;-1.5;2.26829268292683;1.46627565982405;0;0;0;1;1;1;1;0;0;0;0;0;0;0;0;0;();(-2000.0, -2000.0);
03:30:50:372;03:30:50:359;1448461845.15;(0.32559545040130616, 0.25694334242079);62.4044113159;0.949407216189;03:30:50:372;0;0;-1.5;2.0625;1.46627565982405;0;0;0;1;1;1;1;0;0;0;0;0;0;0;0;0;();(-2000.0, -2000.0);
03:30:50:375;03:30:50:359;1448461845.15;(0.32559545040130616, 0.25694334242079);62.4044113159;0.949407216189;03:30:50:375;0;0;-1.5;2.0625;1.46627565982405;0;0;0;1;1;1;1;0;0;0;0;0;0;0;0;0;();(-2000.0, -2000.0);
03:30:50:380;03:30:50:359;1448461845.15;(0.32559545040130616, 0.25694334242079);62.4044113159;0.949407216189;03:30:50:380;0;9;-1.5;2.22391304347826;1.46627565982405;0;0;0;1;1;1;1;0;0;0;0;0;0;0;0;0;();(-2000.0, -2000.0);
03:30:50:385;03:30:50:359;1448461845.15;(0.32559545040130616, 0.25694334242079);62.4044113159;0.949407216189;03:30:50:385;0;9;-1.5;2.22391304347826;1.46627565982405;0;0;0;1;1;1;1;0;0;0;0;0;0;0;0;0;();(-2000.0, -2000.0);
03:30:50:390;03:30:50:359;1448461845.15;(0.32559545040130616, 0.25694334242079);62.4044113159;0.949407216189;03:30:50:390;0;9;-1.5;2.22391304347826;1.46627565982405;0;0;0;1;1;1;1;0;0;0;0;0;0;0;0;0;();(-2000.0, -2000.0);
03:30:50:396;03:30:50:392;1448461845.18;(0.32572615146636963, 0.2573021782769097);62.6773986816;1.0;03:30:50:396;0;4;-1.5;2.16737288135593;1.46627565982405;0;0;0;1;1;1;1;0;0;0;0;0;0;0;0;0;();(-2000.0, -2000.0);
03:30:50:410;03:30:50:392;1448461845.18;(0.32572615146636963, 0.2573021782769097);62.6773986816;1.0;03:30:50:410;0;15;-1.5;2.19057815845824;1.46627565982405;0;0;0;1;1;1;1;0;0;0;0;0;0;0;0;0;();(-2000.0, -2000.0);
03:30:50:427;03:30:50:392;1448461845.18;(0.32572615146636963, 0.2573021782769097);62.6773986816;1.0;03:30:50:427;0;10;-1.5;2.22391304347826;1.85728250244379;0;0;0;1;1;1;1;0;0;0;0;0;0;0;0;0;();(-2000.0, -2000.0);
03:30:50:460;03:30:50:427;1448461845.22;(0.3254787683486938, 0.2570892333984375);62.5109596252;1.0;03:30:50:460;0;4;-1.5;2.35172413793103;1.66177908113392;0;0;0;1;1;1;1;0;0;0;0;0;0;0;0;0;();(-2000.0, -2000.0);
03:30:50:477;03:30:50:460;1448461845.25;(0.3252920150756836, 0.25735973782009547);62.523235321;1.0;03:30:50:477;0;15;-1.5;2.31972789115646;2.34604105571848;0;0;0;1;1;1;1;0;0;0;0;0;0;0;0;0;();(-2000.0, -2000.0);
03:30:50:494;03:30:50:460;1448461845.25;(0.3252920150756836, 0.25735973782009547);62.523235321;1.0;03:30:50:494;0;14;-1.5;2.46506024096386;2.1505376344086;0;0;0;1;1;1;1;0;0;0;0;0;0;0;0;0;();(-2000.0, -2000.0);
03:30:50:511;03:30:50:496;1448461845.28;(0.3251416921615601, 0.25741924709743924);62.5939292908;1.0;03:30:50:511;0;10;-1.5;2.46506024096386;2.34604105571848;0;0;0;1;1;1;1;0;0;0;0;0;0;0;0;0;();(-2000.0, -2000.0);
03:30:50:530;03:30:50:528;1448461845.32;(0.32514808177947996, 0.25747155083550344);62.4992752075;1.0;03:30:50:530;0;5;-1.5;2.36805555555556;1.66177908113392;0;0;0;1;1;1;1;0;0;0;0;0;0;0;0;0;();(-2000.0, -2000.0);
03:30:50:560;03:30:50:528;1448461845.32;(0.32514808177947996, 0.25747155083550344);62.4992752075;1.0;03:30:50:560;0;4;-1.5;2.36258660508083;1.85728250244379;0;0;0;1;1;1;1;0;0;0;0;0;0;0;0;0;();(-2000.0, -2000.0);
03:30:50:577;03:30:50:561;1448461845.35;(0.3251091480255127, 0.25773696899414067);62.4900970459;1.0;03:30:50:577;0;0;-1.5;2.26829268292683;1.46627565982405;0;0;0;1;1;1;1;0;0;0;0;0;0;0;0;0;();(-2000.0, -2000.0);
03:30:50:594;03:30:50:561;1448461845.35;(0.3251091480255127, 0.25773696899414067);62.4900970459;1.0;03:30:50:594;0;5;-1.5;2.28348214285714;1.56402737047898;0;0;0;1;1;1;1;0;0;0;0;0;0;0;0;0;();(-2000.0, -2000.0);
03:30:50:611;03:30:50:595;1448461845.38;(0.32492938041687014, 0.25755225287543404);62.430355072;1.0;03:30:50:611;0;10;-1.5;2.20950323974082;1.46627565982405;0;0;0;1;1;1;1;0;0;0;0;0;0;0;0;0;();(-2000.0, -2000.0);
03:30:50:630;03:30:50:627;1448461845.42;(0.32486538887023925, 0.25758700900607634);62.3862266541;1.0;03:30:50:630;0;15;-1.5;2.35172413793103;1.85728250244379;0;0;0;1;1;1;1;0;0;0;0;0;0;0;0;0;();(-2000.0, -2000.0);
03:30:50:661;03:30:50:659;1448461845.45;(0.32487072944641116, 0.25765491061740453);62.5485687256;1.0;03:30:50:661;0;0;-1.5;2.36258660508083;1.66177908113392;0;0;0;1;1;1;1;0;0;0;0;0;0;0;0;0;();(-2000.0, -2000.0);
03:30:50:678;03:30:50:659;1448461845.45;(0.32487072944641116, 0.25765491061740453);62.5485687256;1.0;03:30:50:678;0;10;-1.5;2.30405405405405;1.85728250244379;0;0;0;1;1;1;1;0;0;0;0;0;0;0;0;0;();(-2000.0, -2000.0);
03:30:50:696;03:30:50:659;1448461845.45;(0.32487072944641116, 0.25765491061740453);62.5485687256;1.0;03:30:50:696;0;0;-1.5;2.19057815845824;2.1505376344086;0;0;0;1;1;1;1;0;0;0;0;0;0;0;0;0;();(-2000.0, -2000.0);
03:30:50:712;03:30:50:696;1448461845.48;(0.32462847232818604, 0.2577998691134983);62.4962081909;1.0;03:30:50:712;0;9;-1.5;2.325;1.66177908113392;0;0;0;1;1;1;1;0;0;0;0;0;0;0;0;0;();(-2000.0, -2000.0);
03:30:50:730;03:30:50:727;1448461845.52;(0.3245427370071411, 0.257800038655599);62.6042518616;1.0;03:30:50:730;0;15;-1.5;2.13125;1.46627565982405;0;0;0;1;1;1;1;0;0;0;0;0;0;0;0;0;();(-2000.0, -2000.0);
03:30:50:762;03:30:50:759;1448461845.55;(0.32450294494628906, 0.25770068698459203);62.6730232239;1.0;03:30:50:762;0;15;-1.5;2.22391304347826;1.46627565982405;0;0;0;1;1;1;1;0;0;0;0;0;0;0;0;0;();(-2000.0, -2000.0);
03:30:50:779;03:30:50:759;1448461845.55;(0.32450294494628906, 0.25770068698459203);62.6730232239;1.0;03:30:50:779;0;10;-1.5;2.19057815845824;1.46627565982405;0;0;0;1;1;1;1;0;0;0;0;0;0;0;0;0;();(-2000.0, -2000.0);
03:30:50:795;03:30:50:759;1448461845.55;(0.32450294494628906, 0.25770068698459203);62.6730232239;1.0;03:30:50:795;0;15;-1.5;2.325;1.66177908113392;0;0;0;1;1;1;1;0;0;0;0;0;0;0;0;0;();(-2000.0, -2000.0);
03:30:50:812;03:30:50:795;1448461845.58;(0.32442712783813477, 0.25762668185763893);62.5730819702;1.0;03:30:50:812;0;5;-1.5;2.325;1.85728250244379;0;0;0;1;1;1;1;0;0;0;0;0;0;0;0;0;();(-2000.0, -2000.0);
03:30:50:830;03:30:50:828;1448461845.62;(0.3244540452957153, 0.2576593187120225);62.9652481079;1.0;03:30:50:830;0;0;-1.5;2.53846153846154;1.85728250244379;0;0;0;1;1;1;1;0;0;0;0;0;0;0;0;0;();(-2000.0, -2000.0);
03:30:50:846;03:30:50:828;1448461845.62;(0.3244540452957153, 0.2576593187120225);62.9652481079;1.0;03:30:50:846;0;4;-1.5;2.41843971631206;2.1505376344086;0;0;0;1;1;1;1;0;0;0;0;0;0;0;0;0;();(-2000.0, -2000.0);
03:30:50:879;03:30:50:864;1448461845.65;(0.32438604831695556, 0.2574763827853732);62.9026298523;1.0;03:30:50:879;0;4;-1.5;2.24835164835165;1.85728250244379;0;0;0;1;1;1;1;0;0;0;0;0;0;0;0;0;();(-2000.0, -2000.0);
03:30:50:896;03:30:50:864;1448461845.65;(0.32438604831695556, 0.2574763827853732);62.9026298523;1.0;03:30:50:896;0;9;-1.5;1.99415204678363;1.46627565982405;0;0;0;1;1;1;1;0;0;0;0;0;0;0;0;0;();(-2000.0, -2000.0);
03:30:50:913;03:30:50:896;1448461845.68;(0.32399284839630127, 0.25714687771267364);63.1366958618;1.0;03:30:50:913;0;5;-1.5;1.61867088607595;1.17302052785924;0;0;0;1;1;1;1;0;0;0;0;0;0;0;0;0;();(-2000.0, -2000.0);
03:30:50:930;03:30:50:927;1448461845.72;(0.32361774444580077, 0.2570165846082899);63.2758560181;1.0;03:30:50:930;0;10;-1.5;2.00195694716243;1.46627565982405;0;0;0;1;1;1;1;0;0;0;0;0;0;0;0;0;();(-2000.0, -2000.0);
03:30:50:946;03:30:50:927;1448461845.72;(0.32361774444580077, 0.2570165846082899);63.2758560181;1.0;03:30:50:946;0;4;-1.5;2.31972789115646;2.34604105571848;0;0;0;1;1;1;1;0;0;0;0;0;0;0;0;0;();(-2000.0, -2000.0);
03:30:50:980;03:30:50:963;1448461845.75;(0.32319183349609376, 0.25718112521701386);63.2198028564;1.0;03:30:50:980;0;0;-1.5;2.50122249388753;2.34604105571848;0;0;0;1;1;1;1;0;0;0;0;0;0;0;0;0;();(-2000.0, -2000.0);
03:30:50:998;03:30:50:995;1448461845.78;(0.3231867790222168, 0.257260979546441);63.160861969;1.0;03:30:50:998;0;10;-1.5;2.0501002004008;1.46627565982405;0;0;0;1;1;1;1;0;0;0;0;0;0;0;0;0;();(-2000.0, -2000.0);
03:30:51:013;03:30:50:995;1448461845.78;(0.3231867790222168, 0.257260979546441);63.160861969;1.0;03:30:51:013;0;15;-1.5;2.0625;1.46627565982405;0;0;0;1;1;1;1;0;0;0;0;0;0;0;0;0;();(-2000.0, -2000.0);
03:30:51:030;03:30:51:028;1448461845.82;(0.3982738256454468, 0.48647342258029513);19.256357193;0.625652496264;03:30:51:030;0;4;-1.5;2.28348214285714;2.34604105571848;0;0;0;1;1;1;1;0;0;0;0;0;0;0;0;0;();(-2000.0, -2000.0);
03:30:51:047;03:30:51:028;1448461845.82;(0.3982738256454468, 0.48647342258029513);19.256357193;0.625652496264;03:30:51:047;0;0;-1.5;2.1006160164271;1.46627565982405;0;0;0;1;1;1;1;0;0;0;0;0;0;0;0;0;();(-2000.0, -2000.0);
03:30:51:081;03:30:51:063;1448461845.85;(0, 0);0;0;03:30:51:081;0;10;-1.5;1.87020109689214;1.46627565982405;0;0;0;1;1;1;1;0;0;0;0;0;0;0;0;0;();(-2000.0, -2000.0);
03:30:51:097;03:30:51:095;1448461845.88;(0, 0);0;0;03:30:51:097;0;10;-1.5;1.87020109689214;1.46627565982405;0;0;0;1;1;1;1;0;0;0;0;0;0;0;0;0;();(-2000.0, -2000.0);
03:30:51:114;03:30:51:095;1448461845.88;(0, 0);0;0;03:30:51:114;0;15;-1.5;2.01377952755906;1.46627565982405;0;0;0;1;1;1;1;0;0;0;0;0;0;0;0;0;();(-2000.0, -2000.0);
03:30:51:131;03:30:51:127;1448461845.92;(0, 0);0;0;03:30:51:131;0;4;-1.5;2.00588235294118;1.36852394916911;0;0;0;1;1;1;1;0;0;0;0;0;0;0;0;0;();(-2000.0, -2000.0);
03:30:51:148;03:30:51:127;1448461845.92;(0, 0);0;0;03:30:51:148;0;10;-1.5;2.11801242236025;1.46627565982405;0;0;0;1;1;1;1;0;0;0;0;0;0;0;0;0;();(-2000.0, -2000.0);
03:30:51:181;03:30:51:163;1448461845.95;(0.2644247770309448, 0.20124409993489578);21.6097869873;0.746040423247;03:30:51:181;0;10;-1.5;1.93383742911153;1.36852394916911;0;0;0;1;1;1;1;0;0;0;0;0;0;0;0;0;();(-2000.0, -2000.0);
03:30:51:198;03:30:51:195;1448461845.99;(0.4600398540496826, 0.26363338894314237);52.3961868286;0.84405623495;03:30:51:198;0;4;-1.5;1.98640776699029;1.36852394916911;0;0;0;1;1;1;1;0;0;0;0;0;0;0;0;0;();(-2000.0, -2000.0);
03:30:51:215;03:30:51:195;1448461845.99;(0.4600398540496826, 0.26363338894314237);52.3961868286;0.84405623495;03:30:51:215;0;10;-1.5;2.14915966386555;1.46627565982405;0;0;0;1;1;1;1;0;0;0;0;0;0;0;0;0;();(-2000.0, -2000.0);
03:30:51:231;03:30:51:195;1448461845.99;(0.4600398540496826, 0.26363338894314237);52.3961868286;0.84405623495;03:30:51:231;0;5;-1.5;2.16279069767442;2.1505376344086;0;0;0;1;1;1;1;0;0;0;0;0;0;0;0;0;();(-2000.0, -2000.0);
03:30:51:248;03:30:51:231;1448461846.02;(0.4553861618041992, 0.27084905836317275);55.4731559753;1.0;03:30:51:248;0;10;-1.5;2.1006160164271;1.46627565982405;0;0;0;1;1;1;1;0;0;0;0;0;0;0;0;0;();(-2000.0, -2000.0);
03:30:51:283;03:30:51:263;1448461846.05;(0.4510998249053955, 0.2733263651529948);56.0599517822;1.0;03:30:51:283;0;9;-1.5;2.22391304347826;1.46627565982405;0;0;0;1;1;1;1;0;0;0;0;0;0;0;0;0;();(-2000.0, -2000.0);
03:30:51:299;03:30:51:295;1448461846.08;(0.446366024017334, 0.27452418009440105);56.1864395142;1.0;03:30:51:299;0;0;-1.5;2.22391304347826;1.46627565982405;0;0;0;1;1;1;1;0;0;0;0;0;0;0;0;0;();(-2000.0, -2000.0);
03:30:51:315;03:30:51:295;1448461846.08;(0.446366024017334, 0.27452418009440105);56.1864395142;1.0;03:30:51:315;0;10;-1.5;2.16279069767442;1.46627565982405;0;0;0;1;1;1;1;0;0;0;0;0;0;0;0;0;();(-2000.0, -2000.0);
03:30:51:334;03:30:51:331;1448461846.12;(0.4413877010345459, 0.2760641733805339);56.33852005;1.0;03:30:51:334;0;15;-1.5;2.20950323974082;1.46627565982405;0;0;0;1;1;1;1;0;0;0;0;0;0;0;0;0;();(-2000.0, -2000.0);
03:30:51:349;03:30:51:331;1448461846.12;(0.4413877010345459, 0.2760641733805339);56.33852005;1.0;03:30:51:349;0;9;-1.5;2.26829268292683;1.46627565982405;0;0;0;1;1;1;1;0;0;0;0;0;0;0;0;0;();(-2000.0, -2000.0);
03:30:51:366;03:30:51:363;1448461846.15;(0.4369415283203125, 0.2770320468478733);56.396736145;1.0;03:30:51:366;0;0;-1.5;2.16737288135593;1.46627565982405;0;0;0;1;1;1;1;0;0;0;0;0;0;0;0;0;();(-2000.0, -2000.0);
03:30:51:399;03:30:51:395;1448461846.18;(0.432932186126709, 0.2781607733832465);56.2605514526;1.0;03:30:51:399;0;15;-1.5;1.98640776699029;1.36852394916911;0;0;0;1;1;1;1;0;0;0;0;0;0;0;0;0;();(-2000.0, -2000.0);
03:30:51:416;03:30:51:395;1448461846.18;(0.432932186126709, 0.2781607733832465);56.2605514526;1.0;03:30:51:416;0;10;-1.5;2.0501002004008;1.46627565982405;0;0;0;1;1;1;1;0;0;0;0;0;0;0;0;0;();(-2000.0, -2000.0);
03:30:51:433;03:30:51:431;1448461846.22;(0.429327392578125, 0.27902942233615446);56.381652832;1.0;03:30:51:433;0;15;-1.5;1.97109826589595;1.36852394916911;0;0;0;1;1;1;1;0;0;0;0;0;0;0;0;0;();(-2000.0, -2000.0);
03:30:51:449;03:30:51:431;1448461846.22;(0.429327392578125, 0.27902942233615446);56.381652832;1.0;03:30:51:449;0;4;-1.5;2.14016736401674;1.46627565982405;0;0;0;1;1;1;1;0;0;0;0;0;0;0;0;0;();(-2000.0, -2000.0);
03:30:51:483;03:30:51:463;1448461846.25;(0.42566277980804446, 0.27993439568413625);56.7034721375;1.0;03:30:51:483;0;5;-1.5;2.20950323974082;1.46627565982405;0;0;0;1;1;1;1;0;0;0;0;0;0;0;0;0;();(-2000.0, -2000.0);
03:30:51:501;03:30:51:499;1448461846.28;(0.42795414924621583, 0.27569681803385415);53.6867523193;0.979623980577;03:30:51:501;0;15;-1.5;2.13125;1.66177908113392;0;0;0;1;1;1;1;0;0;0;0;0;0;0;0;0;();(-2000.0, -2000.0);
03:30:51:517;03:30:51:499;1448461846.28;(0.42795414924621583, 0.27569681803385415);53.6867523193;0.979623980577;03:30:51:517;0;4;-1.5;2.1006160164271;1.46627565982405;0;0;0;1;1;1;1;0;0;0;0;0;0;0;0;0;();(-2000.0, -2000.0);
03:30:51:533;03:30:51:531;1448461846.33;(0.4337848901748657, 0.25611987643771705);56.3273582458;1.0;03:30:51:533;0;15;-1.5;2.22391304347826;1.46627565982405;0;0;0;1;1;1;1;0;0;0;0;0;0;0;0;0;();(-2000.0, -2000.0);
03:30:51:550;03:30:51:531;1448461846.33;(0.4337848901748657, 0.25611987643771705);56.3273582458;1.0;03:30:51:550;0;5;-1.5;2.01377952755906;1.36852394916911;0;0;0;1;1;1;1;0;0;0;0;0;0;0;0;0;();(-2000.0, -2000.0);
03:30:51:567;03:30:51:563;1448461846.36;(0.43111453056335447, 0.25672132703993056);56.3712806702;1.0;03:30:51:567;0;9;-1.5;2.01377952755906;1.36852394916911;0;0;0;1;1;1;1;0;0;0;0;0;0;0;0;0;();(-2000.0, -2000.0);
03:30:51:600;03:30:51:563;1448461846.36;(0.43111453056335447, 0.25672132703993056);56.3712806702;1.0;03:30:51:600;0;9;-1.5;2.10493827160494;1.66177908113392;0;0;0;1;1;1;1;0;0;0;0;0;0;0;0;0;();(-2000.0, -2000.0);
03:30:51:617;03:30:51:600;1448461846.38;(0.429627799987793, 0.25709864298502605);56.7049484253;0.831681084214;03:30:51:617;0;15;-1.5;2.1006160164271;1.66177908113392;0;0;0;1;1;1;1;0;0;0;0;0;0;0;0;0;();(-2000.0, -2000.0);
03:30:51:634;03:30:51:631;1448461846.42;(0.4271839618682861, 0.2579494900173611);57.0468940735;1.0;03:30:51:634;0;10;-1.5;2.13125;1.46627565982405;0;0;0;1;1;1;1;0;0;0;0;0;0;0;0;0;();(-2000.0, -2000.0);
03:30:51:651;03:30:51:631;1448461846.42;(0.4271839618682861, 0.2579494900173611);57.0468940735;1.0;03:30:51:651;0;5;-1.5;2.24835164835165;1.46627565982405;0;0;0;1;1;1;1;0;0;0;0;0;0;0;0;0;();(-2000.0, -2000.0);
03:30:51:668;03:30:51:663;1448461846.45;(0.42605526447296144, 0.25828874376085065);57.3979873657;0.976690116016;03:30:51:668;0;10;-1.5;2.07085020242915;1.46627565982405;0;0;0;1;1;1;1;0;0;0;0;0;0;0;0;0;();(-2000.0, -2000.0);
03:30:51:702;03:30:51:701;1448461846.52;(0.4237858295440674, 0.258365970187717);57.2218322754;1.0;03:30:51:702;0;9;-1.5;2.13125;1.46627565982405;0;0;0;1;1;1;1;0;0;0;0;0;0;0;0;0;();(-2000.0, -2000.0);
03:30:51:719;03:30:51:701;1448461846.52;(0.4237858295440674, 0.258365970187717);57.2218322754;1.0;03:30:51:719;0;9;-1.5;2.13125;1.46627565982405;0;0;0;1;1;1;1;0;0;0;0;0;0;0;0;0;();(-2000.0, -2000.0);
03:30:51:735;03:30:51:701;1448461846.52;(0.4237858295440674, 0.258365970187717);57.2218322754;1.0;03:30:51:735;0;4;-1.5;2.1006160164271;1.46627565982405;0;0;0;1;1;1;1;0;0;0;0;0;0;0;0;0;();(-2000.0, -2000.0);
03:30:51:751;03:30:51:701;1448461846.52;(0.4237858295440674, 0.258365970187717);57.2218322754;1.0;03:30:51:751;0;15;-1.5;2.01377952755906;1.46627565982405;0;0;0;1;1;1;1;0;0;0;0;0;0;0;0;0;();(-2000.0, -2000.0);
03:30:51:769;03:30:51:763;1448461846.55;(0.4229423522949219, 0.2584139506022135);57.4232215881;1.0;03:30:51:769;0;10;-1.5;1.92655367231638;1.66177908113392;0;0;0;1;1;1;1;0;0;0;0;0;0;0;0;0;();(-2000.0, -2000.0);
03:30:51:802;03:30:51:800;1448461846.62;(0.42151169776916503, 0.2579996744791667);57.6125106812;1.0;03:30:51:802;0;5;-1.5;2.13125;1.46627565982405;0;0;0;1;1;1;1;0;0;0;0;0;0;0;0;0;();(-2000.0, -2000.0);
03:30:51:818;03:30:51:800;1448461846.62;(0.42151169776916503, 0.2579996744791667);57.6125106812;1.0;03:30:51:818;0;10;-1.5;2.24835164835165;1.85728250244379;0;0;0;1;1;1;1;0;0;0;0;0;0;0;0;0;();(-2000.0, -2000.0);
03:30:51:835;03:30:51:800;1448461846.62;(0.42151169776916503, 0.2579996744791667);57.6125106812;1.0;03:30:51:835;0;4;-1.5;2.325;1.66177908113392;0;0;0;1;1;1;1;0;0;0;0;0;0;0;0;0;();(-2000.0, -2000.0);
03:30:51:852;03:30:51:800;1448461846.62;(0.42151169776916503, 0.2579996744791667);57.6125106812;1.0;03:30:51:852;0;9;-1.5;2.325;1.66177908113392;0;0;0;1;1;1;1;0;0;0;0;0;0;0;0;0;();(-2000.0, -2000.0);
03:30:51:870;03:30:51:867;1448461846.65;(0.42057979106903076, 0.2580038282606337);57.6087265015;1.0;03:30:51:869;0;5;-1.5;2.20950323974082;1.46627565982405;0;0;0;1;1;1;1;0;0;0;0;0;0;0;0;0;();(-2000.0, -2000.0);
03:30:51:902;03:30:51:870;1448461846.68;(0.41992988586425783, 0.25785742865668404);57.5187644958;1.0;03:30:51:902;0;4;-1.5;2.24835164835165;1.85728250244379;0;0;0;1;1;1;1;0;0;0;0;0;0;0;0;0;();(-2000.0, -2000.0);
03:30:51:919;03:30:51:907;1448461846.72;(0.41924571990966797, 0.25790693495008676);57.5306625366;1.0;03:30:51:919;0;9;-1.5;2.27839643652561;1.46627565982405;0;0;0;1;1;1;1;0;0;0;0;0;0;0;0;0;();(-2000.0, -2000.0);
03:30:51:936;03:30:51:907;1448461846.72;(0.41924571990966797, 0.25790693495008676);57.5306625366;1.0;03:30:51:936;0;4;-1.5;2.1006160164271;1.46627565982405;0;0;0;1;1;1;1;0;0;0;0;0;0;0;0;0;();(-2000.0, -2000.0);
03:30:51:952;03:30:51:947;1448461846.75;(0.4196680307388306, 0.2590807596842448);57.3329544067;1.0;03:30:51:952;0;10;-1.5;2.16279069767442;1.46627565982405;0;0;0;1;1;1;1;0;0;0;0;0;0;0;0;0;();(-2000.0, -2000.0);
03:30:51:969;03:30:51:947;1448461846.75;(0.4196680307388306, 0.2590807596842448);57.3329544067;1.0;03:30:51:969;0;5;-1.5;1.998046875;1.46627565982405;0;0;0;1;1;1;1;0;0;0;0;0;0;0;0;0;();(-2000.0, -2000.0);
03:30:51:986;03:30:51:947;1448461846.75;(0.4196680307388306, 0.2590807596842448);57.3329544067;1.0;03:30:51:986;0;9;-1.5;2.0625;1.46627565982405;0;0;0;1;1;1;1;0;0;0;0;0;0;0;0;0;();(-2000.0, -2000.0);
03:30:52:020;03:30:51:991;1448461846.78;(0.42076687812805175, 0.2692178514268663);56.6402549744;1.0;03:30:52:020;0;5;-1.5;2.11801242236025;1.85728250244379;0;0;0;1;1;1;1;0;0;0;0;0;0;0;0;0;();(-2000.0, -2000.0);
03:30:52:036;03:30:52:031;1448461846.82;(0.4204662322998047, 0.2694216834174262);56.5051345825;0.971597519964;03:30:52:036;0;15;-1.5;2.19057815845824;1.46627565982405;0;0;0;1;1;1;1;0;0;0;0;0;0;0;0;0;();(-2000.0, -2000.0);
03:30:52:054;03:30:52:031;1448461846.82;(0.4204662322998047, 0.2694216834174262);56.5051345825;0.971597519964;03:30:52:054;0;4;-1.5;2.07926829268293;1.85728250244379;0;0;0;1;1;1;1;0;0;0;0;0;0;0;0;0;();(-2000.0, -2000.0);
03:30:52:070;03:30:52:031;1448461846.82;(0.4204662322998047, 0.2694216834174262);56.5051345825;0.971597519964;03:30:52:070;0;15;-1.5;2.12681912681913;1.46627565982405;0;0;0;1;1;1;1;0;0;0;0;0;0;0;0;0;();(-2000.0, -2000.0);
03:30:52:087;03:30:52:076;1448461846.88;(0.4251824617385864, 0.2705427381727431);55.9686050415;1.0;03:30:52:087;0;4;-1.5;2.27839643652561;1.46627565982405;0;0;0;1;1;1;1;0;0;0;0;0;0;0;0;0;();(-2000.0, -2000.0);
03:30:52:120;03:30:52:115;1448461846.92;(0.42592947483062743, 0.2707175784640842);55.675201416;1.0;03:30:52:120;0;10;-1.5;2.24835164835165;1.46627565982405;0;0;0;1;1;1;1;0;0;0;0;0;0;0;0;0;();(-2000.0, -2000.0);
03:30:52:137;03:30:52:115;1448461846.92;(0.42592947483062743, 0.2707175784640842);55.675201416;1.0;03:30:52:137;0;15;-1.5;2.1006160164271;1.46627565982405;0;0;0;1;1;1;1;0;0;0;0;0;0;0;0;0;();(-2000.0, -2000.0);
03:30:52:155;03:30:52:115;1448461846.92;(0.42592947483062743, 0.2707175784640842);55.675201416;1.0;03:30:52:155;0;4;-1.5;2.28348214285714;1.46627565982405;0;0;0;1;1;1;1;0;0;0;0;0;0;0;0;0;();(-2000.0, -2000.0);
03:30:52:199;03:30:52:156;1448461846.95;(0.4263153553009033, 0.2704922146267361);55.2588119507;1.0;03:30:52:199;0;15;-1.5;2.16737288135593;1.46627565982405;0;0;0;1;1;1;1;0;0;0;0;0;0;0;0;0;();(-2000.0, -2000.0);
03:30:52:206;03:30:52:199;1448461846.98;(0.4264026641845703, 0.27073576185438364);54.8336601257;1.0;03:30:52:206;0;10;-1.5;2.20950323974082;1.46627565982405;0;0;0;1;1;1;1;0;0;0;0;0;0;0;0;0;();(-2000.0, -2000.0);
03:30:52:211;03:30:52:199;1448461846.98;(0.4264026641845703, 0.27073576185438364);54.8336601257;1.0;03:30:52:211;0;10;-1.5;2.20950323974082;1.46627565982405;0;0;0;1;1;1;1;0;0;0;0;0;0;0;0;0;();(-2000.0, -2000.0);
03:30:52:239;03:30:52:199;1448461846.98;(0.4264026641845703, 0.27073576185438364);54.8336601257;1.0;03:30:52:239;0;9;-1.5;2.39018691588785;1.85728250244379;0;0;0;1;1;1;1;0;0;0;0;0;0;0;0;0;();(-2000.0, -2000.0);
03:30:52:255;03:30:52:239;1448461847.02;(0.42499580383300783, 0.26717982821994357);53.3176422119;0.985224572579;03:30:52:255;0;0;-1.5;2.325;1.66177908113392;0;0;0;1;1;1;1;0;0;0;0;0;0;0;0;0;();(-2000.0, -2000.0);
03:30:52:272;03:30:52:239;1448461847.02;(0.42499580383300783, 0.26717982821994357);53.3176422119;0.985224572579;03:30:52:272;0;10;-1.5;2.24835164835165;1.85728250244379;0;0;0;1;1;1;1;0;0;0;0;0;0;0;0;0;();(-2000.0, -2000.0);
03:30:52:289;03:30:52:280;1448461847.08;(0.3459102392196655, 0.8752065128750272);45.3785629272;0.616020199523;03:30:52:289;0;15;-1.5;2.20950323974082;1.46627565982405;0;0;0;1;1;1;1;0;0;0;0;0;0;0;0;0;();(-2000.0, -2000.0);
03:30:52:321;03:30:52:280;1448461847.08;(0.3459102392196655, 0.8752065128750272);45.3785629272;0.616020199523;03:30:52:321;0;4;-1.5;2.25330396475771;1.46627565982405;0;0;0;1;1;1;1;0;0;0;0;0;0;0;0;0;();(-2000.0, -2000.0);
03:30:52:339;03:30:52:324;1448461847.12;(0, 0);0;0;03:30:52:339;0;10;-1.5;2.30405405405405;1.66177908113392;0;0;0;1;1;1;1;0;0;0;0;0;0;0;0;0;();(-2000.0, -2000.0);
03:30:52:355;03:30:52:324;1448461847.12;(0, 0);0;0;03:30:52:355;0;15;-1.5;2.26829268292683;1.85728250244379;0;0;0;1;1;1;1;0;0;0;0;0;0;0;0;0;();(-2000.0, -2000.0);
03:30:52:372;03:30:52:363;1448461847.15;(0.3895650625228882, 0.30770284864637587);53.5085372925;0.661937536886;03:30:52:372;0;9;-1.5;2.35172413793103;1.66177908113392;0;0;0;1;1;1;1;0;0;0;0;0;0;0;0;0;();(-2000.0, -2000.0);
03:30:52:389;03:30:52:363;1448461847.15;(0.3895650625228882, 0.30770284864637587);53.5085372925;0.661937536886;03:30:52:389;0;15;-1.5;2.19057815845824;1.46627565982405;0;0;0;1;1;1;1;0;0;0;0;0;0;0;0;0;();(-2000.0, -2000.0);
03:30:52:422;03:30:52:408;1448461847.22;(0.38970625400543213, 0.31526480780707467);55.2753715515;1.0;03:30:52:422;0;0;-1.5;2.30405405405405;2.34604105571848;0;0;0;1;1;1;1;0;0;0;0;0;0;0;0;0;();(-2000.0, -2000.0);
03:30:52:439;03:30:52:408;1448461847.22;(0.38970625400543213, 0.31526480780707467);55.2753715515;1.0;03:30:52:439;0;10;-1.5;2.28348214285714;1.66177908113392;0;0;0;1;1;1;1;0;0;0;0;0;0;0;0;0;();(-2000.0, -2000.0);
03:30:52:456;03:30:52:447;1448461847.25;(0.3904406070709229, 0.31586871676974826);55.1770439148;1.0;03:30:52:456;0;15;-1.5;2.14915966386555;1.46627565982405;0;0;0;1;1;1;1;0;0;0;0;0;0;0;0;0;();(-2000.0, -2000.0);
03:30:52:472;03:30:52:447;1448461847.25;(0.3904406070709229, 0.31586871676974826);55.1770439148;1.0;03:30:52:472;0;4;-1.5;2.20950323974082;1.46627565982405;0;0;0;1;1;1;1;0;0;0;0;0;0;0;0;0;();(-2000.0, -2000.0);
03:30:52:490;03:30:52:487;1448461847.28;(0.3908677101135254, 0.31637488471137154);55.3942298889;1.0;03:30:52:490;0;0;-1.5;2.13125;1.66177908113392;0;0;0;1;1;1;1;0;0;0;0;0;0;0;0;0;();(-2000.0, -2000.0);
03:30:52:506;03:30:52:487;1448461847.28;(0.3908677101135254, 0.31637488471137154);55.3942298889;1.0;03:30:52:506;0;5;-1.5;2.1006160164271;1.85728250244379;0;0;0;1;1;1;1;0;0;0;0;0;0;0;0;0;();(-2000.0, -2000.0);
03:30:52:540;03:30:52:531;1448461847.32;(0.3912548065185547, 0.31687181260850694);55.6141777039;1.0;03:30:52:540;0;4;-1.5;2.28348214285714;2.34604105571848;0;0;0;1;1;1;1;0;0;0;0;0;0;0;0;0;();(-2000.0, -2000.0);
03:30:52:557;03:30:52:531;1448461847.32;(0.3912548065185547, 0.31687181260850694);55.6141777039;1.0;03:30:52:557;0;9;-1.5;2.28348214285714;1.66177908113392;0;0;0;1;1;1;1;0;0;0;0;0;0;0;0;0;();(-2000.0, -2000.0);
03:30:52:575;03:30:52:574;1448461847.38;(0.39091994762420657, 0.3207032097710504);55.4610786438;0.814180654283;03:30:52:575;0;0;-1.5;2.16737288135593;1.66177908113392;0;0;0;1;1;1;1;0;0;0;0;0;0;0;0;0;();(-2000.0, -2000.0);
03:30:52:590;03:30:52:574;1448461847.38;(0.39091994762420657, 0.3207032097710504);55.4610786438;0.814180654283;03:30:52:590;0;0;-1.5;2.16737288135593;1.66177908113392;0;0;0;1;1;1;1;0;0;0;0;0;0;0;0;0;();(-2000.0, -2000.0);
03:30:52:607;03:30:52:574;1448461847.38;(0.39091994762420657, 0.3207032097710504);55.4610786438;0.814180654283;03:30:52:607;0;5;-1.5;1.80105633802817;1.36852394916911;0;0;0;1;1;1;1;0;0;0;0;0;0;0;0;0;();(-2000.0, -2000.0);
03:30:52:640;03:30:52:611;1448461847.42;(0.3908683776855469, 0.3216620127360026);55.6737937927;1.0;03:30:52:640;0;4;-1.5;2.0297619047619;1.46627565982405;0;0;0;1;1;1;1;0;0;0;0;0;0;0;0;0;();(-2000.0, -2000.0);
03:30:52:657;03:30:52:655;1448461847.45;(0.39065139293670653, 0.3218558417426215);56.1900138855;1.0;03:30:52:657;0;9;-1.5;2.27839643652561;1.56402737047898;0;0;0;1;1;1;1;0;0;0;0;0;0;0;0;0;();(-2000.0, -2000.0);
03:30:52:675;03:30:52:655;1448461847.45;(0.39065139293670653, 0.3218558417426215);56.1900138855;1.0;03:30:52:675;0;15;-1.5;2.19057815845824;1.46627565982405;0;0;0;1;1;1;1;0;0;0;0;0;0;0;0;0;();(-2000.0, -2000.0);
03:30:52:690;03:30:52:655;1448461847.45;(0.39065139293670653, 0.3218558417426215);56.1900138855;1.0;03:30:52:690;0;13;-1.5;2.16737288135593;2.1505376344086;0;0;0;1;1;1;1;0;0;0;0;0;0;0;0;0;();(-2000.0, -2000.0);
03:30:52:707;03:30:52:695;1448461847.48;(0.39072954654693604, 0.3220913357204861);56.6941261292;1.0;03:30:52:707;0;15;-1.5;2.16737288135593;1.46627565982405;0;0;0;1;1;1;1;0;0;0;0;0;0;0;0;0;();(-2000.0, -2000.0);
03:30:52:742;03:30:52:739;1448461847.52;(0.39060029983520506, 0.32215114169650605);56.610534668;1.0;03:30:52:742;0;15;-1.5;2.19057815845824;1.46627565982405;0;0;0;1;1;1;1;0;0;0;0;0;0;0;0;0;();(-2000.0, -2000.0);
03:30:52:757;03:30:52:741;1448461847.55;(0.39055466651916504, 0.32228889465332033);56.7984352112;1.0;03:30:52:757;0;10;-1.5;2.0501002004008;1.46627565982405;0;0;0;1;1;1;1;0;0;0;0;0;0;0;0;0;();(-2000.0, -2000.0);
03:30:52:774;03:30:52:741;1448461847.55;(0.39055466651916504, 0.32228889465332033);56.7984352112;1.0;03:30:52:774;0;15;-1.5;2.01377952755906;1.46627565982405;0;0;0;1;1;1;1;0;0;0;0;0;0;0;0;0;();(-2000.0, -2000.0);
03:30:52:791;03:30:52:779;1448461847.58;(0.3905113697052002, 0.3219999525282118);57.1788673401;1.0;03:30:52:791;0;9;-1.5;2.1006160164271;1.46627565982405;0;0;0;1;1;1;1;0;0;0;0;0;0;0;0;0;();(-2000.0, -2000.0);
03:30:52:809;03:30:52:779;1448461847.58;(0.3905113697052002, 0.3219999525282118);57.1788673401;1.0;03:30:52:809;0;15;-1.5;2.01377952755906;1.46627565982405;0;0;0;1;1;1;1;0;0;0;0;0;0;0;0;0;();(-2000.0, -2000.0);
03:30:52:841;03:30:52:819;1448461847.62;(0.39052906036376955, 0.3223525577121311);57.2046012878;1.0;03:30:52:841;0;15;-1.5;1.97109826589595;1.46627565982405;0;0;0;1;1;1;1;0;0;0;0;0;0;0;0;0;();(-2000.0, -2000.0);
03:30:52:858;03:30:52:819;1448461847.62;(0.39052906036376955, 0.3223525577121311);57.2046012878;1.0;03:30:52:858;0;4;-1.5;1.93383742911153;1.36852394916911;0;0;0;1;1;1;1;0;0;0;0;0;0;0;0;0;();(-2000.0, -2000.0);
03:30:52:875;03:30:52:863;1448461847.65;(0.387943959236145, 0.32304912143283415);56.8248596191;1.0;03:30:52:875;0;15;-1.5;1.95229007633588;1.36852394916911;0;0;0;1;1;1;1;0;0;0;0;0;0;0;0;0;();(-2000.0, -2000.0);
03:30:52:892;03:30:52:863;1448461847.65;(0.387943959236145, 0.32304912143283415);56.8248596191;1.0;03:30:52:892;0;4;-1.5;1.98640776699029;1.36852394916911;0;0;0;1;1;1;1;0;0;0;0;0;0;0;0;0;();(-2000.0, -2000.0);
03:30:52:909;03:30:52:904;1448461847.72;(0.38780927658081055, 0.3238680097791884);56.7569618225;1.0;03:30:52:909;0;10;-1.5;1.97109826589595;1.36852394916911;0;0;0;1;1;1;1;0;0;0;0;0;0;0;0;0;();(-2000.0, -2000.0);
03:30:52:942;03:30:52:904;1448461847.72;(0.38780927658081055, 0.3238680097791884);56.7569618225;1.0;03:30:52:942;0;9;-1.5;2.24835164835165;1.46627565982405;0;0;0;1;1;1;1;0;0;0;0;0;0;0;0;0;();(-2000.0, -2000.0);
03:30:52:959;03:30:52:943;1448461847.75;(0.3875730514526367, 0.3237936655680339);56.6382484436;1.0;03:30:52:959;0;13;-1.5;2.27839643652561;1.66177908113392;0;0;0;1;1;1;1;0;0;0;0;0;0;0;0;0;();(-2000.0, -2000.0);
03:30:52:975;03:30:52:943;1448461847.75;(0.3875730514526367, 0.3237936655680339);56.6382484436;1.0;03:30:52:975;0;10;-1.5;2.41843971631206;1.85728250244379;0;0;0;1;1;1;1;0;0;0;0;0;0;0;0;0;();(-2000.0, -2000.0);
03:30:52:992;03:30:52:988;1448461847.78;(0.38726751804351806, 0.3241491105821398);56.5362205505;1.0;03:30:52:992;0;10;-1.5;2.41843971631206;1.85728250244379;0;0;0;1;1;1;1;0;0;0;0;0;0;0;0;0;();(-2000.0, -2000.0);
03:30:53:009;03:30:52:988;1448461847.78;(0.38726751804351806, 0.3241491105821398);56.5362205505;1.0;03:30:53:009;0;10;-1.5;2.19057815845824;1.85728250244379;0;0;0;1;1;1;1;0;0;0;0;0;0;0;0;0;();(-2000.0, -2000.0);
03:30:53:026;03:30:52:988;1448461847.78;(0.38726751804351806, 0.3241491105821398);56.5362205505;1.0;03:30:53:026;0;15;-1.5;2.19057815845824;1.46627565982405;0;0;0;1;1;1;1;0;0;0;0;0;0;0;0;0;();(-2000.0, -2000.0);
03:30:53:059;03:30:53:027;1448461847.82;(0.38712387084960936, 0.324194590250651);56.3710403442;1.0;03:30:53:059;0;0;-1.5;2.24835164835165;1.85728250244379;0;0;0;1;1;1;1;0;0;0;0;0;0;0;0;0;();(-2000.0, -2000.0);
03:30:53:076;03:30:53:068;1448461847.88;(0.3869990587234497, 0.32403564453125);56.4433670044;1.0;03:30:53:076;0;10;-1.5;2.24835164835165;1.46627565982405;0;0;0;1;1;1;1;0;0;0;0;0;0;0;0;0;();(-2000.0, -2000.0);
03:30:53:093;03:30:53:068;1448461847.88;(0.3869990587234497, 0.32403564453125);56.4433670044;1.0;03:30:53:093;0;15;-1.5;2.26829268292683;1.46627565982405;0;0;0;1;1;1;1;0;0;0;0;0;0;0;0;0;();(-2000.0, -2000.0);
03:30:53:110;03:30:53:068;1448461847.88;(0.3869990587234497, 0.32403564453125);56.4433670044;1.0;03:30:53:110;0;9;-1.5;2.33561643835616;1.85728250244379;0;0;0;1;1;1;1;0;0;0;0;0;0;0;0;0;();(-2000.0, -2000.0);
03:30:53:127;03:30:53:111;1448461847.92;(0.38684377670288084, 0.3238066779242621);56.2540969849;1.0;03:30:53:127;0;0;-1.5;2.30405405405405;1.85728250244379;0;0;0;1;1;1;1;0;0;0;0;0;0;0;0;0;();(-2000.0, -2000.0);
03:30:53:160;03:30:53:151;1448461847.95;(0.38697736263275145, 0.32383388943142366);56.198097229;1.0;03:30:53:160;0;15;-1.5;2.20950323974082;1.85728250244379;0;0;0;1;1;1;1;0;0;0;0;0;0;0;0;0;();(-2000.0, -2000.0);
03:30:53:177;03:30:53:151;1448461847.95;(0.38697736263275145, 0.32383388943142366);56.198097229;1.0;03:30:53:177;0;4;-1.5;2.20950323974082;1.46627565982405;0;0;0;1;1;1;1;0;0;0;0;0;0;0;0;0;();(-2000.0, -2000.0);
03:30:53:193;03:30:53:151;1448461847.95;(0.38697736263275145, 0.32383388943142366);56.198097229;1.0;03:30:53:193;0;15;-1.5;2.24835164835165;1.46627565982405;0;0;0;1;1;1;1;0;0;0;0;0;0;0;0;0;();(-2000.0, -2000.0);
03:30:53:210;03:30:53:195;1448461847.98;(0.38690178394317626, 0.32379938761393234);56.2359848022;1.0;03:30:53:210;0;4;-1.5;2.20950323974082;1.46627565982405;0;0;0;1;1;1;1;0;0;0;0;0;0;0;0;0;();(-2000.0, -2000.0);
03:30:53:227;03:30:53:195;1448461847.98;(0.38690178394317626, 0.32379938761393234);56.2359848022;1.0;03:30:53:227;0;10;-1.5;2.24835164835165;2.34604105571848;0;0;0;1;1;1;1;0;0;0;0;0;0;0;0;0;();(-2000.0, -2000.0);
03:30:53:260;03:30:53:236;1448461848.05;(0.3867270708084106, 0.32401110331217453);55.8180389404;1.0;03:30:53:260;0;9;-1.5;2.13125;1.66177908113392;0;0;0;1;1;1;1;0;0;0;0;0;0;0;0;0;();(-2000.0, -2000.0);
03:30:53:277;03:30:53:275;1448461848.08;(0.3870004415512085, 0.32394544813368054);55.7259140015;1.0;03:30:53:277;0;4;-1.5;2.19057815845824;1.46627565982405;0;0;0;1;1;1;1;0;0;0;0;0;0;0;0;0;();(-2000.0, -2000.0);
03:30:53:294;03:30:53:275;1448461848.08;(0.3870004415512085, 0.32394544813368054);55.7259140015;1.0;03:30:53:294;0;15;-1.5;2.19057815845824;1.46627565982405;0;0;0;1;1;1;1;0;0;0;0;0;0;0;0;0;();(-2000.0, -2000.0);
03:30:53:311;03:30:53:275;1448461848.08;(0.3870004415512085, 0.32394544813368054);55.7259140015;1.0;03:30:53:311;0;5;-1.5;2.13125;1.95503421309873;0;0;0;1;1;1;1;0;0;0;0;0;0;0;0;0;();(-2000.0, -2000.0);
03:30:53:329;03:30:53:319;1448461848.12;(0.40021939277648927, 0.3182110256618924);55.4920578003;1.0;03:30:53:329;0;10;-1.5;2.00195694716243;1.46627565982405;0;0;0;1;1;1;1;0;0;0;0;0;0;0;0;0;();(-2000.0, -2000.0);
03:30:53:361;03:30:53:359;1448461848.15;(0.4001107454299927, 0.31824086507161453);55.5371284485;1.0;03:30:53:361;0;9;-1.5;1.61867088607595;1.17302052785924;0;0;0;1;1;1;1;0;0;0;0;0;0;0;0;0;();(-2000.0, -2000.0);
03:30:53:378;03:30:53:359;1448461848.15;(0.4001107454299927, 0.31824086507161453);55.5371284485;1.0;03:30:53:378;0;4;-1.5;1.94117647058824;1.36852394916911;0;0;0;1;1;1;1;0;0;0;0;0;0;0;0;0;();(-2000.0, -2000.0);
03:30:53:395;03:30:53:359;1448461848.15;(0.4001107454299927, 0.31824086507161453);55.5371284485;1.0;03:30:53:395;0;10;-1.5;2.19057815845824;1.46627565982405;0;0;0;1;1;1;1;0;0;0;0;0;0;0;0;0;();(-2000.0, -2000.0);
03:30:53:412;03:30:53:399;1448461848.18;(0.39988367557525634, 0.3184765285915798);55.3273200989;1.0;03:30:53:412;0;0;-1.5;2.24835164835165;1.85728250244379;0;0;0;1;1;1;1;0;0;0;0;0;0;0;0;0;();(-2000.0, -2000.0);
03:30:53:428;03:30:53:399;1448461848.18;(0.39988367557525634, 0.3184765285915798);55.3273200989;1.0;03:30:53:428;0;9;-1.5;2.21428571428571;2.1505376344086;0;0;0;1;1;1;1;0;0;0;0;0;0;0;0;0;();(-2000.0, -2000.0);
03:30:53:462;03:30:53:444;1448461848.25;(0.39971773624420165, 0.31886804368760846);55.1676254272;1.0;03:30:53:462;0;4;-1.5;2.16737288135593;1.46627565982405;0;0;0;1;1;1;1;0;0;0;0;0;0;0;0;0;();(-2000.0, -2000.0);
03:30:53:478;03:30:53:444;1448461848.25;(0.39971773624420165, 0.31886804368760846);55.1676254272;1.0;03:30:53:478;0;5;-1.5;2.14915966386555;1.46627565982405;0;0;0;1;1;1;1;0;0;0;0;0;0;0;0;0;();(-2000.0, -2000.0);
03:30:53:497;03:30:53:483;1448461848.28;(0.39949426651000974, 0.3188260820176866);55.2901954651;1.0;03:30:53:497;0;4;-1.5;2.07926829268293;1.46627565982405;0;0;0;1;1;1;1;0;0;0;0;0;0;0;0;0;();(-2000.0, -2000.0);
03:30:53:512;03:30:53:483;1448461848.28;(0.39949426651000974, 0.3188260820176866);55.2901954651;1.0;03:30:53:512;0;10;-1.5;2.11801242236025;1.46627565982405;0;0;0;1;1;1;1;0;0;0;0;0;0;0;0;0;();(-2000.0, -2000.0);
03:30:53:529;03:30:53:523;1448461848.32;(0.3995628356933594, 0.3185884687635634);55.3635253906;1.0;03:30:53:529;0;5;-1.5;2.00195694716243;1.46627565982405;0;0;0;1;1;1;1;0;0;0;0;0;0;0;0;0;();(-2000.0, -2000.0);
03:30:53:562;03:30:53:523;1448461848.32;(0.3995628356933594, 0.3185884687635634);55.3635253906;1.0;03:30:53:562;0;4;-1.5;2.13125;1.46627565982405;0;0;0;1;1;1;1;0;0;0;0;0;0;0;0;0;();(-2000.0, -2000.0);
03:30:53:579;03:30:53:568;1448461848.38;(0.39923264980316164, 0.31898833380805125);55.403755188;1.0;03:30:53:579;0;0;-1.5;2.0625;1.46627565982405;0;0;0;1;1;1;1;0;0;0;0;0;0;0;0;0;();(-2000.0, -2000.0);
03:30:53:596;03:30:53:568;1448461848.38;(0.39923264980316164, 0.31898833380805125);55.403755188;1.0;03:30:53:596;0;4;-1.5;1.92293233082707;1.36852394916911;0;0;0;1;1;1;1;0;0;0;0;0;0;0;0;0;();(-2000.0, -2000.0);
03:30:53:613;03:30:53:607;1448461848.42;(0.3992757320404053, 0.31912108527289496);55.3678245544;1.0;03:30:53:613;0;10;-1.5;1.97109826589595;1.36852394916911;0;0;0;1;1;1;1;0;0;0;0;0;0;0;0;0;();(-2000.0, -2000.0);
03:30:53:630;03:30:53:607;1448461848.42;(0.3992757320404053, 0.31912108527289496);55.3678245544;1.0;03:30:53:630;0;5;-1.5;1.90858208955224;1.46627565982405;0;0;0;1;1;1;1;0;0;0;0;0;0;0;0;0;();(-2000.0, -2000.0);
03:30:53:646;03:30:53:607;1448461848.42;(0.3992757320404053, 0.31912108527289496);55.3678245544;1.0;03:30:53:646;0;10;-1.5;2.00588235294118;1.36852394916911;0;0;0;1;1;1;1;0;0;0;0;0;0;0;0;0;();(-2000.0, -2000.0);
03:30:53:680;03:30:53:607;1448461848.42;(0.3992757320404053, 0.31912108527289496);55.3678245544;1.0;03:30:53:680;0;10;-1.5;2.28348214285714;1.85728250244379;0;0;0;1;1;1;1;0;0;0;0;0;0;0;0;0;();(-2000.0, -2000.0);
03:30:53:697;03:30:53:607;1448461848.42;(0.3992757320404053, 0.31912108527289496);55.3678245544;1.0;03:30:53:696;0;4;-1.5;2.10493827160494;1.66177908113392;0;0;0;1;1;1;1;0;0;0;0;0;0;0;0;0;();(-2000.0, -2000.0);
03:30:53:713;03:30:53:607;1448461848.42;(0.3992757320404053, 0.31912108527289496);55.3678245544;1.0;03:30:53:713;0;10;-1.5;2.11801242236025;1.85728250244379;0;0;0;1;1;1;1;0;0;0;0;0;0;0;0;0;();(-2000.0, -2000.0);
03:30:53:730;03:30:53:607;1448461848.42;(0.3992757320404053, 0.31912108527289496);55.3678245544;1.0;03:30:53:730;0;15;-1.5;2.28348214285714;2.34604105571848;0;0;0;1;1;1;1;0;0;0;0;0;0;0;0;0;();(-2000.0, -2000.0);
03:30:53:747;03:30:53:731;1448461848.45;(0.4124354362487793, 0.30355250040690107);57.8301620483;0.928500772672;03:30:53:747;0;9;-1.5;2.325;1.66177908113392;0;0;0;1;1;1;1;0;0;0;0;0;0;0;0;0;();(-2000.0, -2000.0);
03:30:53:781;03:30:53:777;1448461848.58;(0.4232886791229248, 0.26515757242838545);55.4477233887;1.0;03:30:53:781;0;9;-1.5;2.47101449275362;1.85728250244379;0;0;0;1;1;1;1;0;0;0;0;0;0;0;0;0;();(-2000.0, -2000.0);
03:30:53:797;03:30:53:777;1448461848.58;(0.4232886791229248, 0.26515757242838545);55.4477233887;1.0;03:30:53:797;0;15;-1.5;2.40705882352941;1.66177908113392;0;0;0;1;1;1;1;0;0;0;0;0;0;0;0;0;();(-2000.0, -2000.0);
03:30:53:814;03:30:53:777;1448461848.58;(0.4232886791229248, 0.26515757242838545);55.4477233887;1.0;03:30:53:814;0;10;-1.5;2.36805555555556;2.1505376344086;0;0;0;1;1;1;1;0;0;0;0;0;0;0;0;0;();(-2000.0, -2000.0);
03:30:53:831;03:30:53:815;1448461848.62;(0.4232125520706177, 0.26528358459472656);55.4585647583;1.0;03:30:53:831;0;15;-1.5;2.27839643652561;1.46627565982405;0;0;0;1;1;1;1;0;0;0;0;0;0;0;0;0;();(-2000.0, -2000.0);
03:30:53:847;03:30:53:815;1448461848.62;(0.4232125520706177, 0.26528358459472656);55.4585647583;1.0;03:30:53:847;0;10;-1.5;2.35172413793103;1.85728250244379;0;0;0;1;1;1;1;0;0;0;0;0;0;0;0;0;();(-2000.0, -2000.0);
03:30:53:881;03:30:53:859;1448461848.65;(0.42315447330474854, 0.26545427110460074);55.2846336365;1.0;03:30:53:881;0;10;-1.5;2.41843971631206;1.66177908113392;0;0;0;1;1;1;1;0;0;0;0;0;0;0;0;0;();(-2000.0, -2000.0);
03:30:53:898;03:30:53:859;1448461848.65;(0.42315447330474854, 0.26545427110460074);55.2846336365;1.0;03:30:53:898;0;15;-1.5;2.36805555555556;1.66177908113392;0;0;0;1;1;1;1;0;0;0;0;0;0;0;0;0;();(-2000.0, -2000.0);
03:30:53:915;03:30:53:902;1448461848.72;(0.42312054634094237, 0.2663116878933377);54.7626457214;1.0;03:30:53:915;0;4;-1.5;2.24835164835165;1.46627565982405;0;0;0;1;1;1;1;0;0;0;0;0;0;0;0;0;();(-2000.0, -2000.0);
03:30:53:931;03:30:53:902;1448461848.72;(0.42312054634094237, 0.2663116878933377);54.7626457214;1.0;03:30:53:931;0;15;-1.5;2.28348214285714;1.56402737047898;0;0;0;1;1;1;1;0;0;0;0;0;0;0;0;0;();(-2000.0, -2000.0);
03:30:53:948;03:30:53:939;1448461848.75;(0.423091459274292, 0.2666692097981771);54.4419441223;1.0;03:30:53:948;0;5;-1.5;2.27839643652561;1.85728250244379;0;0;0;1;1;1;1;0;0;0;0;0;0;0;0;0;();(-2000.0, -2000.0);
03:30:53:982;03:30:53:939;1448461848.75;(0.423091459274292, 0.2666692097981771);54.4419441223;1.0;03:30:53:982;0;4;-1.5;2.40705882352941;2.1505376344086;0;0;0;1;1;1;1;0;0;0;0;0;0;0;0;0;();(-2000.0, -2000.0);
03:30:53:998;03:30:53:984;1448461848.78;(0.42130365371704104, 0.25961456298828123);53.9034118652;1.0;03:30:53:998;0;9;-1.5;2.36805555555556;1.66177908113392;0;0;0;1;1;1;1;0;0;0;0;0;0;0;0;0;();(-2000.0, -2000.0);
03:30:54:017;03:30:53:984;1448461848.78;(0.42130365371704104, 0.25961456298828123);53.9034118652;1.0;03:30:54:017;0;4;-1.5;2.20950323974082;1.46627565982405;0;0;0;1;1;1;1;0;0;0;0;0;0;0;0;0;();(-2000.0, -2000.0);
03:30:54:032;03:30:53:984;1448461848.78;(0.42130365371704104, 0.25961456298828123);53.9034118652;1.0;03:30:54:032;0;10;-1.5;2.20950323974082;1.85728250244379;0;0;0;1;1;1;1;0;0;0;0;0;0;0;0;0;();(-2000.0, -2000.0);
03:30:54:049;03:30:53:984;1448461848.78;(0.42130365371704104, 0.25961456298828123);53.9034118652;1.0;03:30:54:049;0;15;-1.5;2.19057815845824;1.46627565982405;0;0;0;1;1;1;1;0;0;0;0;0;0;0;0;0;();(-2000.0, -2000.0);
03:30:54:082;03:30:54:064;1448461848.85;(0.4207961082458496, 0.2594818962944878);53.3137741089;1.0;03:30:54:082;0;0;-1.5;1.88397790055249;1.17302052785924;0;0;0;1;1;1;1;0;0;0;0;0;0;0;0;0;();(-2000.0, -2000.0);
03:30:54:099;03:30:54:064;1448461848.85;(0.4207961082458496, 0.2594818962944878);53.3137741089;1.0;03:30:54:099;0;10;-1.5;1.67430441898527;1.17302052785924;0;0;0;1;1;1;1;0;0;0;0;0;0;0;0;0;();(-2000.0, -2000.0);
03:30:54:116;03:30:54:108;1448461848.92;(0.42061195373535154, 0.2598008049858941);53.0081443787;1.0;03:30:54:116;0;5;-1.5;1.52459016393443;0.684261974584555;0;0;0;1;1;1;1;0;0;0;0;0;0;0;0;0;();(-2000.0, -2000.0);
03:30:54:133;03:30:54:108;1448461848.92;(0.42061195373535154, 0.2598008049858941);53.0081443787;1.0;03:30:54:133;0;10;-1.5;2.07926829268293;1.46627565982405;0;0;0;1;1;1;1;0;0;0;0;0;0;0;0;0;();(-2000.0, -2000.0);
03:30:54:150;03:30:54:148;1448461848.95;(0.4206916093826294, 0.25990447998046873);52.970413208;1.0;03:30:54:150;0;15;-1.5;2.17659574468085;1.85728250244379;0;0;0;1;1;1;1;0;0;0;0;0;0;0;0;0;();(-2000.0, -2000.0);
03:30:54:167;03:30:54:148;1448461848.95;(0.4206916093826294, 0.25990447998046873);52.970413208;1.0;03:30:54:167;0;4;-1.5;2.11801242236025;1.46627565982405;0;0;0;1;1;1;1;0;0;0;0;0;0;0;0;0;();(-2000.0, -2000.0);
03:30:54:200;03:30:54:187;1448461848.98;(0.4205413818359375, 0.2602998521592882);52.9063987732;1.0;03:30:54:200;0;5;-1.5;2.0625;1.46627565982405;0;0;0;1;1;1;1;0;0;0;0;0;0;0;0;0;();(-2000.0, -2000.0);
03:30:54:216;03:30:54:187;1448461848.98;(0.4205413818359375, 0.2602998521592882);52.9063987732;1.0;03:30:54:216;0;15;-1.5;2.00195694716243;1.85728250244379;0;0;0;1;1;1;1;0;0;0;0;0;0;0;0;0;();(-2000.0, -2000.0);
03:30:54:233;03:30:54:231;1448461849.02;(0.42054042816162107, 0.26072828504774304);53.0868721008;1.0;03:30:54:233;0;4;-1.5;2.0297619047619;1.46627565982405;0;0;0;1;1;1;1;0;0;0;0;0;0;0;0;0;();(-2000.0, -2000.0);
03:30:54:250;03:30:54:231;1448461849.02;(0.42054042816162107, 0.26072828504774304);53.0868721008;1.0;03:30:54:250;0;15;-1.5;2.11801242236025;1.46627565982405;0;0;0;1;1;1;1;0;0;0;0;0;0;0;0;0;();(-2000.0, -2000.0);
03:30:54:267;03:30:54:231;1448461849.02;(0.42054042816162107, 0.26072828504774304);53.0868721008;1.0;03:30:54:267;0;9;-1.5;1.97109826589595;1.36852394916911;0;0;0;1;1;1;1;0;0;0;0;0;0;0;0;0;();(-2000.0, -2000.0);
03:30:54:300;03:30:54:272;1448461849.08;(0.42043607234954833, 0.26059078640407984);53.243106842;1.0;03:30:54:300;0;4;-1.5;2.0625;1.46627565982405;0;0;0;1;1;1;1;0;0;0;0;0;0;0;0;0;();(-2000.0, -2000.0);
03:30:54:318;03:30:54:315;1448461849.12;(0.4202371120452881, 0.26086942884657116);53.630153656;1.0;03:30:54:318;0;15;-1.5;2.03784860557769;1.46627565982405;0;0;0;1;1;1;1;0;0;0;0;0;0;0;0;0;();(-2000.0, -2000.0);
03:30:54:334;03:30:54:315;1448461849.12;(0.4202371120452881, 0.26086942884657116);53.630153656;1.0;03:30:54:334;0;4;-1.5;2.00195694716243;1.46627565982405;0;0;0;1;1;1;1;0;0;0;0;0;0;0;0;0;();(-2000.0, -2000.0);
03:30:54:350;03:30:54:315;1448461849.12;(0.4202371120452881, 0.26086942884657116);53.630153656;1.0;03:30:54:350;0;10;-1.5;2.13125;1.46627565982405;0;0;0;1;1;1;1;0;0;0;0;0;0;0;0;0;();(-2000.0, -2000.0);
03:30:54:367;03:30:54:355;1448461849.15;(0.42013704776763916, 0.2613542768690321);53.6925125122;1.0;03:30:54:367;0;5;-1.5;2.24835164835165;1.46627565982405;0;0;0;1;1;1;1;0;0;0;0;0;0;0;0;0;();(-2000.0, -2000.0);
03:30:54:401;03:30:54:395;1448461849.18;(0.420287036895752, 0.26153034634060335);53.9686431885;1.0;03:30:54:401;0;4;-1.5;2.30405405405405;1.66177908113392;0;0;0;1;1;1;1;0;0;0;0;0;0;0;0;0;();(-2000.0, -2000.0);
03:30:54:418;03:30:54:395;1448461849.18;(0.420287036895752, 0.26153034634060335);53.9686431885;1.0;03:30:54:418;0;9;-1.5;2.35172413793103;1.66177908113392;0;0;0;1;1;1;1;0;0;0;0;0;0;0;0;0;();(-2000.0, -2000.0);
03:30:54:435;03:30:54:395;1448461849.18;(0.420287036895752, 0.26153034634060335);53.9686431885;1.0;03:30:54:435;0;0;-1.5;2.46506024096386;1.85728250244379;0;0;0;1;1;1;1;0;0;0;0;0;0;0;0;0;();(-2000.0, -2000.0);
03:30:54:451;03:30:54:395;1448461849.18;(0.420287036895752, 0.26153034634060335);53.9686431885;1.0;03:30:54:451;0;10;-1.5;2.28348214285714;1.85728250244379;0;0;0;1;1;1;1;0;0;0;0;0;0;0;0;0;();(-2000.0, -2000.0);
03:30:54:469;03:30:54:395;1448461849.18;(0.420287036895752, 0.26153034634060335);53.9686431885;1.0;03:30:54:469;0;15;-1.5;2.24835164835165;1.46627565982405;0;0;0;1;1;1;1;0;0;0;0;0;0;0;0;0;();(-2000.0, -2000.0);
03:30:54:501;03:30:54:395;1448461849.18;(0.420287036895752, 0.26153034634060335);53.9686431885;1.0;03:30:54:501;0;0;-1.5;2.26829268292683;1.46627565982405;0;0;0;1;1;1;1;0;0;0;0;0;0;0;0;0;();(-2000.0, -2000.0);
03:30:54:519;03:30:54:395;1448461849.18;(0.420287036895752, 0.26153034634060335);53.9686431885;1.0;03:30:54:519;0;5;-1.5;2.16737288135593;1.46627565982405;0;0;0;1;1;1;1;0;0;0;0;0;0;0;0;0;();(-2000.0, -2000.0);
03:30:54:535;03:30:54:519;1448461849.22;(0.41689608097076414, 0.2590376112196181);53.3610153198;1.0;03:30:54:535;0;0;-1.5;2.24835164835165;1.46627565982405;0;0;0;1;1;1;1;0;0;0;0;0;0;0;0;0;();(-2000.0, -2000.0);
03:30:54:552;03:30:54:519;1448461849.22;(0.41689608097076414, 0.2590376112196181);53.3610153198;1.0;03:30:54:552;0;4;-1.5;2.10493827160494;1.46627565982405;0;0;0;1;1;1;1;0;0;0;0;0;0;0;0;0;();(-2000.0, -2000.0);
03:30:54:568;03:30:54:564;1448461849.38;(0.3913228511810303, 0.2468787299262153);57.272228241;1.0;03:30:54:568;0;0;-1.5;2.36805555555556;2.1505376344086;0;0;0;1;1;1;1;0;0;0;0;0;0;0;0;0;();(-2000.0, -2000.0);
03:30:54:602;03:30:54:564;1448461849.38;(0.3913228511810303, 0.2468787299262153);57.272228241;1.0;03:30:54:602;0;15;-1.5;2.26829268292683;1.85728250244379;0;0;0;1;1;1;1;0;0;0;0;0;0;0;0;0;();(-2000.0, -2000.0);
03:30:54:619;03:30:54:606;1448461849.42;(0.3911632299423218, 0.2472402784559462);57.769985199;1.0;03:30:54:619;0;4;-1.5;2.13125;1.46627565982405;0;0;0;1;1;1;1;0;0;0;0;0;0;0;0;0;();(-2000.0, -2000.0);
03:30:54:636;03:30:54:606;1448461849.42;(0.3911632299423218, 0.2472402784559462);57.769985199;1.0;03:30:54:636;0;15;-1.5;2.22391304347826;1.46627565982405;0;0;0;1;1;1;1;0;0;0;0;0;0;0;0;0;();(-2000.0, -2000.0);
03:30:54:652;03:30:54:606;1448461849.42;(0.3911632299423218, 0.2472402784559462);57.769985199;1.0;03:30:54:652;0;4;-1.5;2.20950323974082;1.46627565982405;0;0;0;1;1;1;1;0;0;0;0;0;0;0;0;0;();(-2000.0, -2000.0);
03:30:54:669;03:30:54:606;1448461849.42;(0.3911632299423218, 0.2472402784559462);57.769985199;1.0;03:30:54:669;0;0;-1.5;2.28348214285714;1.85728250244379;0;0;0;1;1;1;1;0;0;0;0;0;0;0;0;0;();(-2000.0, -2000.0);
03:30:54:686;03:30:54:606;1448461849.42;(0.3911632299423218, 0.2472402784559462);57.769985199;1.0;03:30:54:686;0;5;-1.5;2.36805555555556;1.66177908113392;0;0;0;1;1;1;1;0;0;0;0;0;0;0;0;0;();(-2000.0, -2000.0);
03:30:54:720;03:30:54:606;1448461849.42;(0.3911632299423218, 0.2472402784559462);57.769985199;1.0;03:30:54:720;0;4;-1.5;2.20950323974082;2.1505376344086;0;0;0;1;1;1;1;0;0;0;0;0;0;0;0;0;();(-2000.0, -2000.0);
03:30:54:736;03:30:54:727;1448461849.45;(0.3858994245529175, 0.24813266330295136);57.4678001404;1.0;03:30:54:736;0;9;-1.5;2.24835164835165;1.46627565982405;0;0;0;1;1;1;1;0;0;0;0;0;0;0;0;0;();(-2000.0, -2000.0);
03:30:54:755;03:30:54:727;1448461849.45;(0.3858994245529175, 0.24813266330295136);57.4678001404;1.0;03:30:54:755;0;15;-1.5;2.22391304347826;1.46627565982405;0;0;0;1;1;1;1;0;0;0;0;0;0;0;0;0;();(-2000.0, -2000.0);
03:30:54:770;03:30:54:727;1448461849.45;(0.3858994245529175, 0.24813266330295136);57.4678001404;1.0;03:30:54:770;0;9;-1.5;2.0501002004008;1.46627565982405;0;0;0;1;1;1;1;0;0;0;0;0;0;0;0;0;();(-2000.0, -2000.0);
03:30:54:787;03:30:54:775;1448461849.56;(0.3759350299835205, 0.2508240593804254);59.5375976562;1.0;03:30:54:787;0;15;-1.5;2.00588235294118;1.46627565982405;0;0;0;1;1;1;1;0;0;0;0;0;0;0;0;0;();(-2000.0, -2000.0);
03:30:54:820;03:30:54:811;1448461849.6;(0.3759149551391602, 0.2513168334960938);59.9645309448;1.0;03:30:54:820;0;0;-1.5;2.13125;1.46627565982405;0;0;0;1;1;1;1;0;0;0;0;0;0;0;0;0;();(-2000.0, -2000.0);
03:30:54:837;03:30:54:811;1448461849.6;(0.3759149551391602, 0.2513168334960938);59.9645309448;1.0;03:30:54:837;0;10;-1.5;2.14915966386555;1.46627565982405;0;0;0;1;1;1;1;0;0;0;0;0;0;0;0;0;();(-2000.0, -2000.0);
03:30:54:855;03:30:54:853;1448461849.65;(0.2275312900543213, 0.3395801544189453);16.7735271454;0.881847807857;03:30:54:855;0;15;-1.5;2.24835164835165;2.34604105571848;0;0;0;1;1;1;1;0;0;0;0;0;0;0;0;0;();(-2000.0, -2000.0);
03:30:54:870;03:30:54:853;1448461849.65;(0.2275312900543213, 0.3395801544189453);16.7735271454;0.881847807857;03:30:54:870;0;4;-1.5;1.97109826589595;1.46627565982405;0;0;0;1;1;1;1;0;0;0;0;0;0;0;0;0;();(-2000.0, -2000.0);
03:30:54:887;03:30:54:853;1448461849.65;(0.2275312900543213, 0.3395801544189453);16.7735271454;0.881847807857;03:30:54:887;0;0;-1.5;1.85662431941924;1.46627565982405;0;0;0;1;1;1;1;0;0;0;0;0;0;0;0;0;();(-2000.0, -2000.0);
03:30:54:921;03:30:54:895;1448461849.68;(0.22736678123474122, 0.33960923088921446);16.4800243378;1.0;03:30:54:921;0;15;-1.5;2.0297619047619;1.17302052785924;0;0;0;1;1;1;1;0;0;0;0;0;0;0;0;0;();(-2000.0, -2000.0);
03:30:54:938;03:30:54:936;1448461849.75;(0.227381432056427, 0.34056845770941835);17.9156398773;1.0;03:30:54:938;0;4;-1.5;2.28348214285714;2.34604105571848;0;0;0;1;1;1;1;0;0;0;0;0;0;0;0;0;();(-2000.0, -2000.0);
03:30:54:954;03:30:54:936;1448461849.75;(0.227381432056427, 0.34056845770941835);17.9156398773;1.0;03:30:54:954;0;15;-1.5;2.28348214285714;1.56402737047898;0;0;0;1;1;1;1;0;0;0;0;0;0;0;0;0;();(-2000.0, -2000.0);
03:30:54:971;03:30:54:936;1448461849.75;(0.227381432056427, 0.34056845770941835);17.9156398773;1.0;03:30:54:971;0;5;-1.5;2.28348214285714;1.66177908113392;0;0;0;1;1;1;1;0;0;0;0;0;0;0;0;0;();(-2000.0, -2000.0);
03:30:54:988;03:30:54:975;1448461849.78;(0.22686853408813476, 0.34095836215549047);18.4992198944;1.0;03:30:54:988;0;10;-1.5;2.24835164835165;1.46627565982405;0;0;0;1;1;1;1;0;0;0;0;0;0;0;0;0;();(-2000.0, -2000.0);
03:30:55:021;03:30:55:015;1448461849.82;(0.3652780771255493, 0.2596961975097656);60.7442398071;1.0;03:30:55:021;0;15;-1.5;2.325;1.66177908113392;0;0;0;1;1;1;1;0;0;0;0;0;0;0;0;0;();(-2000.0, -2000.0);
03:30:55:038;03:30:55:015;1448461849.82;(0.3652780771255493, 0.2596961975097656);60.7442398071;1.0;03:30:55:038;0;4;-1.5;2.24835164835165;1.46627565982405;0;0;0;1;1;1;1;0;0;0;0;0;0;0;0;0;();(-2000.0, -2000.0);
03:30:55:055;03:30:55:015;1448461849.82;(0.3652780771255493, 0.2596961975097656);60.7442398071;1.0;03:30:55:055;0;9;-1.5;2.19057815845824;1.85728250244379;0;0;0;1;1;1;1;0;0;0;0;0;0;0;0;0;();(-2000.0, -2000.0);
03:30:55:071;03:30:55:060;1448461849.85;(0.3651718616485596, 0.25959633721245656);60.6941261292;1.0;03:30:55:071;0;5;-1.5;2.0625;1.46627565982405;0;0;0;1;1;1;1;0;0;0;0;0;0;0;0;0;();(-2000.0, -2000.0);
03:30:55:088;03:30:55:060;1448461849.85;(0.3651718616485596, 0.25959633721245656);60.6941261292;1.0;03:30:55:088;0;10;-1.5;1.97109826589595;1.46627565982405;0;0;0;1;1;1;1;0;0;0;0;0;0;0;0;0;();(-2000.0, -2000.0);
03:30:55:122;03:30:55:104;1448461849.92;(0.3648559093475342, 0.26019015842013893);60.9653968811;1.0;03:30:55:122;0;10;-1.5;2.16737288135593;1.46627565982405;0;0;0;1;1;1;1;0;0;0;0;0;0;0;0;0;();(-2000.0, -2000.0);
03:30:55:139;03:30:55:104;1448461849.92;(0.3648559093475342, 0.26019015842013893);60.9653968811;1.0;03:30:55:139;0;0;-1.5;1.94117647058824;1.46627565982405;0;0;0;1;1;1;1;0;0;0;0;0;0;0;0;0;();(-2000.0, -2000.0);
03:30:55:155;03:30:55:143;1448461849.95;(0.3646747589111328, 0.26041200425889754);60.9321403503;1.0;03:30:55:155;0;10;-1.5;1.998046875;1.36852394916911;0;0;0;1;1;1;1;0;0;0;0;0;0;0;0;0;();(-2000.0, -2000.0);
03:30:55:172;03:30:55:143;1448461849.95;(0.3646747589111328, 0.26041200425889754);60.9321403503;1.0;03:30:55:172;0;15;-1.5;2.05835010060362;1.46627565982405;0;0;0;1;1;1;1;0;0;0;0;0;0;0;0;0;();(-2000.0, -2000.0);
03:30:55:189;03:30:55:183;1448461849.98;(0.36540861129760743, 0.25933727688259545);60.3232383728;1.0;03:30:55:189;0;4;-1.5;2.0625;1.46627565982405;0;0;0;1;1;1;1;0;0;0;0;0;0;0;0;0;();(-2000.0, -2000.0);
03:30:55:206;03:30:55:183;1448461849.98;(0.36540861129760743, 0.25933727688259545);60.3232383728;1.0;03:30:55:206;0;15;-1.5;2.0625;1.46627565982405;0;0;0;1;1;1;1;0;0;0;0;0;0;0;0;0;();(-2000.0, -2000.0);
03:30:55:239;03:30:55:223;1448461850.02;(0.4379437923431396, 0.8937110847897);24.1127033234;0.639665515328;03:30:55:239;0;15;-1.5;2.0920245398773;1.46627565982405;0;0;0;1;1;1;1;0;0;0;0;0;0;0;0;0;();(-2000.0, -2000.0);
03:30:55:256;03:30:55:223;1448461850.02;(0.4379437923431396, 0.8937110847897);24.1127033234;0.639665515328;03:30:55:256;0;9;-1.5;2.16737288135593;1.46627565982405;0;0;0;1;1;1;1;0;0;0;0;0;0;0;0;0;();(-2000.0, -2000.0);
03:30:55:273;03:30:55:267;1448461850.05;(0, 0);0;0;03:30:55:273;0;15;-1.5;2.16737288135593;1.46627565982405;0;0;0;1;1;1;1;0;0;0;0;0;0;0;0;0;();(-2000.0, -2000.0);
03:30:55:289;03:30:55:267;1448461850.05;(0, 0);0;0;03:30:55:289;0;15;-1.5;2.16279069767442;1.46627565982405;0;0;0;1;1;1;1;0;0;0;0;0;0;0;0;0;();(-2000.0, -2000.0);
03:30:55:306;03:30:55:267;1448461850.05;(0, 0);0;0;03:30:55:306;0;0;-1.5;2.19057815845824;1.46627565982405;0;0;0;1;1;1;1;0;0;0;0;0;0;0;0;0;();(-2000.0, -2000.0);
03:30:55:340;03:30:55:307;1448461850.08;(0.30677180290222167, 0.11077253553602429);18.9055938721;0.72445847125;03:30:55:340;0;10;-1.5;2.28348214285714;1.66177908113392;0;0;0;1;1;1;1;0;0;0;0;0;0;0;0;0;();(-2000.0, -2000.0);
03:30:55:357;03:30:55:348;1448461850.15;(0, 0);0;0;03:30:55:357;0;4;-1.5;2.16737288135593;1.46627565982405;0;0;0;1;1;1;1;0;0;0;0;0;0;0;0;0;();(-2000.0, -2000.0);
03:30:55:373;03:30:55:348;1448461850.15;(0, 0);0;0;03:30:55:373;0;9;-1.5;2.25330396475771;1.46627565982405;0;0;0;1;1;1;1;0;0;0;0;0;0;0;0;0;();(-2000.0, -2000.0);
03:30:55:390;03:30:55:348;1448461850.15;(0, 0);0;0;03:30:55:390;0;5;-1.5;2.13125;1.66177908113392;0;0;0;1;1;1;1;0;0;0;0;0;0;0;0;0;();(-2000.0, -2000.0);
03:30:55:407;03:30:55:391;1448461850.18;(0.36861209869384765, 0.2650489807128906);60.7778625488;1.0;03:30:55:407;0;10;-1.5;2.07926829268293;1.56402737047898;0;0;0;1;1;1;1;0;0;0;0;0;0;0;0;0;();(-2000.0, -2000.0);
03:30:55:441;03:30:55:431;1448461850.22;(0.36859176158905027, 0.2663183424207899);61.0239334106;0.937045280302;03:30:55:441;0;9;-1.5;2.2;1.85728250244379;0;0;0;1;1;1;1;0;0;0;0;0;0;0;0;0;();(-2000.0, -2000.0);
03:30:55:457;03:30:55:431;1448461850.22;(0.36859176158905027, 0.2663183424207899);61.0239334106;0.937045280302;03:30:55:457;0;5;-1.5;2.14915966386555;1.46627565982405;0;0;0;1;1;1;1;0;0;0;0;0;0;0;0;0;();(-2000.0, -2000.0);
03:30:55:474;03:30:55:431;1448461850.22;(0.36859176158905027, 0.2663183424207899);61.0239334106;0.937045280302;03:30:55:474;0;10;-1.5;2.28348214285714;1.85728250244379;0;0;0;1;1;1;1;0;0;0;0;0;0;0;0;0;();(-2000.0, -2000.0);
03:30:55:491;03:30:55:478;1448461850.28;(0.3693916082382202, 0.26659389071994355);61.0182495117;1.0;03:30:55:491;0;15;-1.5;2.30405405405405;1.66177908113392;0;0;0;1;1;1;1;0;0;0;0;0;0;0;0;0;();(-2000.0, -2000.0);
03:30:55:507;03:30:55:478;1448461850.28;(0.3693916082382202, 0.26659389071994355);61.0182495117;1.0;03:30:55:507;0;15;-1.5;2.30405405405405;1.66177908113392;0;0;0;1;1;1;1;0;0;0;0;0;0;0;0;0;();(-2000.0, -2000.0);
03:30:55:541;03:30:55:515;1448461850.32;(0.36950414180755614, 0.26636081271701384);60.8006439209;1.0;03:30:55:541;0;9;-1.5;2.325;2.34604105571848;0;0;0;1;1;1;1;0;0;0;0;0;0;0;0;0;();(-2000.0, -2000.0);
03:30:55:558;03:30:55:555;1448461850.35;(0.369734001159668, 0.2664052327473958);60.7262649536;1.0;03:30:55:558;0;9;-1.5;2.325;2.34604105571848;0;0;0;1;1;1;1;0;0;0;0;0;0;0;0;0;();(-2000.0, -2000.0);
03:30:55:575;03:30:55:555;1448461850.35;(0.369734001159668, 0.2664052327473958);60.7262649536;1.0;03:30:55:575;0;4;-1.5;2.325;1.66177908113392;0;0;0;1;1;1;1;0;0;0;0;0;0;0;0;0;();(-2000.0, -2000.0);
03:30:55:591;03:30:55:555;1448461850.35;(0.369734001159668, 0.2664052327473958);60.7262649536;1.0;03:30:55:591;0;15;-1.5;2.0297619047619;1.46627565982405;0;0;0;1;1;1;1;0;0;0;0;0;0;0;0;0;();(-2000.0, -2000.0);
03:30:55:610;03:30:55:600;1448461850.42;(0.3699214220046997, 0.26636060078938806);60.9020500183;1.0;03:30:55:610;0;10;-1.5;2.27839643652561;1.85728250244379;0;0;0;1;1;1;1;0;0;0;0;0;0;0;0;0;();(-2000.0, -2000.0);
03:30:55:642;03:30:55:639;1448461850.45;(0.37088124752044677, 0.26656943427191837);61.088924408;1.0;03:30:55:642;0;5;-1.5;2.19057815845824;1.85728250244379;0;0;0;1;1;1;1;0;0;0;0;0;0;0;0;0;();(-2000.0, -2000.0);
03:30:55:659;03:30:55:639;1448461850.45;(0.37088124752044677, 0.26656943427191837);61.088924408;1.0;03:30:55:659;0;15;-1.5;2.0625;1.85728250244379;0;0;0;1;1;1;1;0;0;0;0;0;0;0;0;0;();(-2000.0, -2000.0);
03:30:55:675;03:30:55:639;1448461850.45;(0.37088124752044677, 0.26656943427191837);61.088924408;1.0;03:30:55:675;0;4;-1.5;2.12681912681913;1.46627565982405;0;0;0;1;1;1;1;0;0;0;0;0;0;0;0;0;();(-2000.0, -2000.0);
03:30:55:693;03:30:55:679;1448461850.48;(0.39493670463562014, 0.2748388926188151);59.9140472412;1.0;03:30:55:693;0;0;-1.5;2.0625;1.46627565982405;0;0;0;1;1;1;1;0;0;0;0;0;0;0;0;0;();(-2000.0, -2000.0);
03:30:55:709;03:30:55:679;1448461850.48;(0.39493670463562014, 0.2748388926188151);59.9140472412;1.0;03:30:55:709;0;5;-1.5;2.14915966386555;1.46627565982405;0;0;0;1;1;1;1;0;0;0;0;0;0;0;0;0;();(-2000.0, -2000.0);
03:30:55:742;03:30:55:723;1448461850.52;(0.3952525854110718, 0.2752271440294054);60.3464202881;1.0;03:30:55:742;0;4;-1.5;2.0297619047619;1.46627565982405;0;0;0;1;1;1;1;0;0;0;0;0;0;0;0;0;();(-2000.0, -2000.0);
03:30:55:759;03:30:55:723;1448461850.52;(0.3952525854110718, 0.2752271440294054);60.3464202881;1.0;03:30:55:759;0;9;-1.5;1.81705150976909;1.17302052785924;0;0;0;1;1;1;1;0;0;0;0;0;0;0;0;0;();(-2000.0, -2000.0);
03:30:55:776;03:30:55:763;1448461850.55;(0.39525470733642576, 0.2753249698215061);60.3856430054;1.0;03:30:55:776;0;5;-1.5;1.66341463414634;0.879765395894428;0;0;0;1;1;1;1;0;0;0;0;0;0;0;0;0;();(-2000.0, -2000.0);
03:30:55:793;03:30:55:763;1448461850.55;(0.39525470733642576, 0.2753249698215061);60.3856430054;1.0;03:30:55:793;0;10;-1.5;2.24835164835165;1.46627565982405;0;0;0;1;1;1;1;0;0;0;0;0;0;0;0;0;();(-2000.0, -2000.0);
03:30:55:809;03:30:55:808;1448461850.62;(0.3955749750137329, 0.2758966657850478);59.9937515259;1.0;03:30:55:809;0;15;-1.5;2.36805555555556;1.95503421309873;0;0;0;1;1;1;1;0;0;0;0;0;0;0;0;0;();(-2000.0, -2000.0);
03:30:55:828;03:30:55:808;1448461850.62;(0.3955749750137329, 0.2758966657850478);59.9937515259;1.0;03:30:55:827;0;9;-1.5;2.46506024096386;1.85728250244379;0;0;0;1;1;1;1;0;0;0;0;0;0;0;0;0;();(-2000.0, -2000.0);
03:30:55:862;03:30:55:847;1448461850.65;(0.3956348419189453, 0.27629818386501737);59.4772949219;1.0;03:30:55:862;0;9;-1.5;2.22391304347826;1.46627565982405;0;0;0;1;1;1;1;0;0;0;0;0;0;0;0;0;();(-2000.0, -2000.0);
03:30:55:877;03:30:55:847;1448461850.65;(0.3956348419189453, 0.27629818386501737);59.4772949219;1.0;03:30:55:877;0;15;-1.5;2.1006160164271;1.46627565982405;0;0;0;1;1;1;1;0;0;0;0;0;0;0;0;0;();(-2000.0, -2000.0);
03:30:55:893;03:30:55:887;1448461850.68;(0.39570353031158445, 0.2768636067708333);59.0303726196;1.0;03:30:55:893;0;10;-1.5;2.11801242236025;1.46627565982405;0;0;0;1;1;1;1;0;0;0;0;0;0;0;0;0;();(-2000.0, -2000.0);
03:30:55:910;03:30:55:887;1448461850.68;(0.39570353031158445, 0.2768636067708333);59.0303726196;1.0;03:30:55:910;0;15;-1.5;2.11801242236025;1.46627565982405;0;0;0;1;1;1;1;0;0;0;0;0;0;0;0;0;();(-2000.0, -2000.0);
03:30:55:927;03:30:55:887;1448461850.68;(0.39570353031158445, 0.2768636067708333);59.0303726196;1.0;03:30:55:927;0;5;-1.5;2.19057815845824;1.46627565982405;0;0;0;1;1;1;1;0;0;0;0;0;0;0;0;0;();(-2000.0, -2000.0);
03:30:55:960;03:30:55:887;1448461850.68;(0.39570353031158445, 0.2768636067708333);59.0303726196;1.0;03:30:55:960;0;10;-1.5;2.1006160164271;1.46627565982405;0;0;0;1;1;1;1;0;0;0;0;0;0;0;0;0;();(-2000.0, -2000.0);
03:30:55:977;03:30:55:887;1448461850.68;(0.39570353031158445, 0.2768636067708333);59.0303726196;1.0;03:30:55:977;0;15;-1.5;2.0501002004008;1.46627565982405;0;0;0;1;1;1;1;0;0;0;0;0;0;0;0;0;();(-2000.0, -2000.0);
03:30:55:994;03:30:55:887;1448461850.68;(0.39570353031158445, 0.2768636067708333);59.0303726196;1.0;03:30:55:994;0;4;-1.5;2.11801242236025;1.46627565982405;0;0;0;1;1;1;1;0;0;0;0;0;0;0;0;0;();(-2000.0, -2000.0);
03:30:56:011;03:30:55:887;1448461850.68;(0.39570353031158445, 0.2768636067708333);59.0303726196;1.0;03:30:56:011;0;0;-1.5;2.0297619047619;1.46627565982405;0;0;0;1;1;1;1;0;0;0;0;0;0;0;0;0;();(-2000.0, -2000.0);
03:30:56:027;03:30:56:012;1448461850.81;(0.4262105703353882, 0.2685655805799696);55.8924636841;1.0;03:30:56:027;0;5;-1.5;2.0625;1.46627565982405;0;0;0;1;1;1;1;0;0;0;0;0;0;0;0;0;();(-2000.0, -2000.0);
03:30:56:061;03:30:56:056;1448461850.85;(0.4261639595031738, 0.2692495981852213);54.9989547729;1.0;03:30:56:061;0;4;-1.5;2.16279069767442;1.46627565982405;0;0;0;1;1;1;1;0;0;0;0;0;0;0;0;0;();(-2000.0, -2000.0);
03:30:56:079;03:30:56:056;1448461850.85;(0.4261639595031738, 0.2692495981852213);54.9989547729;1.0;03:30:56:079;0;10;-1.5;2.50735294117647;1.85728250244379;0;0;0;1;1;1;1;0;0;0;0;0;0;0;0;0;();(-2000.0, -2000.0);
03:30:56:095;03:30:56:056;1448461850.85;(0.4261639595031738, 0.2692495981852213);54.9989547729;1.0;03:30:56:095;0;5;-1.5;2.19057815845824;1.85728250244379;0;0;0;1;1;1;1;0;0;0;0;0;0;0;0;0;();(-2000.0, -2000.0);
03:30:56:112;03:30:56:095;1448461850.88;(0.42629132270812986, 0.26933157179090716);54.8937530518;1.0;03:30:56:112;0;10;-1.5;2.24835164835165;1.46627565982405;0;0;0;1;1;1;1;0;0;0;0;0;0;0;0;0;();(-2000.0, -2000.0);
03:30:56:128;03:30:56:095;1448461850.88;(0.42629132270812986, 0.26933157179090716);54.8937530518;1.0;03:30:56:128;0;15;-1.5;2.28348214285714;1.66177908113392;0;0;0;1;1;1;1;0;0;0;0;0;0;0;0;0;();(-2000.0, -2000.0);
03:30:56:171;03:30:56:136;1448461850.95;(0.42633345127105715, 0.26936637030707467);54.4570655823;1.0;03:30:56:171;0;1;-1.5;2.26829268292683;1.46627565982405;0;0;0;1;1;1;1;0;0;0;0;0;0;0;0;0;();(-2000.0, -2000.0);
03:30:56:178;03:30:56:136;1448461850.95;(0.42633345127105715, 0.26936637030707467);54.4570655823;1.0;03:30:56:178;0;10;-1.5;2.07926829268293;1.46627565982405;0;0;0;1;1;1;1;0;0;0;0;0;0;0;0;0;();(-2000.0, -2000.0);
03:30:56:195;03:30:56:180;1448461850.98;(0.4261163234710693, 0.2696922726101345);54.6175613403;1.0;03:30:56:195;0;15;-1.5;2.31972789115646;1.66177908113392;0;0;0;1;1;1;1;0;0;0;0;0;0;0;0;0;();(-2000.0, -2000.0);
03:30:56:212;03:30:56:180;1448461850.98;(0.4261163234710693, 0.2696922726101345);54.6175613403;1.0;03:30:56:212;0;10;-1.5;2.16737288135593;1.46627565982405;0;0;0;1;1;1;1;0;0;0;0;0;0;0;0;0;();(-2000.0, -2000.0);
03:30:56:229;03:30:56:219;1448461851.02;(0.42625067234039304, 0.2696312798394097);54.4950408936;1.0;03:30:56:229;0;15;-1.5;2.20950323974082;1.85728250244379;0;0;0;1;1;1;1;0;0;0;0;0;0;0;0;0;();(-2000.0, -2000.0);
03:30:56:262;03:30:56:259;1448461851.05;(0.4261321544647217, 0.2701783074273003);54.6946868896;1.0;03:30:56:262;0;0;-1.5;2.36805555555556;1.66177908113392;0;0;0;1;1;1;1;0;0;0;0;0;0;0;0;0;();(-2000.0, -2000.0);
03:30:56:279;03:30:56:259;1448461851.05;(0.4261321544647217, 0.2701783074273003);54.6946868896;1.0;03:30:56:279;0;10;-1.5;2.21428571428571;1.85728250244379;0;0;0;1;1;1;1;0;0;0;0;0;0;0;0;0;();(-2000.0, -2000.0);
03:30:56:296;03:30:56:259;1448461851.05;(0.4261321544647217, 0.2701783074273003);54.6946868896;1.0;03:30:56:296;0;15;-1.5;2.14915966386555;1.66177908113392;0;0;0;1;1;1;1;0;0;0;0;0;0;0;0;0;();(-2000.0, -2000.0);
03:30:56:313;03:30:56:305;1448461851.12;(0.42603278160095215, 0.27038447062174475);54.9028892517;1.0;03:30:56:313;0;4;-1.5;2.24835164835165;1.85728250244379;0;0;0;1;1;1;1;0;0;0;0;0;0;0;0;0;();(-2000.0, -2000.0);
03:30:56:329;03:30:56:305;1448461851.12;(0.42603278160095215, 0.27038447062174475);54.9028892517;1.0;03:30:56:329;0;0;-1.5;2.16737288135593;1.46627565982405;0;0;0;1;1;1;1;0;0;0;0;0;0;0;0;0;();(-2000.0, -2000.0);
03:30:56:346;03:30:56:343;1448461851.15;(0.4261234998703003, 0.27029541863335504);55.3446655273;1.0;03:30:56:346;0;4;-1.5;2.325;1.66177908113392;0;0;0;1;1;1;1;0;0;0;0;0;0;0;0;0;();(-2000.0, -2000.0);
03:30:56:379;03:30:56:343;1448461851.15;(0.4261234998703003, 0.27029541863335504);55.3446655273;1.0;03:30:56:379;0;4;-1.5;2.23851203501094;1.46627565982405;0;0;0;1;1;1;1;0;0;0;0;0;0;0;0;0;();(-2000.0, -2000.0);
03:30:56:396;03:30:56:387;1448461851.18;(0.4260920763015747, 0.2704800499810113);55.6100959778;1.0;03:30:56:396;0;15;-1.5;2.30405405405405;1.66177908113392;0;0;0;1;1;1;1;0;0;0;0;0;0;0;0;0;();(-2000.0, -2000.0);
03:30:56:413;03:30:56:387;1448461851.18;(0.4260920763015747, 0.2704800499810113);55.6100959778;1.0;03:30:56:413;0;5;-1.5;2.24835164835165;2.34604105571848;0;0;0;1;1;1;1;0;0;0;0;0;0;0;0;0;();(-2000.0, -2000.0);
03:30:56:430;03:30:56:428;1448461851.22;(0.41619248390197755, 0.26607538859049484);57.1198539734;1.0;03:30:56:430;0;10;-1.5;2.13125;1.46627565982405;0;0;0;1;1;1;1;0;0;0;0;0;0;0;0;0;();(-2000.0, -2000.0);
03:30:56:447;03:30:56:428;1448461851.22;(0.41619248390197755, 0.26607538859049484);57.1198539734;1.0;03:30:56:447;0;5;-1.5;2.28348214285714;1.85728250244379;0;0;0;1;1;1;1;0;0;0;0;0;0;0;0;0;();(-2000.0, -2000.0);
03:30:56:480;03:30:56:467;1448461851.25;(0.4102797985076904, 0.2626054975721571);56.6510620117;1.0;03:30:56:480;0;4;-1.5;2.16737288135593;1.46627565982405;0;0;0;1;1;1;1;0;0;0;0;0;0;0;0;0;();(-2000.0, -2000.0);
03:30:56:497;03:30:56:467;1448461851.25;(0.4102797985076904, 0.2626054975721571);56.6510620117;1.0;03:30:56:497;0;10;-1.5;1.91573033707865;1.46627565982405;0;0;0;1;1;1;1;0;0;0;0;0;0;0;0;0;();(-2000.0, -2000.0);
03:30:56:514;03:30:56:513;1448461851.32;(0.4097245693206787, 0.26263771057128904);57.3917617798;1.0;03:30:56:514;0;15;-1.5;2.07926829268293;1.36852394916911;0;0;0;1;1;1;1;0;0;0;0;0;0;0;0;0;();(-2000.0, -2000.0);
03:30:56:530;03:30:56:513;1448461851.32;(0.4097245693206787, 0.26263771057128904);57.3917617798;1.0;03:30:56:530;0;10;-1.5;2.0625;1.46627565982405;0;0;0;1;1;1;1;0;0;0;0;0;0;0;0;0;();(-2000.0, -2000.0);
03:30:56:547;03:30:56:513;1448461851.32;(0.4097245693206787, 0.26263771057128904);57.3917617798;1.0;03:30:56:547;0;15;-1.5;2.0297619047619;1.46627565982405;0;0;0;1;1;1;1;0;0;0;0;0;0;0;0;0;();(-2000.0, -2000.0);
03:30:56:581;03:30:56:551;1448461851.35;(0.40970122814178467, 0.2629524654812283);57.6635551453;1.0;03:30:56:581;0;0;-1.5;2.03784860557769;1.46627565982405;0;0;0;1;1;1;1;0;0;0;0;0;0;0;0;0;();(-2000.0, -2000.0);
03:30:56:598;03:30:56:595;1448461851.38;(0.4097230672836304, 0.2633583068847656);57.7521438599;1.0;03:30:56:598;0;5;-1.5;1.75471698113208;1.17302052785924;0;0;0;1;1;1;1;0;0;0;0;0;0;0;0;0;();(-2000.0, -2000.0);
03:30:56:614;03:30:56:595;1448461851.38;(0.4097230672836304, 0.2633583068847656);57.7521438599;1.0;03:30:56:614;0;15;-1.5;1.52686567164179;0.684261974584555;0;0;0;1;1;1;1;0;0;0;0;0;0;0;0;0;();(-2000.0, -2000.0);
03:30:56:631;03:30:56:595;1448461851.38;(0.4097230672836304, 0.2633583068847656);57.7521438599;1.0;03:30:56:631;0;4;-1.5;1.97109826589595;1.36852394916911;0;0;0;1;1;1;1;0;0;0;0;0;0;0;0;0;();(-2000.0, -2000.0);
03:30:56:648;03:30:56:636;1448461851.45;(0.4096511363983154, 0.2638793097601997);58.1641960144;1.0;03:30:56:648;0;15;-1.5;2.24835164835165;1.46627565982405;0;0;0;1;1;1;1;0;0;0;0;0;0;0;0;0;();(-2000.0, -2000.0);
03:30:56:681;03:30:56:679;1448461851.48;(0.40953361988067627, 0.2644258287217882);58.484046936;1.0;03:30:56:681;0;5;-1.5;2.325;1.85728250244379;0;0;0;1;1;1;1;0;0;0;0;0;0;0;0;0;();(-2000.0, -2000.0);
03:30:56:698;03:30:56:679;1448461851.48;(0.40953361988067627, 0.2644258287217882);58.484046936;1.0;03:30:56:698;0;4;-1.5;2.39018691588785;1.66177908113392;0;0;0;1;1;1;1;0;0;0;0;0;0;0;0;0;();(-2000.0, -2000.0);
03:30:56:715;03:30:56:679;1448461851.48;(0.40953361988067627, 0.2644258287217882);58.484046936;1.0;03:30:56:715;0;15;-1.5;2.36258660508083;1.66177908113392;0;0;0;1;1;1;1;0;0;0;0;0;0;0;0;0;();(-2000.0, -2000.0);
03:30:56:733;03:30:56:719;1448461851.52;(0.40938601493835447, 0.2644042121039496);58.6392593384;1.0;03:30:56:733;0;5;-1.5;2.37906976744186;1.85728250244379;0;0;0;1;1;1;1;0;0;0;0;0;0;0;0;0;();(-2000.0, -2000.0);
03:30:56:750;03:30:56:719;1448461851.52;(0.40938601493835447, 0.2644042121039496);58.6392593384;1.0;03:30:56:750;0;0;-1.5;2.24835164835165;1.85728250244379;0;0;0;1;1;1;1;0;0;0;0;0;0;0;0;0;();(-2000.0, -2000.0);
03:30:56:782;03:30:56:759;1448461851.55;(0.4093409538269043, 0.26468412611219616);58.8961982727;1.0;03:30:56:782;0;10;-1.5;2.325;1.66177908113392;0;0;0;1;1;1;1;0;0;0;0;0;0;0;0;0;();(-2000.0, -2000.0);
03:30:56:799;03:30:56:759;1448461851.55;(0.4093409538269043, 0.26468412611219616);58.8961982727;1.0;03:30:56:799;0;4;-1.5;2.325;1.85728250244379;0;0;0;1;1;1;1;0;0;0;0;0;0;0;0;0;();(-2000.0, -2000.0);
03:30:56:815;03:30:56:799;1448461851.58;(0.4131718873977661, 0.2672947777642144);58.9693756104;1.0;03:30:56:815;0;10;-1.5;2.24835164835165;1.85728250244379;0;0;0;1;1;1;1;0;0;0;0;0;0;0;0;0;();(-2000.0, -2000.0);
03:30:56:832;03:30:56:799;1448461851.58;(0.4131718873977661, 0.2672947777642144);58.9693756104;1.0;03:30:56:832;0;10;-1.5;2.24835164835165;1.85728250244379;0;0;0;1;1;1;1;0;0;0;0;0;0;0;0;0;();(-2000.0, -2000.0);
03:30:56:849;03:30:56:843;1448461851.62;(0.41602272987365724, 0.2704354180230035);58.6558799744;1.0;03:30:56:849;0;10;-1.5;2.01377952755906;1.46627565982405;0;0;0;1;1;1;1;0;0;0;0;0;0;0;0;0;();(-2000.0, -2000.0);
03:30:56:866;03:30:56:843;1448461851.62;(0.41602272987365724, 0.2704354180230035);58.6558799744;1.0;03:30:56:866;0;4;-1.5;2.01377952755906;1.46627565982405;0;0;0;1;1;1;1;0;0;0;0;0;0;0;0;0;();(-2000.0, -2000.0);
03:30:56:901;03:30:56:884;1448461851.68;(0.4156185150146484, 0.27050039503309464);58.9659996033;1.0;03:30:56:901;0;0;-1.5;2.10493827160494;1.46627565982405;0;0;0;1;1;1;1;0;0;0;0;0;0;0;0;0;();(-2000.0, -2000.0);
03:30:56:916;03:30:56:884;1448461851.68;(0.4156185150146484, 0.27050039503309464);58.9659996033;1.0;03:30:56:916;0;10;-1.5;2.13125;1.66177908113392;0;0;0;1;1;1;1;0;0;0;0;0;0;0;0;0;();(-2000.0, -2000.0);
03:30:56:933;03:30:56:923;1448461851.72;(0.4155189037322998, 0.2705364651150174);59.1041183472;1.0;03:30:56:933;0;15;-1.5;2.12681912681913;1.46627565982405;0;0;0;1;1;1;1;0;0;0;0;0;0;0;0;0;();(-2000.0, -2000.0);
03:30:56:950;03:30:56:923;1448461851.72;(0.4155189037322998, 0.2705364651150174);59.1041183472;1.0;03:30:56:950;0;4;-1.5;2.16737288135593;1.46627565982405;0;0;0;1;1;1;1;0;0;0;0;0;0;0;0;0;();(-2000.0, -2000.0);
03:30:56:983;03:30:56:967;1448461851.75;(0.41558377742767333, 0.2710001627604167);59.2378120422;1.0;03:30:56:983;0;5;-1.5;2.13125;1.66177908113392;0;0;0;1;1;1;1;0;0;0;0;0;0;0;0;0;();(-2000.0, -2000.0);
03:30:57:000;03:30:56:967;1448461851.75;(0.41558377742767333, 0.2710001627604167);59.2378120422;1.0;03:30:57:000;0;10;-1.5;2.20950323974082;1.46627565982405;0;0;0;1;1;1;1;0;0;0;0;0;0;0;0;0;();(-2000.0, -2000.0);
03:30:57:017;03:30:57:008;1448461851.82;(0.4155205011367798, 0.2710376315646701);59.4185409546;1.0;03:30:57:017;0;4;-1.5;2.13125;1.46627565982405;0;0;0;1;1;1;1;0;0;0;0;0;0;0;0;0;();(-2000.0, -2000.0);
03:30:57:033;03:30:57:008;1448461851.82;(0.4155205011367798, 0.2710376315646701);59.4185409546;1.0;03:30:57:033;0;10;-1.5;2.20950323974082;1.85728250244379;0;0;0;1;1;1;1;0;0;0;0;0;0;0;0;0;();(-2000.0, -2000.0);
03:30:57:051;03:30:57:047;1448461851.85;(0.4154688596725464, 0.27085541619194875);59.6215705872;1.0;03:30:57:051;0;4;-1.5;2.16737288135593;1.66177908113392;0;0;0;1;1;1;1;0;0;0;0;0;0;0;0;0;();(-2000.0, -2000.0);
03:30:57:067;03:30:57:047;1448461851.85;(0.4154688596725464, 0.27085541619194875);59.6215705872;1.0;03:30:57:067;0;10;-1.5;2.2;1.46627565982405;0;0;0;1;1;1;1;0;0;0;0;0;0;0;0;0;();(-2000.0, -2000.0);
03:30:57:101;03:30:57:091;1448461851.88;(0.4153574466705322, 0.2710552639431424);59.6011924744;1.0;03:30:57:101;0;9;-1.5;2.0501002004008;1.46627565982405;0;0;0;1;1;1;1;0;0;0;0;0;0;0;0;0;();(-2000.0, -2000.0);
03:30:57:117;03:30:57:091;1448461851.88;(0.4153574466705322, 0.2710552639431424);59.6011924744;1.0;03:30:57:117;0;4;-1.5;2.0625;1.46627565982405;0;0;0;1;1;1;1;0;0;0;0;0;0;0;0;0;();(-2000.0, -2000.0);
03:30:57:134;03:30:57:131;1448461851.92;(0.41542017459869385, 0.2713289472791883);59.7238883972;1.0;03:30:57:134;0;10;-1.5;2.0625;1.56402737047898;0;0;0;1;1;1;1;0;0;0;0;0;0;0;0;0;();(-2000.0, -2000.0);
03:30:57:151;03:30:57:131;1448461851.92;(0.41542017459869385, 0.2713289472791883);59.7238883972;1.0;03:30:57:151;0;5;-1.5;2.13125;1.46627565982405;0;0;0;1;1;1;1;0;0;0;0;0;0;0;0;0;();(-2000.0, -2000.0);
03:30:57:168;03:30:57:131;1448461851.92;(0.41542017459869385, 0.2713289472791883);59.7238883972;1.0;03:30:57:168;0;9;-1.5;2.16737288135593;1.46627565982405;0;0;0;1;1;1;1;0;0;0;0;0;0;0;0;0;();(-2000.0, -2000.0);
03:30:57:201;03:30:57:175;1448461851.95;(0.41535348892211915, 0.27162272135416665);59.6602134705;1.0;03:30:57:201;0;15;-1.5;2.22391304347826;1.46627565982405;0;0;0;1;1;1;1;0;0;0;0;0;0;0;0;0;();(-2000.0, -2000.0);
03:30:57:218;03:30:57:175;1448461851.95;(0.41535348892211915, 0.27162272135416665);59.6602134705;1.0;03:30:57:218;0;0;-1.5;2.28348214285714;1.46627565982405;0;0;0;1;1;1;1;0;0;0;0;0;0;0;0;0;();(-2000.0, -2000.0);
03:30:57:236;03:30:57:175;1448461851.95;(0.41535348892211915, 0.27162272135416665);59.6602134705;1.0;03:30:57:236;0;10;-1.5;2.10493827160494;1.46627565982405;0;0;0;1;1;1;1;0;0;0;0;0;0;0;0;0;();(-2000.0, -2000.0);
03:30:57:251;03:30:57:175;1448461851.95;(0.41535348892211915, 0.27162272135416665);59.6602134705;1.0;03:30:57:251;0;15;-1.5;2.0297619047619;1.46627565982405;0;0;0;1;1;1;1;0;0;0;0;0;0;0;0;0;();(-2000.0, -2000.0);
03:30:57:268;03:30:57:256;1448461852.05;(0.41814723014831545, 0.24623489379882812);60.1441459656;1.0;03:30:57:268;0;9;-1.5;2.1006160164271;1.46627565982405;0;0;0;1;1;1;1;0;0;0;0;0;0;0;0;0;();(-2000.0, -2000.0);
03:30:57:302;03:30:57:301;1448461852.12;(0.4175900936126709, 0.24725231594509545);60.5396995544;1.0;03:30:57:302;0;9;-1.5;2.14915966386555;1.46627565982405;0;0;0;1;1;1;1;0;0;0;0;0;0;0;0;0;();(-2000.0, -2000.0);
03:30:57:318;03:30:57:301;1448461852.12;(0.4175900936126709, 0.24725231594509545);60.5396995544;1.0;03:30:57:318;0;15;-1.5;2.16279069767442;1.36852394916911;0;0;0;1;1;1;1;0;0;0;0;0;0;0;0;0;();(-2000.0, -2000.0);
03:30:57:335;03:30:57:301;1448461852.12;(0.4175900936126709, 0.24725231594509545);60.5396995544;1.0;03:30:57:335;0;4;-1.5;2.13125;1.46627565982405;0;0;0;1;1;1;1;0;0;0;0;0;0;0;0;0;();(-2000.0, -2000.0);
03:30:57:353;03:30:57:339;1448461852.15;(0.4174222707748413, 0.24733064439561636);60.3893508911;1.0;03:30:57:353;0;10;-1.5;2.0625;1.46627565982405;0;0;0;1;1;1;1;0;0;0;0;0;0;0;0;0;();(-2000.0, -2000.0);
03:30:57:369;03:30:57:339;1448461852.15;(0.4174222707748413, 0.24733064439561636);60.3893508911;1.0;03:30:57:369;0;5;-1.5;1.85662431941924;1.46627565982405;0;0;0;1;1;1;1;0;0;0;0;0;0;0;0;0;();(-2000.0, -2000.0);
03:30:57:386;03:30:57:379;1448461852.18;(0.41727006435394287, 0.24763751559787328);60.4717407227;1.0;03:30:57:386;0;0;-1.5;1.77913043478261;1.17302052785924;0;0;0;1;1;1;1;0;0;0;0;0;0;0;0;0;();(-2000.0, -2000.0);
03:30:57:419;03:30:57:379;1448461852.18;(0.41727006435394287, 0.24763751559787328);60.4717407227;1.0;03:30:57:419;0;15;-1.5;2.13125;1.66177908113392;0;0;0;1;1;1;1;0;0;0;0;0;0;0;0;0;();(-2000.0, -2000.0);
03:30:57:436;03:30:57:423;1448461852.22;(0.4171576023101807, 0.24762047661675346);60.514541626;1.0;03:30:57:436;0;4;-1.5;2.17659574468085;1.46627565982405;0;0;0;1;1;1;1;0;0;0;0;0;0;0;0;0;();(-2000.0, -2000.0);
03:30:57:453;03:30:57:423;1448461852.22;(0.4171576023101807, 0.24762047661675346);60.514541626;1.0;03:30:57:453;0;0;-1.5;2.35172413793103;1.95503421309873;0;0;0;1;1;1;1;0;0;0;0;0;0;0;0;0;();(-2000.0, -2000.0);
03:30:57:470;03:30:57:463;1448461852.25;(0.4172302007675171, 0.2477528042263455);60.4407539368;1.0;03:30:57:470;0;5;-1.5;2.28348214285714;2.34604105571848;0;0;0;1;1;1;1;0;0;0;0;0;0;0;0;0;();(-2000.0, -2000.0);
03:30:57:486;03:30:57:463;1448461852.25;(0.4172302007675171, 0.2477528042263455);60.4407539368;1.0;03:30:57:486;0;10;-1.5;2.16737288135593;1.66177908113392;0;0;0;1;1;1;1;0;0;0;0;0;0;0;0;0;();(-2000.0, -2000.0);
03:30:57:521;03:30:57:504;1448461852.32;(0.41628811359405515, 0.24638909233940975);60.7854576111;1.0;03:30:57:521;0;9;-1.5;2.14915966386555;1.46627565982405;0;0;0;1;1;1;1;0;0;0;0;0;0;0;0;0;();(-2000.0, -2000.0);
03:30:57:538;03:30:57:504;1448461852.32;(0.41628811359405515, 0.24638909233940975);60.7854576111;1.0;03:30:57:538;0;0;-1.5;2.14915966386555;1.46627565982405;0;0;0;1;1;1;1;0;0;0;0;0;0;0;0;0;();(-2000.0, -2000.0);
03:30:57:553;03:30:57:547;1448461852.35;(0.4163107633590698, 0.2462073432074653);60.9338264465;1.0;03:30:57:553;0;10;-1.5;2.14915966386555;1.46627565982405;0;0;0;1;1;1;1;0;0;0;0;0;0;0;0;0;();(-2000.0, -2000.0);
03:30:57:571;03:30:57:547;1448461852.35;(0.4163107633590698, 0.2462073432074653);60.9338264465;1.0;03:30:57:571;0;15;-1.5;2.0625;1.46627565982405;0;0;0;1;1;1;1;0;0;0;0;0;0;0;0;0;();(-2000.0, -2000.0);
03:30:57:588;03:30:57:547;1448461852.35;(0.4163107633590698, 0.2462073432074653);60.9338264465;1.0;03:30:57:588;0;4;-1.5;2.0625;1.46627565982405;0;0;0;1;1;1;1;0;0;0;0;0;0;0;0;0;();(-2000.0, -2000.0);
03:30:57:620;03:30:57:591;1448461852.38;(0.41626336574554446, 0.24622768825954866);60.8862800598;1.0;03:30:57:620;0;5;-1.5;1.95229007633588;1.36852394916911;0;0;0;1;1;1;1;0;0;0;0;0;0;0;0;0;();(-2000.0, -2000.0);
03:30:57:637;03:30:57:631;1448461852.42;(0.41610214710235593, 0.2465971204969618);60.9696578979;1.0;03:30:57:637;0;15;-1.5;1.88397790055249;1.17302052785924;0;0;0;1;1;1;1;0;0;0;0;0;0;0;0;0;();(-2000.0, -2000.0);
03:30:57:654;03:30:57:631;1448461852.42;(0.41610214710235593, 0.2465971204969618);60.9696578979;1.0;03:30:57:654;0;4;-1.5;1.88397790055249;1.46627565982405;0;0;0;1;1;1;1;0;0;0;0;0;0;0;0;0;();(-2000.0, -2000.0);
03:30:57:671;03:30:57:631;1448461852.42;(0.41610214710235593, 0.2465971204969618);60.9696578979;1.0;03:30:57:671;0;15;-1.5;1.90502793296089;1.36852394916911;0;0;0;1;1;1;1;0;0;0;0;0;0;0;0;0;();(-2000.0, -2000.0);
03:30:57:687;03:30:57:672;1448461852.45;(0.41607513427734377, 0.24713702731662324);60.8583450317;1.0;03:30:57:687;0;4;-1.5;2.01377952755906;1.46627565982405;0;0;0;1;1;1;1;0;0;0;0;0;0;0;0;0;();(-2000.0, -2000.0);
03:30:57:723;03:30:57:711;1448461852.48;(0.4159661531448364, 0.24708438449435766);60.9753265381;1.0;03:30:57:723;0;10;-1.5;2.16737288135593;1.85728250244379;0;0;0;1;1;1;1;0;0;0;0;0;0;0;0;0;();(-2000.0, -2000.0);
03:30:57:739;03:30:57:711;1448461852.48;(0.4159661531448364, 0.24708438449435766);60.9753265381;1.0;03:30:57:739;0;9;-1.5;2.26829268292683;1.85728250244379;0;0;0;1;1;1;1;0;0;0;0;0;0;0;0;0;();(-2000.0, -2000.0);
03:30:57:755;03:30:57:711;1448461852.48;(0.4159661531448364, 0.24708438449435766);60.9753265381;1.0;03:30:57:755;0;4;-1.5;2.22391304347826;1.85728250244379;0;0;0;1;1;1;1;0;0;0;0;0;0;0;0;0;();(-2000.0, -2000.0);
03:30:57:771;03:30:57:759;1448461852.55;(0.4057948112487793, 0.2506169637044271);61.2993125916;1.0;03:30:57:771;0;15;-1.5;2.16737288135593;1.46627565982405;0;0;0;1;1;1;1;0;0;0;0;0;0;0;0;0;();(-2000.0, -2000.0);
03:30:57:789;03:30:57:759;1448461852.55;(0.4057948112487793, 0.2506169637044271);61.2993125916;1.0;03:30:57:789;0;5;-1.5;2.31972789115646;1.66177908113392;0;0;0;1;1;1;1;0;0;0;0;0;0;0;0;0;();(-2000.0, -2000.0);
03:30:57:822;03:30:57:795;1448461852.58;(0.40569167137145995, 0.25080362955729163);60.9183425903;1.0;03:30:57:822;0;4;-1.5;2.1006160164271;1.46627565982405;0;0;0;1;1;1;1;0;0;0;0;0;0;0;0;0;();(-2000.0, -2000.0);
03:30:57:838;03:30:57:835;1448461852.62;(0.4055660247802734, 0.25058534410264754);60.8365402222;1.0;03:30:57:838;0;10;-1.5;2.17659574468085;1.46627565982405;0;0;0;1;1;1;1;0;0;0;0;0;0;0;0;0;();(-2000.0, -2000.0);
03:30:57:855;03:30:57:835;1448461852.62;(0.4055660247802734, 0.25058534410264754);60.8365402222;1.0;03:30:57:855;0;5;-1.5;2.19057815845824;1.46627565982405;0;0;0;1;1;1;1;0;0;0;0;0;0;0;0;0;();(-2000.0, -2000.0);
03:30:57:872;03:30:57:835;1448461852.62;(0.4055660247802734, 0.25058534410264754);60.8365402222;1.0;03:30:57:872;0;10;-1.5;2.13125;1.66177908113392;0;0;0;1;1;1;1;0;0;0;0;0;0;0;0;0;();(-2000.0, -2000.0);
03:30:57:889;03:30:57:881;1448461852.68;(0.4054724216461182, 0.2509978400336371);60.6810112;1.0;03:30:57:889;0;15;-1.5;2.22391304347826;1.85728250244379;0;0;0;1;1;1;1;0;0;0;0;0;0;0;0;0;();(-2000.0, -2000.0);
03:30:57:922;03:30:57:919;1448461852.72;(0.40543010234832766, 0.2509045918782552);60.6493797302;1.0;03:30:57:922;0;0;-1.5;2.22391304347826;1.46627565982405;0;0;0;1;1;1;1;0;0;0;0;0;0;0;0;0;();(-2000.0, -2000.0);
03:30:57:940;03:30:57:919;1448461852.72;(0.40543010234832766, 0.2509045918782552);60.6493797302;1.0;03:30:57:939;0;5;-1.5;2.14915966386555;1.46627565982405;0;0;0;1;1;1;1;0;0;0;0;0;0;0;0;0;();(-2000.0, -2000.0);
03:30:57:956;03:30:57:919;1448461852.72;(0.40543010234832766, 0.2509045918782552);60.6493797302;1.0;03:30:57:956;0;15;-1.5;2.03784860557769;1.46627565982405;0;0;0;1;1;1;1;0;0;0;0;0;0;0;0;0;();(-2000.0, -2000.0);
03:30:57:974;03:30:57:963;1448461852.75;(0.4051964521408081, 0.2512468973795573);60.4842300415;1.0;03:30:57:974;0;4;-1.5;2.13125;1.46627565982405;0;0;0;1;1;1;1;0;0;0;0;0;0;0;0;0;();(-2000.0, -2000.0);
03:30:57:990;03:30:57:963;1448461852.75;(0.4051964521408081, 0.2512468973795573);60.4842300415;1.0;03:30:57:990;0;15;-1.5;2.01377952755906;1.36852394916911;0;0;0;1;1;1;1;0;0;0;0;0;0;0;0;0;();(-2000.0, -2000.0);
03:30:58:006;03:30:58:004;1448461852.82;(0.4049248695373535, 0.2514130486382379);60.2272567749;1.0;03:30:58:006;0;5;-1.5;2.28348214285714;1.66177908113392;0;0;0;1;1;1;1;0;0;0;0;0;0;0;0;0;();(-2000.0, -2000.0);
03:30:58:042;03:30:58:004;1448461852.82;(0.4049248695373535, 0.2514130486382379);60.2272567749;1.0;03:30:58:042;0;5;-1.5;2.37906976744186;1.66177908113392;0;0;0;1;1;1;1;0;0;0;0;0;0;0;0;0;();(-2000.0, -2000.0);
03:30:58:056;03:30:58:043;1448461852.85;(0.40476422309875487, 0.25134599473741315);60.3635597229;1.0;03:30:58:056;0;15;-1.5;2.20950323974082;1.46627565982405;0;0;0;1;1;1;1;0;0;0;0;0;0;0;0;0;();(-2000.0, -2000.0);
03:30:58:075;03:30:58:043;1448461852.85;(0.40476422309875487, 0.25134599473741315);60.3635597229;1.0;03:30:58:075;0;0;-1.5;2.11801242236025;1.46627565982405;0;0;0;1;1;1;1;0;0;0;0;0;0;0;0;0;();(-2000.0, -2000.0);
03:30:58:091;03:30:58:087;1448461852.88;(0.4159698963165283, 0.24705183241102435);59.8038330078;1.0;03:30:58:091;0;10;-1.5;1.82678571428571;1.17302052785924;0;0;0;1;1;1;1;0;0;0;0;0;0;0;0;0;();(-2000.0, -2000.0);
03:30:58:107;03:30:58:087;1448461852.88;(0.4159698963165283, 0.24705183241102435);59.8038330078;1.0;03:30:58:107;0;10;-1.5;1.82678571428571;1.17302052785924;0;0;0;1;1;1;1;0;0;0;0;0;0;0;0;0;();(-2000.0, -2000.0);
03:30:58:140;03:30:58:127;1448461852.92;(0.41669938564300535, 0.2458710564507378);60.1717147827;1.0;03:30:58:140;0;4;-1.5;2.36258660508083;1.95503421309873;0;0;0;1;1;1;1;0;0;0;0;0;0;0;0;0;();(-2000.0, -2000.0);
03:30:58:160;03:30:58:127;1448461852.92;(0.41669938564300535, 0.2458710564507378);60.1717147827;1.0;03:30:58:160;0;10;-1.5;2.47101449275362;2.34604105571848;0;0;0;1;1;1;1;0;0;0;0;0;0;0;0;0;();(-2000.0, -2000.0);
03:30:58:174;03:30:58:168;1448461852.98;(0.4167531967163086, 0.2466211107042101);59.513053894;1.0;03:30:58:174;0;10;-1.5;2.47101449275362;2.34604105571848;0;0;0;1;1;1;1;0;0;0;0;0;0;0;0;0;();(-2000.0, -2000.0);
03:30:58:191;03:30:58:168;1448461852.98;(0.4167531967163086, 0.2466211107042101);59.513053894;1.0;03:30:58:191;0;10;-1.5;2.41843971631206;2.34604105571848;0;0;0;1;1;1;1;0;0;0;0;0;0;0;0;0;();(-2000.0, -2000.0);
03:30:58:207;03:30:58:168;1448461852.98;(0.4167531967163086, 0.2466211107042101);59.513053894;1.0;03:30:58:207;0;5;-1.5;2.44152744630072;1.85728250244379;0;0;0;1;1;1;1;0;0;0;0;0;0;0;0;0;();(-2000.0, -2000.0);
03:30:58:241;03:30:58:211;1448461853.02;(0.4168145418167114, 0.24683346218532987);59.7092666626;1.0;03:30:58:241;0;4;-1.5;2.16737288135593;1.46627565982405;0;0;0;1;1;1;1;0;0;0;0;0;0;0;0;0;();(-2000.0, -2000.0);
03:30:58:258;03:30:58:251;1448461853.05;(0.4166118144989014, 0.24658813476562502);59.3220672607;1.0;03:30:58:258;0;9;-1.5;2.28348214285714;1.66177908113392;0;0;0;1;1;1;1;0;0;0;0;0;0;0;0;0;();(-2000.0, -2000.0);
03:30:58:274;03:30:58:251;1448461853.05;(0.4166118144989014, 0.24658813476562502);59.3220672607;1.0;03:30:58:274;0;5;-1.5;2.1006160164271;1.46627565982405;0;0;0;1;1;1;1;0;0;0;0;0;0;0;0;0;();(-2000.0, -2000.0);
03:30:58:292;03:30:58:291;1448461853.08;(0.4163209915161133, 0.24635899861653643);59.4559783936;1.0;03:30:58:292;0;10;-1.5;2.13125;1.46627565982405;0;0;0;1;1;1;1;0;0;0;0;0;0;0;0;0;();(-2000.0, -2000.0);
03:30:58:308;03:30:58:291;1448461853.08;(0.4163209915161133, 0.24635899861653643);59.4559783936;1.0;03:30:58:308;0;15;-1.5;2.0501002004008;1.85728250244379;0;0;0;1;1;1;1;0;0;0;0;0;0;0;0;0;();(-2000.0, -2000.0);
03:30:58:341;03:30:58:335;1448461853.12;(0.4126699924468994, 0.24708175659179688);58.8963661194;1.0;03:30:58:341;0;0;-1.5;2.0501002004008;1.46627565982405;0;0;0;1;1;1;1;0;0;0;0;0;0;0;0;0;();(-2000.0, -2000.0);
03:30:58:358;03:30:58:335;1448461853.12;(0.4126699924468994, 0.24708175659179688);58.8963661194;1.0;03:30:58:358;0;10;-1.5;1.998046875;1.36852394916911;0;0;0;1;1;1;1;0;0;0;0;0;0;0;0;0;();(-2000.0, -2000.0);
03:30:58:375;03:30:58:335;1448461853.12;(0.4126699924468994, 0.24708175659179688);58.8963661194;1.0;03:30:58:375;0;15;-1.5;2.00588235294118;1.46627565982405;0;0;0;1;1;1;1;0;0;0;0;0;0;0;0;0;();(-2000.0, -2000.0);
03:30:58:392;03:30:58:379;1448461853.18;(0.40305209159851074, 0.2494092305501302);59.4407196045;1.0;03:30:58:392;0;9;-1.5;2.11801242236025;1.46627565982405;0;0;0;1;1;1;1;0;0;0;0;0;0;0;0;0;();(-2000.0, -2000.0);
03:30:58:409;03:30:58:379;1448461853.18;(0.40305209159851074, 0.2494092305501302);59.4407196045;1.0;03:30:58:409;0;15;-1.5;2.325;1.66177908113392;0;0;0;1;1;1;1;0;0;0;0;0;0;0;0;0;();(-2000.0, -2000.0);
03:30:58:442;03:30:58:419;1448461853.22;(0.4029884099960327, 0.2492651197645399);59.1384963989;1.0;03:30:58:442;0;15;-1.5;2.26829268292683;2.34604105571848;0;0;0;1;1;1;1;0;0;0;0;0;0;0;0;0;();(-2000.0, -2000.0);
03:30:58:460;03:30:58:459;1448461853.25;(0.4028149127960205, 0.24949612087673612);58.8721046448;1.0;03:30:58:460;0;4;-1.5;2.26829268292683;1.46627565982405;0;0;0;1;1;1;1;0;0;0;0;0;0;0;0;0;();(-2000.0, -2000.0);
03:30:58:476;03:30:58:459;1448461853.25;(0.4028149127960205, 0.24949612087673612);58.8721046448;1.0;03:30:58:476;0;15;-1.5;2.23851203501094;1.85728250244379;0;0;0;1;1;1;1;0;0;0;0;0;0;0;0;0;();(-2000.0, -2000.0);
03:30:58:492;03:30:58:459;1448461853.25;(0.4028149127960205, 0.24949612087673612);58.8721046448;1.0;03:30:58:492;0;4;-1.5;2.1006160164271;1.46627565982405;0;0;0;1;1;1;1;0;0;0;0;0;0;0;0;0;();(-2000.0, -2000.0);
03:30:58:509;03:30:58:500;1448461853.32;(0.40288491249084474, 0.24964158799913194);58.8587837219;1.0;03:30:58:509;0;10;-1.5;2.27839643652561;1.46627565982405;0;0;0;1;1;1;1;0;0;0;0;0;0;0;0;0;();(-2000.0, -2000.0);
03:30:58:526;03:30:58:500;1448461853.32;(0.40288491249084474, 0.24964158799913194);58.8587837219;1.0;03:30:58:526;0;5;-1.5;2.13125;1.85728250244379;0;0;0;1;1;1;1;0;0;0;0;0;0;0;0;0;();(-2000.0, -2000.0);
03:30:58:560;03:30:58:543;1448461853.35;(0.4030155658721924, 0.24951680501302087);58.8829574585;1.0;03:30:58:560;0;14;-1.5;2.24835164835165;1.85728250244379;0;0;0;1;1;1;1;0;0;0;0;0;0;0;0;0;();(-2000.0, -2000.0);
03:30:58:576;03:30:58:543;1448461853.35;(0.4030155658721924, 0.24951680501302087);58.8829574585;1.0;03:30:58:576;0;9;-1.5;2.13125;1.46627565982405;0;0;0;1;1;1;1;0;0;0;0;0;0;0;0;0;();(-2000.0, -2000.0);
03:30:58:595;03:30:58:583;1448461853.38;(0.40300893783569336, 0.24965862698025176);58.7040863037;1.0;03:30:58:594;0;15;-1.5;2.16737288135593;1.46627565982405;0;0;0;1;1;1;1;0;0;0;0;0;0;0;0;0;();(-2000.0, -2000.0);
03:30:58:611;03:30:58:583;1448461853.38;(0.40300893783569336, 0.24965862698025176);58.7040863037;1.0;03:30:58:610;0;4;-1.5;2.07926829268293;1.66177908113392;0;0;0;1;1;1;1;0;0;0;0;0;0;0;0;0;();(-2000.0, -2000.0);
03:30:58:627;03:30:58:623;1448461853.42;(0.403013801574707, 0.2498101128472222);58.8915023804;1.0;03:30:58:627;0;15;-1.5;2.14915966386555;1.46627565982405;0;0;0;1;1;1;1;0;0;0;0;0;0;0;0;0;();(-2000.0, -2000.0);
03:30:58:660;03:30:58:623;1448461853.42;(0.403013801574707, 0.2498101128472222);58.8915023804;1.0;03:30:58:660;0;0;-1.5;2.16737288135593;1.46627565982405;0;0;0;1;1;1;1;0;0;0;0;0;0;0;0;0;();(-2000.0, -2000.0);
03:30:58:677;03:30:58:668;1448461853.48;(0.4023534059524536, 0.24896180894639752);58.5006980896;1.0;03:30:58:677;0;10;-1.5;2.14915966386555;1.46627565982405;0;0;0;1;1;1;1;0;0;0;0;0;0;0;0;0;();(-2000.0, -2000.0);
03:30:58:694;03:30:58:668;1448461853.48;(0.4023534059524536, 0.24896180894639752);58.5006980896;1.0;03:30:58:694;0;15;-1.5;2.16737288135593;1.46627565982405;0;0;0;1;1;1;1;0;0;0;0;0;0;0;0;0;();(-2000.0, -2000.0);
03:30:58:711;03:30:58:707;1448461853.52;(0, 0);0;0;03:30:58:711;0;4;-1.5;2.14915966386555;1.66177908113392;0;0;0;1;1;1;1;0;0;0;0;0;0;0;0;0;();(-2000.0, -2000.0);
03:30:58:727;03:30:58:707;1448461853.52;(0, 0);0;0;03:30:58:727;0;0;-1.5;2.37906976744186;2.1505376344086;0;0;0;1;1;1;1;0;0;0;0;0;0;0;0;0;();(-2000.0, -2000.0);
03:30:58:761;03:30:58:751;1448461853.55;(0.2286642909049988, 0.8382099151611329);21.735868454;0.660009643077;03:30:58:761;0;15;-1.5;2.20950323974082;1.46627565982405;0;0;0;1;1;1;1;0;0;0;0;0;0;0;0;0;();(-2000.0, -2000.0);
03:30:58:777;03:30:58:751;1448461853.55;(0.2286642909049988, 0.8382099151611329);21.735868454;0.660009643077;03:30:58:777;0;4;-1.5;2.0501002004008;1.85728250244379;0;0;0;1;1;1;1;0;0;0;0;0;0;0;0;0;();(-2000.0, -2000.0);
03:30:58:794;03:30:58:791;1448461853.58;(0, 0);0;0;03:30:58:794;0;15;-1.5;2.02574257425743;1.85728250244379;0;0;0;1;1;1;1;0;0;0;0;0;0;0;0;0;();(-2000.0, -2000.0);
03:30:58:811;03:30:58:791;1448461853.58;(0, 0);0;0;03:30:58:811;0;4;-1.5;1.58114374034003;0.879765395894428;0;0;0;1;1;1;1;0;0;0;0;0;0;0;0;0;();(-2000.0, -2000.0);
03:30:58:828;03:30:58:791;1448461853.58;(0, 0);0;0;03:30:58:828;0;10;-1.5;2.0625;1.46627565982405;0;0;0;1;1;1;1;0;0;0;0;0;0;0;0;0;();(-2000.0, -2000.0);
03:30:58:861;03:30:58:831;1448461853.62;(0.39796910285949705, 0.25134353637695317);56.2605781555;0.77188880068;03:30:58:861;0;9;-1.5;2.325;1.85728250244379;0;0;0;1;1;1;1;0;0;0;0;0;0;0;0;0;();(-2000.0, -2000.0);
03:30:58:880;03:30:58:876;1448461853.68;(0.3995096683502197, 0.25207222832573783);58.3381614685;1.0;03:30:58:880;0;7;-1.5;2.35172413793103;1.85728250244379;0;0;0;1;1;1;1;0;0;0;0;0;0;0;0;0;();(-2000.0, -2000.0);
03:30:58:895;03:30:58:876;1448461853.68;(0.3995096683502197, 0.25207222832573783);58.3381614685;1.0;03:30:58:895;0;10;-1.5;2.0625;1.85728250244379;0;0;0;1;1;1;1;0;0;0;0;0;0;0;0;0;();(-2000.0, -2000.0);
03:30:58:912;03:30:58:876;1448461853.68;(0.3995096683502197, 0.25207222832573783);58.3381614685;1.0;03:30:58:912;0;5;-1.5;2.1006160164271;1.46627565982405;0;0;0;1;1;1;1;0;0;0;0;0;0;0;0;0;();(-2000.0, -2000.0);
03:30:58:928;03:30:58:915;1448461853.72;(0.3995397090911865, 0.2529273139105903);58.4588775635;1.0;03:30:58:928;0;10;-1.5;2.13125;1.66177908113392;0;0;0;1;1;1;1;0;0;0;0;0;0;0;0;0;();(-2000.0, -2000.0);
03:30:58:962;03:30:58:955;1448461853.75;(0.39986066818237304, 0.2529358757866753);58.5265235901;1.0;03:30:58:962;0;9;-1.5;2.02574257425743;1.46627565982405;0;0;0;1;1;1;1;0;0;0;0;0;0;0;0;0;();(-2000.0, -2000.0);
03:30:58:979;03:30:58:955;1448461853.75;(0.39986066818237304, 0.2529358757866753);58.5265235901;1.0;03:30:58:979;0;0;-1.5;2.11801242236025;1.46627565982405;0;0;0;1;1;1;1;0;0;0;0;0;0;0;0;0;();(-2000.0, -2000.0);
03:30:58:996;03:30:58:955;1448461853.75;(0.39986066818237304, 0.2529358757866753);58.5265235901;1.0;03:30:58:996;0;5;-1.5;2.13125;2.1505376344086;0;0;0;1;1;1;1;0;0;0;0;0;0;0;0;0;();(-2000.0, -2000.0);
03:30:59:013;03:30:59:001;1448461853.82;(0.40019979476928713, 0.2525789896647136);58.6639518738;1.0;03:30:59:013;0;15;-1.5;1.97490347490347;1.36852394916911;0;0;0;1;1;1;1;0;0;0;0;0;0;0;0;0;();(-2000.0, -2000.0);
03:30:59:031;03:30:59:001;1448461853.82;(0.40019979476928713, 0.2525789896647136);58.6639518738;1.0;03:30:59:031;0;4;-1.5;1.89444444444444;1.36852394916911;0;0;0;1;1;1;1;0;0;0;0;0;0;0;0;0;();(-2000.0, -2000.0);
03:30:59:063;03:30:59:039;1448461853.85;(0.4005946397781372, 0.25286059909396696);58.4346313477;1.0;03:30:59:063;0;5;-1.5;1.97109826589595;1.66177908113392;0;0;0;1;1;1;1;0;0;0;0;0;0;0;0;0;();(-2000.0, -2000.0);
03:30:59:079;03:30:59:039;1448461853.85;(0.4005946397781372, 0.25286059909396696);58.4346313477;1.0;03:30:59:079;0;0;-1.5;1.94486692015209;1.36852394916911;0;0;0;1;1;1;1;0;0;0;0;0;0;0;0;0;();(-2000.0, -2000.0);
03:30:59:097;03:30:59:079;1448461853.88;(0.40091428756713865, 0.2531430562337239);58.4219245911;1.0;03:30:59:097;0;4;-1.5;2.12681912681913;1.46627565982405;0;0;0;1;1;1;1;0;0;0;0;0;0;0;0;0;();(-2000.0, -2000.0);
03:30:59:113;03:30:59:079;1448461853.88;(0.40091428756713865, 0.2531430562337239);58.4219245911;1.0;03:30:59:113;0;15;-1.5;2.1006160164271;1.46627565982405;0;0;0;1;1;1;1;0;0;0;0;0;0;0;0;0;();(-2000.0, -2000.0);
03:30:59:130;03:30:59:123;1448461853.92;(0.4009443998336792, 0.2532301161024305);58.5461730957;1.0;03:30:59:130;0;5;-1.5;2.1006160164271;1.46627565982405;0;0;0;1;1;1;1;0;0;0;0;0;0;0;0;0;();(-2000.0, -2000.0);
03:30:59:163;03:30:59:123;1448461853.92;(0.4009443998336792, 0.2532301161024305);58.5461730957;1.0;03:30:59:163;0;5;-1.5;2.16279069767442;1.46627565982405;0;0;0;1;1;1;1;0;0;0;0;0;0;0;0;0;();(-2000.0, -2000.0);
03:30:59:180;03:30:59:163;1448461853.95;(0.4010607242584229, 0.25306811862521705);58.5815734863;1.0;03:30:59:180;0;15;-1.5;2.24835164835165;1.46627565982405;0;0;0;1;1;1;1;0;0;0;0;0;0;0;0;0;();(-2000.0, -2000.0);
03:30:59:197;03:30:59:163;1448461853.95;(0.4010607242584229, 0.25306811862521705);58.5815734863;1.0;03:30:59:197;0;4;-1.5;2.26829268292683;2.34604105571848;0;0;0;1;1;1;1;0;0;0;0;0;0;0;0;0;();(-2000.0, -2000.0);
03:30:59:213;03:30:59:204;1448461854.02;(0.400971508026123, 0.2527879503038194);58.753276825;1.0;03:30:59:213;0;10;-1.5;2.21428571428571;1.46627565982405;0;0;0;1;1;1;1;0;0;0;0;0;0;0;0;0;();(-2000.0, -2000.0);
03:30:59:230;03:30:59:204;1448461854.02;(0.400971508026123, 0.2527879503038194);58.753276825;1.0;03:30:59:230;0;15;-1.5;2.325;1.85728250244379;0;0;0;1;1;1;1;0;0;0;0;0;0;0;0;0;();(-2000.0, -2000.0);
03:30:59:248;03:30:59:247;1448461854.05;(0.4012645721435547, 0.2526660495334201);58.9426231384;1.0;03:30:59:248;0;10;-1.5;2.14915966386555;2.1505376344086;0;0;0;1;1;1;1;0;0;0;0;0;0;0;0;0;();(-2000.0, -2000.0);
03:30:59:281;03:30:59:247;1448461854.05;(0.4012645721435547, 0.2526660495334201);58.9426231384;1.0;03:30:59:281;0;10;-1.5;2.22391304347826;1.46627565982405;0;0;0;1;1;1;1;0;0;0;0;0;0;0;0;0;();(-2000.0, -2000.0);
03:30:59:297;03:30:59:287;1448461854.08;(0.40135376453399657, 0.2527275085449219);58.9458351135;1.0;03:30:59:297;0;0;-1.5;2.22391304347826;1.46627565982405;0;0;0;1;1;1;1;0;0;0;0;0;0;0;0;0;();(-2000.0, -2000.0);
03:30:59:314;03:30:59:287;1448461854.08;(0.40135376453399657, 0.2527275085449219);58.9458351135;1.0;03:30:59:314;0;10;-1.5;2.325;1.66177908113392;0;0;0;1;1;1;1;0;0;0;0;0;0;0;0;0;();(-2000.0, -2000.0);
03:30:59:332;03:30:59:331;1448461854.12;(0.40145092010498046, 0.25280838012695317);58.9234733582;1.0;03:30:59:332;0;15;-1.5;2.36805555555556;1.95503421309873;0;0;0;1;1;1;1;0;0;0;0;0;0;0;0;0;();(-2000.0, -2000.0);
03:30:59:348;03:30:59:331;1448461854.12;(0.40145092010498046, 0.25280838012695317);58.9234733582;1.0;03:30:59:348;0;9;-1.5;2.50735294117647;1.85728250244379;0;0;0;1;1;1;1;0;0;0;0;0;0;0;0;0;();(-2000.0, -2000.0);
03:30:59:383;03:30:59:371;1448461854.15;(0.40284512042999265, 0.2537775675455729);59.1948204041;0.947031077406;03:30:59:382;0;9;-1.5;2.26829268292683;1.46627565982405;0;0;0;1;1;1;1;0;0;0;0;0;0;0;0;0;();(-2000.0, -2000.0);
03:30:59:398;03:30:59:371;1448461854.15;(0.40284512042999265, 0.2537775675455729);59.1948204041;0.947031077406;03:30:59:398;0;9;-1.5;2.26829268292683;1.46627565982405;0;0;0;1;1;1;1;0;0;0;0;0;0;0;0;0;();(-2000.0, -2000.0);
03:30:59:415;03:30:59:412;1448461854.22;(0.41880857944488525, 0.27212647332085504);57.7843170166;1.0;03:30:59:415;0;10;-1.5;2.28348214285714;1.66177908113392;0;0;0;1;1;1;1;0;0;0;0;0;0;0;0;0;();(-2000.0, -2000.0);
03:30:59:432;03:30:59:412;1448461854.22;(0.41880857944488525, 0.27212647332085504);57.7843170166;1.0;03:30:59:432;0;0;-1.5;2.13125;1.66177908113392;0;0;0;1;1;1;1;0;0;0;0;0;0;0;0;0;();(-2000.0, -2000.0);
03:30:59:448;03:30:59:412;1448461854.22;(0.41880857944488525, 0.27212647332085504);57.7843170166;1.0;03:30:59:448;0;5;-1.5;2.20950323974082;1.46627565982405;0;0;0;1;1;1;1;0;0;0;0;0;0;0;0;0;();(-2000.0, -2000.0);
03:30:59:483;03:30:59:456;1448461854.25;(0.4188013315200806, 0.2727819230821398);57.5180130005;1.0;03:30:59:483;0;5;-1.5;2.46506024096386;1.85728250244379;0;0;0;1;1;1;1;0;0;0;0;0;0;0;0;0;();(-2000.0, -2000.0);
03:30:59:499;03:30:59:495;1448461854.28;(0.4187837839126587, 0.27326448228624134);57.6193733215;1.0;03:30:59:499;0;9;-1.5;2.50735294117647;1.85728250244379;0;0;0;1;1;1;1;0;0;0;0;0;0;0;0;0;();(-2000.0, -2000.0);
03:30:59:515;03:30:59:495;1448461854.28;(0.4187837839126587, 0.27326448228624134);57.6193733215;1.0;03:30:59:515;0;4;-1.5;2.26829268292683;1.46627565982405;0;0;0;1;1;1;1;0;0;0;0;0;0;0;0;0;();(-2000.0, -2000.0);
03:30:59:532;03:30:59:495;1448461854.28;(0.4187837839126587, 0.27326448228624134);57.6193733215;1.0;03:30:59:532;0;15;-1.5;2.1006160164271;1.46627565982405;0;0;0;1;1;1;1;0;0;0;0;0;0;0;0;0;();(-2000.0, -2000.0);
03:30:59:549;03:30:59:536;1448461854.35;(0.41885545253753664, 0.273626963297526);57.5987968445;1.0;03:30:59:549;0;5;-1.5;1.76683937823834;1.17302052785924;0;0;0;1;1;1;1;0;0;0;0;0;0;0;0;0;();(-2000.0, -2000.0);
03:30:59:582;03:30:59:578;1448461854.38;(0.41895356178283694, 0.2737597571478949);57.2559776306;1.0;03:30:59:582;0;4;-1.5;1.91573033707865;1.36852394916911;0;0;0;1;1;1;1;0;0;0;0;0;0;0;0;0;();(-2000.0, -2000.0);
03:30:59:599;03:30:59:578;1448461854.38;(0.41895356178283694, 0.2737597571478949);57.2559776306;1.0;03:30:59:599;0;10;-1.5;2.26829268292683;1.85728250244379;0;0;0;1;1;1;1;0;0;0;0;0;0;0;0;0;();(-2000.0, -2000.0);
03:30:59:616;03:30:59:578;1448461854.38;(0.41895356178283694, 0.2737597571478949);57.2559776306;1.0;03:30:59:616;0;5;-1.5;2.19057815845824;2.1505376344086;0;0;0;1;1;1;1;0;0;0;0;0;0;0;0;0;();(-2000.0, -2000.0);
03:30:59:633;03:30:59:619;1448461854.42;(0.418874716758728, 0.27382647196451826);56.8518371582;1.0;03:30:59:633;0;10;-1.5;2.19057815845824;1.85728250244379;0;0;0;1;1;1;1;0;0;0;0;0;0;0;0;0;();(-2000.0, -2000.0);
03:30:59:649;03:30:59:619;1448461854.42;(0.418874716758728, 0.27382647196451826);56.8518371582;1.0;03:30:59:649;0;5;-1.5;2.25330396475771;1.85728250244379;0;0;0;1;1;1;1;0;0;0;0;0;0;0;0;0;();(-2000.0, -2000.0);
03:30:59:684;03:30:59:663;1448461854.45;(0.41882307529449464, 0.2739583757188585);56.6860809326;1.0;03:30:59:684;0;0;-1.5;2.27839643652561;1.85728250244379;0;0;0;1;1;1;1;0;0;0;0;0;0;0;0;0;();(-2000.0, -2000.0);
03:30:59:700;03:30:59:663;1448461854.45;(0.41882307529449464, 0.2739583757188585);56.6860809326;1.0;03:30:59:700;0;5;-1.5;2.22391304347826;1.46627565982405;0;0;0;1;1;1;1;0;0;0;0;0;0;0;0;0;();(-2000.0, -2000.0);
03:30:59:717;03:30:59:705;1448461854.52;(0.4187973737716675, 0.27411202324761286);56.1548728943;1.0;03:30:59:717;0;15;-1.5;2.26829268292683;1.46627565982405;0;0;0;1;1;1;1;0;0;0;0;0;0;0;0;0;();(-2000.0, -2000.0);
03:30:59:733;03:30:59:705;1448461854.52;(0.4187973737716675, 0.27411202324761286);56.1548728943;1.0;03:30:59:733;0;4;-1.5;2.17659574468085;1.46627565982405;0;0;0;1;1;1;1;0;0;0;0;0;0;0;0;0;();(-2000.0, -2000.0);
03:30:59:750;03:30:59:705;1448461854.52;(0.4187973737716675, 0.27411202324761286);56.1548728943;1.0;03:30:59:750;0;15;-1.5;2.2;1.46627565982405;0;0;0;1;1;1;1;0;0;0;0;0;0;0;0;0;();(-2000.0, -2000.0);
03:30:59:767;03:30:59:705;1448461854.52;(0.4187973737716675, 0.27411202324761286);56.1548728943;1.0;03:30:59:767;0;5;-1.5;2.07926829268293;1.46627565982405;0;0;0;1;1;1;1;0;0;0;0;0;0;0;0;0;();(-2000.0, -2000.0);
03:30:59:800;03:30:59:705;1448461854.52;(0.4187973737716675, 0.27411202324761286);56.1548728943;1.0;03:30:59:800;0;4;-1.5;2.0625;1.46627565982405;0;0;0;1;1;1;1;0;0;0;0;0;0;0;0;0;();(-2000.0, -2000.0);
03:30:59:817;03:30:59:705;1448461854.52;(0.4187973737716675, 0.27411202324761286);56.1548728943;1.0;03:30:59:817;0;15;-1.5;1.94117647058824;1.36852394916911;0;0;0;1;1;1;1;0;0;0;0;0;0;0;0;0;();(-2000.0, -2000.0);
03:30:59:834;03:30:59:832;1448461854.63;(0.48406429290771485, 0.1670530531141493);55.8586044312;1.0;03:30:59:834;0;4;-1.5;1.97490347490347;1.36852394916911;0;0;0;1;1;1;1;0;0;0;0;0;0;0;0;0;();(-2000.0, -2000.0);
03:30:59:851;03:30:59:832;1448461854.63;(0.48406429290771485, 0.1670530531141493);55.8586044312;1.0;03:30:59:851;0;10;-1.5;2.1006160164271;1.66177908113392;0;0;0;1;1;1;1;0;0;0;0;0;0;0;0;0;();(-2000.0, -2000.0);
03:30:59:868;03:30:59:832;1448461854.63;(0.48406429290771485, 0.1670530531141493);55.8586044312;1.0;03:30:59:868;0;5;-1.5;2.1006160164271;1.46627565982405;0;0;0;1;1;1;1;0;0;0;0;0;0;0;0;0;();(-2000.0, -2000.0);
03:30:59:901;03:30:59:872;1448461854.68;(0.482331657409668, 0.16200527615017357);56.041053772;1.0;03:30:59:901;0;4;-1.5;2.16737288135593;1.85728250244379;0;0;0;1;1;1;1;0;0;0;0;0;0;0;0;0;();(-2000.0, -2000.0);
03:30:59:918;03:30:59:911;1448461854.72;(0.48176965713500974, 0.16338390774197054);56.2015151978;1.0;03:30:59:918;0;10;-1.5;2.19057815845824;1.46627565982405;0;0;0;1;1;1;1;0;0;0;0;0;0;0;0;0;();(-2000.0, -2000.0);
03:30:59:934;03:30:59:911;1448461854.72;(0.48176965713500974, 0.16338390774197054);56.2015151978;1.0;03:30:59:934;0;5;-1.5;2.10493827160494;1.66177908113392;0;0;0;1;1;1;1;0;0;0;0;0;0;0;0;0;();(-2000.0, -2000.0);
03:30:59:951;03:30:59:911;1448461854.72;(0.48176965713500974, 0.16338390774197054);56.2015151978;1.0;03:30:59:951;0;10;-1.5;2.16737288135593;1.66177908113392;0;0;0;1;1;1;1;0;0;0;0;0;0;0;0;0;();(-2000.0, -2000.0);
03:30:59:968;03:30:59:955;1448461854.75;(0.4811546802520752, 0.16496844821506074);56.0467567444;1.0;03:30:59:968;0;8;-1.5;2.28348214285714;1.46627565982405;0;0;0;1;1;1;1;0;0;0;0;0;0;0;0;0;();(-2000.0, -2000.0);
03:31:00:002;03:30:59:995;1448461854.78;(0.48035407066345215, 0.16633885701497397);56.0429077148;1.0;03:31:00:002;0;0;-1.5;2.13125;1.66177908113392;0;0;0;1;1;1;1;0;0;0;0;0;0;0;0;0;();(-2000.0, -2000.0);
03:31:00:018;03:30:59:995;1448461854.78;(0.48035407066345215, 0.16633885701497397);56.0429077148;1.0;03:31:00:018;0;10;-1.5;2.325;1.66177908113392;0;0;0;1;1;1;1;0;0;0;0;0;0;0;0;0;();(-2000.0, -2000.0);
03:31:00:036;03:31:00:035;1448461854.82;(0.4794158458709717, 0.16732194688585067);55.8535690308;1.0;03:31:00:036;0;15;-1.5;2.20950323974082;1.46627565982405;0;0;0;1;1;1;1;0;0;0;0;0;0;0;0;0;();(-2000.0, -2000.0);
03:31:00:052;03:31:00:037;1448461854.85;(0.4780916213989258, 0.1683481852213542);55.8863868713;1.0;03:31:00:052;0;9;-1.5;2.36805555555556;1.95503421309873;0;0;0;1;1;1;1;0;0;0;0;0;0;0;0;0;();(-2000.0, -2000.0);
03:31:00:071;03:31:00:037;1448461854.85;(0.4780916213989258, 0.1683481852213542);55.8863868713;1.0;03:31:00:071;0;15;-1.5;2.11801242236025;1.46627565982405;0;0;0;1;1;1;1;0;0;0;0;0;0;0;0;0;();(-2000.0, -2000.0);
03:31:00:102;03:31:00:079;1448461854.88;(0.4790788173675537, 0.1659893459743924);56.9557685852;0.931325108;03:31:00:102;0;0;-1.5;2.21428571428571;1.46627565982405;0;0;0;1;1;1;1;0;0;0;0;0;0;0;0;0;();(-2000.0, -2000.0);
03:31:00:120;03:31:00:119;1448461854.92;(0.4810499668121338, 0.1571482340494792);55.7648162842;1.0;03:31:00:120;0;10;-1.5;2.14915966386555;1.46627565982405;0;0;0;1;1;1;1;0;0;0;0;0;0;0;0;0;();(-2000.0, -2000.0);
03:31:00:136;03:31:00:119;1448461854.92;(0.4810499668121338, 0.1571482340494792);55.7648162842;1.0;03:31:00:136;0;15;-1.5;2.0920245398773;1.46627565982405;0;0;0;1;1;1;1;0;0;0;0;0;0;0;0;0;();(-2000.0, -2000.0);
03:31:00:153;03:31:00:119;1448461854.92;(0.4810499668121338, 0.1571482340494792);55.7648162842;1.0;03:31:00:153;0;4;-1.5;2.14915966386555;1.46627565982405;0;0;0;1;1;1;1;0;0;0;0;0;0;0;0;0;();(-2000.0, -2000.0);
03:31:00:205;03:31:00:203;1448461854.98;(0.47835116386413573, 0.15884229871961808);55.3645172119;0.958917436479;03:31:00:205;0;9;-1.5;2.16737288135593;1.46627565982405;0;0;0;1;1;1;1;0;0;0;0;0;0;0;0;0;();(-2000.0, -2000.0);
03:31:00:210;03:31:00:204;1448461855.02;(0.4769443988800049, 0.15963651869032114);54.9702453613;1.0;03:31:00:210;0;9;-1.5;2.16737288135593;1.46627565982405;0;0;0;1;1;1;1;0;0;0;0;0;0;0;0;0;();(-2000.0, -2000.0);
03:31:00:217;03:31:00:204;1448461855.02;(0.4769443988800049, 0.15963651869032114);54.9702453613;1.0;03:31:00:217;0;4;-1.5;2.28348214285714;1.56402737047898;0;0;0;1;1;1;1;0;0;0;0;0;0;0;0;0;();(-2000.0, -2000.0);
03:31:00:236;03:31:00:204;1448461855.02;(0.4769443988800049, 0.15963651869032114);54.9702453613;1.0;03:31:00:236;0;15;-1.5;2.07926829268293;1.46627565982405;0;0;0;1;1;1;1;0;0;0;0;0;0;0;0;0;();(-2000.0, -2000.0);
03:31:00:253;03:31:00:243;1448461855.05;(0.4756784439086914, 0.16052500406901038);54.8437042236;1.0;03:31:00:253;0;4;-1.5;2.0625;1.46627565982405;0;0;0;1;1;1;1;0;0;0;0;0;0;0;0;0;();(-2000.0, -2000.0);
03:31:00:270;03:31:00:243;1448461855.05;(0.4756784439086914, 0.16052500406901038);54.8437042236;1.0;03:31:00:270;0;10;-1.5;1.92655367231638;1.36852394916911;0;0;0;1;1;1;1;0;0;0;0;0;0;0;0;0;();(-2000.0, -2000.0);
03:31:00:287;03:31:00:243;1448461855.05;(0.4756784439086914, 0.16052500406901038);54.8437042236;1.0;03:31:00:287;0;5;-1.5;2.10493827160494;1.46627565982405;0;0;0;1;1;1;1;0;0;0;0;0;0;0;0;0;();(-2000.0, -2000.0);
