%Timestamp,timestamp_write;timestamp_gotpupil;eyeTrackerTime;normPos;diameter;confidence;timestamp_gotbitdata;CRC;SEQ;AnalogOutp1;AnalogOutp2;AnalogOutp3;AnalogOutp4;AnalogOutp5;AnalogOutp6;DigitalOutp1;DigitalOutp2;DigitalOutp3;DigitalOutp4;nplanes;listofAirplanesonScreen;lastAction;lastActionDetails;lastActionAirplaneNumber;calculatedScore;positiveScore;negativeScore;collidedAirplaneNumbers;targetPositions;collisionPoint
06:43:49:389;06:43:49:378;1448647199.27;(0, 0);0;0;;;;;;;;;;;;;;0;0;0;0;0;0;0;0;0;();(-2000.0, -2000.0);
06:43:49:395;06:43:49:378;1448647199.27;(0, 0);0;0;;;;;;;;;;;;;;0;0;0;0;0;0;0;0;0;();(-2000.0, -2000.0);
06:43:49:397;06:43:49:378;1448647199.27;(0, 0);0;0;;;;;;;;;;;;;;0;0;0;0;0;0;0;0;0;();(-2000.0, -2000.0);
06:43:49:399;06:43:49:378;1448647199.27;(0, 0);0;0;;;;;;;;;;;;;;0;0;0;0;0;0;0;0;0;();(-2000.0, -2000.0);
06:43:49:400;06:43:49:378;1448647199.27;(0, 0);0;0;;;;;;;;;;;;;;0;0;0;0;0;0;0;0;0;();(-2000.0, -2000.0);
06:43:49:402;06:43:49:378;1448647199.27;(0, 0);0;0;;;;;;;;;;;;;;0;0;0;0;0;0;0;0;0;();(-2000.0, -2000.0);
06:43:49:404;06:43:49:378;1448647199.27;(0, 0);0;0;;;;;;;;;;;;;;0;0;0;0;0;0;0;0;0;();(-2000.0, -2000.0);
06:43:49:405;06:43:49:378;1448647199.27;(0, 0);0;0;;;;;;;;;;;;;;0;0;0;0;0;0;0;0;0;();(-2000.0, -2000.0);
06:43:49:406;06:43:49:378;1448647199.27;(0, 0);0;0;;;;;;;;;;;;;;0;0;0;0;0;0;0;0;0;();(-2000.0, -2000.0);
06:43:49:407;06:43:49:378;1448647199.27;(0, 0);0;0;;;;;;;;;;;;;;0;0;0;0;0;0;0;0;0;();(-2000.0, -2000.0);
06:43:49:408;06:43:49:378;1448647199.27;(0, 0);0;0;;;;;;;;;;;;;;0;0;0;0;0;0;0;0;0;();(-2000.0, -2000.0);
06:43:49:409;06:43:49:378;1448647199.27;(0, 0);0;0;;;;;;;;;;;;;;0;0;0;0;0;0;0;0;0;();(-2000.0, -2000.0);
06:43:49:410;06:43:49:378;1448647199.27;(0, 0);0;0;;;;;;;;;;;;;;0;0;0;0;0;0;0;0;0;();(-2000.0, -2000.0);
06:43:49:410;06:43:49:378;1448647199.27;(0, 0);0;0;;;;;;;;;;;;;;0;0;0;0;0;0;0;0;0;();(-2000.0, -2000.0);
06:43:49:411;06:43:49:378;1448647199.27;(0, 0);0;0;;;;;;;;;;;;;;0;0;0;0;0;0;0;0;0;();(-2000.0, -2000.0);
06:43:49:412;06:43:49:378;1448647199.27;(0, 0);0;0;;;;;;;;;;;;;;0;0;0;0;0;0;0;0;0;();(-2000.0, -2000.0);
06:43:49:413;06:43:49:378;1448647199.27;(0, 0);0;0;;;;;;;;;;;;;;0;0;0;0;0;0;0;0;0;();(-2000.0, -2000.0);
06:43:49:414;06:43:49:378;1448647199.27;(0, 0);0;0;;;;;;;;;;;;;;0;0;0;0;0;0;0;0;0;();(-2000.0, -2000.0);
06:43:49:441;06:43:49:378;1448647199.27;(0, 0);0;0;;;;;;;;;;;;;;0;0;0;0;0;0;0;0;0;();(-2000.0, -2000.0);
06:43:49:457;06:43:49:441;1448647199.34;(0, 0);0;0;;;;;;;;;;;;;;0;0;0;0;0;0;0;0;0;();(-2000.0, -2000.0);
06:43:49:473;06:43:49:441;1448647199.34;(0, 0);0;0;;;;;;;;;;;;;;0;0;0;0;0;0;0;0;0;();(-2000.0, -2000.0);
06:43:49:490;06:43:49:441;1448647199.34;(0, 0);0;0;;;;;;;;;;;;;;0;0;0;0;0;0;0;0;0;();(-2000.0, -2000.0);
06:43:49:509;06:43:49:509;1448647199.37;(0, 0);0;0;;;;;;;;;;;;;;0;0;0;0;0;0;0;0;0;();(-2000.0, -2000.0);
06:43:49:543;06:43:49:509;1448647199.41;(0, 0);0;0;;;;;;;;;;;;;;0;0;0;0;0;0;0;0;0;();(-2000.0, -2000.0);
06:43:51:817;06:43:51:766;1448647201.64;(0, 0);0;0;;;;;;;;;;;;;;0;0;0;0;0;0;0;0;0;();(-2000.0, -2000.0);
06:43:51:819;06:43:51:766;1448647201.64;(0, 0);0;0;;;;;;;;;;;;;;0;0;0;0;0;0;0;0;0;();(-2000.0, -2000.0);
06:43:51:821;06:43:51:766;1448647201.64;(0, 0);0;0;;;;;;;;;;;;;;0;0;0;0;0;0;0;0;0;();(-2000.0, -2000.0);
06:43:51:822;06:43:51:766;1448647201.64;(0, 0);0;0;;;;;;;;;;;;;;0;0;0;0;0;0;0;0;0;();(-2000.0, -2000.0);
06:43:51:824;06:43:51:766;1448647201.64;(0, 0);0;0;;;;;;;;;;;;;;0;0;0;0;0;0;0;0;0;();(-2000.0, -2000.0);
06:43:51:826;06:43:51:766;1448647201.64;(0, 0);0;0;;;;;;;;;;;;;;0;0;0;0;0;0;0;0;0;();(-2000.0, -2000.0);
06:43:51:828;06:43:51:766;1448647201.64;(0, 0);0;0;;;;;;;;;;;;;;0;0;0;0;0;0;0;0;0;();(-2000.0, -2000.0);
06:43:51:830;06:43:51:766;1448647201.64;(0, 0);0;0;;;;;;;;;;;;;;0;0;0;0;0;0;0;0;0;();(-2000.0, -2000.0);
06:43:51:831;06:43:51:766;1448647201.64;(0, 0);0;0;;;;;;;;;;;;;;0;0;0;0;0;0;0;0;0;();(-2000.0, -2000.0);
06:43:51:833;06:43:51:833;1448647201.67;(0, 0);0;0;;;;;;;;;;;;;;0;0;0;0;0;0;0;0;0;();(-2000.0, -2000.0);
06:43:51:834;06:43:51:833;1448647201.74;(0, 0);0;0;;;;;;;;;;;;;;0;0;0;0;0;0;0;0;0;();(-2000.0, -2000.0);
06:43:51:835;06:43:51:833;1448647201.74;(0, 0);0;0;;;;;;;;;;;;;;0;0;0;0;0;0;0;0;0;();(-2000.0, -2000.0);
06:43:51:836;06:43:51:833;1448647201.74;(0, 0);0;0;;;;;;;;;;;;;;0;0;0;0;0;0;0;0;0;();(-2000.0, -2000.0);
06:43:51:837;06:43:51:833;1448647201.74;(0, 0);0;0;;;;;;;;;;;;;;0;0;0;0;0;0;0;0;0;();(-2000.0, -2000.0);
06:43:51:838;06:43:51:833;1448647201.74;(0, 0);0;0;;;;;;;;;;;;;;0;0;0;0;0;0;0;0;0;();(-2000.0, -2000.0);
06:43:51:839;06:43:51:833;1448647201.74;(0, 0);0;0;;;;;;;;;;;;;;0;0;0;0;0;0;0;0;0;();(-2000.0, -2000.0);
06:43:51:839;06:43:51:833;1448647201.74;(0, 0);0;0;;;;;;;;;;;;;;0;0;0;0;0;0;0;0;0;();(-2000.0, -2000.0);
06:43:51:841;06:43:51:833;1448647201.74;(0, 0);0;0;;;;;;;;;;;;;;0;0;0;0;0;0;0;0;0;();(-2000.0, -2000.0);
06:43:51:860;06:43:51:833;1448647201.74;(0, 0);0;0;;;;;;;;;;;;;;0;0;0;0;0;0;0;0;0;();(-2000.0, -2000.0);
06:43:51:876;06:43:51:833;1448647201.74;(0, 0);0;0;;;;;;;;;;;;;;0;0;0;0;0;0;0;0;0;();(-2000.0, -2000.0);
06:43:51:893;06:43:51:833;1448647201.74;(0, 0);0;0;;;;;;;;;;;;;;0;0;0;0;0;0;0;0;0;();(-2000.0, -2000.0);
06:43:51:910;06:43:51:898;1448647201.77;(0, 0);0;0;;;;;;;;;;;;;;0;0;0;0;0;0;0;0;0;();(-2000.0, -2000.0);
06:43:51:944;06:43:51:898;1448647201.77;(0, 0);0;0;;;;;;;;;;;;;;0;0;0;0;0;0;0;0;0;();(-2000.0, -2000.0);
06:43:51:960;06:43:51:898;1448647201.77;(0, 0);0;0;;;;;;;;;;;;;;0;0;0;0;0;0;0;0;0;();(-2000.0, -2000.0);
06:43:51:977;06:43:51:965;1448647201.87;(0, 0);0;0;;;;;;;;;;;;;;0;0;0;0;0;0;0;0;0;();(-2000.0, -2000.0);
06:43:51:994;06:43:51:965;1448647201.87;(0, 0);0;0;;;;;;;;;;;;;;0;0;0;0;0;0;0;0;0;();(-2000.0, -2000.0);
06:43:52:010;06:43:51:965;1448647201.87;(0, 0);0;0;;;;;;;;;;;;;;0;0;0;0;0;0;0;0;0;();(-2000.0, -2000.0);
06:43:52:044;06:43:52:030;1448647201.91;(0, 0);0;0;;;;;;;;;;;;;;0;0;0;0;0;0;0;0;0;();(-2000.0, -2000.0);
06:43:52:060;06:43:52:030;1448647201.91;(0, 0);0;0;;;;;;;;;;;;;;0;0;0;0;0;0;0;0;0;();(-2000.0, -2000.0);
06:43:52:077;06:43:52:030;1448647201.91;(0, 0);0;0;;;;;;;;;;;;;;0;0;0;0;0;0;0;0;0;();(-2000.0, -2000.0);
06:43:52:093;06:43:52:030;1448647201.91;(0, 0);0;0;;;;;;;;;;;;;;0;0;0;0;0;0;0;0;0;();(-2000.0, -2000.0);
06:43:52:111;06:43:52:097;1448647201.97;(0, 0);0;0;;;;;;;;;;;;;;0;0;0;0;0;0;0;0;0;();(-2000.0, -2000.0);
06:43:52:145;06:43:52:097;1448647201.97;(0, 0);0;0;;;;;;;;;;;;;;0;0;0;0;0;0;0;0;0;();(-2000.0, -2000.0);
06:43:52:161;06:43:52:097;1448647201.97;(0, 0);0;0;;;;;;;;;;;;;;0;0;0;0;0;0;0;0;0;();(-2000.0, -2000.0);
06:43:52:177;06:43:52:165;1448647202.07;(0, 0);0;0;;;;;;;;;;;;;;0;0;0;0;0;0;0;0;0;();(-2000.0, -2000.0);
06:43:52:194;06:43:52:165;1448647202.07;(0, 0);0;0;;;;;;;;;;;;;;0;0;0;0;0;0;0;0;0;();(-2000.0, -2000.0);
06:43:52:212;06:43:52:165;1448647202.07;(0, 0);0;0;;;;;;;;;;;;;;0;0;0;0;0;0;0;0;0;();(-2000.0, -2000.0);
06:43:52:244;06:43:52:230;1448647202.11;(0, 0);0;0;;;;;;;;;;;;;;0;0;0;0;0;0;0;0;0;();(-2000.0, -2000.0);
06:43:52:261;06:43:52:230;1448647202.11;(0, 0);0;0;;;;;;;;;;;;;;0;0;0;0;0;0;0;0;0;();(-2000.0, -2000.0);
06:43:52:277;06:43:52:230;1448647202.11;(0, 0);0;0;;;;;;;;;;;;;;0;0;0;0;0;0;0;0;0;();(-2000.0, -2000.0);
06:43:52:294;06:43:52:230;1448647202.11;(0, 0);0;0;;;;;;;;;;;;;;0;0;0;0;0;0;0;0;0;();(-2000.0, -2000.0);
06:43:52:311;06:43:52:298;1448647202.17;(0, 0);0;0;;;;;;;;;;;;;;0;0;0;0;0;0;0;0;0;();(-2000.0, -2000.0);
06:43:52:345;06:43:52:298;1448647202.17;(0, 0);0;0;;;;;;;;;;;;;;0;0;0;0;0;0;0;0;0;();(-2000.0, -2000.0);
06:43:52:361;06:43:52:298;1448647202.17;(0, 0);0;0;;;;;;;;;;;;;;0;0;0;0;0;0;0;0;0;();(-2000.0, -2000.0);
06:43:52:377;06:43:52:362;1448647202.24;(0, 0);0;0;;;;;;;;;;;;;;0;0;0;0;0;0;0;0;0;();(-2000.0, -2000.0);
06:43:52:394;06:43:52:362;1448647202.24;(0, 0);0;0;;;;;;;;;;;;;;0;0;0;0;0;0;0;0;0;();(-2000.0, -2000.0);
06:43:52:411;06:43:52:362;1448647202.24;(0, 0);0;0;;;;;;;;;;;;;;0;0;0;0;0;0;0;0;0;();(-2000.0, -2000.0);
06:43:52:445;06:43:52:429;1448647202.31;(0, 0);0;0;;;;;;;;;;;;;;0;0;0;0;0;0;0;0;0;();(-2000.0, -2000.0);
06:43:52:461;06:43:52:429;1448647202.31;(0, 0);0;0;;;;;;;;;;;;;;0;0;0;0;0;0;0;0;0;();(-2000.0, -2000.0);
06:43:52:478;06:43:52:429;1448647202.31;(0, 0);0;0;;;;;;;;;;;;;;0;0;0;0;0;0;0;0;0;();(-2000.0, -2000.0);
06:43:52:494;06:43:52:429;1448647202.31;(0, 0);0;0;;;;;;;;;;;;;;0;0;0;0;0;0;0;0;0;();(-2000.0, -2000.0);
06:43:52:512;06:43:52:498;1448647202.37;(0, 0);0;0;;;;;;;;;;;;;;0;0;0;0;0;0;0;0;0;();(-2000.0, -2000.0);
06:43:53:036;06:43:53:026;1448647202.91;(0, 0);0;0;06:43:53:033;0;10;-1.5;1;0;0;0;0;1;1;1;1;0;0;0;0;0;0;0;0;0;();(-2000.0, -2000.0);
06:43:53:038;06:43:53:026;1448647202.91;(0, 0);0;0;06:43:53:038;0;10;-1.5;1;0;0;0;0;1;1;1;1;0;0;0;0;0;0;0;0;0;();(-2000.0, -2000.0);
06:43:53:040;06:43:53:026;1448647202.91;(0, 0);0;0;06:43:53:040;0;10;-1.5;1;0;0;0;0;1;1;1;1;0;0;0;0;0;0;0;0;0;();(-2000.0, -2000.0);
06:43:53:042;06:43:53:026;1448647202.91;(0, 0);0;0;06:43:53:042;0;10;-1.5;1;0;0;0;0;1;1;1;1;0;0;0;0;0;0;0;0;0;();(-2000.0, -2000.0);
06:43:53:044;06:43:53:026;1448647202.91;(0, 0);0;0;06:43:53:044;0;4;-1.5;1;0;0;0;0;1;1;1;1;0;0;0;0;0;0;0;0;0;();(-2000.0, -2000.0);
06:43:53:046;06:43:53:026;1448647202.91;(0, 0);0;0;06:43:53:046;0;4;-1.5;1;0;0;0;0;1;1;1;1;0;0;0;0;0;0;0;0;0;();(-2000.0, -2000.0);
06:43:53:047;06:43:53:026;1448647202.91;(0, 0);0;0;06:43:53:047;0;4;-1.5;1;0;0;0;0;1;1;1;1;0;0;0;0;0;0;0;0;0;();(-2000.0, -2000.0);
06:43:53:049;06:43:53:026;1448647202.91;(0, 0);0;0;06:43:53:049;0;4;-1.5;1;0;0;0;0;1;1;1;1;0;0;0;0;0;0;0;0;0;();(-2000.0, -2000.0);
06:43:53:051;06:43:53:026;1448647202.91;(0, 0);0;0;06:43:53:051;0;4;-1.5;1;0;0;0;0;1;1;1;1;0;0;0;0;0;0;0;0;0;();(-2000.0, -2000.0);
06:43:53:053;06:43:53:026;1448647202.91;(0, 0);0;0;06:43:53:053;0;4;-1.5;1;0;0;0;0;1;1;1;1;0;0;0;0;0;0;0;0;0;();(-2000.0, -2000.0);
06:43:53:055;06:43:53:026;1448647202.91;(0, 0);0;0;06:43:53:055;0;4;-1.5;1;0;0;0;0;1;1;1;1;0;0;0;0;0;0;0;0;0;();(-2000.0, -2000.0);
06:43:53:056;06:43:53:026;1448647202.91;(0, 0);0;0;06:43:53:056;0;4;-1.5;1;0;0;0;0;1;1;1;1;0;0;0;0;0;0;0;0;0;();(-2000.0, -2000.0);
06:43:53:058;06:43:53:026;1448647202.91;(0, 0);0;0;06:43:53:058;0;15;-1.5;1;0;0;0;0;1;1;1;1;0;0;0;0;0;0;0;0;0;();(-2000.0, -2000.0);
06:43:53:060;06:43:53:026;1448647202.91;(0, 0);0;0;06:43:53:060;0;15;-1.5;1;0;0;0;0;1;1;1;1;0;0;0;0;0;0;0;0;0;();(-2000.0, -2000.0);
06:43:53:063;06:43:53:026;1448647202.91;(0, 0);0;0;06:43:53:063;0;15;-1.5;1;0;0;0;0;1;1;1;1;0;0;0;0;0;0;0;0;0;();(-2000.0, -2000.0);
06:43:53:064;06:43:53:026;1448647202.91;(0, 0);0;0;06:43:53:064;0;9;-1.5;1;0;0;0;0;1;1;1;1;0;0;0;0;0;0;0;0;0;();(-2000.0, -2000.0);
06:43:53:065;06:43:53:026;1448647202.91;(0, 0);0;0;06:43:53:065;0;9;-1.5;1;0;0;0;0;1;1;1;1;0;0;0;0;0;0;0;0;0;();(-2000.0, -2000.0);
06:43:53:066;06:43:53:026;1448647202.91;(0, 0);0;0;06:43:53:066;0;9;-1.5;1;0;0;0;0;1;1;1;1;0;0;0;0;0;0;0;0;0;();(-2000.0, -2000.0);
06:43:53:077;06:43:53:026;1448647202.91;(0, 0);0;0;06:43:53:077;0;9;-1.5;1;0;0;0;0;1;1;1;1;0;0;0;0;0;0;0;0;0;();(-2000.0, -2000.0);
06:43:53:111;06:43:53:093;1448647202.97;(0, 0);0;0;06:43:53:111;0;4;-1.5;1;0;0;0;0;1;1;1;1;0;0;0;0;0;0;0;0;0;();(-2000.0, -2000.0);
06:43:53:128;06:43:53:093;1448647202.97;(0, 0);0;0;06:43:53:128;0;15;-1.5;1;0;0;0;0;1;1;1;1;0;0;0;0;0;0;0;0;0;();(-2000.0, -2000.0);
06:43:53:144;06:43:53:093;1448647202.97;(0, 0);0;0;06:43:53:144;0;4;-1.5;1;0;0;0;0;1;1;1;1;0;0;0;0;0;0;0;0;0;();(-2000.0, -2000.0);
06:43:53:160;06:43:53:157;1448647203.04;(0, 0);0;0;06:43:53:160;0;15;-1.5;1;0;0;0;0;1;1;1;1;0;0;0;0;0;0;0;0;0;();(-2000.0, -2000.0);
06:43:53:178;06:43:53:157;1448647203.04;(0, 0);0;0;06:43:53:177;0;5;-1.5;1;0;0;0;0;1;1;1;1;0;0;0;0;0;0;0;0;0;();(-2000.0, -2000.0);
06:43:53:211;06:43:53:157;1448647203.04;(0, 0);0;0;06:43:53:211;0;4;-1.5;1;0;0;0;0;1;1;1;1;0;0;0;0;0;0;0;0;0;();(-2000.0, -2000.0);
06:43:53:228;06:43:53:225;1448647203.11;(0, 0);0;0;06:43:53:228;0;9;-1.5;1;0;0;0;0;1;1;1;1;0;0;0;0;0;0;0;0;0;();(-2000.0, -2000.0);
06:43:53:245;06:43:53:225;1448647203.11;(0, 0);0;0;06:43:53:245;0;4;-1.5;1;0;0;0;0;1;1;1;1;0;0;0;0;0;0;0;0;0;();(-2000.0, -2000.0);
06:43:53:261;06:43:53:225;1448647203.11;(0, 0);0;0;06:43:53:261;0;10;-1.5;1;0;0;0;0;1;1;1;1;0;0;0;0;0;0;0;0;0;();(-2000.0, -2000.0);
06:43:53:278;06:43:53:225;1448647203.11;(0, 0);0;0;06:43:53:278;0;5;-1.5;1;0;0;0;0;1;1;1;1;0;0;0;0;0;0;0;0;0;();(-2000.0, -2000.0);
06:43:53:311;06:43:53:297;1448647203.17;(0, 0);0;0;06:43:53:311;0;4;-1.5;1;0;0;0;0;1;1;1;1;0;0;0;0;0;0;0;0;0;();(-2000.0, -2000.0);
06:43:53:328;06:43:53:297;1448647203.17;(0, 0);0;0;06:43:53:328;0;9;-1.5;1;0;0;0;0;1;1;1;1;0;0;0;0;0;0;0;0;0;();(-2000.0, -2000.0);
06:43:53:345;06:43:53:297;1448647203.17;(0, 0);0;0;06:43:53:345;0;15;-1.5;1;0;0;0;0;1;1;1;1;0;0;0;0;0;0;0;0;0;();(-2000.0, -2000.0);
06:43:53:360;06:43:53:297;1448647203.17;(0, 0);0;0;06:43:53:360;0;9;-1.5;1;0;0;0;0;1;1;1;1;0;0;0;0;0;0;0;0;0;();(-2000.0, -2000.0);
06:43:53:378;06:43:53:368;1448647203.24;(0, 0);0;0;06:43:53:378;0;15;-1.5;1;0;0;0;0;1;1;1;1;0;0;0;0;0;0;0;0;0;();(-2000.0, -2000.0);
06:43:53:411;06:43:53:368;1448647203.24;(0, 0);0;0;06:43:53:411;0;0;-1.5;1;0;0;0;0;1;1;1;1;0;0;0;0;0;0;0;0;0;();(-2000.0, -2000.0);
06:43:53:427;06:43:53:425;1448647203.31;(0, 0);0;0;06:43:53:427;0;10;-1.5;1;0;0;0;0;1;1;1;1;0;0;0;0;0;0;0;0;0;();(-2000.0, -2000.0);
06:43:53:444;06:43:53:425;1448647203.31;(0, 0);0;0;06:43:53:444;0;15;-1.5;1;0;0;0;0;1;1;1;1;0;0;0;0;0;0;0;0;0;();(-2000.0, -2000.0);
06:43:53:460;06:43:53:425;1448647203.31;(0, 0);0;0;06:43:53:460;0;10;-1.5;1;0;0;0;0;1;1;1;1;0;0;0;0;0;0;0;0;0;();(-2000.0, -2000.0);
06:43:53:477;06:43:53:425;1448647203.31;(0, 0);0;0;06:43:53:477;0;15;-1.5;1;0;0;0;0;1;1;1;1;0;0;0;0;0;0;0;0;0;();(-2000.0, -2000.0);
06:43:53:511;06:43:53:489;1448647203.37;(0, 0);0;0;06:43:53:511;0;10;-1.5;1;0;0;0;0;1;1;1;1;0;0;0;0;0;0;0;0;0;();(-2000.0, -2000.0);
06:43:53:527;06:43:53:489;1448647203.37;(0, 0);0;0;06:43:53:527;0;4;-1.5;1;0;0;0;0;1;1;1;1;0;0;0;0;0;0;0;0;0;();(-2000.0, -2000.0);
06:43:53:545;06:43:53:489;1448647203.37;(0, 0);0;0;06:43:53:545;0;9;-1.5;1;0;0;0;0;1;1;1;1;0;0;0;0;0;0;0;0;0;();(-2000.0, -2000.0);
06:43:53:562;06:43:53:557;1448647203.44;(0, 0);0;0;06:43:53:561;0;4;-1.5;1;0;0;0;0;1;1;1;1;0;0;0;0;0;0;0;0;0;();(-2000.0, -2000.0);
06:43:53:577;06:43:53:557;1448647203.44;(0, 0);0;0;06:43:53:577;0;10;-1.5;1;0;0;0;0;1;1;1;1;0;0;0;0;0;0;0;0;0;();(-2000.0, -2000.0);
06:43:53:610;06:43:53:557;1448647203.44;(0, 0);0;0;06:43:53:610;0;10;-1.5;1;0;0;0;0;1;1;1;1;0;0;0;0;0;0;0;0;0;();(-2000.0, -2000.0);
06:43:53:628;06:43:53:626;1448647203.51;(0, 0);0;0;06:43:53:628;0;10;-1.5;1;0;0;0;0;1;1;1;1;0;0;0;0;0;0;0;0;0;();(-2000.0, -2000.0);
06:43:53:644;06:43:53:626;1448647203.51;(0, 0);0;0;06:43:53:644;0;15;-1.5;1;0;0;0;0;1;1;1;1;0;0;0;0;0;0;0;0;0;();(-2000.0, -2000.0);
06:43:53:661;06:43:53:626;1448647203.51;(0, 0);0;0;06:43:53:661;0;15;-1.5;1;0;0;0;0;1;1;1;1;0;0;0;0;0;0;0;0;0;();(-2000.0, -2000.0);
06:43:53:677;06:43:53:626;1448647203.51;(0, 0);0;0;06:43:53:677;0;10;-1.5;1;0;0;0;0;1;1;1;1;0;0;0;0;0;0;0;0;0;();(-2000.0, -2000.0);
06:43:53:712;06:43:53:690;1448647203.57;(0, 0);0;0;06:43:53:712;0;9;-1.5;1;0;0;0;0;1;1;1;1;0;0;0;0;0;0;0;0;0;();(-2000.0, -2000.0);
06:43:53:727;06:43:53:690;1448647203.57;(0, 0);0;0;06:43:53:727;0;5;-1.5;1;0;0;0;0;1;1;1;1;0;0;0;0;0;0;0;0;0;();(-2000.0, -2000.0);
06:43:53:745;06:43:53:690;1448647203.57;(0, 0);0;0;06:43:53:744;0;10;-1.5;1;0;0;0;0;1;1;1;1;0;0;0;0;0;0;0;0;0;();(-2000.0, -2000.0);
06:43:53:762;06:43:53:758;1448647203.64;(0, 0);0;0;06:43:53:762;0;15;-1.5;1;0;0;0;0;1;1;1;1;0;0;0;0;0;0;0;0;0;();(-2000.0, -2000.0);
06:43:53:777;06:43:53:758;1448647203.64;(0, 0);0;0;06:43:53:777;0;4;-1.5;1;0;0;0;0;1;1;1;1;0;0;0;0;0;0;0;0;0;();(-2000.0, -2000.0);
06:43:53:811;06:43:53:758;1448647203.64;(0, 0);0;0;06:43:53:811;0;5;-1.5;1;0;0;0;0;1;1;1;1;0;0;0;0;0;0;0;0;0;();(-2000.0, -2000.0);
06:43:53:827;06:43:53:827;1448647203.67;(0, 0);0;0;06:43:53:827;0;15;-1.5;1;0;0;0;0;1;1;1;1;0;0;0;0;0;0;0;0;0;();(-2000.0, -2000.0);
06:43:53:844;06:43:53:830;1448647203.71;(0, 0);0;0;06:43:53:844;0;10;-1.5;1;0;0;0;0;1;1;1;1;0;0;0;0;0;0;0;0;0;();(-2000.0, -2000.0);
06:43:53:860;06:43:53:830;1448647203.71;(0, 0);0;0;06:43:53:860;0;15;-1.5;1;0;0;0;0;1;1;1;1;0;0;0;0;0;0;0;0;0;();(-2000.0, -2000.0);
06:43:53:878;06:43:53:830;1448647203.71;(0, 0);0;0;06:43:53:878;0;4;-1.5;1;0;0;0;0;1;1;1;1;0;0;0;0;0;0;0;0;0;();(-2000.0, -2000.0);
06:43:53:912;06:43:53:889;1448647203.77;(0, 0);0;0;06:43:53:911;0;4;-1.5;1;0;0;0;0;1;1;1;1;0;0;0;0;0;0;0;0;0;();(-2000.0, -2000.0);
06:43:53:927;06:43:53:889;1448647203.77;(0, 0);0;0;06:43:53:927;0;15;-1.5;1;0;0;0;0;1;1;1;1;0;0;0;0;0;0;0;0;0;();(-2000.0, -2000.0);
06:43:53:945;06:43:53:889;1448647203.77;(0, 0);0;0;06:43:53:945;0;4;-1.5;1;0;0;0;0;1;1;1;1;0;0;0;0;0;0;0;0;0;();(-2000.0, -2000.0);
06:43:53:961;06:43:53:957;1448647203.84;(0, 0);0;0;06:43:53:961;0;9;-1.5;1;0;0;0;0;1;1;1;1;0;0;0;0;0;0;0;0;0;();(-2000.0, -2000.0);
06:43:53:978;06:43:53:957;1448647203.84;(0, 0);0;0;06:43:53:978;0;5;-1.5;1;0;0;0;0;1;1;1;1;0;0;0;0;0;0;0;0;0;();(-2000.0, -2000.0);
06:43:54:011;06:43:53:957;1448647203.84;(0, 0);0;0;06:43:54:011;0;4;-1.5;1;0;0;0;0;1;1;1;1;0;0;0;0;0;0;0;0;0;();(-2000.0, -2000.0);
06:43:54:028;06:43:54:022;1448647203.91;(0, 0);0;0;06:43:54:028;0;10;-1.5;1;0;0;0;0;1;1;1;1;0;0;0;0;0;0;0;0;0;();(-2000.0, -2000.0);
06:43:54:045;06:43:54:022;1448647203.91;(0, 0);0;0;06:43:54:045;0;5;-1.5;1;0;0;0;0;1;1;1;1;0;0;0;0;0;0;0;0;0;();(-2000.0, -2000.0);
06:43:54:061;06:43:54:022;1448647203.91;(0, 0);0;0;06:43:54:061;0;10;-1.5;1;0;0;0;0;1;1;1;1;0;0;0;0;0;0;0;0;0;();(-2000.0, -2000.0);
06:43:54:078;06:43:54:022;1448647203.91;(0, 0);0;0;06:43:54:078;0;15;-1.5;1;0;0;0;0;1;1;1;1;0;0;0;0;0;0;0;0;0;();(-2000.0, -2000.0);
06:43:54:111;06:43:54:089;1448647203.97;(0, 0);0;0;06:43:54:111;0;4;-1.5;1;0;0;0;0;1;1;1;1;0;0;0;0;0;0;0;0;0;();(-2000.0, -2000.0);
06:43:54:128;06:43:54:089;1448647203.97;(0, 0);0;0;06:43:54:128;0;15;-1.5;1;0;0;0;0;1;1;1;1;0;0;0;0;0;0;0;0;0;();(-2000.0, -2000.0);
06:43:54:146;06:43:54:089;1448647203.97;(0, 0);0;0;06:43:54:145;0;15;-1.5;1;0;0;0;0;1;1;1;1;0;0;0;0;0;0;0;0;0;();(-2000.0, -2000.0);
06:43:54:161;06:43:54:155;1448647204.04;(0, 0);0;0;06:43:54:161;0;4;-1.5;1;0;0;0;0;1;1;1;1;0;0;0;0;0;0;0;0;0;();(-2000.0, -2000.0);
06:43:54:178;06:43:54:155;1448647204.04;(0, 0);0;0;06:43:54:177;0;15;-1.5;1;0;0;0;0;1;1;1;1;0;0;0;0;0;0;0;0;0;();(-2000.0, -2000.0);
06:43:54:214;06:43:54:155;1448647204.04;(0, 0);0;0;06:43:54:214;0;0;-1.5;1;0;0;0;0;1;1;1;1;0;0;0;0;0;0;0;0;0;();(-2000.0, -2000.0);
06:43:54:232;06:43:54:221;1448647204.11;(0, 0);0;0;06:43:54:232;0;4;-1.5;1;0;0;0;0;1;1;1;1;0;0;0;0;0;0;0;0;0;();(-2000.0, -2000.0);
06:43:54:246;06:43:54:221;1448647204.11;(0, 0);0;0;06:43:54:246;0;15;-1.5;1;0;0;0;0;1;1;1;1;0;0;0;0;0;0;0;0;0;();(-2000.0, -2000.0);
06:43:54:261;06:43:54:221;1448647204.11;(0, 0);0;0;06:43:54:261;0;4;-1.5;1;0;0;0;0;1;1;1;1;0;0;0;0;0;0;0;0;0;();(-2000.0, -2000.0);
06:43:54:279;06:43:54:221;1448647204.11;(0, 0);0;0;06:43:54:279;0;0;-1.5;1;0;0;0;0;1;1;1;1;0;0;0;0;0;0;0;0;0;();(-2000.0, -2000.0);
06:43:54:312;06:43:54:290;1448647204.17;(0, 0);0;0;06:43:54:311;0;10;-1.5;1;0;0;0;0;1;1;1;1;0;0;0;0;0;0;0;0;0;();(-2000.0, -2000.0);
06:43:54:328;06:43:54:290;1448647204.17;(0, 0);0;0;06:43:54:328;0;4;-1.5;1;0;0;0;0;1;1;1;1;0;0;0;0;0;0;0;0;0;();(-2000.0, -2000.0);
06:43:54:345;06:43:54:290;1448647204.17;(0, 0);0;0;06:43:54:345;0;10;-1.5;1;0;0;0;0;1;1;1;1;0;0;0;0;0;0;0;0;0;();(-2000.0, -2000.0);
06:43:54:361;06:43:54:353;1448647204.24;(0, 0);0;0;06:43:54:361;0;10;-1.5;1;0;0;0;0;1;1;1;1;0;0;0;0;0;0;0;0;0;();(-2000.0, -2000.0);
06:43:54:378;06:43:54:353;1448647204.24;(0, 0);0;0;06:43:54:378;0;0;-1.5;1;0;0;0;0;1;1;1;1;0;0;0;0;0;0;0;0;0;();(-2000.0, -2000.0);
06:43:54:412;06:43:54:353;1448647204.24;(0, 0);0;0;06:43:54:412;0;9;-1.5;1;0;0;0;0;1;1;1;1;0;0;0;0;0;0;0;0;0;();(-2000.0, -2000.0);
06:43:54:429;06:43:54:421;1448647204.31;(0, 0);0;0;06:43:54:429;0;4;-1.5;1;0;0;0;0;1;1;1;1;0;0;0;0;0;0;0;0;0;();(-2000.0, -2000.0);
06:43:54:445;06:43:54:421;1448647204.31;(0, 0);0;0;06:43:54:445;0;9;-1.5;1;0;0;0;0;1;1;1;1;0;0;0;0;0;0;0;0;0;();(-2000.0, -2000.0);
