%Timestamp,timestamp_write;timestamp_gotpupil;eyeTrackerTime;normPos;diameter;confidence;timestamp_gotbitdata;CRC;SEQ;AnalogOutp1;AnalogOutp2;AnalogOutp3;AnalogOutp4;AnalogOutp5;AnalogOutp6;DigitalOutp1;DigitalOutp2;DigitalOutp3;DigitalOutp4;nplanes;listofAirplanesonScreen;lastAction;lastActionDetails;lastActionAirplaneNumber;calculatedScore;positiveScore;negativeScore;collidedAirplaneNumbers;targetPositions;collisionPoint
12:11:39:738;12:11:39:726;1448407658.25;(0.4498021125793457, 0.3783943600124783);58.7870674133;0.830565967421;;;;;;;;;;;;;;0;0;0;0;0;0;0;0;0;();(0.0, 0.0);
12:11:39:753;12:11:39:742;1448407658.28;(0.44851980209350584, 0.37837062411838107);58.6074256897;0.819090408605;;;;;;;;;;;;;;0;0;0;0;0;0;0;0;0;();(-2000.0, -2000.0);
12:11:39:761;12:11:39:742;1448407658.28;(0.44851980209350584, 0.37837062411838107);58.6074256897;0.819090408605;;;;;;;;;;;;;;0;0;0;0;0;0;0;0;0;();(-2000.0, -2000.0);
12:11:39:766;12:11:39:742;1448407658.28;(0.44851980209350584, 0.37837062411838107);58.6074256897;0.819090408605;;;;;;;;;;;;;;0;0;0;0;0;0;0;0;0;();(-2000.0, -2000.0);
12:11:39:769;12:11:39:742;1448407658.28;(0.44851980209350584, 0.37837062411838107);58.6074256897;0.819090408605;;;;;;;;;;;;;;0;0;0;0;0;0;0;0;0;();(-2000.0, -2000.0);
12:11:39:772;12:11:39:742;1448407658.28;(0.44851980209350584, 0.37837062411838107);58.6074256897;0.819090408605;;;;;;;;;;;;;;0;0;0;0;0;0;0;0;0;();(-2000.0, -2000.0);
12:11:39:775;12:11:39:742;1448407658.28;(0.44851980209350584, 0.37837062411838107);58.6074256897;0.819090408605;;;;;;;;;;;;;;0;0;0;0;0;0;0;0;0;();(-2000.0, -2000.0);
12:11:39:778;12:11:39:742;1448407658.28;(0.44851980209350584, 0.37837062411838107);58.6074256897;0.819090408605;;;;;;;;;;;;;;0;0;0;0;0;0;0;0;0;();(-2000.0, -2000.0);
12:11:39:781;12:11:39:742;1448407658.28;(0.44851980209350584, 0.37837062411838107);58.6074256897;0.819090408605;;;;;;;;;;;;;;0;0;0;0;0;0;0;0;0;();(-2000.0, -2000.0);
12:11:39:784;12:11:39:742;1448407658.28;(0.44851980209350584, 0.37837062411838107);58.6074256897;0.819090408605;;;;;;;;;;;;;;0;0;0;0;0;0;0;0;0;();(-2000.0, -2000.0);
12:11:39:787;12:11:39:742;1448407658.28;(0.44851980209350584, 0.37837062411838107);58.6074256897;0.819090408605;;;;;;;;;;;;;;0;0;0;0;0;0;0;0;0;();(-2000.0, -2000.0);
12:11:39:790;12:11:39:742;1448407658.28;(0.44851980209350584, 0.37837062411838107);58.6074256897;0.819090408605;;;;;;;;;;;;;;0;0;0;0;0;0;0;0;0;();(-2000.0, -2000.0);
12:11:39:793;12:11:39:742;1448407658.28;(0.44851980209350584, 0.37837062411838107);58.6074256897;0.819090408605;;;;;;;;;;;;;;0;0;0;0;0;0;0;0;0;();(-2000.0, -2000.0);
12:11:39:796;12:11:39:742;1448407658.28;(0.44851980209350584, 0.37837062411838107);58.6074256897;0.819090408605;;;;;;;;;;;;;;0;0;0;0;0;0;0;0;0;();(-2000.0, -2000.0);
12:11:39:801;12:11:39:795;1448407658.32;(0.4469289779663086, 0.38008460998535154);58.6447219849;0.781244409066;;;;;;;;;;;;;;0;0;0;0;0;0;0;0;0;();(-2000.0, -2000.0);
12:11:39:805;12:11:39:798;1448407658.35;(0.44841723442077636, 0.37071571350097654);60.1812438965;0.697181448301;;;;;;;;;;;;;;0;0;0;0;0;0;0;0;0;();(-2000.0, -2000.0);
12:11:39:809;12:11:39:798;1448407658.35;(0.44841723442077636, 0.37071571350097654);60.1812438965;0.697181448301;;;;;;;;;;;;;;0;0;0;0;0;0;0;0;0;();(-2000.0, -2000.0);
12:11:39:812;12:11:39:798;1448407658.35;(0.44841723442077636, 0.37071571350097654);60.1812438965;0.697181448301;;;;;;;;;;;;;;0;0;0;0;0;0;0;0;0;();(-2000.0, -2000.0);
12:11:39:815;12:11:39:798;1448407658.35;(0.44841723442077636, 0.37071571350097654);60.1812438965;0.697181448301;;;;;;;;;;;;;;0;0;0;0;0;0;0;0;0;();(-2000.0, -2000.0);
12:11:39:818;12:11:39:798;1448407658.35;(0.44841723442077636, 0.37071571350097654);60.1812438965;0.697181448301;;;;;;;;;;;;;;0;0;0;0;0;0;0;0;0;();(-2000.0, -2000.0);
12:11:39:821;12:11:39:798;1448407658.35;(0.44841723442077636, 0.37071571350097654);60.1812438965;0.697181448301;;;;;;;;;;;;;;0;0;0;0;0;0;0;0;0;();(-2000.0, -2000.0);
12:11:39:846;12:11:39:798;1448407658.35;(0.44841723442077636, 0.37071571350097654);60.1812438965;0.697181448301;;;;;;;;;;;;;;0;0;0;0;0;0;0;0;0;();(-2000.0, -2000.0);
12:11:39:863;12:11:39:860;1448407658.42;(0.4425468921661377, 0.3836556752522786);58.8242874146;0.818274100706;;;;;;;;;;;;;;0;0;0;0;0;0;0;0;0;();(-2000.0, -2000.0);
12:11:39:879;12:11:39:860;1448407658.42;(0.4425468921661377, 0.3836556752522786);58.8242874146;0.818274100706;;;;;;;;;;;;;;0;0;0;0;0;0;0;0;0;();(-2000.0, -2000.0);
12:11:39:896;12:11:39:860;1448407658.42;(0.4425468921661377, 0.3836556752522786);58.8242874146;0.818274100706;;;;;;;;;;;;;;0;0;0;0;0;0;0;0;0;();(-2000.0, -2000.0);
12:11:39:930;12:11:39:928;1448407658.48;(0.45592527389526366, 0.36661953396267366);59.0107727051;0.897086976593;;;;;;;;;;;;;;0;0;0;0;0;0;0;0;0;();(-2000.0, -2000.0);
12:11:39:946;12:11:39:928;1448407658.48;(0.45592527389526366, 0.36661953396267366);59.0107727051;0.897086976593;;;;;;;;;;;;;;0;0;0;0;0;0;0;0;0;();(-2000.0, -2000.0);
12:11:39:963;12:11:39:928;1448407658.48;(0.45592527389526366, 0.36661953396267366);59.0107727051;0.897086976593;;;;;;;;;;;;;;0;0;0;0;0;0;0;0;0;();(-2000.0, -2000.0);
12:11:39:979;12:11:39:928;1448407658.48;(0.45592527389526366, 0.36661953396267366);59.0107727051;0.897086976593;;;;;;;;;;;;;;0;0;0;0;0;0;0;0;0;();(-2000.0, -2000.0);
12:11:39:996;12:11:39:994;1448407658.52;(0.4550456523895264, 0.3667520311143663);58.1122627258;0.776250449013;;;;;;;;;;;;;;0;0;0;0;0;0;0;0;0;();(-2000.0, -2000.0);
12:11:40:030;12:11:39:999;1448407658.55;(0.45189900398254396, 0.3750788794623481);57.8635520935;0.860239456155;;;;;;;;;;;;;;0;0;0;0;0;0;0;0;0;();(-2000.0, -2000.0);
12:11:40:046;12:11:39:999;1448407658.55;(0.45189900398254396, 0.3750788794623481);57.8635520935;0.860239456155;;;;;;;;;;;;;;0;0;0;0;0;0;0;0;0;();(-2000.0, -2000.0);
12:11:40:063;12:11:40:059;1448407658.62;(0.45168075561523435, 0.3689144982231988);58.4196128845;0.875901155733;;;;;;;;;;;;;;0;0;0;0;0;0;0;0;0;();(-2000.0, -2000.0);
12:11:40:079;12:11:40:059;1448407658.62;(0.45168075561523435, 0.3689144982231988);58.4196128845;0.875901155733;;;;;;;;;;;;;;0;0;0;0;0;0;0;0;0;();(-2000.0, -2000.0);
12:11:40:096;12:11:40:059;1448407658.62;(0.45168075561523435, 0.3689144982231988);58.4196128845;0.875901155733;;;;;;;;;;;;;;0;0;0;0;0;0;0;0;0;();(-2000.0, -2000.0);
12:11:40:129;12:11:40:127;1448407658.68;(0.4475679874420166, 0.37598198784722225);57.1063461304;0.825120278246;;;;;;;;;;;;;;0;0;0;0;0;0;0;0;0;();(-2000.0, -2000.0);
12:11:40:147;12:11:40:127;1448407658.68;(0.4475679874420166, 0.37598198784722225);57.1063461304;0.825120278246;;;;;;;;;;;;;;0;0;0;0;0;0;0;0;0;();(-2000.0, -2000.0);
12:11:40:163;12:11:40:127;1448407658.68;(0.4475679874420166, 0.37598198784722225);57.1063461304;0.825120278246;;;;;;;;;;;;;;0;0;0;0;0;0;0;0;0;();(-2000.0, -2000.0);
12:11:40:180;12:11:40:127;1448407658.68;(0.4475679874420166, 0.37598198784722225);57.1063461304;0.825120278246;;;;;;;;;;;;;;0;0;0;0;0;0;0;0;0;();(-2000.0, -2000.0);
12:11:40:196;12:11:40:193;1448407658.75;(0.4521247386932373, 0.3704987419976129);51.2581748962;0.728544557819;;;;;;;;;;;;;;0;0;0;0;0;0;0;0;0;();(-2000.0, -2000.0);
12:11:40:230;12:11:40:193;1448407658.75;(0.4521247386932373, 0.3704987419976129);51.2581748962;0.728544557819;;;;;;;;;;;;;;0;0;0;0;0;0;0;0;0;();(-2000.0, -2000.0);
12:11:40:246;12:11:40:193;1448407658.75;(0.4521247386932373, 0.3704987419976129);51.2581748962;0.728544557819;;;;;;;;;;;;;;0;0;0;0;0;0;0;0;0;();(-2000.0, -2000.0);
12:11:40:262;12:11:40:260;1448407658.82;(0, 0);0;0;;;;;;;;;;;;;;0;0;0;0;0;0;0;0;0;();(-2000.0, -2000.0);
12:11:40:280;12:11:40:260;1448407658.82;(0, 0);0;0;;;;;;;;;;;;;;0;0;0;0;0;0;0;0;0;();(-2000.0, -2000.0);
12:11:40:296;12:11:40:260;1448407658.82;(0, 0);0;0;;;;;;;;;;;;;;0;0;0;0;0;0;0;0;0;();(-2000.0, -2000.0);
12:11:40:330;12:11:40:326;1448407658.85;(0.4650407314300537, 0.3611145867241754);38.971118927;0.734845363223;;;;;;;;;;;;;;0;0;0;0;0;0;0;0;0;();(-2000.0, -2000.0);
12:11:40:347;12:11:40:332;1448407658.92;(0, 0);0;0;;;;;;;;;;;;;;0;0;0;0;0;0;0;0;0;();(-2000.0, -2000.0);
12:11:40:363;12:11:40:332;1448407658.92;(0, 0);0;0;;;;;;;;;;;;;;0;0;0;0;0;0;0;0;0;();(-2000.0, -2000.0);
12:11:40:380;12:11:40:332;1448407658.92;(0, 0);0;0;;;;;;;;;;;;;;0;0;0;0;0;0;0;0;0;();(-2000.0, -2000.0);
12:11:40:396;12:11:40:332;1448407658.92;(0, 0);0;0;;;;;;;;;;;;;;0;0;0;0;0;0;0;0;0;();(-2000.0, -2000.0);
12:11:40:430;12:11:40:397;1448407658.95;(0.4546805858612061, 0.3946115281846788);58.322353363;0.689006324623;;;;;;;;;;;;;;0;0;0;0;0;0;0;0;0;();(-2000.0, -2000.0);
12:11:40:447;12:11:40:397;1448407658.95;(0.4546805858612061, 0.3946115281846788);58.322353363;0.689006324623;;;;;;;;;;;;;;0;0;0;0;0;0;0;0;0;();(-2000.0, -2000.0);
12:11:40:464;12:11:40:460;1448407659.02;(0, 0);0;0;;;;;;;;;;;;;;0;0;0;0;0;0;0;0;0;();(-2000.0, -2000.0);
12:11:40:480;12:11:40:460;1448407659.02;(0, 0);0;0;;;;;;;;;;;;;;0;0;0;0;0;0;0;0;0;();(-2000.0, -2000.0);
12:11:40:497;12:11:40:460;1448407659.02;(0, 0);0;0;;;;;;;;;;;;;;0;0;0;0;0;0;0;0;0;();(-2000.0, -2000.0);
12:11:40:530;12:11:40:523;1448407659.08;(0.4499608039855957, 0.39755609300401473);59.3195075989;0.650285832527;;;;;;;;;;;;;;0;0;0;0;0;0;0;0;0;();(-2000.0, -2000.0);
12:11:40:547;12:11:40:523;1448407659.08;(0.4499608039855957, 0.39755609300401473);59.3195075989;0.650285832527;;;;;;;;;;;;;;0;0;0;0;0;0;0;0;0;();(-2000.0, -2000.0);
12:11:40:564;12:11:40:523;1448407659.08;(0.4499608039855957, 0.39755609300401473);59.3195075989;0.650285832527;;;;;;;;;;;;;;0;0;0;0;0;0;0;0;0;();(-2000.0, -2000.0);
12:11:40:579;12:11:40:523;1448407659.08;(0.4499608039855957, 0.39755609300401473);59.3195075989;0.650285832527;;;;;;;;;;;;;;0;0;0;0;0;0;0;0;0;();(-2000.0, -2000.0);
12:11:40:597;12:11:40:591;1448407659.15;(0.44794673919677735, 0.3971270243326823);59.252040863;0.635958436054;;;;;;;;;;;;;;0;0;0;0;0;0;0;0;0;();(-2000.0, -2000.0);
12:11:40:630;12:11:40:591;1448407659.15;(0.44794673919677735, 0.3971270243326823);59.252040863;0.635958436054;;;;;;;;;;;;;;0;0;0;0;0;0;0;0;0;();(-2000.0, -2000.0);
12:11:40:647;12:11:40:591;1448407659.15;(0.44794673919677735, 0.3971270243326823);59.252040863;0.635958436054;;;;;;;;;;;;;;0;0;0;0;0;0;0;0;0;();(-2000.0, -2000.0);
12:11:40:664;12:11:40:656;1448407659.22;(0, 0);0;0;;;;;;;;;;;;;;0;0;0;0;0;0;0;0;0;();(-2000.0, -2000.0);
12:11:40:680;12:11:40:656;1448407659.22;(0, 0);0;0;;;;;;;;;;;;;;0;0;0;0;0;0;0;0;0;();(-2000.0, -2000.0);
12:11:40:697;12:11:40:656;1448407659.22;(0, 0);0;0;;;;;;;;;;;;;;0;0;0;0;0;0;0;0;0;();(-2000.0, -2000.0);
12:11:40:730;12:11:40:722;1448407659.28;(0.47156567573547364, 0.3862938774956597);55.2539100647;0.72524133905;;;;;;;;;;;;;;0;0;0;0;0;0;0;0;0;();(-2000.0, -2000.0);
12:11:40:747;12:11:40:722;1448407659.28;(0.47156567573547364, 0.3862938774956597);55.2539100647;0.72524133905;;;;;;;;;;;;;;0;0;0;0;0;0;0;0;0;();(-2000.0, -2000.0);
12:11:40:764;12:11:40:722;1448407659.28;(0.47156567573547364, 0.3862938774956597);55.2539100647;0.72524133905;;;;;;;;;;;;;;0;0;0;0;0;0;0;0;0;();(-2000.0, -2000.0);
12:11:40:780;12:11:40:722;1448407659.28;(0.47156567573547364, 0.3862938774956597);55.2539100647;0.72524133905;;;;;;;;;;;;;;0;0;0;0;0;0;0;0;0;();(-2000.0, -2000.0);
12:11:40:797;12:11:40:791;1448407659.35;(0, 0);0;0;;;;;;;;;;;;;;0;0;0;0;0;0;0;0;0;();(-2000.0, -2000.0);
12:11:40:830;12:11:40:791;1448407659.35;(0, 0);0;0;;;;;;;;;;;;;;0;0;0;0;0;0;0;0;0;();(-2000.0, -2000.0);
12:11:40:847;12:11:40:791;1448407659.35;(0, 0);0;0;;;;;;;;;;;;;;0;0;0;0;0;0;0;0;0;();(-2000.0, -2000.0);
12:11:40:864;12:11:40:855;1448407659.42;(0.46308302879333496, 0.39165954589843754);57.6838760376;0.71833289792;;;;;;;;;;;;;;0;0;0;0;0;0;0;0;0;();(-2000.0, -2000.0);
12:11:40:880;12:11:40:855;1448407659.42;(0.46308302879333496, 0.39165954589843754);57.6838760376;0.71833289792;;;;;;;;;;;;;;0;0;0;0;0;0;0;0;0;();(-2000.0, -2000.0);
12:11:40:897;12:11:40:855;1448407659.42;(0.46308302879333496, 0.39165954589843754);57.6838760376;0.71833289792;;;;;;;;;;;;;;0;0;0;0;0;0;0;0;0;();(-2000.0, -2000.0);
12:11:40:930;12:11:40:922;1448407659.48;(0.45846986770629883, 0.39182959662543404);58.3178596497;0.674847934009;;;;;;;;;;;;;;0;0;0;0;0;0;0;0;0;();(-2000.0, -2000.0);
12:11:40:947;12:11:40:922;1448407659.48;(0.45846986770629883, 0.39182959662543404);58.3178596497;0.674847934009;;;;;;;;;;;;;;0;0;0;0;0;0;0;0;0;();(-2000.0, -2000.0);
12:11:40:964;12:11:40:922;1448407659.48;(0.45846986770629883, 0.39182959662543404);58.3178596497;0.674847934009;;;;;;;;;;;;;;0;0;0;0;0;0;0;0;0;();(-2000.0, -2000.0);
12:11:40:981;12:11:40:922;1448407659.48;(0.45846986770629883, 0.39182959662543404);58.3178596497;0.674847934009;;;;;;;;;;;;;;0;0;0;0;0;0;0;0;0;();(-2000.0, -2000.0);
12:11:40:997;12:11:40:991;1448407659.55;(0.45934343338012695, 0.37847319708930116);58.5968894958;0.711476278014;;;;;;;;;;;;;;0;0;0;0;0;0;0;0;0;();(-2000.0, -2000.0);
12:11:41:014;12:11:40:991;1448407659.55;(0.45934343338012695, 0.37847319708930116);58.5968894958;0.711476278014;;;;;;;;;;;;;;0;0;0;0;0;0;0;0;0;();(-2000.0, -2000.0);
12:11:41:047;12:11:40:991;1448407659.55;(0.45934343338012695, 0.37847319708930116);58.5968894958;0.711476278014;;;;;;;;;;;;;;0;0;0;0;0;0;0;0;0;();(-2000.0, -2000.0);
12:11:41:064;12:11:41:056;1448407659.62;(0.47780299186706543, 0.3797759162055121);57.9687538147;0.903949331146;;;;;;;;;;;;;;0;0;0;0;0;0;0;0;0;();(-2000.0, -2000.0);
12:11:41:081;12:11:41:056;1448407659.62;(0.47780299186706543, 0.3797759162055121);57.9687538147;0.903949331146;;;;;;;;;;;;;;0;0;0;0;0;0;0;0;0;();(-2000.0, -2000.0);
12:11:41:097;12:11:41:056;1448407659.62;(0.47780299186706543, 0.3797759162055121);57.9687538147;0.903949331146;;;;;;;;;;;;;;0;0;0;0;0;0;0;0;0;();(-2000.0, -2000.0);
12:11:41:130;12:11:41:125;1448407659.68;(0.476609468460083, 0.3723475986056858);55.9394035339;0.70091591448;;;;;;;;;;;;;;0;0;0;0;0;0;0;0;0;();(-2000.0, -2000.0);
12:11:41:147;12:11:41:125;1448407659.68;(0.476609468460083, 0.3723475986056858);55.9394035339;0.70091591448;;;;;;;;;;;;;;0;0;0;0;0;0;0;0;0;();(-2000.0, -2000.0);
12:11:41:164;12:11:41:125;1448407659.68;(0.476609468460083, 0.3723475986056858);55.9394035339;0.70091591448;;;;;;;;;;;;;;0;0;0;0;0;0;0;0;0;();(-2000.0, -2000.0);
12:11:41:181;12:11:41:125;1448407659.68;(0.476609468460083, 0.3723475986056858);55.9394035339;0.70091591448;;;;;;;;;;;;;;0;0;0;0;0;0;0;0;0;();(-2000.0, -2000.0);
12:11:41:197;12:11:41:187;1448407659.75;(0.46811256408691404, 0.3849441104465061);57.4743614197;0.811356962707;;;;;;;;;;;;;;0;0;0;0;0;0;0;0;0;();(-2000.0, -2000.0);
12:11:41:214;12:11:41:187;1448407659.75;(0.46811256408691404, 0.3849441104465061);57.4743614197;0.811356962707;;;;;;;;;;;;;;0;0;0;0;0;0;0;0;0;();(-2000.0, -2000.0);
12:11:41:246;12:11:41:187;1448407659.75;(0.46811256408691404, 0.3849441104465061);57.4743614197;0.811356962707;;;;;;;;;;;;;;0;0;0;0;0;0;0;0;0;();(-2000.0, -2000.0);
12:11:41:265;12:11:41:254;1448407659.82;(0, 0);0;0;;;;;;;;;;;;;;0;0;0;0;0;0;0;0;0;();(-2000.0, -2000.0);
12:11:41:280;12:11:41:254;1448407659.82;(0, 0);0;0;;;;;;;;;;;;;;0;0;0;0;0;0;0;0;0;();(-2000.0, -2000.0);
12:11:41:297;12:11:41:254;1448407659.82;(0, 0);0;0;;;;;;;;;;;;;;0;0;0;0;0;0;0;0;0;();(-2000.0, -2000.0);
12:11:41:314;12:11:41:254;1448407659.82;(0, 0);0;0;;;;;;;;;;;;;;0;0;0;0;0;0;0;0;0;();(-2000.0, -2000.0);
12:11:41:347;12:11:41:320;1448407659.88;(0, 0);0;0;;;;;;;;;;;;;;0;0;0;0;0;0;0;0;0;();(-2000.0, -2000.0);
12:11:41:364;12:11:41:320;1448407659.88;(0, 0);0;0;;;;;;;;;;;;;;0;0;0;0;0;0;0;0;0;();(-2000.0, -2000.0);
12:11:41:381;12:11:41:320;1448407659.88;(0, 0);0;0;;;;;;;;;;;;;;0;0;0;0;0;0;0;0;0;();(-2000.0, -2000.0);
12:11:41:397;12:11:41:386;1448407659.95;(0, 0);0;0;;;;;;;;;;;;;;0;0;0;0;0;0;0;0;0;();(-2000.0, -2000.0);
12:11:41:414;12:11:41:386;1448407659.95;(0, 0);0;0;;;;;;;;;;;;;;0;0;0;0;0;0;0;0;0;();(-2000.0, -2000.0);
12:11:41:448;12:11:41:386;1448407659.95;(0, 0);0;0;;;;;;;;;;;;;;0;0;0;0;0;0;0;0;0;();(-2000.0, -2000.0);
12:11:41:464;12:11:41:456;1448407660.02;(0.4656190872192383, 0.3904989878336589);57.7884712219;0.78128775964;;;;;;;;;;;;;;0;0;0;0;0;0;0;0;0;();(-2000.0, -2000.0);
12:11:41:481;12:11:41:456;1448407660.02;(0.4656190872192383, 0.3904989878336589);57.7884712219;0.78128775964;;;;;;;;;;;;;;0;0;0;0;0;0;0;0;0;();(-2000.0, -2000.0);
12:11:41:497;12:11:41:456;1448407660.02;(0.4656190872192383, 0.3904989878336589);57.7884712219;0.78128775964;;;;;;;;;;;;;;0;0;0;0;0;0;0;0;0;();(-2000.0, -2000.0);
12:11:41:514;12:11:41:456;1448407660.02;(0.4656190872192383, 0.3904989878336589);57.7884712219;0.78128775964;;;;;;;;;;;;;;0;0;0;0;0;0;0;0;0;();(-2000.0, -2000.0);
12:11:41:547;12:11:41:526;1448407660.08;(0.5300016880035401, 0.535507074991862);25.0430469513;0.660515342327;;;;;;;;;;;;;;0;0;0;0;0;0;0;0;0;();(-2000.0, -2000.0);
12:11:41:565;12:11:41:526;1448407660.08;(0.5300016880035401, 0.535507074991862);25.0430469513;0.660515342327;;;;;;;;;;;;;;0;0;0;0;0;0;0;0;0;();(-2000.0, -2000.0);
12:11:41:581;12:11:41:526;1448407660.08;(0.5300016880035401, 0.535507074991862);25.0430469513;0.660515342327;;;;;;;;;;;;;;0;0;0;0;0;0;0;0;0;();(-2000.0, -2000.0);
12:11:41:598;12:11:41:587;1448407660.15;(0.46366109848022463, 0.3916559431287977);59.4459228516;0.689819219895;;;;;;;;;;;;;;0;0;0;0;0;0;0;0;0;();(-2000.0, -2000.0);
12:11:41:614;12:11:41:587;1448407660.15;(0.46366109848022463, 0.3916559431287977);59.4459228516;0.689819219895;;;;;;;;;;;;;;0;0;0;0;0;0;0;0;0;();(-2000.0, -2000.0);
12:11:41:648;12:11:41:587;1448407660.15;(0.46366109848022463, 0.3916559431287977);59.4459228516;0.689819219895;;;;;;;;;;;;;;0;0;0;0;0;0;0;0;0;();(-2000.0, -2000.0);
12:11:41:664;12:11:41:653;1448407660.22;(0, 0);0;0;;;;;;;;;;;;;;0;0;0;0;0;0;0;0;0;();(-2000.0, -2000.0);
12:11:41:681;12:11:41:653;1448407660.22;(0, 0);0;0;;;;;;;;;;;;;;0;0;0;0;0;0;0;0;0;();(-2000.0, -2000.0);
12:11:41:698;12:11:41:653;1448407660.22;(0, 0);0;0;;;;;;;;;;;;;;0;0;0;0;0;0;0;0;0;();(-2000.0, -2000.0);
12:11:41:714;12:11:41:653;1448407660.22;(0, 0);0;0;;;;;;;;;;;;;;0;0;0;0;0;0;0;0;0;();(-2000.0, -2000.0);
12:11:41:748;12:11:41:722;1448407660.28;(0.46010165214538573, 0.39033080206977);58.2925071716;0.683714648916;;;;;;;;;;;;;;0;0;0;0;0;0;0;0;0;();(-2000.0, -2000.0);
12:11:41:765;12:11:41:722;1448407660.28;(0.46010165214538573, 0.39033080206977);58.2925071716;0.683714648916;;;;;;;;;;;;;;0;0;0;0;0;0;0;0;0;();(-2000.0, -2000.0);
12:11:41:780;12:11:41:722;1448407660.28;(0.46010165214538573, 0.39033080206977);58.2925071716;0.683714648916;;;;;;;;;;;;;;0;0;0;0;0;0;0;0;0;();(-2000.0, -2000.0);
12:11:41:798;12:11:41:787;1448407660.35;(0, 0);0;0;;;;;;;;;;;;;;0;0;0;0;0;0;0;0;0;();(-2000.0, -2000.0);
12:11:41:815;12:11:41:787;1448407660.35;(0, 0);0;0;;;;;;;;;;;;;;0;0;0;0;0;0;0;0;0;();(-2000.0, -2000.0);
12:11:41:848;12:11:41:787;1448407660.35;(0, 0);0;0;;;;;;;;;;;;;;0;0;0;0;0;0;0;0;0;();(-2000.0, -2000.0);
12:11:41:865;12:11:41:852;1448407660.42;(0.4774159908294678, 0.3706684960259332);57.7813110352;0.669655532652;;;;;;;;;;;;;;0;0;0;0;0;0;0;0;0;();(-2000.0, -2000.0);
12:11:41:881;12:11:41:852;1448407660.42;(0.4774159908294678, 0.3706684960259332);57.7813110352;0.669655532652;;;;;;;;;;;;;;0;0;0;0;0;0;0;0;0;();(-2000.0, -2000.0);
12:11:41:898;12:11:41:852;1448407660.42;(0.4774159908294678, 0.3706684960259332);57.7813110352;0.669655532652;;;;;;;;;;;;;;0;0;0;0;0;0;0;0;0;();(-2000.0, -2000.0);
12:11:41:915;12:11:41:852;1448407660.42;(0.4774159908294678, 0.3706684960259332);57.7813110352;0.669655532652;;;;;;;;;;;;;;0;0;0;0;0;0;0;0;0;();(-2000.0, -2000.0);
12:11:41:948;12:11:41:924;1448407660.48;(0.47498335838317873, 0.3720488654242622);58.7043418884;0.787340760336;;;;;;;;;;;;;;0;0;0;0;0;0;0;0;0;();(-2000.0, -2000.0);
12:11:41:965;12:11:41:924;1448407660.48;(0.47498335838317873, 0.3720488654242622);58.7043418884;0.787340760336;;;;;;;;;;;;;;0;0;0;0;0;0;0;0;0;();(-2000.0, -2000.0);
12:11:41:982;12:11:41:924;1448407660.48;(0.47498335838317873, 0.3720488654242622);58.7043418884;0.787340760336;;;;;;;;;;;;;;0;0;0;0;0;0;0;0;0;();(-2000.0, -2000.0);
12:11:41:999;12:11:41:984;1448407660.55;(0.47345671653747556, 0.3713646782769098);57.9254837036;0.67954210589;;;;;;;;;;;;;;0;0;0;0;0;0;0;0;0;();(-2000.0, -2000.0);
12:11:42:015;12:11:41:984;1448407660.55;(0.47345671653747556, 0.3713646782769098);57.9254837036;0.67954210589;;;;;;;;;;;;;;0;0;0;0;0;0;0;0;0;();(-2000.0, -2000.0);
12:11:42:048;12:11:41:984;1448407660.55;(0.47345671653747556, 0.3713646782769098);57.9254837036;0.67954210589;;;;;;;;;;;;;;0;0;0;0;0;0;0;0;0;();(-2000.0, -2000.0);
12:11:42:065;12:11:42:052;1448407660.62;(0.47072582244873046, 0.372094472249349);57.1428337097;0.750038707226;;;;;;;;;;;;;;0;0;0;0;0;0;0;0;0;();(-2000.0, -2000.0);
12:11:42:081;12:11:42:052;1448407660.62;(0.47072582244873046, 0.372094472249349);57.1428337097;0.750038707226;;;;;;;;;;;;;;0;0;0;0;0;0;0;0;0;();(-2000.0, -2000.0);
12:11:42:098;12:11:42:052;1448407660.62;(0.47072582244873046, 0.372094472249349);57.1428337097;0.750038707226;;;;;;;;;;;;;;0;0;0;0;0;0;0;0;0;();(-2000.0, -2000.0);
12:11:42:115;12:11:42:052;1448407660.62;(0.47072582244873046, 0.372094472249349);57.1428337097;0.750038707226;;;;;;;;;;;;;;0;0;0;0;0;0;0;0;0;();(-2000.0, -2000.0);
12:11:42:148;12:11:42:122;1448407660.68;(0.4959107875823975, 0.36501066419813366);56.3898010254;0.95162986197;;;;;;;;;;;;;;0;0;0;0;0;0;0;0;0;();(-2000.0, -2000.0);
12:11:42:165;12:11:42:122;1448407660.68;(0.4959107875823975, 0.36501066419813366);56.3898010254;0.95162986197;;;;;;;;;;;;;;0;0;0;0;0;0;0;0;0;();(-2000.0, -2000.0);
12:11:42:181;12:11:42:122;1448407660.68;(0.4959107875823975, 0.36501066419813366);56.3898010254;0.95162986197;;;;;;;;;;;;;;0;0;0;0;0;0;0;0;0;();(-2000.0, -2000.0);
12:11:42:198;12:11:42:185;1448407660.75;(0.49303622245788575, 0.3698661804199219);56.2047729492;0.92678598392;;;;;;;;;;;;;;0;0;0;0;0;0;0;0;0;();(-2000.0, -2000.0);
12:11:42:215;12:11:42:185;1448407660.75;(0.49303622245788575, 0.3698661804199219);56.2047729492;0.92678598392;;;;;;;;;;;;;;0;0;0;0;0;0;0;0;0;();(-2000.0, -2000.0);
12:11:42:248;12:11:42:185;1448407660.75;(0.49303622245788575, 0.3698661804199219);56.2047729492;0.92678598392;;;;;;;;;;;;;;0;0;0;0;0;0;0;0;0;();(-2000.0, -2000.0);
12:11:42:265;12:11:42:251;1448407660.82;(0.48818607330322267, 0.37393964131673174);55.2325134277;0.944631094365;;;;;;;;;;;;;;0;0;0;0;0;0;0;0;0;();(-2000.0, -2000.0);
12:11:42:281;12:11:42:251;1448407660.82;(0.48818607330322267, 0.37393964131673174);55.2325134277;0.944631094365;;;;;;;;;;;;;;0;0;0;0;0;0;0;0;0;();(-2000.0, -2000.0);
12:11:42:299;12:11:42:251;1448407660.82;(0.48818607330322267, 0.37393964131673174);55.2325134277;0.944631094365;;;;;;;;;;;;;;0;0;0;0;0;0;0;0;0;();(-2000.0, -2000.0);
12:11:42:316;12:11:42:313;1448407660.85;(0.4853788375854492, 0.3768141004774306);55.6700210571;0.880022026449;;;;;;;;;;;;;;0;0;0;0;0;0;0;0;0;();(-2000.0, -2000.0);
12:11:42:348;12:11:42:316;1448407660.88;(0.4853297233581543, 0.3717608557807075);52.3306617737;0.890500203448;;;;;;;;;;;;;;0;0;0;0;0;0;0;0;0;();(-2000.0, -2000.0);
12:11:42:365;12:11:42:316;1448407660.88;(0.4853297233581543, 0.3717608557807075);52.3306617737;0.890500203448;;;;;;;;;;;;;;0;0;0;0;0;0;0;0;0;();(-2000.0, -2000.0);
12:11:42:382;12:11:42:316;1448407660.88;(0.4853297233581543, 0.3717608557807075);52.3306617737;0.890500203448;;;;;;;;;;;;;;0;0;0;0;0;0;0;0;0;();(-2000.0, -2000.0);
12:11:42:398;12:11:42:383;1448407660.95;(0.47819204330444337, 0.38104163275824654);56.1483268738;0.89218079948;;;;;;;;;;;;;;0;0;0;0;0;0;0;0;0;();(-2000.0, -2000.0);
12:11:42:415;12:11:42:383;1448407660.95;(0.47819204330444337, 0.38104163275824654);56.1483268738;0.89218079948;;;;;;;;;;;;;;0;0;0;0;0;0;0;0;0;();(-2000.0, -2000.0);
12:11:42:448;12:11:42:383;1448407660.95;(0.47819204330444337, 0.38104163275824654);56.1483268738;0.89218079948;;;;;;;;;;;;;;0;0;0;0;0;0;0;0;0;();(-2000.0, -2000.0);
12:11:42:465;12:11:42:457;1448407661.02;(0.4943675518035889, 0.3708577473958333);55.4129829407;0.916192926373;;;;;;;;;;;;;;0;0;0;0;0;0;0;0;0;();(-2000.0, -2000.0);
12:11:42:482;12:11:42:457;1448407661.02;(0.4943675518035889, 0.3708577473958333);55.4129829407;0.916192926373;;;;;;;;;;;;;;0;0;0;0;0;0;0;0;0;();(-2000.0, -2000.0);
12:11:42:499;12:11:42:457;1448407661.02;(0.4943675518035889, 0.3708577473958333);55.4129829407;0.916192926373;;;;;;;;;;;;;;0;0;0;0;0;0;0;0;0;();(-2000.0, -2000.0);
12:11:42:516;12:11:42:514;1448407661.05;(0.49315385818481444, 0.372363026936849);54.2920341492;0.82998007148;;;;;;;;;;;;;;0;0;0;0;0;0;0;0;0;();(-2000.0, -2000.0);
12:11:42:548;12:11:42:517;1448407661.08;(0.4918048858642578, 0.37338116963704426);53.8899612427;0.810770888807;;;;;;;;;;;;;;0;0;0;0;0;0;0;0;0;();(-2000.0, -2000.0);
12:11:42:565;12:11:42:517;1448407661.08;(0.4918048858642578, 0.37338116963704426);53.8899612427;0.810770888807;;;;;;;;;;;;;;0;0;0;0;0;0;0;0;0;();(-2000.0, -2000.0);
12:11:42:581;12:11:42:517;1448407661.08;(0.4918048858642578, 0.37338116963704426);53.8899612427;0.810770888807;;;;;;;;;;;;;;0;0;0;0;0;0;0;0;0;();(-2000.0, -2000.0);
12:11:42:599;12:11:42:588;1448407661.15;(0.4897739887237549, 0.37312889099121094);52.361038208;0.809301773366;;;;;;;;;;;;;;0;0;0;0;0;0;0;0;0;();(-2000.0, -2000.0);
12:11:42:616;12:11:42:588;1448407661.15;(0.4897739887237549, 0.37312889099121094);52.361038208;0.809301773366;;;;;;;;;;;;;;0;0;0;0;0;0;0;0;0;();(-2000.0, -2000.0);
12:11:42:648;12:11:42:588;1448407661.15;(0.4897739887237549, 0.37312889099121094);52.361038208;0.809301773366;;;;;;;;;;;;;;0;0;0;0;0;0;0;0;0;();(-2000.0, -2000.0);
12:11:42:665;12:11:42:656;1448407661.22;(0.48770842552185056, 0.37376704745822487);52.8493690491;0.85459742096;;;;;;;;;;;;;;0;0;0;0;0;0;0;0;0;();(-2000.0, -2000.0);
12:11:42:682;12:11:42:656;1448407661.22;(0.48770842552185056, 0.37376704745822487);52.8493690491;0.85459742096;;;;;;;;;;;;;;0;0;0;0;0;0;0;0;0;();(-2000.0, -2000.0);
12:11:42:698;12:11:42:656;1448407661.22;(0.48770842552185056, 0.37376704745822487);52.8493690491;0.85459742096;;;;;;;;;;;;;;0;0;0;0;0;0;0;0;0;();(-2000.0, -2000.0);
12:11:42:716;12:11:42:714;1448407661.25;(0.48704304695129397, 0.37359547085232203);52.7684745789;0.907578570053;;;;;;;;;;;;;;0;0;0;0;0;0;0;0;0;();(-2000.0, -2000.0);
12:11:42:748;12:11:42:716;1448407661.28;(0.48678884506225584, 0.3737440745035807);53.127571106;0.900051900783;;;;;;;;;;;;;;0;0;0;0;0;0;0;0;0;();(-2000.0, -2000.0);
12:11:42:766;12:11:42:716;1448407661.28;(0.48678884506225584, 0.3737440745035807);53.127571106;0.900051900783;;;;;;;;;;;;;;0;0;0;0;0;0;0;0;0;();(-2000.0, -2000.0);
12:11:42:782;12:11:42:716;1448407661.28;(0.48678884506225584, 0.3737440745035807);53.127571106;0.900051900783;;;;;;;;;;;;;;0;0;0;0;0;0;0;0;0;();(-2000.0, -2000.0);
12:11:42:799;12:11:42:783;1448407661.35;(0.4796477794647217, 0.3789260440402561);56.279548645;0.915957152395;;;;;;;;;;;;;;0;0;0;0;0;0;0;0;0;();(-2000.0, -2000.0);
12:11:42:816;12:11:42:783;1448407661.35;(0.4796477794647217, 0.3789260440402561);56.279548645;0.915957152395;;;;;;;;;;;;;;0;0;0;0;0;0;0;0;0;();(-2000.0, -2000.0);
12:11:42:849;12:11:42:846;1448407661.38;(0.4779960632324219, 0.38014996846516924);56.0023574829;0.9297174045;;;;;;;;;;;;;;0;0;0;0;0;0;0;0;0;();(-2000.0, -2000.0);
12:11:42:866;12:11:42:849;1448407661.42;(0.47808256149291994, 0.38064244588216145);56.3614692688;0.903154050086;;;;;;;;;;;;;;0;0;0;0;0;0;0;0;0;();(-2000.0, -2000.0);
12:11:42:883;12:11:42:849;1448407661.42;(0.47808256149291994, 0.38064244588216145);56.3614692688;0.903154050086;;;;;;;;;;;;;;0;0;0;0;0;0;0;0;0;();(-2000.0, -2000.0);
12:11:42:899;12:11:42:849;1448407661.42;(0.47808256149291994, 0.38064244588216145);56.3614692688;0.903154050086;;;;;;;;;;;;;;0;0;0;0;0;0;0;0;0;();(-2000.0, -2000.0);
12:11:42:915;12:11:42:849;1448407661.42;(0.47808256149291994, 0.38064244588216145);56.3614692688;0.903154050086;;;;;;;;;;;;;;0;0;0;0;0;0;0;0;0;();(-2000.0, -2000.0);
12:11:42:949;12:11:42:924;1448407661.48;(0.4786931037902832, 0.38095211452907984);57.3187446594;0.984927135162;;;;;;;;;;;;;;0;0;0;0;0;0;0;0;0;();(-2000.0, -2000.0);
12:11:42:965;12:11:42:924;1448407661.48;(0.4786931037902832, 0.38095211452907984);57.3187446594;0.984927135162;;;;;;;;;;;;;;0;0;0;0;0;0;0;0;0;();(-2000.0, -2000.0);
12:11:42:982;12:11:42:979;1448407661.55;(0.47879514694213865, 0.38064863416883676);57.6598968506;0.943901618623;;;;;;;;;;;;;;0;0;0;0;0;0;0;0;0;();(-2000.0, -2000.0);
12:11:42:999;12:11:42:979;1448407661.55;(0.47879514694213865, 0.38064863416883676);57.6598968506;0.943901618623;;;;;;;;;;;;;;0;0;0;0;0;0;0;0;0;();(-2000.0, -2000.0);
12:11:43:016;12:11:42:979;1448407661.55;(0.47879514694213865, 0.38064863416883676);57.6598968506;0.943901618623;;;;;;;;;;;;;;0;0;0;0;0;0;0;0;0;();(-2000.0, -2000.0);
12:11:43:049;12:11:43:047;1448407661.62;(0.4785198211669922, 0.38083021375868054);58.0609588623;0.955773453026;;;;;;;;;;;;;;0;0;0;0;0;0;0;0;0;();(-2000.0, -2000.0);
12:11:43:066;12:11:43:047;1448407661.62;(0.4785198211669922, 0.38083021375868054);58.0609588623;0.955773453026;;;;;;;;;;;;;;0;0;0;0;0;0;0;0;0;();(-2000.0, -2000.0);
12:11:43:083;12:11:43:047;1448407661.62;(0.4785198211669922, 0.38083021375868054);58.0609588623;0.955773453026;;;;;;;;;;;;;;0;0;0;0;0;0;0;0;0;();(-2000.0, -2000.0);
12:11:43:099;12:11:43:047;1448407661.62;(0.4785198211669922, 0.38083021375868054);58.0609588623;0.955773453026;;;;;;;;;;;;;;0;0;0;0;0;0;0;0;0;();(-2000.0, -2000.0);
12:11:43:115;12:11:43:113;1448407661.65;(0.4812439441680908, 0.3778648800320096);59.7478866577;0.7440419298;;;;;;;;;;;;;;0;0;0;0;0;0;0;0;0;();(-2000.0, -2000.0);
12:11:43:149;12:11:43:114;1448407661.68;(0.4857334613800049, 0.366756100124783);58.6717681885;0.938923777189;;;;;;;;;;;;;;0;0;0;0;0;0;0;0;0;();(-2000.0, -2000.0);
12:11:43:166;12:11:43:114;1448407661.68;(0.4857334613800049, 0.366756100124783);58.6717681885;0.938923777189;;;;;;;;;;;;;;0;0;0;0;0;0;0;0;0;();(-2000.0, -2000.0);
12:11:43:183;12:11:43:180;1448407661.75;(0.48556957244873045, 0.3671194712320963);58.7106208801;1.0;;;;;;;;;;;;;;0;0;0;0;0;0;0;0;0;();(-2000.0, -2000.0);
12:11:43:199;12:11:43:180;1448407661.75;(0.48556957244873045, 0.3671194712320963);58.7106208801;1.0;;;;;;;;;;;;;;0;0;0;0;0;0;0;0;0;();(-2000.0, -2000.0);
12:11:43:215;12:11:43:180;1448407661.75;(0.48556957244873045, 0.3671194712320963);58.7106208801;1.0;;;;;;;;;;;;;;0;0;0;0;0;0;0;0;0;();(-2000.0, -2000.0);
12:11:43:249;12:11:43:246;1448407661.78;(0.4855358123779297, 0.36734983656141496);58.3413391113;1.0;;;;;;;;;;;;;;0;0;0;0;0;0;0;0;0;();(-2000.0, -2000.0);
12:11:43:264;12:11:43:248;1448407661.82;(0.48533926010131834, 0.3681222703721788);58.6389732361;1.0;;;;;;;;;;;;;;0;0;0;0;0;0;0;0;0;();(-2000.0, -2000.0);
12:11:43:282;12:11:43:248;1448407661.82;(0.48533926010131834, 0.3681222703721788);58.6389732361;1.0;;;;;;;;;;;;;;0;0;0;0;0;0;0;0;0;();(-2000.0, -2000.0);
12:11:43:299;12:11:43:248;1448407661.82;(0.48533926010131834, 0.3681222703721788);58.6389732361;1.0;;;;;;;;;;;;;;0;0;0;0;0;0;0;0;0;();(-2000.0, -2000.0);
12:11:43:316;12:11:43:311;1448407661.88;(0.48487653732299807, 0.3685757107204861);58.6392250061;1.0;;;;;;;;;;;;;;0;0;0;0;0;0;0;0;0;();(-2000.0, -2000.0);
12:11:43:349;12:11:43:311;1448407661.88;(0.48487653732299807, 0.3685757107204861);58.6392250061;1.0;;;;;;;;;;;;;;0;0;0;0;0;0;0;0;0;();(-2000.0, -2000.0);
12:11:43:365;12:11:43:311;1448407661.88;(0.48487653732299807, 0.3685757107204861);58.6392250061;1.0;;;;;;;;;;;;;;0;0;0;0;0;0;0;0;0;();(-2000.0, -2000.0);
12:11:43:382;12:11:43:379;1448407661.95;(0.48482213020324705, 0.3688767751057943);59.0736274719;1.0;;;;;;;;;;;;;;0;0;0;0;0;0;0;0;0;();(-2000.0, -2000.0);
12:11:43:399;12:11:43:379;1448407661.95;(0.48482213020324705, 0.3688767751057943);59.0736274719;1.0;;;;;;;;;;;;;;0;0;0;0;0;0;0;0;0;();(-2000.0, -2000.0);
12:11:43:416;12:11:43:379;1448407661.95;(0.48482213020324705, 0.3688767751057943);59.0736274719;1.0;;;;;;;;;;;;;;0;0;0;0;0;0;0;0;0;();(-2000.0, -2000.0);
12:11:43:449;12:11:43:444;1448407662.02;(0.48439998626708985, 0.3629912482367621);58.8660583496;0.861732350106;;;;;;;;;;;;;;0;0;0;0;0;0;0;0;0;();(-2000.0, -2000.0);
12:11:43:466;12:11:43:444;1448407662.02;(0.48439998626708985, 0.3629912482367621);58.8660583496;0.861732350106;;;;;;;;;;;;;;0;0;0;0;0;0;0;0;0;();(-2000.0, -2000.0);
12:11:43:483;12:11:43:444;1448407662.02;(0.48439998626708985, 0.3629912482367621);58.8660583496;0.861732350106;;;;;;;;;;;;;;0;0;0;0;0;0;0;0;0;();(-2000.0, -2000.0);
12:11:43:500;12:11:43:444;1448407662.02;(0.48439998626708985, 0.3629912482367621);58.8660583496;0.861732350106;;;;;;;;;;;;;;0;0;0;0;0;0;0;0;0;();(-2000.0, -2000.0);
12:11:43:516;12:11:43:512;1448407662.08;(0.4844359397888184, 0.36445515950520835);58.8752708435;1.0;;;;;;;;;;;;;;0;0;0;0;0;0;0;0;0;();(-2000.0, -2000.0);
12:11:43:549;12:11:43:512;1448407662.08;(0.4844359397888184, 0.36445515950520835);58.8752708435;1.0;;;;;;;;;;;;;;0;0;0;0;0;0;0;0;0;();(-2000.0, -2000.0);
12:11:43:566;12:11:43:512;1448407662.08;(0.4844359397888184, 0.36445515950520835);58.8752708435;1.0;;;;;;;;;;;;;;0;0;0;0;0;0;0;0;0;();(-2000.0, -2000.0);
12:11:43:582;12:11:43:578;1448407662.15;(0.48394322395324707, 0.3647701263427734);58.621887207;1.0;;;;;;;;;;;;;;0;0;0;0;0;0;0;0;0;();(-2000.0, -2000.0);
12:11:43:599;12:11:43:578;1448407662.15;(0.48394322395324707, 0.3647701263427734);58.621887207;1.0;;;;;;;;;;;;;;0;0;0;0;0;0;0;0;0;();(-2000.0, -2000.0);
12:11:43:616;12:11:43:578;1448407662.15;(0.48394322395324707, 0.3647701263427734);58.621887207;1.0;;;;;;;;;;;;;;0;0;0;0;0;0;0;0;0;();(-2000.0, -2000.0);
12:11:43:649;12:11:43:645;1448407662.22;(0.48386359214782715, 0.36469459533691406);58.9664154053;1.0;;;;;;;;;;;;;;0;0;0;0;0;0;0;0;0;();(-2000.0, -2000.0);
12:11:43:666;12:11:43:645;1448407662.22;(0.48386359214782715, 0.36469459533691406);58.9664154053;1.0;;;;;;;;;;;;;;0;0;0;0;0;0;0;0;0;();(-2000.0, -2000.0);
12:11:43:683;12:11:43:645;1448407662.22;(0.48386359214782715, 0.36469459533691406);58.9664154053;1.0;;;;;;;;;;;;;;0;0;0;0;0;0;0;0;0;();(-2000.0, -2000.0);
12:11:43:700;12:11:43:645;1448407662.22;(0.48386359214782715, 0.36469459533691406);58.9664154053;1.0;;;;;;;;;;;;;;0;0;0;0;0;0;0;0;0;();(-2000.0, -2000.0);
12:11:43:716;12:11:43:710;1448407662.28;(0.4566822052001953, 0.3906430986192492);58.7516975403;0.710863760759;;;;;;;;;;;;;;0;0;0;0;0;0;0;0;0;();(-2000.0, -2000.0);
12:11:43:750;12:11:43:710;1448407662.28;(0.4566822052001953, 0.3906430986192492);58.7516975403;0.710863760759;;;;;;;;;;;;;;0;0;0;0;0;0;0;0;0;();(-2000.0, -2000.0);
12:11:43:766;12:11:43:710;1448407662.28;(0.4566822052001953, 0.3906430986192492);58.7516975403;0.710863760759;;;;;;;;;;;;;;0;0;0;0;0;0;0;0;0;();(-2000.0, -2000.0);
12:11:43:783;12:11:43:781;1448407662.32;(0.45714735984802246, 0.3900758531358507);58.8635597229;0.647881016962;;;;;;;;;;;;;;0;0;0;0;0;0;0;0;0;();(-2000.0, -2000.0);
12:11:43:800;12:11:43:787;1448407662.35;(0.45859265327453613, 0.3908429887559679);58.0452728271;0.645278785471;;;;;;;;;;;;;;0;0;0;0;0;0;0;0;0;();(-2000.0, -2000.0);
12:11:43:816;12:11:43:787;1448407662.35;(0.45859265327453613, 0.3908429887559679);58.0452728271;0.645278785471;;;;;;;;;;;;;;0;0;0;0;0;0;0;0;0;();(-2000.0, -2000.0);
12:11:43:849;12:11:43:843;1448407662.42;(0.45802841186523435, 0.3963486989339192);61.2881240845;0.626944872387;;;;;;;;;;;;;;0;0;0;0;0;0;0;0;0;();(-2000.0, -2000.0);
12:11:43:866;12:11:43:843;1448407662.42;(0.45802841186523435, 0.3963486989339192);61.2881240845;0.626944872387;;;;;;;;;;;;;;0;0;0;0;0;0;0;0;0;();(-2000.0, -2000.0);
12:11:43:883;12:11:43:843;1448407662.42;(0.45802841186523435, 0.3963486989339192);61.2881240845;0.626944872387;;;;;;;;;;;;;;0;0;0;0;0;0;0;0;0;();(-2000.0, -2000.0);
12:11:43:899;12:11:43:843;1448407662.42;(0.45802841186523435, 0.3963486989339192);61.2881240845;0.626944872387;;;;;;;;;;;;;;0;0;0;0;0;0;0;0;0;();(-2000.0, -2000.0);
12:11:43:916;12:11:43:911;1448407662.48;(0, 0);0;0;;;;;;;;;;;;;;0;0;0;0;0;0;0;0;0;();(-2000.0, -2000.0);
12:11:43:950;12:11:43:911;1448407662.48;(0, 0);0;0;;;;;;;;;;;;;;0;0;0;0;0;0;0;0;0;();(-2000.0, -2000.0);
12:11:43:967;12:11:43:911;1448407662.48;(0, 0);0;0;;;;;;;;;;;;;;0;0;0;0;0;0;0;0;0;();(-2000.0, -2000.0);
12:11:43:984;12:11:43:976;1448407662.55;(0, 0);0;0;;;;;;;;;;;;;;0;0;0;0;0;0;0;0;0;();(-2000.0, -2000.0);
12:11:44:000;12:11:43:976;1448407662.55;(0, 0);0;0;;;;;;;;;;;;;;0;0;0;0;0;0;0;0;0;();(-2000.0, -2000.0);
12:11:44:017;12:11:43:976;1448407662.55;(0, 0);0;0;;;;;;;;;;;;;;0;0;0;0;0;0;0;0;0;();(-2000.0, -2000.0);
12:11:44:050;12:11:44:044;1448407662.62;(0.4632710456848145, 0.3903335995144315);55.6628112793;0.634668979812;;;;;;;;;;;;;;0;0;0;0;0;0;0;0;0;();(-2000.0, -2000.0);
12:11:44:066;12:11:44:044;1448407662.62;(0.4632710456848145, 0.3903335995144315);55.6628112793;0.634668979812;;;;;;;;;;;;;;0;0;0;0;0;0;0;0;0;();(-2000.0, -2000.0);
12:11:44:083;12:11:44:044;1448407662.62;(0.4632710456848145, 0.3903335995144315);55.6628112793;0.634668979812;;;;;;;;;;;;;;0;0;0;0;0;0;0;0;0;();(-2000.0, -2000.0);
12:11:44:100;12:11:44:044;1448407662.62;(0.4632710456848145, 0.3903335995144315);55.6628112793;0.634668979812;;;;;;;;;;;;;;0;0;0;0;0;0;0;0;0;();(-2000.0, -2000.0);
12:11:44:117;12:11:44:108;1448407662.68;(0.44312329292297364, 0.38298382229275174);60.2275009155;0.688188624701;;;;;;;;;;;;;;0;0;0;0;0;0;0;0;0;();(-2000.0, -2000.0);
12:11:44:150;12:11:44:108;1448407662.68;(0.44312329292297364, 0.38298382229275174);60.2275009155;0.688188624701;;;;;;;;;;;;;;0;0;0;0;0;0;0;0;0;();(-2000.0, -2000.0);
12:11:44:166;12:11:44:108;1448407662.68;(0.44312329292297364, 0.38298382229275174);60.2275009155;0.688188624701;;;;;;;;;;;;;;0;0;0;0;0;0;0;0;0;();(-2000.0, -2000.0);
12:11:44:184;12:11:44:174;1448407662.72;(0, 0);0;0;;;;;;;;;;;;;;0;0;0;0;0;0;0;0;0;();(-2000.0, -2000.0);
12:11:44:200;12:11:44:174;1448407662.72;(0, 0);0;0;;;;;;;;;;;;;;0;0;0;0;0;0;0;0;0;();(-2000.0, -2000.0);
12:11:44:217;12:11:44:174;1448407662.72;(0, 0);0;0;;;;;;;;;;;;;;0;0;0;0;0;0;0;0;0;();(-2000.0, -2000.0);
12:11:44:250;12:11:44:244;1448407662.78;(0.44013662338256837, 0.4021630181206597);57.9275550842;0.64574829106;;;;;;;;;;;;;;0;0;0;0;0;0;0;0;0;();(-2000.0, -2000.0);
12:11:44:267;12:11:44:256;1448407662.82;(0.440721321105957, 0.4021382225884331);57.6074562073;0.709581985161;;;;;;;;;;;;;;0;0;0;0;0;0;0;0;0;();(-2000.0, -2000.0);
12:11:44:283;12:11:44:256;1448407662.82;(0.440721321105957, 0.4021382225884331);57.6074562073;0.709581985161;;;;;;;;;;;;;;0;0;0;0;0;0;0;0;0;();(-2000.0, -2000.0);
12:11:44:300;12:11:44:256;1448407662.82;(0.440721321105957, 0.4021382225884331);57.6074562073;0.709581985161;;;;;;;;;;;;;;0;0;0;0;0;0;0;0;0;();(-2000.0, -2000.0);
12:11:44:317;12:11:44:307;1448407662.88;(0.4482077121734619, 0.3939236534966363);49.3270492554;0.660385588091;;;;;;;;;;;;;;0;0;0;0;0;0;0;0;0;();(-2000.0, -2000.0);
12:11:44:350;12:11:44:307;1448407662.88;(0.4482077121734619, 0.3939236534966363);49.3270492554;0.660385588091;;;;;;;;;;;;;;0;0;0;0;0;0;0;0;0;();(-2000.0, -2000.0);
12:11:44:366;12:11:44:307;1448407662.88;(0.4482077121734619, 0.3939236534966363);49.3270492554;0.660385588091;;;;;;;;;;;;;;0;0;0;0;0;0;0;0;0;();(-2000.0, -2000.0);
12:11:44:384;12:11:44:375;1448407662.95;(0.44232497215270994, 0.4013518439398871);58.4616355896;0.71283809708;;;;;;;;;;;;;;0;0;0;0;0;0;0;0;0;();(-2000.0, -2000.0);
12:11:44:400;12:11:44:375;1448407662.95;(0.44232497215270994, 0.4013518439398871);58.4616355896;0.71283809708;;;;;;;;;;;;;;0;0;0;0;0;0;0;0;0;();(-2000.0, -2000.0);
12:11:44:417;12:11:44:375;1448407662.95;(0.44232497215270994, 0.4013518439398871);58.4616355896;0.71283809708;;;;;;;;;;;;;;0;0;0;0;0;0;0;0;0;();(-2000.0, -2000.0);
12:11:44:450;12:11:44:440;1448407663.02;(0.7693956851959228, 0.38669374254014754);36.2546768188;0.691571495318;;;;;;;;;;;;;;0;0;0;0;0;0;0;0;0;();(-2000.0, -2000.0);
12:11:44:467;12:11:44:440;1448407663.02;(0.7693956851959228, 0.38669374254014754);36.2546768188;0.691571495318;;;;;;;;;;;;;;0;0;0;0;0;0;0;0;0;();(-2000.0, -2000.0);
12:11:44:484;12:11:44:440;1448407663.02;(0.7693956851959228, 0.38669374254014754);36.2546768188;0.691571495318;;;;;;;;;;;;;;0;0;0;0;0;0;0;0;0;();(-2000.0, -2000.0);
12:11:44:500;12:11:44:440;1448407663.02;(0.7693956851959228, 0.38669374254014754);36.2546768188;0.691571495318;;;;;;;;;;;;;;0;0;0;0;0;0;0;0;0;();(-2000.0, -2000.0);
12:11:44:517;12:11:44:506;1448407663.08;(0, 0);0;0;;;;;;;;;;;;;;0;0;0;0;0;0;0;0;0;();(-2000.0, -2000.0);
12:11:44:550;12:11:44:506;1448407663.08;(0, 0);0;0;;;;;;;;;;;;;;0;0;0;0;0;0;0;0;0;();(-2000.0, -2000.0);
12:11:44:567;12:11:44:506;1448407663.08;(0, 0);0;0;;;;;;;;;;;;;;0;0;0;0;0;0;0;0;0;();(-2000.0, -2000.0);
12:11:44:583;12:11:44:575;1448407663.15;(0.45085945129394533, 0.3988642374674479);58.3869514465;0.624336380493;;;;;;;;;;;;;;0;0;0;0;0;0;0;0;0;();(-2000.0, -2000.0);
12:11:44:600;12:11:44:575;1448407663.15;(0.45085945129394533, 0.3988642374674479);58.3869514465;0.624336380493;;;;;;;;;;;;;;0;0;0;0;0;0;0;0;0;();(-2000.0, -2000.0);
12:11:44:617;12:11:44:575;1448407663.15;(0.45085945129394533, 0.3988642374674479);58.3869514465;0.624336380493;;;;;;;;;;;;;;0;0;0;0;0;0;0;0;0;();(-2000.0, -2000.0);
12:11:44:650;12:11:44:639;1448407663.22;(0, 0);0;0;;;;;;;;;;;;;;0;0;0;0;0;0;0;0;0;();(-2000.0, -2000.0);
12:11:44:667;12:11:44:639;1448407663.22;(0, 0);0;0;;;;;;;;;;;;;;0;0;0;0;0;0;0;0;0;();(-2000.0, -2000.0);
12:11:44:684;12:11:44:639;1448407663.22;(0, 0);0;0;;;;;;;;;;;;;;0;0;0;0;0;0;0;0;0;();(-2000.0, -2000.0);
12:11:44:700;12:11:44:639;1448407663.22;(0, 0);0;0;;;;;;;;;;;;;;0;0;0;0;0;0;0;0;0;();(-2000.0, -2000.0);
12:11:44:717;12:11:44:708;1448407663.28;(0.39211273193359375, 0.5612154218885634);25.1545333862;0.8054823276;;;;;;;;;;;;;;0;0;0;0;0;0;0;0;0;();(-2000.0, -2000.0);
12:11:44:750;12:11:44:708;1448407663.28;(0.39211273193359375, 0.5612154218885634);25.1545333862;0.8054823276;;;;;;;;;;;;;;0;0;0;0;0;0;0;0;0;();(-2000.0, -2000.0);
12:11:44:767;12:11:44:708;1448407663.28;(0.39211273193359375, 0.5612154218885634);25.1545333862;0.8054823276;;;;;;;;;;;;;;0;0;0;0;0;0;0;0;0;();(-2000.0, -2000.0);
12:11:44:783;12:11:44:771;1448407663.35;(0.4576122283935547, 0.4011080847846137);59.9939041138;0.643502510266;;;;;;;;;;;;;;0;0;0;0;0;0;0;0;0;();(-2000.0, -2000.0);
12:11:44:801;12:11:44:771;1448407663.35;(0.4576122283935547, 0.4011080847846137);59.9939041138;0.643502510266;;;;;;;;;;;;;;0;0;0;0;0;0;0;0;0;();(-2000.0, -2000.0);
12:11:44:817;12:11:44:771;1448407663.35;(0.4576122283935547, 0.4011080847846137);59.9939041138;0.643502510266;;;;;;;;;;;;;;0;0;0;0;0;0;0;0;0;();(-2000.0, -2000.0);
12:11:44:851;12:11:44:839;1448407663.42;(0.39053375720977784, 0.566842524210612);22.1231174469;0.928733209633;;;;;;;;;;;;;;0;0;0;0;0;0;0;0;0;();(-2000.0, -2000.0);
12:11:44:867;12:11:44:839;1448407663.42;(0.39053375720977784, 0.566842524210612);22.1231174469;0.928733209633;;;;;;;;;;;;;;0;0;0;0;0;0;0;0;0;();(-2000.0, -2000.0);
12:11:44:884;12:11:44:839;1448407663.42;(0.39053375720977784, 0.566842524210612);22.1231174469;0.928733209633;;;;;;;;;;;;;;0;0;0;0;0;0;0;0;0;();(-2000.0, -2000.0);
12:11:44:901;12:11:44:839;1448407663.42;(0.39053375720977784, 0.566842524210612);22.1231174469;0.928733209633;;;;;;;;;;;;;;0;0;0;0;0;0;0;0;0;();(-2000.0, -2000.0);
12:11:44:916;12:11:44:907;1448407663.48;(0, 0);0;0;;;;;;;;;;;;;;0;0;0;0;0;0;0;0;0;();(-2000.0, -2000.0);
12:11:44:951;12:11:44:907;1448407663.48;(0, 0);0;0;;;;;;;;;;;;;;0;0;0;0;0;0;0;0;0;();(-2000.0, -2000.0);
12:11:44:967;12:11:44:907;1448407663.48;(0, 0);0;0;;;;;;;;;;;;;;0;0;0;0;0;0;0;0;0;();(-2000.0, -2000.0);
12:11:44:984;12:11:44:971;1448407663.55;(0.4368756294250488, 0.392937978108724);58.8117599487;0.705078288528;;;;;;;;;;;;;;0;0;0;0;0;0;0;0;0;();(-2000.0, -2000.0);
12:11:45:001;12:11:44:971;1448407663.55;(0.4368756294250488, 0.392937978108724);58.8117599487;0.705078288528;;;;;;;;;;;;;;0;0;0;0;0;0;0;0;0;();(-2000.0, -2000.0);
12:11:45:018;12:11:44:971;1448407663.55;(0.4368756294250488, 0.392937978108724);58.8117599487;0.705078288528;;;;;;;;;;;;;;0;0;0;0;0;0;0;0;0;();(-2000.0, -2000.0);
12:11:45:051;12:11:45:039;1448407663.62;(0, 0);0;0;;;;;;;;;;;;;;0;0;0;0;0;0;0;0;0;();(-2000.0, -2000.0);
12:11:45:067;12:11:45:039;1448407663.62;(0, 0);0;0;;;;;;;;;;;;;;0;0;0;0;0;0;0;0;0;();(-2000.0, -2000.0);
12:11:45:084;12:11:45:039;1448407663.62;(0, 0);0;0;;;;;;;;;;;;;;0;0;0;0;0;0;0;0;0;();(-2000.0, -2000.0);
12:11:45:101;12:11:45:039;1448407663.62;(0, 0);0;0;;;;;;;;;;;;;;0;0;0;0;0;0;0;0;0;();(-2000.0, -2000.0);
12:11:45:118;12:11:45:105;1448407663.68;(0.4418661594390869, 0.377937995062934);60.1323051453;0.735581556309;;;;;;;;;;;;;;0;0;0;0;0;0;0;0;0;();(-2000.0, -2000.0);
12:11:45:134;12:11:45:105;1448407663.68;(0.4418661594390869, 0.377937995062934);60.1323051453;0.735581556309;;;;;;;;;;;;;;0;0;0;0;0;0;0;0;0;();(-2000.0, -2000.0);
12:11:45:167;12:11:45:105;1448407663.68;(0.4418661594390869, 0.377937995062934);60.1323051453;0.735581556309;;;;;;;;;;;;;;0;0;0;0;0;0;0;0;0;();(-2000.0, -2000.0);
12:11:45:184;12:11:45:169;1448407663.72;(0, 0);0;0;;;;;;;;;;;;;;0;0;0;0;0;0;0;0;0;();(-2000.0, -2000.0);
12:11:45:201;12:11:45:169;1448407663.72;(0, 0);0;0;;;;;;;;;;;;;;0;0;0;0;0;0;0;0;0;();(-2000.0, -2000.0);
12:11:45:217;12:11:45:169;1448407663.72;(0, 0);0;0;;;;;;;;;;;;;;0;0;0;0;0;0;0;0;0;();(-2000.0, -2000.0);
12:11:45:234;12:11:45:169;1448407663.72;(0, 0);0;0;;;;;;;;;;;;;;0;0;0;0;0;0;0;0;0;();(-2000.0, -2000.0);
12:11:45:268;12:11:45:240;1448407663.82;(0.43977179527282717, 0.39272083706325955);59.0469093323;0.649543289862;;;;;;;;;;;;;;0;0;0;0;0;0;0;0;0;();(-2000.0, -2000.0);
12:11:45:284;12:11:45:240;1448407663.82;(0.43977179527282717, 0.39272083706325955);59.0469093323;0.649543289862;;;;;;;;;;;;;;0;0;0;0;0;0;0;0;0;();(-2000.0, -2000.0);
12:11:45:301;12:11:45:240;1448407663.82;(0.43977179527282717, 0.39272083706325955);59.0469093323;0.649543289862;;;;;;;;;;;;;;0;0;0;0;0;0;0;0;0;();(-2000.0, -2000.0);
12:11:45:318;12:11:45:301;1448407663.85;(0.4439432144165039, 0.38275248209635415);50.1922912598;0.651530183094;;;;;;;;;;;;;;0;0;0;0;0;0;0;0;0;();(-2000.0, -2000.0);
12:11:45:334;12:11:45:301;1448407663.85;(0.4439432144165039, 0.38275248209635415);50.1922912598;0.651530183094;;;;;;;;;;;;;;0;0;0;0;0;0;0;0;0;();(-2000.0, -2000.0);
12:11:45:367;12:11:45:301;1448407663.85;(0.4439432144165039, 0.38275248209635415);50.1922912598;0.651530183094;;;;;;;;;;;;;;0;0;0;0;0;0;0;0;0;();(-2000.0, -2000.0);
12:11:45:384;12:11:45:375;1448407663.95;(0, 0);0;0;;;;;;;;;;;;;;0;0;0;0;0;0;0;0;0;();(-2000.0, -2000.0);
12:11:45:401;12:11:45:375;1448407663.95;(0, 0);0;0;;;;;;;;;;;;;;0;0;0;0;0;0;0;0;0;();(-2000.0, -2000.0);
12:11:45:417;12:11:45:375;1448407663.95;(0, 0);0;0;;;;;;;;;;;;;;0;0;0;0;0;0;0;0;0;();(-2000.0, -2000.0);
12:11:45:434;12:11:45:375;1448407663.95;(0, 0);0;0;;;;;;;;;;;;;;0;0;0;0;0;0;0;0;0;();(-2000.0, -2000.0);
12:11:45:468;12:11:45:435;1448407664.02;(0.41765317916870115, 0.39673648410373263);60.1642150879;0.677264494059;;;;;;;;;;;;;;0;0;0;0;0;0;0;0;0;();(-2000.0, -2000.0);
12:11:45:484;12:11:45:435;1448407664.02;(0.41765317916870115, 0.39673648410373263);60.1642150879;0.677264494059;;;;;;;;;;;;;;0;0;0;0;0;0;0;0;0;();(-2000.0, -2000.0);
12:11:45:501;12:11:45:435;1448407664.02;(0.41765317916870115, 0.39673648410373263);60.1642150879;0.677264494059;;;;;;;;;;;;;;0;0;0;0;0;0;0;0;0;();(-2000.0, -2000.0);
12:11:45:518;12:11:45:502;1448407664.05;(0, 0);0;0;;;;;;;;;;;;;;0;0;0;0;0;0;0;0;0;();(-2000.0, -2000.0);
12:11:45:535;12:11:45:502;1448407664.05;(0, 0);0;0;;;;;;;;;;;;;;0;0;0;0;0;0;0;0;0;();(-2000.0, -2000.0);
12:11:45:568;12:11:45:502;1448407664.05;(0, 0);0;0;;;;;;;;;;;;;;0;0;0;0;0;0;0;0;0;();(-2000.0, -2000.0);
12:11:45:584;12:11:45:573;1448407664.15;(0.3946218967437744, 0.37992057800292967);63.1079101562;0.628413274087;;;;;;;;;;;;;;0;0;0;0;0;0;0;0;0;();(-2000.0, -2000.0);
12:11:45:601;12:11:45:573;1448407664.15;(0.3946218967437744, 0.37992057800292967);63.1079101562;0.628413274087;;;;;;;;;;;;;;0;0;0;0;0;0;0;0;0;();(-2000.0, -2000.0);
12:11:45:618;12:11:45:573;1448407664.15;(0.3946218967437744, 0.37992057800292967);63.1079101562;0.628413274087;;;;;;;;;;;;;;0;0;0;0;0;0;0;0;0;();(-2000.0, -2000.0);
12:11:45:635;12:11:45:573;1448407664.15;(0.3946218967437744, 0.37992057800292967);63.1079101562;0.628413274087;;;;;;;;;;;;;;0;0;0;0;0;0;0;0;0;();(-2000.0, -2000.0);
12:11:45:668;12:11:45:636;1448407664.22;(0, 0);0;0;;;;;;;;;;;;;;0;0;0;0;0;0;0;0;0;();(-2000.0, -2000.0);
12:11:45:685;12:11:45:636;1448407664.22;(0, 0);0;0;;;;;;;;;;;;;;0;0;0;0;0;0;0;0;0;();(-2000.0, -2000.0);
12:11:45:701;12:11:45:636;1448407664.22;(0, 0);0;0;;;;;;;;;;;;;;0;0;0;0;0;0;0;0;0;();(-2000.0, -2000.0);
12:11:45:718;12:11:45:702;1448407664.28;(0, 0);0;0;;;;;;;;;;;;;;0;0;0;0;0;0;0;0;0;();(-2000.0, -2000.0);
12:11:45:735;12:11:45:702;1448407664.28;(0, 0);0;0;;;;;;;;;;;;;;0;0;0;0;0;0;0;0;0;();(-2000.0, -2000.0);
12:11:45:768;12:11:45:766;1448407664.32;(0.4348191738128662, 0.3871717241075304);26.4932079315;0.771966730391;;;;;;;;;;;;;;0;0;0;0;0;0;0;0;0;();(-2000.0, -2000.0);
12:11:45:785;12:11:45:766;1448407664.32;(0.4348191738128662, 0.3871717241075304);26.4932079315;0.771966730391;;;;;;;;;;;;;;0;0;0;0;0;0;0;0;0;();(-2000.0, -2000.0);
12:11:45:802;12:11:45:766;1448407664.32;(0.4348191738128662, 0.3871717241075304);26.4932079315;0.771966730391;;;;;;;;;;;;;;0;0;0;0;0;0;0;0;0;();(-2000.0, -2000.0);
12:11:45:818;12:11:45:766;1448407664.32;(0.4348191738128662, 0.3871717241075304);26.4932079315;0.771966730391;;;;;;;;;;;;;;0;0;0;0;0;0;0;0;0;();(-2000.0, -2000.0);
12:11:45:835;12:11:45:834;1448407664.35;(0, 0);0;0;;;;;;;;;;;;;;0;0;0;0;0;0;0;0;0;();(-2000.0, -2000.0);
12:11:45:868;12:11:45:837;1448407664.42;(0, 0);0;0;;;;;;;;;;;;;;0;0;0;0;0;0;0;0;0;();(-2000.0, -2000.0);
12:11:45:885;12:11:45:837;1448407664.42;(0, 0);0;0;;;;;;;;;;;;;;0;0;0;0;0;0;0;0;0;();(-2000.0, -2000.0);
12:11:45:902;12:11:45:837;1448407664.42;(0, 0);0;0;;;;;;;;;;;;;;0;0;0;0;0;0;0;0;0;();(-2000.0, -2000.0);
12:11:45:918;12:11:45:906;1448407664.45;(0.41191461086273196, 0.40336049397786455);61.4459724426;0.614067114372;;;;;;;;;;;;;;0;0;0;0;0;0;0;0;0;();(-2000.0, -2000.0);
12:11:45:935;12:11:45:906;1448407664.45;(0.41191461086273196, 0.40336049397786455);61.4459724426;0.614067114372;;;;;;;;;;;;;;0;0;0;0;0;0;0;0;0;();(-2000.0, -2000.0);
12:11:45:968;12:11:45:966;1448407664.48;(0.4441792964935303, 0.3840571085611979);28.110622406;0.686775748387;;;;;;;;;;;;;;0;0;0;0;0;0;0;0;0;();(-2000.0, -2000.0);
12:11:45:996;12:11:45:967;1448407664.52;(0, 0);0;0;;;;;;;;;;;;;;0;40,21;0;0;0;0;0;0;0;();(-2000.0, -2000.0);
12:11:46:017;12:11:45:967;1448407664.52;(0, 0);0;0;;;;;;;;;;;;;;0;40,21;0;0;0;0;0;0;0;();(-2000.0, -2000.0);
12:11:46:022;12:11:45:967;1448407664.52;(0, 0);0;0;;;;;;;;;;;;;;0;40,21;0;0;0;0;0;0;0;();(-2000.0, -2000.0);
12:11:46:035;12:11:45:967;1448407664.52;(0, 0);0;0;;;;;;;;;;;;;;0;40,21;0;0;0;0;0;0;0;();(-2000.0, -2000.0);
12:11:46:068;12:11:46:041;1448407664.62;(0.7780500411987304, 0.3778767479790581);34.5962867737;0.715408026848;;;;;;;;;;;;;;0;40,21;0;0;0;0;0;0;0;();(-2000.0, -2000.0);
12:11:46:085;12:11:46:041;1448407664.62;(0.7780500411987304, 0.3778767479790581);34.5962867737;0.715408026848;;;;;;;;;;;;;;0;40,21;0;0;0;0;0;0;0;();(-2000.0, -2000.0);
12:11:46:101;12:11:46:098;1448407664.68;(0.4080669403076172, 0.40193299187554254);60.8665084839;0.603096736126;;;;;;;;;;;;;;0;40,21;0;0;0;0;0;0;0;();(-2000.0, -2000.0);
12:11:46:118;12:11:46:098;1448407664.68;(0.4080669403076172, 0.40193299187554254);60.8665084839;0.603096736126;;;;;;;;;;;;;;0;40,21;0;0;0;0;0;0;0;();(-2000.0, -2000.0);
12:11:46:135;12:11:46:098;1448407664.68;(0.4080669403076172, 0.40193299187554254);60.8665084839;0.603096736126;;;;;;;;;;;;;;0;40,21;0;0;0;0;0;0;0;();(-2000.0, -2000.0);
12:11:46:168;12:11:46:167;1448407664.75;(0.3972759246826172, 0.3723062303331163);43.4315414429;0.684192201634;;;;;;;;;;;;;;0;40,21;0;0;0;0;0;0;0;();(-2000.0, -2000.0);
12:11:46:185;12:11:46:167;1448407664.75;(0.3972759246826172, 0.3723062303331163);43.4315414429;0.684192201634;;;;;;;;;;;;;;0;40,21;0;0;0;0;0;0;0;();(-2000.0, -2000.0);
12:11:46:203;12:11:46:167;1448407664.75;(0.3972759246826172, 0.3723062303331163);43.4315414429;0.684192201634;;;;;;;;;;;;;;0;40,21;0;0;0;0;0;0;0;();(-2000.0, -2000.0);
12:11:46:218;12:11:46:167;1448407664.75;(0.3972759246826172, 0.3723062303331163);43.4315414429;0.684192201634;;;;;;;;;;;;;;0;40,21;0;0;0;0;0;0;0;();(-2000.0, -2000.0);
12:11:46:235;12:11:46:233;1448407664.78;(0.41157491207122804, 0.4004173278808594);60.3154411316;0.634408486804;;;;;;;;;;;;;;0;40,21;0;0;0;0;0;0;0;();(-2000.0, -2000.0);
12:11:46:269;12:11:46:233;1448407664.78;(0.41157491207122804, 0.4004173278808594);60.3154411316;0.634408486804;;;;;;;;;;;;;;0;40,21;0;0;0;0;0;0;0;();(-2000.0, -2000.0);
12:11:46:285;12:11:46:233;1448407664.78;(0.41157491207122804, 0.4004173278808594);60.3154411316;0.634408486804;;;;;;;;;;;;;;0;40,21;0;0;0;0;0;0;0;();(-2000.0, -2000.0);
12:11:46:302;12:11:46:300;1448407664.85;(0.4125349760055542, 0.40167537265353737);60.5133361816;0.63051511131;;;;;;;;;;;;;;0;40,21;0;0;0;0;0;0;0;();(-2000.0, -2000.0);
12:11:46:319;12:11:46:300;1448407664.85;(0.4125349760055542, 0.40167537265353737);60.5133361816;0.63051511131;;;;;;;;;;;;;;0;40,21;0;0;0;0;0;0;0;();(-2000.0, -2000.0);
12:11:46:335;12:11:46:300;1448407664.85;(0.4125349760055542, 0.40167537265353737);60.5133361816;0.63051511131;;;;;;;;;;;;;;0;40,21;0;0;0;0;0;0;0;();(-2000.0, -2000.0);
12:11:46:369;12:11:46:366;1448407664.88;(0, 0);0;0;;;;;;;;;;;;;;0;40,21;0;0;0;0;0;0;0;();(-2000.0, -2000.0);
12:11:46:385;12:11:46:371;1448407664.95;(0.4148255825042725, 0.38297903272840716);64.4635772705;0.665651920504;;;;;;;;;;;;;;0;40,21;0;0;0;0;0;0;0;();(-2000.0, -2000.0);
12:11:46:403;12:11:46:371;1448407664.95;(0.4148255825042725, 0.38297903272840716);64.4635772705;0.665651920504;;;;;;;;;;;;;;0;40,21;0;0;0;0;0;0;0;();(-2000.0, -2000.0);
12:11:46:419;12:11:46:371;1448407664.95;(0.4148255825042725, 0.38297903272840716);64.4635772705;0.665651920504;;;;;;;;;;;;;;0;40,21;0;0;0;0;0;0;0;();(-2000.0, -2000.0);
12:11:46:435;12:11:46:431;1448407665.02;(0, 0);0;0;;;;;;;;;;;;;;0;40,21;0;0;0;0;0;0;0;();(-2000.0, -2000.0);
12:11:46:468;12:11:46:431;1448407665.02;(0, 0);0;0;;;;;;;;;;;;;;0;40,21;0;0;0;0;0;0;0;();(-2000.0, -2000.0);
12:11:46:485;12:11:46:431;1448407665.02;(0, 0);0;0;;;;;;;;;;;;;;0;40,21;0;0;0;0;0;0;0;();(-2000.0, -2000.0);
12:11:46:502;12:11:46:431;1448407665.02;(0, 0);0;0;;;;;;;;;;;;;;0;40,21;0;0;0;0;0;0;0;();(-2000.0, -2000.0);
12:11:46:518;12:11:46:510;1448407665.08;(0, 0);0;0;;;;;;;;;;;;;;0;40,21;0;0;0;0;0;0;0;();(-2000.0, -2000.0);
12:11:46:535;12:11:46:510;1448407665.08;(0, 0);0;0;;;;;;;;;;;;;;0;40,21;0;0;0;0;0;0;0;();(-2000.0, -2000.0);
12:11:46:568;12:11:46:561;1448407665.12;(0, 0);0;0;;;;;;;;;;;;;;0;40,21;0;0;0;0;0;0;0;();(-2000.0, -2000.0);
12:11:46:585;12:11:46:561;1448407665.12;(0, 0);0;0;;;;;;;;;;;;;;0;40,21;0;0;0;0;0;0;0;();(-2000.0, -2000.0);
12:11:46:602;12:11:46:561;1448407665.12;(0, 0);0;0;;;;;;;;;;;;;;0;40,21;0;0;0;0;0;0;0;();(-2000.0, -2000.0);
12:11:46:619;12:11:46:561;1448407665.12;(0, 0);0;0;;;;;;;;;;;;;;0;40,21;0;0;0;0;0;0;0;();(-2000.0, -2000.0);
12:11:46:636;12:11:46:633;1448407665.22;(0.34421601295471194, 0.35126037597656246);59.3919448853;1.0;;;;;;;;;;;;;;0;40,21;0;0;0;0;0;0;0;();(-2000.0, -2000.0);
12:11:46:669;12:11:46:633;1448407665.22;(0.34421601295471194, 0.35126037597656246);59.3919448853;1.0;;;;;;;;;;;;;;0;40,21;0;0;0;0;0;0;0;();(-2000.0, -2000.0);
12:11:46:686;12:11:46:633;1448407665.22;(0.34421601295471194, 0.35126037597656246);59.3919448853;1.0;;;;;;;;;;;;;;0;40,21;0;0;0;0;0;0;0;();(-2000.0, -2000.0);
12:11:46:702;12:11:46:699;1448407665.25;(0.3475597858428955, 0.354916763305664);59.7704734802;1.0;;;;;;;;;;;;;;0;40,21;0;0;0;0;0;0;0;();(-2000.0, -2000.0);
12:11:46:718;12:11:46:699;1448407665.25;(0.3475597858428955, 0.354916763305664);59.7704734802;1.0;;;;;;;;;;;;;;0;40,21;0;0;0;0;0;0;0;();(-2000.0, -2000.0);
12:11:46:735;12:11:46:699;1448407665.25;(0.3475597858428955, 0.354916763305664);59.7704734802;1.0;;;;;;;;;;;;;;0;40,21;0;0;0;0;0;0;0;();(-2000.0, -2000.0);
12:11:46:769;12:11:46:762;1448407665.32;(0.8133843421936036, 0.629041968451606);18.551410675;0.700718904164;;;;;;;;;;;;;;0;40,21;0;0;0;0;0;0;0;();(-2000.0, -2000.0);
12:11:46:785;12:11:46:762;1448407665.32;(0.8133843421936036, 0.629041968451606);18.551410675;0.700718904164;;;;;;;;;;;;;;0;40,21;0;0;0;0;0;0;0;();(-2000.0, -2000.0);
12:11:46:802;12:11:46:762;1448407665.32;(0.8133843421936036, 0.629041968451606);18.551410675;0.700718904164;;;;;;;;;;;;;;0;40,21;0;0;0;0;0;0;0;();(-2000.0, -2000.0);
12:11:46:819;12:11:46:762;1448407665.32;(0.8133843421936036, 0.629041968451606);18.551410675;0.700718904164;;;;;;;;;;;;;;0;40,21;0;0;0;0;0;0;0;();(-2000.0, -2000.0);
12:11:46:836;12:11:46:832;1448407665.38;(0.3544572114944458, 0.3549306233723958);59.5572929382;0.98929332751;;;;;;;;;;;;;;0;40,21;0;0;0;0;0;0;0;();(-2000.0, -2000.0);
12:11:46:869;12:11:46:832;1448407665.38;(0.3544572114944458, 0.3549306233723958);59.5572929382;0.98929332751;;;;;;;;;;;;;;0;40,21;0;0;0;0;0;0;0;();(-2000.0, -2000.0);
12:11:46:886;12:11:46:832;1448407665.38;(0.3544572114944458, 0.3549306233723958);59.5572929382;0.98929332751;;;;;;;;;;;;;;0;40,21;0;0;0;0;0;0;0;();(-2000.0, -2000.0);
12:11:46:902;12:11:46:896;1448407665.45;(0.3629496097564697, 0.3600250244140625);59.137714386;0.904667548831;;;;;;;;;;;;;;0;40,21;0;0;0;0;0;0;0;();(-2000.0, -2000.0);
12:11:46:918;12:11:46:896;1448407665.45;(0.3629496097564697, 0.3600250244140625);59.137714386;0.904667548831;;;;;;;;;;;;;;0;40,21;0;0;0;0;0;0;0;();(-2000.0, -2000.0);
12:11:46:934;12:11:46:896;1448407665.45;(0.3629496097564697, 0.3600250244140625);59.137714386;0.904667548831;;;;;;;;;;;;;;0;40,21;0;0;0;0;0;0;0;();(-2000.0, -2000.0);
12:11:46:969;12:11:46:964;1448407665.52;(0.37035017013549804, 0.3645107693142361);58.4887886047;0.889619708235;;;;;;;;;;;;;;0;40,21;0;0;0;0;0;0;0;();(-2000.0, -2000.0);
12:11:46:986;12:11:46:964;1448407665.52;(0.37035017013549804, 0.3645107693142361);58.4887886047;0.889619708235;;;;;;;;;;;;;;0;40,21;0;0;0;0;0;0;0;();(-2000.0, -2000.0);
12:11:47:002;12:11:46:964;1448407665.52;(0.37035017013549804, 0.3645107693142361);58.4887886047;0.889619708235;;;;;;;;;;;;;;0;40,21;0;0;0;0;0;0;0;();(-2000.0, -2000.0);
12:11:47:019;12:11:46:964;1448407665.52;(0.37035017013549804, 0.3645107693142361);58.4887886047;0.889619708235;;;;;;;;;;;;;;0;40,21;0;0;0;0;0;0;0;();(-2000.0, -2000.0);
12:11:47:035;12:11:47:031;1448407665.58;(0.3758787870407104, 0.36653022766113286);58.2986907959;0.858146489683;;;;;;;;;;;;;;0;40,21;0;0;0;0;0;0;0;();(-2000.0, -2000.0);
12:11:47:069;12:11:47:031;1448407665.58;(0.3758787870407104, 0.36653022766113286);58.2986907959;0.858146489683;;;;;;;;;;;;;;0;40,21;0;0;0;0;0;0;0;();(-2000.0, -2000.0);
12:11:47:085;12:11:47:031;1448407665.58;(0.3758787870407104, 0.36653022766113286);58.2986907959;0.858146489683;;;;;;;;;;;;;;0;40,21;0;0;0;0;0;0;0;();(-2000.0, -2000.0);
12:11:47:103;12:11:47:099;1448407665.68;(0.3818225383758545, 0.36416261461046007);60.7915000916;0.781040433291;;;;;;;;;;;;;;0;40,21;0;0;0;0;0;0;0;();(-2000.0, -2000.0);
12:11:47:119;12:11:47:099;1448407665.68;(0.3818225383758545, 0.36416261461046007);60.7915000916;0.781040433291;;;;;;;;;;;;;;0;40,21;0;0;0;0;0;0;0;();(-2000.0, -2000.0);
12:11:47:136;12:11:47:099;1448407665.68;(0.3818225383758545, 0.36416261461046007);60.7915000916;0.781040433291;;;;;;;;;;;;;;0;40,21;0;0;0;0;0;0;0;();(-2000.0, -2000.0);
12:11:47:169;12:11:47:162;1448407665.72;(0.5766478061676026, 0.5216912587483724);18.7971477509;0.626710651931;;;;;;;;;;;;;;0;40,21;0;0;0;0;0;0;0;();(-2000.0, -2000.0);
12:11:47:186;12:11:47:162;1448407665.72;(0.5766478061676026, 0.5216912587483724);18.7971477509;0.626710651931;;;;;;;;;;;;;;0;40,21;0;0;0;0;0;0;0;();(-2000.0, -2000.0);
12:11:47:202;12:11:47:162;1448407665.72;(0.5766478061676026, 0.5216912587483724);18.7971477509;0.626710651931;;;;;;;;;;;;;;0;40,21;0;0;0;0;0;0;0;();(-2000.0, -2000.0);
12:11:47:219;12:11:47:162;1448407665.72;(0.5766478061676026, 0.5216912587483724);18.7971477509;0.626710651931;;;;;;;;;;;;;;0;40,21;0;0;0;0;0;0;0;();(-2000.0, -2000.0);
12:11:47:236;12:11:47:227;1448407665.78;(0.3813028335571289, 0.37688280741373703);58.3866996765;0.726431192214;;;;;;;;;;;;;;0;40,21;0;0;0;0;0;0;0;();(-2000.0, -2000.0);
12:11:47:269;12:11:47:227;1448407665.78;(0.3813028335571289, 0.37688280741373703);58.3866996765;0.726431192214;;;;;;;;;;;;;;0;40,21;0;0;0;0;0;0;0;();(-2000.0, -2000.0);
12:11:47:286;12:11:47:227;1448407665.78;(0.3813028335571289, 0.37688280741373703);58.3866996765;0.726431192214;;;;;;;;;;;;;;0;40,21;0;0;0;0;0;0;0;();(-2000.0, -2000.0);
12:11:47:302;12:11:47:295;1448407665.85;(0, 0);0;0;;;;;;;;;;;;;;0;40,21;0;0;0;0;0;0;0;();(-2000.0, -2000.0);
12:11:47:319;12:11:47:295;1448407665.85;(0, 0);0;0;;;;;;;;;;;;;;0;40,21;0;0;0;0;0;0;0;();(-2000.0, -2000.0);
12:11:47:336;12:11:47:295;1448407665.85;(0, 0);0;0;;;;;;;;;;;;;;0;40,21;0;0;0;0;0;0;0;();(-2000.0, -2000.0);
12:11:47:369;12:11:47:362;1448407665.92;(0.7769021987915039, 0.3755010392930772);36.5186386108;0.606670039764;;;;;;;;;;;;;;0;40,21;0;0;0;0;0;0;0;();(-2000.0, -2000.0);
12:11:47:386;12:11:47:362;1448407665.92;(0.7769021987915039, 0.3755010392930772);36.5186386108;0.606670039764;;;;;;;;;;;;;;0;40,21;0;0;0;0;0;0;0;();(-2000.0, -2000.0);
12:11:47:402;12:11:47:362;1448407665.92;(0.7769021987915039, 0.3755010392930772);36.5186386108;0.606670039764;;;;;;;;;;;;;;0;40,21;0;0;0;0;0;0;0;();(-2000.0, -2000.0);
12:11:47:419;12:11:47:362;1448407665.92;(0.7769021987915039, 0.3755010392930772);36.5186386108;0.606670039764;;;;;;;;;;;;;;0;40,21;0;0;0;0;0;0;0;();(-2000.0, -2000.0);
12:11:47:436;12:11:47:426;1448407665.98;(0, 0);0;0;;;;;;;;;;;;;;0;40,21;0;0;0;0;0;0;0;();(-2000.0, -2000.0);
12:11:47:469;12:11:47:426;1448407665.98;(0, 0);0;0;;;;;;;;;;;;;;0;40,21;0;0;0;0;0;0;0;();(-2000.0, -2000.0);
12:11:47:486;12:11:47:426;1448407665.98;(0, 0);0;0;;;;;;;;;;;;;;0;40,21;0;0;0;0;0;0;0;();(-2000.0, -2000.0);
12:11:47:502;12:11:47:495;1448407666.05;(0.47910146713256835, 0.2879462348090278);58.0100975037;0.612975788862;;;;;;;;;;;;;;0;40,21;0;0;0;0;0;0;0;();(-2000.0, -2000.0);
12:11:47:519;12:11:47:495;1448407666.05;(0.47910146713256835, 0.2879462348090278);58.0100975037;0.612975788862;;;;;;;;;;;;;;0;40,21;0;0;0;0;0;0;0;();(-2000.0, -2000.0);
12:11:47:536;12:11:47:495;1448407666.05;(0.47910146713256835, 0.2879462348090278);58.0100975037;0.612975788862;;;;;;;;;;;;;;0;40,21;0;0;0;0;0;0;0;();(-2000.0, -2000.0);
12:11:47:570;12:11:47:559;1448407666.12;(0.4701117992401123, 0.2979866451687283);59.1833114624;0.79621314903;;;;;;;;;;;;;;0;40,21;0;0;0;0;0;0;0;();(-2000.0, -2000.0);
12:11:47:586;12:11:47:559;1448407666.12;(0.4701117992401123, 0.2979866451687283);59.1833114624;0.79621314903;;;;;;;;;;;;;;0;40,21;0;0;0;0;0;0;0;();(-2000.0, -2000.0);
12:11:47:603;12:11:47:559;1448407666.12;(0.4701117992401123, 0.2979866451687283);59.1833114624;0.79621314903;;;;;;;;;;;;;;0;40,21;0;0;0;0;0;0;0;();(-2000.0, -2000.0);
12:11:47:620;12:11:47:559;1448407666.12;(0.4701117992401123, 0.2979866451687283);59.1833114624;0.79621314903;;;;;;;;;;;;;;0;40,21;0;0;0;0;0;0;0;();(-2000.0, -2000.0);
12:11:47:636;12:11:47:628;1448407666.18;(0.46405253410339353, 0.30467342800564234);59.1587638855;0.813496234991;;;;;;;;;;;;;;0;40,21;0;0;0;0;0;0;0;();(-2000.0, -2000.0);
12:11:47:670;12:11:47:628;1448407666.18;(0.46405253410339353, 0.30467342800564234);59.1587638855;0.813496234991;;;;;;;;;;;;;;0;40,21;0;0;0;0;0;0;0;();(-2000.0, -2000.0);
12:11:47:686;12:11:47:628;1448407666.18;(0.46405253410339353, 0.30467342800564234);59.1587638855;0.813496234991;;;;;;;;;;;;;;0;40,21;0;0;0;0;0;0;0;();(-2000.0, -2000.0);
12:11:47:703;12:11:47:695;1448407666.25;(0.4609087944030762, 0.30779474046495225);59.7735900879;0.800251381495;;;;;;;;;;;;;;0;40,21;0;0;0;0;0;0;0;();(-2000.0, -2000.0);
12:11:47:720;12:11:47:695;1448407666.25;(0.4609087944030762, 0.30779474046495225);59.7735900879;0.800251381495;;;;;;;;;;;;;;0;40,21;0;0;0;0;0;0;0;();(-2000.0, -2000.0);
12:11:47:736;12:11:47:695;1448407666.25;(0.4609087944030762, 0.30779474046495225);59.7735900879;0.800251381495;;;;;;;;;;;;;;0;40,21;0;0;0;0;0;0;0;();(-2000.0, -2000.0);
12:11:47:770;12:11:47:759;1448407666.32;(0.4593785762786865, 0.30960608588324656);60.4127883911;0.847772930829;;;;;;;;;;;;;;0;40,21;0;0;0;0;0;0;0;();(-2000.0, -2000.0);
12:11:47:787;12:11:47:759;1448407666.32;(0.4593785762786865, 0.30960608588324656);60.4127883911;0.847772930829;;;;;;;;;;;;;;0;40,21;0;0;0;0;0;0;0;();(-2000.0, -2000.0);
12:11:47:803;12:11:47:759;1448407666.32;(0.4593785762786865, 0.30960608588324656);60.4127883911;0.847772930829;;;;;;;;;;;;;;0;40,21;0;0;0;0;0;0;0;();(-2000.0, -2000.0);
12:11:47:820;12:11:47:759;1448407666.32;(0.4593785762786865, 0.30960608588324656);60.4127883911;0.847772930829;;;;;;;;;;;;;;0;40,21;0;0;0;0;0;0;0;();(-2000.0, -2000.0);
12:11:47:836;12:11:47:827;1448407666.38;(0.7644246101379395, 0.38860346476236984);29.4170017242;0.636095060896;;;;;;;;;;;;;;0;40,21;0;0;0;0;0;0;0;();(-2000.0, -2000.0);
12:11:47:870;12:11:47:827;1448407666.38;(0.7644246101379395, 0.38860346476236984);29.4170017242;0.636095060896;;;;;;;;;;;;;;0;40,21;0;0;0;0;0;0;0;();(-2000.0, -2000.0);
12:11:47:886;12:11:47:827;1448407666.38;(0.7644246101379395, 0.38860346476236984);29.4170017242;0.636095060896;;;;;;;;;;;;;;0;40,21;0;0;0;0;0;0;0;();(-2000.0, -2000.0);
12:11:47:903;12:11:47:891;1448407666.45;(0.45284509658813477, 0.30077188279893663);60.7551383972;0.764234112689;;;;;;;;;;;;;;0;40,21;0;0;0;0;0;0;0;();(-2000.0, -2000.0);
12:11:47:919;12:11:47:891;1448407666.45;(0.45284509658813477, 0.30077188279893663);60.7551383972;0.764234112689;;;;;;;;;;;;;;0;40,21;0;0;0;0;0;0;0;();(-2000.0, -2000.0);
12:11:47:937;12:11:47:891;1448407666.45;(0.45284509658813477, 0.30077188279893663);60.7551383972;0.764234112689;;;;;;;;;;;;;;0;40,21;0;0;0;0;0;0;0;();(-2000.0, -2000.0);
12:11:47:970;12:11:47:959;1448407666.52;(0, 0);0;0;;;;;;;;;;;;;;0;40,21;0;0;0;0;0;0;0;();(-2000.0, -2000.0);
12:11:47:986;12:11:47:959;1448407666.52;(0, 0);0;0;;;;;;;;;;;;;;0;40,21;0;0;0;0;0;0;0;();(-2000.0, -2000.0);
12:11:48:003;12:11:47:959;1448407666.52;(0, 0);0;0;;;;;;;;;;;;;;0;40,21;0;0;0;0;0;0;0;();(-2000.0, -2000.0);
12:11:48:020;12:11:47:959;1448407666.52;(0, 0);0;0;;;;;;;;;;;;;;0;40,21;0;0;0;0;0;0;0;();(-2000.0, -2000.0);
12:11:48:037;12:11:48:027;1448407666.58;(0, 0);0;0;;;;;;;;;;;;;;0;40,21;0;0;0;0;0;0;0;();(-2000.0, -2000.0);
12:11:48:070;12:11:48:027;1448407666.58;(0, 0);0;0;;;;;;;;;;;;;;0;40,21;0;0;0;0;0;0;0;();(-2000.0, -2000.0);
12:11:48:087;12:11:48:027;1448407666.58;(0, 0);0;0;;;;;;;;;;;;;;0;40,21;0;0;0;0;0;0;0;();(-2000.0, -2000.0);
12:11:48:103;12:11:48:091;1448407666.65;(0, 0);0;0;;;;;;;;;;;;;;0;40,21;0;0;0;0;0;0;0;();(-2000.0, -2000.0);
12:11:48:120;12:11:48:091;1448407666.65;(0, 0);0;0;;;;;;;;;;;;;;0;40,21;0;0;0;0;0;0;0;();(-2000.0, -2000.0);
12:11:48:137;12:11:48:091;1448407666.65;(0, 0);0;0;;;;;;;;;;;;;;0;40,21;0;0;0;0;0;0;0;();(-2000.0, -2000.0);
12:11:48:170;12:11:48:160;1448407666.72;(0.4548662185668945, 0.3107888963487413);61.3891181946;0.60969952499;;;;;;;;;;;;;;0;40,21;0;0;0;0;0;0;0;();(-2000.0, -2000.0);
12:11:48:187;12:11:48:160;1448407666.72;(0.4548662185668945, 0.3107888963487413);61.3891181946;0.60969952499;;;;;;;;;;;;;;0;40,21;0;0;0;0;0;0;0;();(-2000.0, -2000.0);
12:11:48:203;12:11:48:160;1448407666.72;(0.4548662185668945, 0.3107888963487413);61.3891181946;0.60969952499;;;;;;;;;;;;;;0;40,21;0;0;0;0;0;0;0;();(-2000.0, -2000.0);
12:11:48:220;12:11:48:160;1448407666.72;(0.4548662185668945, 0.3107888963487413);61.3891181946;0.60969952499;;;;;;;;;;;;;;0;40,21;0;0;0;0;0;0;0;();(-2000.0, -2000.0);
12:11:48:237;12:11:48:225;1448407666.78;(0.4349798679351807, 0.3136617872450087);43.1080169678;0.613445540534;;;;;;;;;;;;;;0;40,21;0;0;0;0;0;0;0;();(-2000.0, -2000.0);
12:11:48:270;12:11:48:225;1448407666.78;(0.4349798679351807, 0.3136617872450087);43.1080169678;0.613445540534;;;;;;;;;;;;;;0;40,21;0;0;0;0;0;0;0;();(-2000.0, -2000.0);
12:11:48:287;12:11:48:225;1448407666.78;(0.4349798679351807, 0.3136617872450087);43.1080169678;0.613445540534;;;;;;;;;;;;;;0;40,21;0;0;0;0;0;0;0;();(-2000.0, -2000.0);
12:11:48:303;12:11:48:293;1448407666.85;(0.4546652317047119, 0.30339847140842013);60.3082351685;0.680075536422;;;;;;;;;;;;;;0;40,21;0;0;0;0;0;0;0;();(-2000.0, -2000.0);
12:11:48:320;12:11:48:293;1448407666.85;(0.4546652317047119, 0.30339847140842013);60.3082351685;0.680075536422;;;;;;;;;;;;;;0;40,21;0;0;0;0;0;0;0;();(-2000.0, -2000.0);
12:11:48:337;12:11:48:293;1448407666.85;(0.4546652317047119, 0.30339847140842013);60.3082351685;0.680075536422;;;;;;;;;;;;;;0;40,21;0;0;0;0;0;0;0;();(-2000.0, -2000.0);
12:11:48:370;12:11:48:359;1448407666.92;(0.4548038482666016, 0.30304510328504775);60.4683303833;0.695868105187;;;;;;;;;;;;;;0;40,21;0;0;0;0;0;0;0;();(-2000.0, -2000.0);
12:11:48:387;12:11:48:359;1448407666.92;(0.4548038482666016, 0.30304510328504775);60.4683303833;0.695868105187;;;;;;;;;;;;;;0;40,21;0;0;0;0;0;0;0;();(-2000.0, -2000.0);
12:11:48:404;12:11:48:359;1448407666.92;(0.4548038482666016, 0.30304510328504775);60.4683303833;0.695868105187;;;;;;;;;;;;;;0;40,21;0;0;0;0;0;0;0;();(-2000.0, -2000.0);
12:11:48:421;12:11:48:359;1448407666.92;(0.4548038482666016, 0.30304510328504775);60.4683303833;0.695868105187;;;;;;;;;;;;;;0;40,21;0;0;0;0;0;0;0;();(-2000.0, -2000.0);
12:11:48:436;12:11:48:430;1448407666.98;(0.48640809059143064, 0.292474110921224);57.3943595886;0.652348479535;;;;;;;;;;;;;;0;40,21;0;0;0;0;0;0;0;();(-2000.0, -2000.0);
12:11:48:471;12:11:48:430;1448407666.98;(0.48640809059143064, 0.292474110921224);57.3943595886;0.652348479535;;;;;;;;;;;;;;0;40,21;0;0;0;0;0;0;0;();(-2000.0, -2000.0);
12:11:48:487;12:11:48:430;1448407666.98;(0.48640809059143064, 0.292474110921224);57.3943595886;0.652348479535;;;;;;;;;;;;;;0;40,21;0;0;0;0;0;0;0;();(-2000.0, -2000.0);
12:11:48:507;12:11:48:496;1448407667.05;(0.4817325592041016, 0.29158316718207467);59.6155700684;0.73875366625;;;;;;;;;;;;;;0;40,21,51,30;0;0;0;0;0;0;0;();(-2000.0, -2000.0);
12:11:48:521;12:11:48:496;1448407667.05;(0.4817325592041016, 0.29158316718207467);59.6155700684;0.73875366625;;;;;;;;;;;;;;0;40,21,51,30;0;0;0;0;0;0;0;();(-2000.0, -2000.0);
12:11:48:537;12:11:48:496;1448407667.05;(0.4817325592041016, 0.29158316718207467);59.6155700684;0.73875366625;;;;;;;;;;;;;;0;40,21,51,30;0;0;0;0;0;0;0;();(-2000.0, -2000.0);
12:11:48:554;12:11:48:496;1448407667.05;(0.4817325592041016, 0.29158316718207467);59.6155700684;0.73875366625;;;;;;;;;;;;;;0;40,21,51,30;0;0;0;0;0;0;0;();(-2000.0, -2000.0);
12:11:48:587;12:11:48:563;1448407667.12;(0.5032848358154297, 0.4827112833658854);18.3908233643;0.688171651689;;;;;;;;;;;;;;0;40,21,51,30;0;0;0;0;0;0;0;();(-2000.0, -2000.0);
12:11:48:603;12:11:48:563;1448407667.12;(0.5032848358154297, 0.4827112833658854);18.3908233643;0.688171651689;;;;;;;;;;;;;;0;40,21,51,30;0;0;0;0;0;0;0;();(-2000.0, -2000.0);
12:11:48:621;12:11:48:563;1448407667.12;(0.5032848358154297, 0.4827112833658854);18.3908233643;0.688171651689;;;;;;;;;;;;;;0;40,21,51,30;0;0;0;0;0;0;0;();(-2000.0, -2000.0);
12:11:48:637;12:11:48:630;1448407667.18;(0.4716212272644043, 0.29424463907877607);60.2818260193;0.751657182173;;;;;;;;;;;;;;0;40,21,51,30;0;0;0;0;0;0;0;();(-2000.0, -2000.0);
12:11:48:654;12:11:48:630;1448407667.18;(0.4716212272644043, 0.29424463907877607);60.2818260193;0.751657182173;;;;;;;;;;;;;;0;40,21,51,30;0;0;0;0;0;0;0;();(-2000.0, -2000.0);
12:11:48:687;12:11:48:630;1448407667.18;(0.4716212272644043, 0.29424463907877607);60.2818260193;0.751657182173;;;;;;;;;;;;;;0;40,21,51,30;0;0;0;0;0;0;0;();(-2000.0, -2000.0);
12:11:48:704;12:11:48:696;1448407667.25;(0, 0);0;0;;;;;;;;;;;;;;0;40,21,51,30;0;0;0;0;0;0;0;();(-2000.0, -2000.0);
12:11:48:721;12:11:48:696;1448407667.25;(0, 0);0;0;;;;;;;;;;;;;;0;40,21,51,30;0;0;0;0;0;0;0;();(-2000.0, -2000.0);
12:11:48:737;12:11:48:696;1448407667.25;(0, 0);0;0;;;;;;;;;;;;;;0;40,21,51,30;0;0;0;0;0;0;0;();(-2000.0, -2000.0);
12:11:48:754;12:11:48:696;1448407667.25;(0, 0);0;0;;;;;;;;;;;;;;0;40,21,51,30;0;0;0;0;0;0;0;();(-2000.0, -2000.0);
12:11:48:788;12:11:48:762;1448407667.32;(0.4654299259185791, 0.3109670850965712);61.5318527222;0.67328255556;;;;;;;;;;;;;;0;40,21,51,30;0;0;0;0;0;0;0;();(-2000.0, -2000.0);
12:11:48:804;12:11:48:762;1448407667.32;(0.4654299259185791, 0.3109670850965712);61.5318527222;0.67328255556;;;;;;;;;;;;;;0;40,21,51,30;0;0;0;0;0;0;0;();(-2000.0, -2000.0);
12:11:48:821;12:11:48:762;1448407667.32;(0.4654299259185791, 0.3109670850965712);61.5318527222;0.67328255556;;;;;;;;;;;;;;0;40,21,51,30;0;0;0;0;0;0;0;();(-2000.0, -2000.0);
12:11:48:837;12:11:48:828;1448407667.38;(0.4644137382507324, 0.3122727711995442);61.3307113647;0.725139954218;;;;;;;;;;;;;;0;40,21,51,30;0;0;0;0;0;0;0;();(-2000.0, -2000.0);
12:11:48:854;12:11:48:828;1448407667.38;(0.4644137382507324, 0.3122727711995442);61.3307113647;0.725139954218;;;;;;;;;;;;;;0;40,21,51,30;0;0;0;0;0;0;0;();(-2000.0, -2000.0);
12:11:48:887;12:11:48:885;1448407667.42;(0.465320348739624, 0.3041277143690321);60.7092285156;0.784824415122;;;;;;;;;;;;;;0;40,21,51,30;0;0;0;0;0;0;0;();(-2000.0, -2000.0);
12:11:48:904;12:11:48:887;1448407667.45;(0.46528992652893064, 0.3039247300889757);60.8991851807;0.748703716523;;;;;;;;;;;;;;0;40,21,51,30;0;0;0;0;0;0;0;();(-2000.0, -2000.0);
12:11:48:920;12:11:48:887;1448407667.45;(0.46528992652893064, 0.3039247300889757);60.8991851807;0.748703716523;;;;;;;;;;;;;;0;40,21,51,30;0;0;0;0;0;0;0;();(-2000.0, -2000.0);
12:11:48:938;12:11:48:887;1448407667.45;(0.46528992652893064, 0.3039247300889757);60.8991851807;0.748703716523;;;;;;;;;;;;;;0;40,21,51,30;0;0;0;0;0;0;0;();(-2000.0, -2000.0);
12:11:48:954;12:11:48:953;1448407667.48;(0, 0);0;0;;;;;;;;;;;;;;0;40,21,51,30;0;0;0;0;0;0;0;();(-2000.0, -2000.0);
12:11:48:989;12:11:48:954;1448407667.52;(0.4647552013397217, 0.31132392883300786);62.2982025146;0.704003070332;;;;;;;;;;;;;;0;40,21,51,30;0;0;0;0;0;0;0;();(-2000.0, -2000.0);
12:11:49:005;12:11:48:954;1448407667.52;(0.4647552013397217, 0.31132392883300786);62.2982025146;0.704003070332;;;;;;;;;;;;;;0;40,21,51,30;0;0;0;0;0;0;0;();(-2000.0, -2000.0);
12:11:49:021;12:11:48:954;1448407667.52;(0.4647552013397217, 0.31132392883300786);62.2982025146;0.704003070332;;;;;;;;;;;;;;0;40,21,51,30;0;0;0;0;0;0;0;();(-2000.0, -2000.0);
12:11:49:037;12:11:49:029;1448407667.58;(0.46408557891845703, 0.3028277079264323);60.9765625;0.770167497619;;;;;;;;;;;;;;0;40,21,51,30;0;0;0;0;0;0;0;();(-2000.0, -2000.0);
12:11:49:054;12:11:49:029;1448407667.58;(0.46408557891845703, 0.3028277079264323);60.9765625;0.770167497619;;;;;;;;;;;;;;0;40,21,51,30;0;0;0;0;0;0;0;();(-2000.0, -2000.0);
12:11:49:087;12:11:49:085;1448407667.62;(0.4643139362335205, 0.304351806640625);60.5008430481;0.696980221227;;;;;;;;;;;;;;0;40,21,51,30;0;0;0;0;0;0;0;();(-2000.0, -2000.0);
12:11:49:104;12:11:49:087;1448407667.65;(0.6233336925506592, 0.3684110005696615);20.9718532562;0.993176488391;;;;;;;;;;;;;;0;40,21,51,30;0;0;0;0;0;0;0;();(-2000.0, -2000.0);
12:11:49:121;12:11:49:087;1448407667.65;(0.6233336925506592, 0.3684110005696615);20.9718532562;0.993176488391;;;;;;;;;;;;;;0;40,21,51,30;0;0;0;0;0;0;0;();(-2000.0, -2000.0);
12:11:49:138;12:11:49:087;1448407667.65;(0.6233336925506592, 0.3684110005696615);20.9718532562;0.993176488391;;;;;;;;;;;;;;0;40,21,51,30;0;0;0;0;0;0;0;();(-2000.0, -2000.0);
12:11:49:155;12:11:49:087;1448407667.65;(0.6233336925506592, 0.3684110005696615);20.9718532562;0.993176488391;;;;;;;;;;;;;;0;40,21,51,30;0;0;0;0;0;0;0;();(-2000.0, -2000.0);
12:11:49:187;12:11:49:156;1448407667.72;(0.6233765602111816, 0.36774643792046446);22.0070228577;0.877293027704;;;;;;;;;;;;;;0;40,21,51,30;0;0;0;0;0;0;0;();(-2000.0, -2000.0);
12:11:49:204;12:11:49:156;1448407667.72;(0.6233765602111816, 0.36774643792046446);22.0070228577;0.877293027704;;;;;;;;;;;;;;0;40,21,51,30;0;0;0;0;0;0;0;();(-2000.0, -2000.0);
12:11:49:221;12:11:49:219;1448407667.78;(0.46655588150024413, 0.3030331081814236);61.1880950928;0.765446196031;;;;;;;;;;;;;;0;40,21,51,30;0;0;0;0;0;0;0;();(-2000.0, -2000.0);
12:11:49:238;12:11:49:219;1448407667.78;(0.46655588150024413, 0.3030331081814236);61.1880950928;0.765446196031;;;;;;;;;;;;;;0;40,21,51,30;0;0;0;0;0;0;0;();(-2000.0, -2000.0);
12:11:49:254;12:11:49:219;1448407667.78;(0.46655588150024413, 0.3030331081814236);61.1880950928;0.765446196031;;;;;;;;;;;;;;0;40,21,51,30;0;0;0;0;0;0;0;();(-2000.0, -2000.0);
12:11:49:288;12:11:49:285;1448407667.82;(0, 0);0;0;;;;;;;;;;;;;;0;40,21,51,30;0;0;0;0;0;0;0;();(-2000.0, -2000.0);
12:11:49:305;12:11:49:287;1448407667.85;(0.44146032333374025, 0.3135138193766276);64.7727890015;0.753814525434;;;;;;;;;;;;;;0;40,21,51,30;0;0;0;0;0;0;0;();(-2000.0, -2000.0);
12:11:49:321;12:11:49:287;1448407667.85;(0.44146032333374025, 0.3135138193766276);64.7727890015;0.753814525434;;;;;;;;;;;;;;0;40,21,51,30;0;0;0;0;0;0;0;();(-2000.0, -2000.0);
12:11:49:338;12:11:49:287;1448407667.85;(0.44146032333374025, 0.3135138193766276);64.7727890015;0.753814525434;;;;;;;;;;;;;;0;40,21,51,30;0;0;0;0;0;0;0;();(-2000.0, -2000.0);
12:11:49:354;12:11:49:352;1448407667.92;(0.4432511806488037, 0.3137945387098524);64.6674728394;0.761101376168;;;;;;;;;;;;;;0;40,21,51,30;0;0;0;0;0;0;0;();(-2000.0, -2000.0);
12:11:49:388;12:11:49:352;1448407667.92;(0.4432511806488037, 0.3137945387098524);64.6674728394;0.761101376168;;;;;;;;;;;;;;0;40,21,51,30;0;0;0;0;0;0;0;();(-2000.0, -2000.0);
12:11:49:404;12:11:49:352;1448407667.92;(0.4432511806488037, 0.3137945387098524);64.6674728394;0.761101376168;;;;;;;;;;;;;;0;40,21,51,30;0;0;0;0;0;0;0;();(-2000.0, -2000.0);
12:11:49:421;12:11:49:417;1448407667.95;(0.4433866024017334, 0.31507581075032554);63.1581420898;0.747463231123;;;;;;;;;;;;;;0;40,21,51,30;0;0;0;0;0;0;0;();(-2000.0, -2000.0);
12:11:49:438;12:11:49:420;1448407667.98;(0.4451712131500244, 0.31430786980523007);64.4598464966;0.668174124776;;;;;;;;;;;;;;0;40,21,51,30;0;0;0;0;0;0;0;();(-2000.0, -2000.0);
12:11:49:454;12:11:49:420;1448407667.98;(0.4451712131500244, 0.31430786980523007);64.4598464966;0.668174124776;;;;;;;;;;;;;;0;40,21,51,30;0;0;0;0;0;0;0;();(-2000.0, -2000.0);
12:11:49:488;12:11:49:486;1448407668.02;(0.44667558670043944, 0.30945807562934025);63.0410614014;0.723891298713;;;;;;;;;;;;;;0;40,21,51,30;0;0;0;0;0;0;0;();(-2000.0, -2000.0);
12:11:49:505;12:11:49:489;1448407668.05;(0.4472222328186035, 0.3138145022922092);64.7756958008;0.711005081646;;;;;;;;;;;;;;0;40,21,51,30;0;0;0;0;0;0;0;();(-2000.0, -2000.0);
12:11:49:522;12:11:49:489;1448407668.05;(0.4472222328186035, 0.3138145022922092);64.7756958008;0.711005081646;;;;;;;;;;;;;;0;40,21,51,30;0;0;0;0;0;0;0;();(-2000.0, -2000.0);
12:11:49:538;12:11:49:489;1448407668.05;(0.4472222328186035, 0.3138145022922092);64.7756958008;0.711005081646;;;;;;;;;;;;;;0;40,21,51,30;0;0;0;0;0;0;0;();(-2000.0, -2000.0);
12:11:49:555;12:11:49:551;1448407668.12;(0, 0);0;0;;;;;;;;;;;;;;0;40,21,51,30;0;0;0;0;0;0;0;();(-2000.0, -2000.0);
12:11:49:588;12:11:49:551;1448407668.12;(0, 0);0;0;;;;;;;;;;;;;;0;40,21,51,30;0;0;0;0;0;0;0;();(-2000.0, -2000.0);
12:11:49:603;12:11:49:551;1448407668.12;(0, 0);0;0;;;;;;;;;;;;;;0;40,21,51,30;0;0;0;0;0;0;0;();(-2000.0, -2000.0);
12:11:49:622;12:11:49:620;1448407668.15;(0.44885592460632323, 0.31495806376139324);64.2260665894;0.762698881396;;;;;;;;;;;;;;0;40,21,51,30;0;0;0;0;0;0;0;();(-2000.0, -2000.0);
12:11:49:638;12:11:49:623;1448407668.18;(0.44762187004089354, 0.3147147284613715);64.8799362183;0.748209563569;;;;;;;;;;;;;;0;40,21,51,30;0;0;0;0;0;0;0;();(-2000.0, -2000.0);
12:11:49:655;12:11:49:623;1448407668.18;(0.44762187004089354, 0.3147147284613715);64.8799362183;0.748209563569;;;;;;;;;;;;;;0;40,21,51,30;0;0;0;0;0;0;0;();(-2000.0, -2000.0);
12:11:49:689;12:11:49:684;1448407668.25;(0.4494158267974854, 0.3084101359049479);63.4702377319;0.743089095848;;;;;;;;;;;;;;0;40,21,51,30;0;0;0;0;0;0;0;();(-2000.0, -2000.0);
12:11:49:705;12:11:49:684;1448407668.25;(0.4494158267974854, 0.3084101359049479);63.4702377319;0.743089095848;;;;;;;;;;;;;;0;40,21,51,30;0;0;0;0;0;0;0;();(-2000.0, -2000.0);
12:11:49:721;12:11:49:684;1448407668.25;(0.4494158267974854, 0.3084101359049479);63.4702377319;0.743089095848;;;;;;;;;;;;;;0;40,21,51,30;0;0;0;0;0;0;0;();(-2000.0, -2000.0);
12:11:49:738;12:11:49:684;1448407668.25;(0.4494158267974854, 0.3084101359049479);63.4702377319;0.743089095848;;;;;;;;;;;;;;0;40,21,51,30;0;0;0;0;0;0;0;();(-2000.0, -2000.0);
12:11:49:755;12:11:49:752;1448407668.32;(0.6172703742980957, 0.37359118991427953);19.5496349335;0.695973061081;;;;;;;;;;;;;;0;40,21,51,30;0;0;0;0;0;0;0;();(-2000.0, -2000.0);
12:11:49:788;12:11:49:752;1448407668.32;(0.6172703742980957, 0.37359118991427953);19.5496349335;0.695973061081;;;;;;;;;;;;;;0;40,21,51,30;0;0;0;0;0;0;0;();(-2000.0, -2000.0);
12:11:49:805;12:11:49:752;1448407668.32;(0.6172703742980957, 0.37359118991427953);19.5496349335;0.695973061081;;;;;;;;;;;;;;0;40,21,51,30;0;0;0;0;0;0;0;();(-2000.0, -2000.0);
12:11:49:821;12:11:49:819;1448407668.38;(0.44685840606689453, 0.3143490685356988);64.9493713379;0.683754072436;;;;;;;;;;;;;;0;40,21,51,30;0;0;0;0;0;0;0;();(-2000.0, -2000.0);
12:11:49:839;12:11:49:819;1448407668.38;(0.44685840606689453, 0.3143490685356988);64.9493713379;0.683754072436;;;;;;;;;;;;;;0;40,21,51,30;0;0;0;0;0;0;0;();(-2000.0, -2000.0);
12:11:49:855;12:11:49:819;1448407668.38;(0.44685840606689453, 0.3143490685356988);64.9493713379;0.683754072436;;;;;;;;;;;;;;0;40,21,51,30;0;0;0;0;0;0;0;();(-2000.0, -2000.0);
12:11:49:888;12:11:49:883;1448407668.45;(0.4497654914855957, 0.30595703124999996);63.7052993774;0.733908245783;;;;;;;;;;;;;;0;40,21,51,30;0;0;0;0;0;0;0;();(-2000.0, -2000.0);
12:11:49:905;12:11:49:883;1448407668.45;(0.4497654914855957, 0.30595703124999996);63.7052993774;0.733908245783;;;;;;;;;;;;;;0;40,21,51,30;0;0;0;0;0;0;0;();(-2000.0, -2000.0);
12:11:49:921;12:11:49:883;1448407668.45;(0.4497654914855957, 0.30595703124999996);63.7052993774;0.733908245783;;;;;;;;;;;;;;0;40,21,51,30;0;0;0;0;0;0;0;();(-2000.0, -2000.0);
12:11:49:938;12:11:49:883;1448407668.45;(0.4497654914855957, 0.30595703124999996);63.7052993774;0.733908245783;;;;;;;;;;;;;;0;40,21,51,30;0;0;0;0;0;0;0;();(-2000.0, -2000.0);
12:11:49:955;12:11:49:951;1448407668.52;(0.45239505767822263, 0.3055309295654297);63.5321464539;0.683257243985;;;;;;;;;;;;;;0;40,21,51,30;0;0;0;0;0;0;0;();(-2000.0, -2000.0);
12:11:49:988;12:11:49:951;1448407668.52;(0.45239505767822263, 0.3055309295654297);63.5321464539;0.683257243985;;;;;;;;;;;;;;0;40,21,51,30;0;0;0;0;0;0;0;();(-2000.0, -2000.0);
12:11:50:005;12:11:49:951;1448407668.52;(0.45239505767822263, 0.3055309295654297);63.5321464539;0.683257243985;;;;;;;;;;;;;;0;40,21,51,30;0;0;0;0;0;0;0;();(-2000.0, -2000.0);
12:11:50:022;12:11:50:014;1448407668.58;(0.4443958282470703, 0.3169365353054471);66.0588226318;0.65088230588;;;;;;;;;;;;;;0;40,21,51,30;0;0;0;0;0;0;0;();(-2000.0, -2000.0);
12:11:50:038;12:11:50:014;1448407668.58;(0.4443958282470703, 0.3169365353054471);66.0588226318;0.65088230588;;;;;;;;;;;;;;0;40,21,51,30;0;0;0;0;0;0;0;();(-2000.0, -2000.0);
12:11:50:055;12:11:50:014;1448407668.58;(0.4443958282470703, 0.3169365353054471);66.0588226318;0.65088230588;;;;;;;;;;;;;;0;40,21,51,30;0;0;0;0;0;0;0;();(-2000.0, -2000.0);
12:11:50:088;12:11:50:084;1448407668.65;(0, 0);0;0;;;;;;;;;;;;;;0;40,21,51,30;0;0;0;0;0;0;0;();(-2000.0, -2000.0);
12:11:50:105;12:11:50:084;1448407668.65;(0, 0);0;0;;;;;;;;;;;;;;0;40,21,51,30;0;0;0;0;0;0;0;();(-2000.0, -2000.0);
12:11:50:121;12:11:50:084;1448407668.65;(0, 0);0;0;;;;;;;;;;;;;;0;40,21,51,30;0;0;0;0;0;0;0;();(-2000.0, -2000.0);
12:11:50:139;12:11:50:084;1448407668.65;(0, 0);0;0;;;;;;;;;;;;;;0;40,21,51,30;0;0;0;0;0;0;0;();(-2000.0, -2000.0);
12:11:50:156;12:11:50:150;1448407668.72;(0, 0);0;0;;;;;;;;;;;;;;0;40,21,51,30;0;0;0;0;0;0;0;();(-2000.0, -2000.0);
12:11:50:189;12:11:50:150;1448407668.72;(0, 0);0;0;;;;;;;;;;;;;;0;40,21,51,30;0;0;0;0;0;0;0;();(-2000.0, -2000.0);
12:11:50:205;12:11:50:150;1448407668.72;(0, 0);0;0;;;;;;;;;;;;;;0;40,21,51,30;0;0;0;0;0;0;0;();(-2000.0, -2000.0);
12:11:50:222;12:11:50:215;1448407668.78;(0, 0);0;0;;;;;;;;;;;;;;0;40,21,51,30;0;0;0;0;0;0;0;();(-2000.0, -2000.0);
12:11:50:238;12:11:50:215;1448407668.78;(0, 0);0;0;;;;;;;;;;;;;;0;40,21,51,30;0;0;0;0;0;0;0;();(-2000.0, -2000.0);
12:11:50:255;12:11:50:215;1448407668.78;(0, 0);0;0;;;;;;;;;;;;;;0;40,21,51,30;0;0;0;0;0;0;0;();(-2000.0, -2000.0);
12:11:50:289;12:11:50:283;1448407668.85;(0.40652894973754883, 0.3933172437879774);65.5405426025;0.694338346827;;;;;;;;;;;;;;0;40,21,51,30;0;0;0;0;0;0;0;();(-2000.0, -2000.0);
12:11:50:305;12:11:50:283;1448407668.85;(0.40652894973754883, 0.3933172437879774);65.5405426025;0.694338346827;;;;;;;;;;;;;;0;40,21,51,30;0;0;0;0;0;0;0;();(-2000.0, -2000.0);
12:11:50:322;12:11:50:283;1448407668.85;(0.40652894973754883, 0.3933172437879774);65.5405426025;0.694338346827;;;;;;;;;;;;;;0;40,21,51,30;0;0;0;0;0;0;0;();(-2000.0, -2000.0);
12:11:50:338;12:11:50:283;1448407668.85;(0.40652894973754883, 0.3933172437879774);65.5405426025;0.694338346827;;;;;;;;;;;;;;0;40,21,51,30;0;0;0;0;0;0;0;();(-2000.0, -2000.0);
12:11:50:355;12:11:50:347;1448407668.92;(0.41458792686462403, 0.3893059624565972);64.6594619751;0.621000772961;;;;;;;;;;;;;;0;40,21,51,30;0;0;0;0;0;0;0;();(-2000.0, -2000.0);
12:11:50:389;12:11:50:347;1448407668.92;(0.41458792686462403, 0.3893059624565972);64.6594619751;0.621000772961;;;;;;;;;;;;;;0;40,21,51,30;0;0;0;0;0;0;0;();(-2000.0, -2000.0);
12:11:50:406;12:11:50:347;1448407668.92;(0.41458792686462403, 0.3893059624565972);64.6594619751;0.621000772961;;;;;;;;;;;;;;0;40,21,51,30;0;0;0;0;0;0;0;();(-2000.0, -2000.0);
12:11:50:422;12:11:50:415;1448407668.98;(0.42068631649017335, 0.37325308057996964);68.2872467041;0.723688854301;;;;;;;;;;;;;;0;40,21,51,30;0;0;0;0;0;0;0;();(-2000.0, -2000.0);
12:11:50:439;12:11:50:415;1448407668.98;(0.42068631649017335, 0.37325308057996964);68.2872467041;0.723688854301;;;;;;;;;;;;;;0;40,21,51,30;0;0;0;0;0;0;0;();(-2000.0, -2000.0);
12:11:50:456;12:11:50:415;1448407668.98;(0.42068631649017335, 0.37325308057996964);68.2872467041;0.723688854301;;;;;;;;;;;;;;0;40,21,51,30;0;0;0;0;0;0;0;();(-2000.0, -2000.0);
12:11:50:489;12:11:50:483;1448407669.05;(0.4191840887069702, 0.3915839725070529);62.6381835938;0.66448922827;;;;;;;;;;;;;;0;40,21,51,30;0;0;0;0;0;0;0;();(-2000.0, -2000.0);
12:11:50:506;12:11:50:483;1448407669.05;(0.4191840887069702, 0.3915839725070529);62.6381835938;0.66448922827;;;;;;;;;;;;;;0;40,21,51,30;0;0;0;0;0;0;0;();(-2000.0, -2000.0);
12:11:50:522;12:11:50:483;1448407669.05;(0.4191840887069702, 0.3915839725070529);62.6381835938;0.66448922827;;;;;;;;;;;;;;0;40,21,51,30;0;0;0;0;0;0;0;();(-2000.0, -2000.0);
12:11:50:539;12:11:50:483;1448407669.05;(0.4191840887069702, 0.3915839725070529);62.6381835938;0.66448922827;;;;;;;;;;;;;;0;40,21,51,30;0;0;0;0;0;0;0;();(-2000.0, -2000.0);
12:11:50:556;12:11:50:547;1448407669.12;(0.5342428684234619, 0.5285543653700087);18.5158214569;0.860268086048;;;;;;;;;;;;;;0;40,21,51,30;0;0;0;0;0;0;0;();(-2000.0, -2000.0);
12:11:50:589;12:11:50:547;1448407669.12;(0.5342428684234619, 0.5285543653700087);18.5158214569;0.860268086048;;;;;;;;;;;;;;0;40,21,51,30;0;0;0;0;0;0;0;();(-2000.0, -2000.0);
12:11:50:606;12:11:50:547;1448407669.12;(0.5342428684234619, 0.5285543653700087);18.5158214569;0.860268086048;;;;;;;;;;;;;;0;40,21,51,30;0;0;0;0;0;0;0;();(-2000.0, -2000.0);
12:11:50:622;12:11:50:614;1448407669.18;(0, 0);0;0;;;;;;;;;;;;;;0;40,21,51,30;0;0;0;0;0;0;0;();(-2000.0, -2000.0);
12:11:50:639;12:11:50:614;1448407669.18;(0, 0);0;0;;;;;;;;;;;;;;0;40,21,51,30;0;0;0;0;0;0;0;();(-2000.0, -2000.0);
12:11:50:656;12:11:50:614;1448407669.18;(0, 0);0;0;;;;;;;;;;;;;;0;40,21,51,30;0;0;0;0;0;0;0;();(-2000.0, -2000.0);
12:11:50:689;12:11:50:681;1448407669.25;(0, 0);0;0;;;;;;;;;;;;;;0;40,21,51,30;0;0;0;0;0;0;0;();(-2000.0, -2000.0);
12:11:50:705;12:11:50:681;1448407669.25;(0, 0);0;0;;;;;;;;;;;;;;0;40,21,51,30;0;0;0;0;0;0;0;();(-2000.0, -2000.0);
12:11:50:722;12:11:50:681;1448407669.25;(0, 0);0;0;;;;;;;;;;;;;;0;40,21,51,30;0;0;0;0;0;0;0;();(-2000.0, -2000.0);
12:11:50:739;12:11:50:681;1448407669.25;(0, 0);0;0;;;;;;;;;;;;;;0;40,21,51,30;0;0;0;0;0;0;0;();(-2000.0, -2000.0);
12:11:50:755;12:11:50:747;1448407669.32;(0, 0);0;0;;;;;;;;;;;;;;0;40,21,51,30;0;0;0;0;0;0;0;();(-2000.0, -2000.0);
12:11:50:789;12:11:50:747;1448407669.32;(0, 0);0;0;;;;;;;;;;;;;;0;40,21,51,30;0;0;0;0;0;0;0;();(-2000.0, -2000.0);
12:11:50:805;12:11:50:747;1448407669.32;(0, 0);0;0;;;;;;;;;;;;;;0;40,21,51,30;0;0;0;0;0;0;0;();(-2000.0, -2000.0);
12:11:50:825;12:11:50:815;1448407669.38;(0.7769391536712646, 0.5936021592881944);23.6248168945;0.709090776328;;;;;;;;;;;;;;0;40,21,51,30,50,17;0;0;0;0;0;0;0;();(-2000.0, -2000.0);
12:11:50:839;12:11:50:815;1448407669.38;(0.7769391536712646, 0.5936021592881944);23.6248168945;0.709090776328;;;;;;;;;;;;;;0;40,21,51,30,50,17;0;0;0;0;0;0;0;();(-2000.0, -2000.0);
12:11:50:855;12:11:50:815;1448407669.38;(0.7769391536712646, 0.5936021592881944);23.6248168945;0.709090776328;;;;;;;;;;;;;;0;40,21,51,30,50,17;0;0;0;0;0;0;0;();(-2000.0, -2000.0);
12:11:50:889;12:11:50:879;1448407669.45;(0.418518590927124, 0.3952285766601562);58.7543106079;0.659986441777;;;;;;;;;;;;;;0;40,21,51,30,50,17;0;0;0;0;0;0;0;();(-2000.0, -2000.0);
12:11:50:906;12:11:50:879;1448407669.45;(0.418518590927124, 0.3952285766601562);58.7543106079;0.659986441777;;;;;;;;;;;;;;0;40,21,51,30,50,17;0;0;0;0;0;0;0;();(-2000.0, -2000.0);
12:11:50:922;12:11:50:879;1448407669.45;(0.418518590927124, 0.3952285766601562);58.7543106079;0.659986441777;;;;;;;;;;;;;;0;40,21,51,30,50,17;0;0;0;0;0;0;0;();(-2000.0, -2000.0);
12:11:50:939;12:11:50:879;1448407669.45;(0.418518590927124, 0.3952285766601562);58.7543106079;0.659986441777;;;;;;;;;;;;;;0;40,21,51,30,50,17;0;0;0;0;0;0;0;();(-2000.0, -2000.0);
12:11:50:956;12:11:50:947;1448407669.52;(0.419282341003418, 0.395413589477539);58.2750167847;0.609153780889;;;;;;;;;;;;;;0;40,21,51,30,50,17;0;0;0;0;0;0;0;();(-2000.0, -2000.0);
12:11:50:989;12:11:50:947;1448407669.52;(0.419282341003418, 0.395413589477539);58.2750167847;0.609153780889;;;;;;;;;;;;;;0;40,21,51,30,50,17;0;0;0;0;0;0;0;();(-2000.0, -2000.0);
12:11:51:006;12:11:50:947;1448407669.52;(0.419282341003418, 0.395413589477539);58.2750167847;0.609153780889;;;;;;;;;;;;;;0;40,21,51,30,50,17;0;0;0;0;0;0;0;();(-2000.0, -2000.0);
12:11:51:022;12:11:51:011;1448407669.58;(0, 0);0;0;;;;;;;;;;;;;;0;40,21,51,30,50,17;0;0;0;0;0;0;0;();(-2000.0, -2000.0);
12:11:51:039;12:11:51:011;1448407669.58;(0, 0);0;0;;;;;;;;;;;;;;0;40,21,51,30,50,17;0;0;0;0;0;0;0;();(-2000.0, -2000.0);
12:11:51:056;12:11:51:011;1448407669.58;(0, 0);0;0;;;;;;;;;;;;;;0;40,21,51,30,50,17;0;0;0;0;0;0;0;();(-2000.0, -2000.0);
12:11:51:089;12:11:51:079;1448407669.65;(0, 0);0;0;;;;;;;;;;;;;;0;40,21,51,30,50,17;0;0;0;0;0;0;0;();(-2000.0, -2000.0);
12:11:51:105;12:11:51:079;1448407669.65;(0, 0);0;0;;;;;;;;;;;;;;0;40,21,51,30,50,17;0;0;0;0;0;0;0;();(-2000.0, -2000.0);
12:11:51:122;12:11:51:079;1448407669.65;(0, 0);0;0;;;;;;;;;;;;;;0;40,21,51,30,50,17;0;0;0;0;0;0;0;();(-2000.0, -2000.0);
12:11:51:139;12:11:51:079;1448407669.65;(0, 0);0;0;;;;;;;;;;;;;;0;40,21,51,30,50,17;0;0;0;0;0;0;0;();(-2000.0, -2000.0);
12:11:51:157;12:11:51:147;1448407669.72;(0.4212948322296143, 0.3958192613389757);60.7795562744;0.656257183503;;;;;;;;;;;;;;0;40,21,51,30,50,17;0;0;0;0;0;0;0;();(-2000.0, -2000.0);
12:11:51:189;12:11:51:147;1448407669.72;(0.4212948322296143, 0.3958192613389757);60.7795562744;0.656257183503;;;;;;;;;;;;;;0;40,21,51,30,50,17;0;0;0;0;0;0;0;();(-2000.0, -2000.0);
12:11:51:206;12:11:51:147;1448407669.72;(0.4212948322296143, 0.3958192613389757);60.7795562744;0.656257183503;;;;;;;;;;;;;;0;40,21,51,30,50,17;0;0;0;0;0;0;0;();(-2000.0, -2000.0);
12:11:51:223;12:11:51:210;1448407669.78;(0.42097208499908445, 0.3959174262152778);60.9889221191;0.637517202821;;;;;;;;;;;;;;0;40,21,51,30,50,17;0;0;0;0;0;0;0;();(-2000.0, -2000.0);
12:11:51:239;12:11:51:210;1448407669.78;(0.42097208499908445, 0.3959174262152778);60.9889221191;0.637517202821;;;;;;;;;;;;;;0;40,21,51,30,50,17;0;0;0;0;0;0;0;();(-2000.0, -2000.0);
12:11:51:256;12:11:51:210;1448407669.78;(0.42097208499908445, 0.3959174262152778);60.9889221191;0.637517202821;;;;;;;;;;;;;;0;40,21,51,30,50,17;0;0;0;0;0;0;0;();(-2000.0, -2000.0);
12:11:51:290;12:11:51:278;1448407669.85;(0.42614216804504396, 0.37638545566134984);64.004776001;0.677985195167;;;;;;;;;;;;;;0;40,21,51,30,50,17;0;0;0;0;0;0;0;();(-2000.0, -2000.0);
12:11:51:306;12:11:51:278;1448407669.85;(0.42614216804504396, 0.37638545566134984);64.004776001;0.677985195167;;;;;;;;;;;;;;0;40,21,51,30,50,17;0;0;0;0;0;0;0;();(-2000.0, -2000.0);
12:11:51:323;12:11:51:278;1448407669.85;(0.42614216804504396, 0.37638545566134984);64.004776001;0.677985195167;;;;;;;;;;;;;;0;40,21,51,30,50,17;0;0;0;0;0;0;0;();(-2000.0, -2000.0);
12:11:51:340;12:11:51:278;1448407669.85;(0.42614216804504396, 0.37638545566134984);64.004776001;0.677985195167;;;;;;;;;;;;;;0;40,21,51,30,50,17;0;0;0;0;0;0;0;();(-2000.0, -2000.0);
12:11:51:356;12:11:51:342;1448407669.92;(0.4451301574707031, 0.37183130052354596);38.0368499756;0.693403305179;;;;;;;;;;;;;;0;40,21,51,30,50,17;0;0;0;0;0;0;0;();(-2000.0, -2000.0);
12:11:51:389;12:11:51:342;1448407669.92;(0.4451301574707031, 0.37183130052354596);38.0368499756;0.693403305179;;;;;;;;;;;;;;0;40,21,51,30,50,17;0;0;0;0;0;0;0;();(-2000.0, -2000.0);
12:11:51:406;12:11:51:342;1448407669.92;(0.4451301574707031, 0.37183130052354596);38.0368499756;0.693403305179;;;;;;;;;;;;;;0;40,21,51,30,50,17;0;0;0;0;0;0;0;();(-2000.0, -2000.0);
12:11:51:423;12:11:51:410;1448407669.98;(0.42161126136779786, 0.39340527852376306);62.7224388123;0.638906317783;;;;;;;;;;;;;;0;40,21,51,30,50,17;0;0;0;0;0;0;0;();(-2000.0, -2000.0);
12:11:51:440;12:11:51:410;1448407669.98;(0.42161126136779786, 0.39340527852376306);62.7224388123;0.638906317783;;;;;;;;;;;;;;0;40,21,51,30,50,17;0;0;0;0;0;0;0;();(-2000.0, -2000.0);
12:11:51:456;12:11:51:410;1448407669.98;(0.42161126136779786, 0.39340527852376306);62.7224388123;0.638906317783;;;;;;;;;;;;;;0;40,21,51,30,50,17;0;0;0;0;0;0;0;();(-2000.0, -2000.0);
12:11:51:490;12:11:51:479;1448407670.05;(0, 0);0;0;;;;;;;;;;;;;;0;40,21,51,30,50,17;0;0;0;0;0;0;0;();(-2000.0, -2000.0);
12:11:51:506;12:11:51:479;1448407670.05;(0, 0);0;0;;;;;;;;;;;;;;0;40,21,51,30,50,17;0;0;0;0;0;0;0;();(-2000.0, -2000.0);
12:11:51:523;12:11:51:479;1448407670.05;(0, 0);0;0;;;;;;;;;;;;;;0;40,21,51,30,50,17;0;0;0;0;0;0;0;();(-2000.0, -2000.0);
12:11:51:540;12:11:51:479;1448407670.05;(0, 0);0;0;;;;;;;;;;;;;;0;40,21,51,30,50,17;0;0;0;0;0;0;0;();(-2000.0, -2000.0);
12:11:51:556;12:11:51:544;1448407670.12;(0.4215725898742676, 0.3928117964002821);62.9459152222;0.667228332845;;;;;;;;;;;;;;0;40,21,51,30,50,17;0;0;0;0;0;0;0;();(-2000.0, -2000.0);
12:11:51:589;12:11:51:544;1448407670.12;(0.4215725898742676, 0.3928117964002821);62.9459152222;0.667228332845;;;;;;;;;;;;;;0;40,21,51,30,50,17;0;0;0;0;0;0;0;();(-2000.0, -2000.0);
12:11:51:606;12:11:51:544;1448407670.12;(0.4215725898742676, 0.3928117964002821);62.9459152222;0.667228332845;;;;;;;;;;;;;;0;40,21,51,30,50,17;0;0;0;0;0;0;0;();(-2000.0, -2000.0);
12:11:51:624;12:11:51:610;1448407670.18;(0, 0);0;0;;;;;;;;;;;;;;0;40,21,51,30,50,17;0;0;0;0;0;0;0;();(-2000.0, -2000.0);
12:11:51:640;12:11:51:610;1448407670.18;(0, 0);0;0;;;;;;;;;;;;;;0;40,21,51,30,50,17;0;0;0;0;0;0;0;();(-2000.0, -2000.0);
12:11:51:656;12:11:51:610;1448407670.18;(0, 0);0;0;;;;;;;;;;;;;;0;40,21,51,30,50,17;0;0;0;0;0;0;0;();(-2000.0, -2000.0);
12:11:51:689;12:11:51:674;1448407670.25;(0, 0);0;0;;;;;;;;;;;;;;0;40,21,51,30,50,17;0;0;0;0;0;0;0;();(-2000.0, -2000.0);
12:11:51:706;12:11:51:674;1448407670.25;(0, 0);0;0;;;;;;;;;;;;;;0;40,21,51,30,50,17;0;0;0;0;0;0;0;();(-2000.0, -2000.0);
12:11:51:723;12:11:51:674;1448407670.25;(0, 0);0;0;;;;;;;;;;;;;;0;40,21,51,30,50,17;0;0;0;0;0;0;0;();(-2000.0, -2000.0);
12:11:51:740;12:11:51:674;1448407670.25;(0, 0);0;0;;;;;;;;;;;;;;0;40,21,51,30,50,17;0;0;0;0;0;0;0;();(-2000.0, -2000.0);
12:11:51:757;12:11:51:744;1448407670.32;(0.43312098979949953, 0.3983192867702908);63.778011322;0.629591563759;;;;;;;;;;;;;;0;40,21,51,30,50,17;0;0;0;0;0;0;0;();(-2000.0, -2000.0);
12:11:51:790;12:11:51:744;1448407670.32;(0.43312098979949953, 0.3983192867702908);63.778011322;0.629591563759;;;;;;;;;;;;;;0;40,21,51,30,50,17;0;0;0;0;0;0;0;();(-2000.0, -2000.0);
12:11:51:806;12:11:51:744;1448407670.32;(0.43312098979949953, 0.3983192867702908);63.778011322;0.629591563759;;;;;;;;;;;;;;0;40,21,51,30,50,17;0;0;0;0;0;0;0;();(-2000.0, -2000.0);
12:11:51:823;12:11:51:811;1448407670.38;(0.4328917980194092, 0.3951703389485677);63.1761360168;0.700470392771;;;;;;;;;;;;;;0;40,21,51,30,50,17;0;0;0;0;0;0;0;();(-2000.0, -2000.0);
12:11:51:840;12:11:51:811;1448407670.38;(0.4328917980194092, 0.3951703389485677);63.1761360168;0.700470392771;;;;;;;;;;;;;;0;40,21,51,30,50,17;0;0;0;0;0;0;0;();(-2000.0, -2000.0);
12:11:51:856;12:11:51:811;1448407670.38;(0.4328917980194092, 0.3951703389485677);63.1761360168;0.700470392771;;;;;;;;;;;;;;0;40,21,51,30,50,17;0;0;0;0;0;0;0;();(-2000.0, -2000.0);
12:11:51:890;12:11:51:879;1448407670.45;(0, 0);0;0;;;;;;;;;;;;;;0;40,21,51,30,50,17;0;0;0;0;0;0;0;();(-2000.0, -2000.0);
12:11:51:906;12:11:51:879;1448407670.45;(0, 0);0;0;;;;;;;;;;;;;;0;40,21,51,30,50,17;0;0;0;0;0;0;0;();(-2000.0, -2000.0);
12:11:51:923;12:11:51:879;1448407670.45;(0, 0);0;0;;;;;;;;;;;;;;0;40,21,51,30,50,17;0;0;0;0;0;0;0;();(-2000.0, -2000.0);
12:11:51:940;12:11:51:879;1448407670.45;(0, 0);0;0;;;;;;;;;;;;;;0;40,21,51,30,50,17;0;0;0;0;0;0;0;();(-2000.0, -2000.0);
12:11:51:958;12:11:51:944;1448407670.52;(0, 0);0;0;;;;;;;;;;;;;;0;40,21,51,30,50,17;0;0;0;0;0;0;0;();(-2000.0, -2000.0);
12:11:51:989;12:11:51:944;1448407670.52;(0, 0);0;0;;;;;;;;;;;;;;0;40,21,51,30,50,17;0;0;0;0;0;0;0;();(-2000.0, -2000.0);
12:11:52:007;12:11:52:005;1448407670.55;(0.4213820457458496, 0.39239641825358074);63.203414917;0.680655221558;;;;;;;;;;;;;;0;40,21,51,30,50,17;0;0;0;0;0;0;0;();(-2000.0, -2000.0);
12:11:52:024;12:11:52:007;1448407670.58;(0.8130115985870361, 0.6268805609809027);18.5185146332;0.835949996081;;;;;;;;;;;;;;0;40,21,51,30,50,17;0;0;0;0;0;0;0;();(-2000.0, -2000.0);
12:11:52:041;12:11:52:007;1448407670.58;(0.8130115985870361, 0.6268805609809027);18.5185146332;0.835949996081;;;;;;;;;;;;;;0;40,21,51,30,50,17;0;0;0;0;0;0;0;();(-2000.0, -2000.0);
12:11:52:057;12:11:52:007;1448407670.58;(0.8130115985870361, 0.6268805609809027);18.5185146332;0.835949996081;;;;;;;;;;;;;;0;40,21,51,30,50,17;0;0;0;0;0;0;0;();(-2000.0, -2000.0);
12:11:52:074;12:11:52:007;1448407670.58;(0.8130115985870361, 0.6268805609809027);18.5185146332;0.835949996081;;;;;;;;;;;;;;0;40,21,51,30,50,17;0;0;0;0;0;0;0;();(-2000.0, -2000.0);
12:11:52:107;12:11:52:076;1448407670.65;(0.07016426622867585, 0.5710649278428819);18.2019481659;0.890953565992;;;;;;;;;;;;;;0;40,21,51,30,50,17;0;0;0;0;0;0;0;();(-2000.0, -2000.0);
12:11:52:123;12:11:52:076;1448407670.65;(0.07016426622867585, 0.5710649278428819);18.2019481659;0.890953565992;;;;;;;;;;;;;;0;40,21,51,30,50,17;0;0;0;0;0;0;0;();(-2000.0, -2000.0);
12:11:52:140;12:11:52:137;1448407670.68;(0.420798134803772, 0.39150928921169703);63.4487953186;0.696728985809;;;;;;;;;;;;;;0;40,21,51,30,50,17;0;0;0;0;0;0;0;();(-2000.0, -2000.0);
12:11:52:156;12:11:52:140;1448407670.72;(0.42092008590698243, 0.39066293504503036);63.6674499512;0.702959759709;;;;;;;;;;;;;;0;40,21,51,30,50,17;0;0;0;0;0;0;0;();(-2000.0, -2000.0);
12:11:52:191;12:11:52:140;1448407670.72;(0.42092008590698243, 0.39066293504503036);63.6674499512;0.702959759709;;;;;;;;;;;;;;0;40,21,51,30,50,17;0;0;0;0;0;0;0;();(-2000.0, -2000.0);
12:11:52:207;12:11:52:140;1448407670.72;(0.42092008590698243, 0.39066293504503036);63.6674499512;0.702959759709;;;;;;;;;;;;;;0;40,21,51,30,50,17;0;0;0;0;0;0;0;();(-2000.0, -2000.0);
12:11:52:224;12:11:52:209;1448407670.78;(0.4213716506958008, 0.39069997999403216);63.2164154053;0.671604701693;;;;;;;;;;;;;;0;40,21,51,30,50,17;0;0;0;0;0;0;0;();(-2000.0, -2000.0);
12:11:52:241;12:11:52:209;1448407670.78;(0.4213716506958008, 0.39069997999403216);63.2164154053;0.671604701693;;;;;;;;;;;;;;0;40,21,51,30,50,17;0;0;0;0;0;0;0;();(-2000.0, -2000.0);
12:11:52:257;12:11:52:209;1448407670.78;(0.4213716506958008, 0.39069997999403216);63.2164154053;0.671604701693;;;;;;;;;;;;;;0;40,21,51,30,50,17;0;0;0;0;0;0;0;();(-2000.0, -2000.0);
12:11:52:290;12:11:52:276;1448407670.85;(0.4319188117980957, 0.3914007822672526);63.6440010071;0.686187443399;;;;;;;;;;;;;;0;40,21,51,30,50,17;0;0;0;0;0;0;0;();(-2000.0, -2000.0);
12:11:52:307;12:11:52:276;1448407670.85;(0.4319188117980957, 0.3914007822672526);63.6440010071;0.686187443399;;;;;;;;;;;;;;0;40,21,51,30,50,17;0;0;0;0;0;0;0;();(-2000.0, -2000.0);
12:11:52:324;12:11:52:276;1448407670.85;(0.4319188117980957, 0.3914007822672526);63.6440010071;0.686187443399;;;;;;;;;;;;;;0;40,21,51,30,50,17;0;0;0;0;0;0;0;();(-2000.0, -2000.0);
12:11:52:340;12:11:52:276;1448407670.85;(0.4319188117980957, 0.3914007822672526);63.6440010071;0.686187443399;;;;;;;;;;;;;;0;40,21,51,30,50,17;0;0;0;0;0;0;0;();(-2000.0, -2000.0);
12:11:52:357;12:11:52:341;1448407670.92;(0.8139634609222413, 0.6253416061401367);21.2542724609;0.768537617553;;;;;;;;;;;;;;0;40,21,51,30,50,17;0;0;0;0;0;0;0;();(-2000.0, -2000.0);
12:11:52:390;12:11:52:341;1448407670.92;(0.8139634609222413, 0.6253416061401367);21.2542724609;0.768537617553;;;;;;;;;;;;;;0;40,21,51,30,50,17;0;0;0;0;0;0;0;();(-2000.0, -2000.0);
12:11:52:407;12:11:52:406;1448407670.95;(0.43214974403381345, 0.39038191901312935);62.6742477417;0.693732202996;;;;;;;;;;;;;;0;40,21,51,30,50,17;0;0;0;0;0;0;0;();(-2000.0, -2000.0);
12:11:52:424;12:11:52:407;1448407670.98;(0.43167312145233155, 0.3908688863118489);63.3371772766;0.645114476203;;;;;;;;;;;;;;0;40,21,51,30,50,17;0;0;0;0;0;0;0;();(-2000.0, -2000.0);
12:11:52:441;12:11:52:407;1448407670.98;(0.43167312145233155, 0.3908688863118489);63.3371772766;0.645114476203;;;;;;;;;;;;;;0;40,21,51,30,50,17;0;0;0;0;0;0;0;();(-2000.0, -2000.0);
12:11:52:457;12:11:52:407;1448407670.98;(0.43167312145233155, 0.3908688863118489);63.3371772766;0.645114476203;;;;;;;;;;;;;;0;40,21,51,30,50,17;0;0;0;0;0;0;0;();(-2000.0, -2000.0);
12:11:52:474;12:11:52:472;1448407671.05;(0.43139894008636476, 0.39019877115885415);63.1981773376;0.624242201858;;;;;;;;;;;;;;0;40,21,51,30,50,17;0;0;0;0;0;0;0;();(-2000.0, -2000.0);
12:11:52:508;12:11:52:472;1448407671.05;(0.43139894008636476, 0.39019877115885415);63.1981773376;0.624242201858;;;;;;;;;;;;;;0;40,21,51,30,50,17;0;0;0;0;0;0;0;();(-2000.0, -2000.0);
12:11:52:524;12:11:52:472;1448407671.05;(0.43139894008636476, 0.39019877115885415);63.1981773376;0.624242201858;;;;;;;;;;;;;;0;40,21,51,30,50,17;0;0;0;0;0;0;0;();(-2000.0, -2000.0);
12:11:52:540;12:11:52:537;1448407671.08;(0, 0);0;0;;;;;;;;;;;;;;0;40,21,51,30,50,17;0;0;0;0;0;0;0;();(-2000.0, -2000.0);
12:11:52:558;12:11:52:540;1448407671.12;(0.42999460697174074, 0.39513176812065975);64.9007492065;0.674297296841;;;;;;;;;;;;;;0;40,21,51,30,50,17;0;0;0;0;0;0;0;();(-2000.0, -2000.0);
12:11:52:574;12:11:52:540;1448407671.12;(0.42999460697174074, 0.39513176812065975);64.9007492065;0.674297296841;;;;;;;;;;;;;;0;40,21,51,30,50,17;0;0;0;0;0;0;0;();(-2000.0, -2000.0);
12:11:52:607;12:11:52:605;1448407671.15;(0.43071928024291994, 0.39322882758246525);63.8675956726;0.676506501523;;;;;;;;;;;;;;0;40,21,51,30,50,17;0;0;0;0;0;0;0;();(-2000.0, -2000.0);
12:11:52:624;12:11:52:607;1448407671.18;(0.7747968673706055, 0.3777250501844618);37.3323936462;0.614319227491;;;;;;;;;;;;;;0;40,21,51,30,50,17;0;0;0;0;0;0;0;();(-2000.0, -2000.0);
12:11:52:640;12:11:52:607;1448407671.18;(0.7747968673706055, 0.3777250501844618);37.3323936462;0.614319227491;;;;;;;;;;;;;;0;40,21,51,30,50,17;0;0;0;0;0;0;0;();(-2000.0, -2000.0);
12:11:52:657;12:11:52:607;1448407671.18;(0.7747968673706055, 0.3777250501844618);37.3323936462;0.614319227491;;;;;;;;;;;;;;0;40,21,51,30,50,17;0;0;0;0;0;0;0;();(-2000.0, -2000.0);
12:11:52:691;12:11:52:670;1448407671.25;(0.42543635368347166, 0.3900411817762587);63.4466094971;0.733662268362;;;;;;;;;;;;;;0;40,21,51,30,50,17;0;0;0;0;0;0;0;();(-2000.0, -2000.0);
12:11:52:707;12:11:52:670;1448407671.25;(0.42543635368347166, 0.3900411817762587);63.4466094971;0.733662268362;;;;;;;;;;;;;;0;40,21,51,30,50,17;0;0;0;0;0;0;0;();(-2000.0, -2000.0);
12:11:52:724;12:11:52:670;1448407671.25;(0.42543635368347166, 0.3900411817762587);63.4466094971;0.733662268362;;;;;;;;;;;;;;0;40,21,51,30,50,17;0;0;0;0;0;0;0;();(-2000.0, -2000.0);
12:11:52:741;12:11:52:739;1448407671.32;(0.4252634525299072, 0.39211006164550777);63.8838691711;0.6696985317;;;;;;;;;;;;;;0;40,21,51,30,50,17;0;0;0;0;0;0;0;();(-2000.0, -2000.0);
12:11:52:757;12:11:52:739;1448407671.32;(0.4252634525299072, 0.39211006164550777);63.8838691711;0.6696985317;;;;;;;;;;;;;;0;40,21,51,30,50,17;0;0;0;0;0;0;0;();(-2000.0, -2000.0);
12:11:52:774;12:11:52:739;1448407671.32;(0.4252634525299072, 0.39211006164550777);63.8838691711;0.6696985317;;;;;;;;;;;;;;0;40,21,51,30,50,17;0;0;0;0;0;0;0;();(-2000.0, -2000.0);
12:11:52:807;12:11:52:803;1448407671.38;(0, 0);0;0;;;;;;;;;;;;;;0;40,21,51,30,50,17;0;0;0;0;0;0;0;();(-2000.0, -2000.0);
12:11:52:824;12:11:52:803;1448407671.38;(0, 0);0;0;;;;;;;;;;;;;;0;40,21,51,30,50,17;0;0;0;0;0;0;0;();(-2000.0, -2000.0);
12:11:52:841;12:11:52:803;1448407671.38;(0, 0);0;0;;;;;;;;;;;;;;0;40,21,51,30,50,17;0;0;0;0;0;0;0;();(-2000.0, -2000.0);
12:11:52:857;12:11:52:803;1448407671.38;(0, 0);0;0;;;;;;;;;;;;;;0;40,21,51,30,50,17;0;0;0;0;0;0;0;();(-2000.0, -2000.0);
12:11:52:874;12:11:52:870;1448407671.45;(0.42605791091918943, 0.39472376505533857);64.6547470093;0.628617946411;;;;;;;;;;;;;;0;40,21,51,30,50,17;0;0;0;0;0;0;0;();(-2000.0, -2000.0);
12:11:52:908;12:11:52:870;1448407671.45;(0.42605791091918943, 0.39472376505533857);64.6547470093;0.628617946411;;;;;;;;;;;;;;0;40,21,51,30,50,17;0;0;0;0;0;0;0;();(-2000.0, -2000.0);
12:11:52:924;12:11:52:870;1448407671.45;(0.42605791091918943, 0.39472376505533857);64.6547470093;0.628617946411;;;;;;;;;;;;;;0;40,21,51,30,50,17;0;0;0;0;0;0;0;();(-2000.0, -2000.0);
12:11:52:942;12:11:52:939;1448407671.52;(0, 0);0;0;;;;;;;;;;;;;;0;40,21,51,30,50,17;0;0;0;0;0;0;0;();(-2000.0, -2000.0);
12:11:52:958;12:11:52:939;1448407671.52;(0, 0);0;0;;;;;;;;;;;;;;0;40,21,51,30,50,17;0;0;0;0;0;0;0;();(-2000.0, -2000.0);
12:11:52:975;12:11:52:939;1448407671.52;(0, 0);0;0;;;;;;;;;;;;;;0;40,21,51,30,50,17;0;0;0;0;0;0;0;();(-2000.0, -2000.0);
12:11:53:007;12:11:53:003;1448407671.58;(0, 0);0;0;;;;;;;;;;;;;;0;40,21,51,30,50,17;0;0;0;0;0;0;0;();(-2000.0, -2000.0);
12:11:53:025;12:11:53:003;1448407671.58;(0, 0);0;0;;;;;;;;;;;;;;0;40,21,51,30,50,17;0;0;0;0;0;0;0;();(-2000.0, -2000.0);
12:11:53:041;12:11:53:003;1448407671.58;(0, 0);0;0;;;;;;;;;;;;;;0;40,21,51,30,50,17;0;0;0;0;0;0;0;();(-2000.0, -2000.0);
12:11:53:057;12:11:53:003;1448407671.58;(0, 0);0;0;;;;;;;;;;;;;;0;40,21,51,30,50,17;0;0;0;0;0;0;0;();(-2000.0, -2000.0);
12:11:53:075;12:11:53:070;1448407671.65;(0, 0);0;0;;;;;;;;;;;;;;0;40,21,51,30,50,17;0;0;0;0;0;0;0;();(-2000.0, -2000.0);
12:11:53:107;12:11:53:070;1448407671.65;(0, 0);0;0;;;;;;;;;;;;;;0;40,21,51,30,50,17;0;0;0;0;0;0;0;();(-2000.0, -2000.0);
12:11:53:124;12:11:53:070;1448407671.65;(0, 0);0;0;;;;;;;;;;;;;;0;40,21,51,30,50,17;0;0;0;0;0;0;0;();(-2000.0, -2000.0);
12:11:53:141;12:11:53:134;1448407671.68;(0.4283047437667847, 0.39279251098632817);63.4124069214;0.629813091721;;;;;;;;;;;;;;0;40,21,51,30,50,17;0;0;0;0;0;0;0;();(-2000.0, -2000.0);
12:11:53:158;12:11:53:134;1448407671.68;(0.4283047437667847, 0.39279251098632817);63.4124069214;0.629813091721;;;;;;;;;;;;;;0;40,21,51,30,50,17;0;0;0;0;0;0;0;();(-2000.0, -2000.0);
12:11:53:175;12:11:53:134;1448407671.68;(0.4283047437667847, 0.39279251098632817);63.4124069214;0.629813091721;;;;;;;;;;;;;;0;40,21,51,30,50,17;0;0;0;0;0;0;0;();(-2000.0, -2000.0);
12:11:53:208;12:11:53:206;1448407671.78;(0, 0);0;0;;;;;;;;;;;;;;0;40,21,51,30,50,17;0;0;0;0;0;0;0;();(-2000.0, -2000.0);
12:11:53:224;12:11:53:206;1448407671.78;(0, 0);0;0;;;;;;;;;;;;;;0;40,21,51,30,50,17;0;0;0;0;0;0;0;();(-2000.0, -2000.0);
12:11:53:241;12:11:53:206;1448407671.78;(0, 0);0;0;;;;;;;;;;;;;;0;40,21,51,30,50,17;0;0;0;0;0;0;0;();(-2000.0, -2000.0);
12:11:53:259;12:11:53:206;1448407671.78;(0, 0);0;0;;;;;;;;;;;;;;0;40,21,51,30,50,17;0;0;0;0;0;0;0;();(-2000.0, -2000.0);
12:11:53:275;12:11:53:272;1448407671.85;(0, 0);0;0;;;;;;;;;;;;;;0;40,21,51,30,50,17;0;0;0;0;0;0;0;();(-2000.0, -2000.0);
12:11:53:308;12:11:53:272;1448407671.85;(0, 0);0;0;;;;;;;;;;;;;;0;40,21,51,30,50,17;0;0;0;0;0;0;0;();(-2000.0, -2000.0);
12:11:53:325;12:11:53:272;1448407671.85;(0, 0);0;0;;;;;;;;;;;;;;0;40,21,51,30,50,17;0;0;0;0;0;0;0;();(-2000.0, -2000.0);
12:11:53:341;12:11:53:336;1448407671.92;(0.4107526302337646, 0.3977029164632161);63.3109207153;0.628429828337;;;;;;;;;;;;;;0;40,21,51,30,50,17;0;0;0;0;0;0;0;();(-2000.0, -2000.0);
12:11:53:358;12:11:53:336;1448407671.92;(0.4107526302337646, 0.3977029164632161);63.3109207153;0.628429828337;;;;;;;;;;;;;;0;40,21,51,30,50,17;0;0;0;0;0;0;0;();(-2000.0, -2000.0);
12:11:53:375;12:11:53:336;1448407671.92;(0.4107526302337646, 0.3977029164632161);63.3109207153;0.628429828337;;;;;;;;;;;;;;0;40,21,51,30,50,17;0;0;0;0;0;0;0;();(-2000.0, -2000.0);
12:11:53:408;12:11:53:403;1448407671.98;(0, 0);0;0;;;;;;;;;;;;;;0;40,21,51,30,50,17;0;0;0;0;0;0;0;();(-2000.0, -2000.0);
12:11:53:425;12:11:53:403;1448407671.98;(0, 0);0;0;;;;;;;;;;;;;;0;40,21,51,30,50,17;0;0;0;0;0;0;0;();(-2000.0, -2000.0);
12:11:53:441;12:11:53:403;1448407671.98;(0, 0);0;0;;;;;;;;;;;;;;0;40,21,51,30,50,17;0;0;0;0;0;0;0;();(-2000.0, -2000.0);
12:11:53:459;12:11:53:403;1448407671.98;(0, 0);0;0;;;;;;;;;;;;;;0;40,21,51,30,50,17;0;0;0;0;0;0;0;();(-2000.0, -2000.0);
12:11:53:475;12:11:53:469;1448407672.05;(0, 0);0;0;;;;;;;;;;;;;;0;40,21,51,30,50,17;0;0;0;0;0;0;0;();(-2000.0, -2000.0);
12:11:53:509;12:11:53:469;1448407672.05;(0, 0);0;0;;;;;;;;;;;;;;0;40,21,51,30,50,17;0;0;0;0;0;0;0;();(-2000.0, -2000.0);
12:11:53:525;12:11:53:469;1448407672.05;(0, 0);0;0;;;;;;;;;;;;;;0;40,21,51,30,50,17;0;0;0;0;0;0;0;();(-2000.0, -2000.0);
12:11:53:541;12:11:53:535;1448407672.12;(0.4281186580657959, 0.36958223978678384);65.8258285522;0.66290708259;;;;;;;;;;;;;;0;40,21,51,30,50,17;0;0;0;0;0;0;0;();(-2000.0, -2000.0);
12:11:53:558;12:11:53:535;1448407672.12;(0.4281186580657959, 0.36958223978678384);65.8258285522;0.66290708259;;;;;;;;;;;;;;0;40,21,51,30,50,17;0;0;0;0;0;0;0;();(-2000.0, -2000.0);
12:11:53:575;12:11:53:535;1448407672.12;(0.4281186580657959, 0.36958223978678384);65.8258285522;0.66290708259;;;;;;;;;;;;;;0;40,21,51,30,50,17;0;0;0;0;0;0;0;();(-2000.0, -2000.0);
12:11:53:608;12:11:53:603;1448407672.18;(0.42532939910888673, 0.38528713650173607);63.3909225464;0.733269918225;;;;;;;;;;;;;;0;40,21,51,30,50,17;0;0;0;0;0;0;0;();(-2000.0, -2000.0);
12:11:53:625;12:11:53:603;1448407672.18;(0.42532939910888673, 0.38528713650173607);63.3909225464;0.733269918225;;;;;;;;;;;;;;0;40,21,51,30,50,17;0;0;0;0;0;0;0;();(-2000.0, -2000.0);
12:11:53:642;12:11:53:603;1448407672.18;(0.42532939910888673, 0.38528713650173607);63.3909225464;0.733269918225;;;;;;;;;;;;;;0;40,21,51,30,50,17;0;0;0;0;0;0;0;();(-2000.0, -2000.0);
12:11:53:658;12:11:53:603;1448407672.18;(0.42532939910888673, 0.38528713650173607);63.3909225464;0.733269918225;;;;;;;;;;;;;;0;40,21,51,30,50,17;0;0;0;0;0;0;0;();(-2000.0, -2000.0);
12:11:53:674;12:11:53:668;1448407672.22;(0.4251457691192627, 0.39080060323079424);64.1147613525;0.645664760942;;;;;;;;;;;;;;0;40,21,51,30,50,17;0;0;0;0;0;0;0;();(-2000.0, -2000.0);
12:11:53:708;12:11:53:668;1448407672.22;(0.4251457691192627, 0.39080060323079424);64.1147613525;0.645664760942;;;;;;;;;;;;;;0;40,21,51,30,50,17;0;0;0;0;0;0;0;();(-2000.0, -2000.0);
12:11:53:724;12:11:53:668;1448407672.22;(0.4251457691192627, 0.39080060323079424);64.1147613525;0.645664760942;;;;;;;;;;;;;;0;40,21,51,30,50,17;0;0;0;0;0;0;0;();(-2000.0, -2000.0);
12:11:53:742;12:11:53:736;1448407672.28;(0.4260883808135986, 0.3874269697401259);63.1968383789;0.655595407829;;;;;;;;;;;;;;0;40,21,51,30,50,17;0;0;0;0;0;0;0;();(-2000.0, -2000.0);
12:11:53:758;12:11:53:736;1448407672.28;(0.4260883808135986, 0.3874269697401259);63.1968383789;0.655595407829;;;;;;;;;;;;;;0;40,21,51,30,50,17;0;0;0;0;0;0;0;();(-2000.0, -2000.0);
12:11:53:775;12:11:53:736;1448407672.28;(0.4260883808135986, 0.3874269697401259);63.1968383789;0.655595407829;;;;;;;;;;;;;;0;40,21,51,30,50,17;0;0;0;0;0;0;0;();(-2000.0, -2000.0);
12:11:53:808;12:11:53:799;1448407672.35;(0.42509100437164304, 0.39139518737792967);64.9772720337;0.626552909217;;;;;;;;;;;;;;0;40,21,51,30,50,17;0;0;0;0;0;0;0;();(-2000.0, -2000.0);
12:11:53:825;12:11:53:799;1448407672.35;(0.42509100437164304, 0.39139518737792967);64.9772720337;0.626552909217;;;;;;;;;;;;;;0;40,21,51,30,50,17;0;0;0;0;0;0;0;();(-2000.0, -2000.0);
12:11:53:841;12:11:53:799;1448407672.35;(0.42509100437164304, 0.39139518737792967);64.9772720337;0.626552909217;;;;;;;;;;;;;;0;40,21,51,30,50,17;0;0;0;0;0;0;0;();(-2000.0, -2000.0);
12:11:53:858;12:11:53:799;1448407672.35;(0.42509100437164304, 0.39139518737792967);64.9772720337;0.626552909217;;;;;;;;;;;;;;0;40,21,51,30,50,17;0;0;0;0;0;0;0;();(-2000.0, -2000.0);
12:11:53:875;12:11:53:867;1448407672.45;(0, 0);0;0;;;;;;;;;;;;;;0;40,21,51,30,50,17;0;0;0;0;0;0;0;();(-2000.0, -2000.0);
12:11:53:908;12:11:53:867;1448407672.45;(0, 0);0;0;;;;;;;;;;;;;;0;40,21,51,30,50,17;0;0;0;0;0;0;0;();(-2000.0, -2000.0);
12:11:53:925;12:11:53:867;1448407672.45;(0, 0);0;0;;;;;;;;;;;;;;0;40,21,51,30,50,17;0;0;0;0;0;0;0;();(-2000.0, -2000.0);
12:11:53:942;12:11:53:936;1448407672.52;(0, 0);0;0;;;;;;;;;;;;;;0;40,21,51,30,50,17;0;0;0;0;0;0;0;();(-2000.0, -2000.0);
12:11:53:959;12:11:53:936;1448407672.52;(0, 0);0;0;;;;;;;;;;;;;;0;40,21,51,30,50,17;0;0;0;0;0;0;0;();(-2000.0, -2000.0);
12:11:53:975;12:11:53:936;1448407672.52;(0, 0);0;0;;;;;;;;;;;;;;0;40,21,51,30,50,17;0;0;0;0;0;0;0;();(-2000.0, -2000.0);
12:11:54:009;12:11:53:998;1448407672.55;(0.40918588638305664, 0.4000978681776258);62.4487915039;0.629284621088;;;;;;;;;;;;;;0;40,21,51,30,50,17;0;0;0;0;0;0;0;();(-2000.0, -2000.0);
12:11:54:026;12:11:53:998;1448407672.55;(0.40918588638305664, 0.4000978681776258);62.4487915039;0.629284621088;;;;;;;;;;;;;;0;40,21,51,30,50,17;0;0;0;0;0;0;0;();(-2000.0, -2000.0);
12:11:54:042;12:11:53:998;1448407672.55;(0.40918588638305664, 0.4000978681776258);62.4487915039;0.629284621088;;;;;;;;;;;;;;0;40,21,51,30,50,17;0;0;0;0;0;0;0;();(-2000.0, -2000.0);
12:11:54:059;12:11:53:998;1448407672.55;(0.40918588638305664, 0.4000978681776258);62.4487915039;0.629284621088;;;;;;;;;;;;;;0;40,21,51,30,50,17;0;0;0;0;0;0;0;();(-2000.0, -2000.0);
12:11:54:075;12:11:54:072;1448407672.65;(0, 0);0;0;;;;;;;;;;;;;;0;40,21,51,30,50,17;0;0;0;0;0;0;0;();(-2000.0, -2000.0);
12:11:54:109;12:11:54:072;1448407672.65;(0, 0);0;0;;;;;;;;;;;;;;0;40,21,51,30,50,17;0;0;0;0;0;0;0;();(-2000.0, -2000.0);
12:11:54:125;12:11:54:072;1448407672.65;(0, 0);0;0;;;;;;;;;;;;;;0;40,21,51,30,50,17;0;0;0;0;0;0;0;();(-2000.0, -2000.0);
12:11:54:142;12:11:54:129;1448407672.68;(0.40656678676605223, 0.3989930894639757);61.6911048889;0.648157211465;;;;;;;;;;;;;;0;40,21,51,30,50,17;0;0;0;0;0;0;0;();(-2000.0, -2000.0);
12:11:54:160;12:11:54:129;1448407672.68;(0.40656678676605223, 0.3989930894639757);61.6911048889;0.648157211465;;;;;;;;;;;;;;0;40,21,51,30,50,17;0;0;0;0;0;0;0;();(-2000.0, -2000.0);
12:11:54:176;12:11:54:129;1448407672.68;(0.40656678676605223, 0.3989930894639757);61.6911048889;0.648157211465;;;;;;;;;;;;;;0;40,21,51,30,50,17;0;0;0;0;0;0;0;();(-2000.0, -2000.0);
12:11:54:209;12:11:54:200;1448407672.75;(0, 0);0;0;;;;;;;;;;;;;;0;40,21,51,30,50,17;0;0;0;0;0;0;0;();(-2000.0, -2000.0);
12:11:54:226;12:11:54:200;1448407672.75;(0, 0);0;0;;;;;;;;;;;;;;0;40,21,51,30,50,17;0;0;0;0;0;0;0;();(-2000.0, -2000.0);
12:11:54:242;12:11:54:200;1448407672.75;(0, 0);0;0;;;;;;;;;;;;;;0;40,21,51,30,50,17;0;0;0;0;0;0;0;();(-2000.0, -2000.0);
12:11:54:258;12:11:54:200;1448407672.75;(0, 0);0;0;;;;;;;;;;;;;;0;40,21,51,30,50,17;0;0;0;0;0;0;0;();(-2000.0, -2000.0);
12:11:54:276;12:11:54:268;1448407672.85;(0.41085517406463623, 0.37914110819498703);65.125328064;0.6078371811;;;;;;;;;;;;;;0;40,21,51,30,50,17;0;0;0;0;0;0;0;();(-2000.0, -2000.0);
12:11:54:309;12:11:54:268;1448407672.85;(0.41085517406463623, 0.37914110819498703);65.125328064;0.6078371811;;;;;;;;;;;;;;0;40,21,51,30,50,17;0;0;0;0;0;0;0;();(-2000.0, -2000.0);
12:11:54:325;12:11:54:268;1448407672.85;(0.41085517406463623, 0.37914110819498703);65.125328064;0.6078371811;;;;;;;;;;;;;;0;40,21,51,30,50,17;0;0;0;0;0;0;0;();(-2000.0, -2000.0);
12:11:54:342;12:11:54:331;1448407672.88;(0, 0);0;0;;;;;;;;;;;;;;0;40,21,51,30,50,17;0;0;0;0;0;0;0;();(-2000.0, -2000.0);
12:11:54:358;12:11:54:331;1448407672.88;(0, 0);0;0;;;;;;;;;;;;;;0;40,21,51,30,50,17;0;0;0;0;0;0;0;();(-2000.0, -2000.0);
12:11:54:376;12:11:54:331;1448407672.88;(0, 0);0;0;;;;;;;;;;;;;;0;40,21,51,30,50,17;0;0;0;0;0;0;0;();(-2000.0, -2000.0);
12:11:54:409;12:11:54:400;1448407672.98;(0.4368018627166748, 0.3921623229980469);63.1879692078;0.694415026359;;;;;;;;;;;;;;0;40,21,51,30,50,17;0;0;0;0;0;0;0;();(-2000.0, -2000.0);
12:11:54:425;12:11:54:400;1448407672.98;(0.4368018627166748, 0.3921623229980469);63.1879692078;0.694415026359;;;;;;;;;;;;;;0;40,21,51,30,50,17;0;0;0;0;0;0;0;();(-2000.0, -2000.0);
12:11:54:442;12:11:54:400;1448407672.98;(0.4368018627166748, 0.3921623229980469);63.1879692078;0.694415026359;;;;;;;;;;;;;;0;40,21,51,30,50,17;0;0;0;0;0;0;0;();(-2000.0, -2000.0);
12:11:54:459;12:11:54:400;1448407672.98;(0.4368018627166748, 0.3921623229980469);63.1879692078;0.694415026359;;;;;;;;;;;;;;0;40,21,51,30,50,17;0;0;0;0;0;0;0;();(-2000.0, -2000.0);
12:11:54:475;12:11:54:461;1448407673.02;(0, 0);0;0;;;;;;;;;;;;;;0;40,21,51,30,50,17;0;0;0;0;0;0;0;();(-2000.0, -2000.0);
12:11:54:509;12:11:54:461;1448407673.02;(0, 0);0;0;;;;;;;;;;;;;;0;40,21,51,30,50,17;0;0;0;0;0;0;0;();(-2000.0, -2000.0);
12:11:54:525;12:11:54:461;1448407673.02;(0, 0);0;0;;;;;;;;;;;;;;0;40,21,51,30,50,17;0;0;0;0;0;0;0;();(-2000.0, -2000.0);
12:11:54:543;12:11:54:530;1448407673.08;(0.4386923313140869, 0.3931246863471137);65.4250640869;0.617287600224;;;;;;;;;;;;;;0;40,21,51,30,50,17;0;0;0;0;0;0;0;();(-2000.0, -2000.0);
12:11:54:559;12:11:54:530;1448407673.08;(0.4386923313140869, 0.3931246863471137);65.4250640869;0.617287600224;;;;;;;;;;;;;;0;40,21,51,30,50,17;0;0;0;0;0;0;0;();(-2000.0, -2000.0);
12:11:54:576;12:11:54:530;1448407673.08;(0.4386923313140869, 0.3931246863471137);65.4250640869;0.617287600224;;;;;;;;;;;;;;0;40,21,51,30,50,17;0;0;0;0;0;0;0;();(-2000.0, -2000.0);
12:11:54:609;12:11:54:599;1448407673.15;(0.4405656337738037, 0.3936228434244792);63.9671134949;0.609636937792;;;;;;;;;;;;;;0;40,21,51,30,50,17;0;0;0;0;0;0;0;();(-2000.0, -2000.0);
12:11:54:625;12:11:54:599;1448407673.15;(0.4405656337738037, 0.3936228434244792);63.9671134949;0.609636937792;;;;;;;;;;;;;;0;40,21,51,30,50,17;0;0;0;0;0;0;0;();(-2000.0, -2000.0);
12:11:54:642;12:11:54:599;1448407673.15;(0.4405656337738037, 0.3936228434244792);63.9671134949;0.609636937792;;;;;;;;;;;;;;0;40,21,51,30,50,17;0;0;0;0;0;0;0;();(-2000.0, -2000.0);
12:11:54:659;12:11:54:599;1448407673.15;(0.4405656337738037, 0.3936228434244792);63.9671134949;0.609636937792;;;;;;;;;;;;;;0;40,21,51,30,50,17;0;0;0;0;0;0;0;();(-2000.0, -2000.0);
12:11:54:676;12:11:54:665;1448407673.25;(0, 0);0;0;;;;;;;;;;;;;;0;40,21,51,30,50,17;0;0;0;0;0;0;0;();(-2000.0, -2000.0);
12:11:54:709;12:11:54:665;1448407673.25;(0, 0);0;0;;;;;;;;;;;;;;0;40,21,51,30,50,17;0;0;0;0;0;0;0;();(-2000.0, -2000.0);
12:11:54:725;12:11:54:665;1448407673.25;(0, 0);0;0;;;;;;;;;;;;;;0;40,21,51,30,50,17;0;0;0;0;0;0;0;();(-2000.0, -2000.0);
12:11:54:742;12:11:54:731;1448407673.32;(0.4445786952972412, 0.39316363864474824);63.5924758911;0.647024395633;;;;;;;;;;;;;;0;40,21,51,30,50,17;0;0;0;0;0;0;0;();(-2000.0, -2000.0);
12:11:54:759;12:11:54:731;1448407673.32;(0.4445786952972412, 0.39316363864474824);63.5924758911;0.647024395633;;;;;;;;;;;;;;0;40,21,51,30,50,17;0;0;0;0;0;0;0;();(-2000.0, -2000.0);
12:11:54:776;12:11:54:731;1448407673.32;(0.4445786952972412, 0.39316363864474824);63.5924758911;0.647024395633;;;;;;;;;;;;;;0;40,21,51,30,50,17;0;0;0;0;0;0;0;();(-2000.0, -2000.0);
12:11:54:809;12:11:54:795;1448407673.35;(0.4442310810089111, 0.3930931515163846);63.7353057861;0.686952668911;;;;;;;;;;;;;;0;40,21,51,30,50,17;0;0;0;0;0;0;0;();(-2000.0, -2000.0);
12:11:54:826;12:11:54:795;1448407673.35;(0.4442310810089111, 0.3930931515163846);63.7353057861;0.686952668911;;;;;;;;;;;;;;0;40,21,51,30,50,17;0;0;0;0;0;0;0;();(-2000.0, -2000.0);
12:11:54:843;12:11:54:795;1448407673.35;(0.4442310810089111, 0.3930931515163846);63.7353057861;0.686952668911;;;;;;;;;;;;;;0;40,21,51,30,50,17;0;0;0;0;0;0;0;();(-2000.0, -2000.0);
12:11:54:859;12:11:54:795;1448407673.35;(0.4442310810089111, 0.3930931515163846);63.7353057861;0.686952668911;;;;;;;;;;;;;;0;40,21,51,30,50,17;0;0;0;0;0;0;0;();(-2000.0, -2000.0);
12:11:54:876;12:11:54:864;1448407673.42;(0.4453129291534424, 0.39304979112413196);62.8467559814;0.641132599971;;;;;;;;;;;;;;0;40,21,51,30,50,17;0;0;0;0;0;0;0;();(-2000.0, -2000.0);
12:11:54:909;12:11:54:864;1448407673.42;(0.4453129291534424, 0.39304979112413196);62.8467559814;0.641132599971;;;;;;;;;;;;;;0;40,21,51,30,50,17;0;0;0;0;0;0;0;();(-2000.0, -2000.0);
