%Timestamp,timestamp_write;timestamp_gotpupil;eyeTrackerTime;normPos;diameter;confidence;timestamp_gotbitdata;CRC;SEQ;AnalogOutp1;AnalogOutp2;AnalogOutp3;AnalogOutp4;AnalogOutp5;AnalogOutp6;DigitalOutp1;DigitalOutp2;DigitalOutp3;DigitalOutp4;nplanes;listofAirplanesonScreen;lastAction;lastActionDetails;lastActionAirplaneNumber;calculatedScore;positiveScore;negativeScore;collidedAirplaneNumbers;targetPositions;collisionPoint
08:46:04:923;08:46:04:914;1448480759.51;(0.4246392011642456, 0.5105817159016928);57.82554245;1.0;;;;;;;;;;;;;;0;0;0;0;0;0;0;0;0;();(-2000.0, -2000.0);
08:46:04:932;08:46:04:914;1448480759.51;(0.4246392011642456, 0.5105817159016928);57.82554245;1.0;;;;;;;;;;;;;;0;0;0;0;0;0;0;0;0;();(-2000.0, -2000.0);
08:46:04:935;08:46:04:914;1448480759.51;(0.4246392011642456, 0.5105817159016928);57.82554245;1.0;;;;;;;;;;;;;;0;0;0;0;0;0;0;0;0;();(-2000.0, -2000.0);
08:46:04:937;08:46:04:914;1448480759.51;(0.4246392011642456, 0.5105817159016928);57.82554245;1.0;;;;;;;;;;;;;;0;0;0;0;0;0;0;0;0;();(-2000.0, -2000.0);
08:46:04:940;08:46:04:914;1448480759.51;(0.4246392011642456, 0.5105817159016928);57.82554245;1.0;;;;;;;;;;;;;;0;0;0;0;0;0;0;0;0;();(-2000.0, -2000.0);
08:46:04:942;08:46:04:914;1448480759.51;(0.4246392011642456, 0.5105817159016928);57.82554245;1.0;;;;;;;;;;;;;;0;0;0;0;0;0;0;0;0;();(-2000.0, -2000.0);
08:46:04:945;08:46:04:914;1448480759.51;(0.4246392011642456, 0.5105817159016928);57.82554245;1.0;;;;;;;;;;;;;;0;0;0;0;0;0;0;0;0;();(-2000.0, -2000.0);
08:46:04:947;08:46:04:914;1448480759.51;(0.4246392011642456, 0.5105817159016928);57.82554245;1.0;;;;;;;;;;;;;;0;0;0;0;0;0;0;0;0;();(-2000.0, -2000.0);
08:46:04:948;08:46:04:914;1448480759.51;(0.4246392011642456, 0.5105817159016928);57.82554245;1.0;;;;;;;;;;;;;;0;0;0;0;0;0;0;0;0;();(-2000.0, -2000.0);
08:46:04:951;08:46:04:914;1448480759.51;(0.4246392011642456, 0.5105817159016928);57.82554245;1.0;;;;;;;;;;;;;;0;0;0;0;0;0;0;0;0;();(-2000.0, -2000.0);
08:46:04:952;08:46:04:914;1448480759.51;(0.4246392011642456, 0.5105817159016928);57.82554245;1.0;;;;;;;;;;;;;;0;0;0;0;0;0;0;0;0;();(-2000.0, -2000.0);
08:46:04:954;08:46:04:914;1448480759.51;(0.4246392011642456, 0.5105817159016928);57.82554245;1.0;;;;;;;;;;;;;;0;0;0;0;0;0;0;0;0;();(-2000.0, -2000.0);
08:46:04:956;08:46:04:914;1448480759.51;(0.4246392011642456, 0.5105817159016928);57.82554245;1.0;;;;;;;;;;;;;;0;0;0;0;0;0;0;0;0;();(-2000.0, -2000.0);
08:46:04:957;08:46:04:914;1448480759.51;(0.4246392011642456, 0.5105817159016928);57.82554245;1.0;;;;;;;;;;;;;;0;0;0;0;0;0;0;0;0;();(-2000.0, -2000.0);
08:46:04:958;08:46:04:914;1448480759.51;(0.4246392011642456, 0.5105817159016928);57.82554245;1.0;;;;;;;;;;;;;;0;0;0;0;0;0;0;0;0;();(-2000.0, -2000.0);
08:46:04:960;08:46:04:958;1448480759.54;(0.4244712829589844, 0.51168212890625);57.9277458191;1.0;;;;;;;;;;;;;;0;0;0;0;0;0;0;0;0;();(-2000.0, -2000.0);
08:46:04:961;08:46:04:958;1448480759.54;(0.4244712829589844, 0.51168212890625);57.9277458191;1.0;;;;;;;;;;;;;;0;0;0;0;0;0;0;0;0;();(-2000.0, -2000.0);
08:46:04:963;08:46:04:958;1448480759.54;(0.4244712829589844, 0.51168212890625);57.9277458191;1.0;;;;;;;;;;;;;;0;0;0;0;0;0;0;0;0;();(-2000.0, -2000.0);
08:46:04:990;08:46:04:958;1448480759.54;(0.4244712829589844, 0.51168212890625);57.9277458191;1.0;;;;;;;;;;;;;;0;0;0;0;0;0;0;0;0;();(-2000.0, -2000.0);
08:46:04:992;08:46:04:958;1448480759.54;(0.4244712829589844, 0.51168212890625);57.9277458191;1.0;;;;;;;;;;;;;;0;0;0;0;0;0;0;0;0;();(-2000.0, -2000.0);
08:46:05:023;08:46:04:999;1448480759.58;(0.4242690563201904, 0.5135404798719618);58.2036094666;1.0;;;;;;;;;;;;;;0;0;0;0;0;0;0;0;0;();(-2000.0, -2000.0);
08:46:05:057;08:46:05:038;1448480759.61;(0.4240917921066284, 0.5139758639865452);57.8378944397;1.0;;;;;;;;;;;;;;0;0;0;0;0;0;0;0;0;();(-2000.0, -2000.0);
08:46:05:060;08:46:05:038;1448480759.61;(0.4240917921066284, 0.5139758639865452);57.8378944397;1.0;;;;;;;;;;;;;;0;0;0;0;0;0;0;0;0;();(-2000.0, -2000.0);
08:46:05:072;08:46:05:038;1448480759.61;(0.4240917921066284, 0.5139758639865452);57.8378944397;1.0;;;;;;;;;;;;;;0;0;0;0;0;0;0;0;0;();(-2000.0, -2000.0);
08:46:07:492;08:46:07:482;1448480762.08;(0.41729073524475097, 0.5120844099256727);57.7849769592;1.0;;;;;;;;;;;;;;0;0;0;0;0;0;0;0;0;();(-2000.0, -2000.0);
08:46:07:495;08:46:07:482;1448480762.08;(0.41729073524475097, 0.5120844099256727);57.7849769592;1.0;;;;;;;;;;;;;;0;0;0;0;0;0;0;0;0;();(-2000.0, -2000.0);
08:46:07:497;08:46:07:482;1448480762.08;(0.41729073524475097, 0.5120844099256727);57.7849769592;1.0;;;;;;;;;;;;;;0;0;0;0;0;0;0;0;0;();(-2000.0, -2000.0);
08:46:07:499;08:46:07:482;1448480762.08;(0.41729073524475097, 0.5120844099256727);57.7849769592;1.0;;;;;;;;;;;;;;0;0;0;0;0;0;0;0;0;();(-2000.0, -2000.0);
08:46:07:501;08:46:07:482;1448480762.08;(0.41729073524475097, 0.5120844099256727);57.7849769592;1.0;;;;;;;;;;;;;;0;0;0;0;0;0;0;0;0;();(-2000.0, -2000.0);
08:46:07:502;08:46:07:482;1448480762.08;(0.41729073524475097, 0.5120844099256727);57.7849769592;1.0;;;;;;;;;;;;;;0;0;0;0;0;0;0;0;0;();(-2000.0, -2000.0);
08:46:07:504;08:46:07:482;1448480762.08;(0.41729073524475097, 0.5120844099256727);57.7849769592;1.0;;;;;;;;;;;;;;0;0;0;0;0;0;0;0;0;();(-2000.0, -2000.0);
08:46:07:506;08:46:07:482;1448480762.08;(0.41729073524475097, 0.5120844099256727);57.7849769592;1.0;;;;;;;;;;;;;;0;0;0;0;0;0;0;0;0;();(-2000.0, -2000.0);
08:46:07:507;08:46:07:482;1448480762.08;(0.41729073524475097, 0.5120844099256727);57.7849769592;1.0;;;;;;;;;;;;;;0;0;0;0;0;0;0;0;0;();(-2000.0, -2000.0);
08:46:07:508;08:46:07:482;1448480762.08;(0.41729073524475097, 0.5120844099256727);57.7849769592;1.0;;;;;;;;;;;;;;0;0;0;0;0;0;0;0;0;();(-2000.0, -2000.0);
08:46:07:510;08:46:07:482;1448480762.08;(0.41729073524475097, 0.5120844099256727);57.7849769592;1.0;;;;;;;;;;;;;;0;0;0;0;0;0;0;0;0;();(-2000.0, -2000.0);
08:46:07:511;08:46:07:482;1448480762.08;(0.41729073524475097, 0.5120844099256727);57.7849769592;1.0;;;;;;;;;;;;;;0;0;0;0;0;0;0;0;0;();(-2000.0, -2000.0);
08:46:07:513;08:46:07:482;1448480762.08;(0.41729073524475097, 0.5120844099256727);57.7849769592;1.0;;;;;;;;;;;;;;0;0;0;0;0;0;0;0;0;();(-2000.0, -2000.0);
08:46:07:514;08:46:07:482;1448480762.08;(0.41729073524475097, 0.5120844099256727);57.7849769592;1.0;;;;;;;;;;;;;;0;0;0;0;0;0;0;0;0;();(-2000.0, -2000.0);
08:46:07:515;08:46:07:482;1448480762.08;(0.41729073524475097, 0.5120844099256727);57.7849769592;1.0;;;;;;;;;;;;;;0;0;0;0;0;0;0;0;0;();(-2000.0, -2000.0);
08:46:07:517;08:46:07:482;1448480762.08;(0.41729073524475097, 0.5120844099256727);57.7849769592;1.0;;;;;;;;;;;;;;0;0;0;0;0;0;0;0;0;();(-2000.0, -2000.0);
08:46:07:518;08:46:07:482;1448480762.08;(0.41729073524475097, 0.5120844099256727);57.7849769592;1.0;;;;;;;;;;;;;;0;0;0;0;0;0;0;0;0;();(-2000.0, -2000.0);
08:46:07:520;08:46:07:482;1448480762.08;(0.41729073524475097, 0.5120844099256727);57.7849769592;1.0;;;;;;;;;;;;;;0;0;0;0;0;0;0;0;0;();(-2000.0, -2000.0);
08:46:07:539;08:46:07:522;1448480762.11;(0.4174314022064209, 0.5119324154324002);58.0740852356;1.0;;;;;;;;;;;;;;0;0;0;0;0;0;0;0;0;();(-2000.0, -2000.0);
08:46:07:572;08:46:07:566;1448480762.14;(0.4173054933547974, 0.512133280436198);57.8949890137;1.0;;;;;;;;;;;;;;0;0;0;0;0;0;0;0;0;();(-2000.0, -2000.0);
08:46:07:606;08:46:07:566;1448480762.14;(0.4173054933547974, 0.512133280436198);57.8949890137;1.0;;;;;;;;;;;;;;0;0;0;0;0;0;0;0;0;();(-2000.0, -2000.0);
08:46:07:609;08:46:07:606;1448480762.18;(0.4174055099487305, 0.5121971130371094);57.8590126038;1.0;;;;;;;;;;;;;;0;0;0;0;0;0;0;0;0;();(-2000.0, -2000.0);
08:46:07:621;08:46:07:606;1448480762.18;(0.4174055099487305, 0.5121971130371094);57.8590126038;1.0;;;;;;;;;;;;;;0;0;0;0;0;0;0;0;0;();(-2000.0, -2000.0);
08:46:07:639;08:46:07:606;1448480762.18;(0.4174055099487305, 0.5121971130371094);57.8590126038;1.0;;;;;;;;;;;;;;0;0;0;0;0;0;0;0;0;();(-2000.0, -2000.0);
08:46:07:674;08:46:07:650;1448480762.24;(0.4171521425247192, 0.5118528154161242);57.8219490051;1.0;;;;;;;;;;;;;;0;0;0;0;0;0;0;0;0;();(-2000.0, -2000.0);
08:46:07:676;08:46:07:650;1448480762.24;(0.4171521425247192, 0.5118528154161242);57.8219490051;1.0;;;;;;;;;;;;;;0;0;0;0;0;0;0;0;0;();(-2000.0, -2000.0);
08:46:07:706;08:46:07:691;1448480762.28;(0.41710035800933837, 0.5119642893473307);57.8806419373;1.0;;;;;;;;;;;;;;0;0;0;0;0;0;0;0;0;();(-2000.0, -2000.0);
08:46:07:724;08:46:07:691;1448480762.28;(0.41710035800933837, 0.5119642893473307);57.8806419373;1.0;;;;;;;;;;;;;;0;0;0;0;0;0;0;0;0;();(-2000.0, -2000.0);
08:46:07:755;08:46:07:730;1448480762.31;(0.4169609546661377, 0.5120437198215061);57.8752326965;1.0;;;;;;;;;;;;;;0;0;0;0;0;0;0;0;0;();(-2000.0, -2000.0);
08:46:07:759;08:46:07:730;1448480762.31;(0.4169609546661377, 0.5120437198215061);57.8752326965;1.0;;;;;;;;;;;;;;0;0;0;0;0;0;0;0;0;();(-2000.0, -2000.0);
08:46:07:786;08:46:07:774;1448480762.38;(0.4173255443572998, 0.5123385959201389);57.7479667664;1.0;;;;;;;;;;;;;;0;0;0;0;0;0;0;0;0;();(-2000.0, -2000.0);
08:46:07:804;08:46:07:774;1448480762.38;(0.4173255443572998, 0.5123385959201389);57.7479667664;1.0;;;;;;;;;;;;;;0;0;0;0;0;0;0;0;0;();(-2000.0, -2000.0);
08:46:07:823;08:46:07:814;1448480762.41;(0.4174180507659912, 0.5123321957058377);57.6011581421;1.0;;;;;;;;;;;;;;0;0;0;0;0;0;0;0;0;();(-2000.0, -2000.0);
08:46:07:840;08:46:07:814;1448480762.41;(0.4174180507659912, 0.5123321957058377);57.6011581421;1.0;;;;;;;;;;;;;;0;0;0;0;0;0;0;0;0;();(-2000.0, -2000.0);
08:46:07:874;08:46:07:854;1448480762.44;(0.4174639701843262, 0.5120462629530165);57.7523727417;1.0;;;;;;;;;;;;;;0;0;0;0;0;0;0;0;0;();(-2000.0, -2000.0);
08:46:07:875;08:46:07:854;1448480762.44;(0.4174639701843262, 0.5120462629530165);57.7523727417;1.0;;;;;;;;;;;;;;0;0;0;0;0;0;0;0;0;();(-2000.0, -2000.0);
08:46:07:908;08:46:07:899;1448480762.48;(0.4173621416091919, 0.5123105790879992);57.5523681641;1.0;;;;;;;;;;;;;;0;0;0;0;0;0;0;0;0;();(-2000.0, -2000.0);
08:46:07:927;08:46:07:899;1448480762.48;(0.4173621416091919, 0.5123105790879992);57.5523681641;1.0;;;;;;;;;;;;;;0;0;0;0;0;0;0;0;0;();(-2000.0, -2000.0);
08:46:07:946;08:46:07:938;1448480762.51;(0.4175617218017578, 0.5121582878960503);57.3160438538;1.0;;;;;;;;;;;;;;0;0;0;0;0;0;0;0;0;();(-2000.0, -2000.0);
08:46:07:967;08:46:07:938;1448480762.51;(0.4175617218017578, 0.5121582878960503);57.3160438538;1.0;;;;;;;;;;;;;;0;0;0;0;0;0;0;0;0;();(-2000.0, -2000.0);
08:46:07:984;08:46:07:983;1448480762.58;(0.4176093339920044, 0.51271603902181);56.3593864441;1.0;;;;;;;;;;;;;;0;0;0;0;0;0;0;0;0;();(-2000.0, -2000.0);
08:46:08:000;08:46:07:983;1448480762.58;(0.4176093339920044, 0.51271603902181);56.3593864441;1.0;;;;;;;;;;;;;;0;0;0;0;0;0;0;0;0;();(-2000.0, -2000.0);
08:46:08:017;08:46:07:983;1448480762.58;(0.4176093339920044, 0.51271603902181);56.3593864441;1.0;;;;;;;;;;;;;;0;0;0;0;0;0;0;0;0;();(-2000.0, -2000.0);
08:46:08:048;08:46:08:026;1448480762.61;(0.4177723407745361, 0.5135967678493923);56.163105011;1.0;;;;;;;;;;;;;;0;0;0;0;0;0;0;0;0;();(-2000.0, -2000.0);
08:46:08:065;08:46:08:062;1448480762.64;(0.417759370803833, 0.5137223561604818);55.6851005554;1.0;;;;;;;;;;;;;;0;0;0;0;0;0;0;0;0;();(-2000.0, -2000.0);
08:46:08:079;08:46:08:062;1448480762.64;(0.417759370803833, 0.5137223561604818);55.6851005554;1.0;;;;;;;;;;;;;;0;0;0;0;0;0;0;0;0;();(-2000.0, -2000.0);
08:46:08:108;08:46:08:062;1448480762.64;(0.417759370803833, 0.5137223561604818);55.6851005554;1.0;;;;;;;;;;;;;;0;0;0;0;0;0;0;0;0;();(-2000.0, -2000.0);
08:46:08:126;08:46:08:111;1448480762.68;(0, 0);0;0;;;;;;;;;;;;;;0;0;0;0;0;0;0;0;0;();(-2000.0, -2000.0);
08:46:08:142;08:46:08:111;1448480762.68;(0, 0);0;0;;;;;;;;;;;;;;0;0;0;0;0;0;0;0;0;();(-2000.0, -2000.0);
08:46:08:171;08:46:08:150;1448480762.71;(0.45500931739807127, 0.5192859225802952);54.0940818787;1.0;;;;;;;;;;;;;;0;0;0;0;0;0;0;0;0;();(-2000.0, -2000.0);
08:46:08:177;08:46:08:150;1448480762.71;(0.45500931739807127, 0.5192859225802952);54.0940818787;1.0;;;;;;;;;;;;;;0;0;0;0;0;0;0;0;0;();(-2000.0, -2000.0);
08:46:08:706;08:46:08:686;1448480763.28;(0.459926700592041, 0.519894282023112);54.7726707458;1.0;08:46:08:703;0;10;-1.5;2.1006160164271;1.46627565982405;0;0;0;1;1;1;1;0;0;0;0;0;0;0;0;0;();(-2000.0, -2000.0);
08:46:08:707;08:46:08:686;1448480763.28;(0.459926700592041, 0.519894282023112);54.7726707458;1.0;08:46:08:707;0;10;-1.5;2.1006160164271;1.46627565982405;0;0;0;1;1;1;1;0;0;0;0;0;0;0;0;0;();(-2000.0, -2000.0);
08:46:08:709;08:46:08:686;1448480763.28;(0.459926700592041, 0.519894282023112);54.7726707458;1.0;08:46:08:709;0;10;-1.5;2.1006160164271;1.46627565982405;0;0;0;1;1;1;1;0;0;0;0;0;0;0;0;0;();(-2000.0, -2000.0);
08:46:08:710;08:46:08:686;1448480763.28;(0.459926700592041, 0.519894282023112);54.7726707458;1.0;08:46:08:710;0;10;-1.5;2.1006160164271;1.46627565982405;0;0;0;1;1;1;1;0;0;0;0;0;0;0;0;0;();(-2000.0, -2000.0);
08:46:08:712;08:46:08:686;1448480763.28;(0.459926700592041, 0.519894282023112);54.7726707458;1.0;08:46:08:712;0;4;-1.5;2.27839643652561;1.85728250244379;0;0;0;1;1;1;1;0;0;0;0;0;0;0;0;0;();(-2000.0, -2000.0);
08:46:08:713;08:46:08:686;1448480763.28;(0.459926700592041, 0.519894282023112);54.7726707458;1.0;08:46:08:713;0;4;-1.5;2.27839643652561;1.85728250244379;0;0;0;1;1;1;1;0;0;0;0;0;0;0;0;0;();(-2000.0, -2000.0);
08:46:08:716;08:46:08:686;1448480763.28;(0.459926700592041, 0.519894282023112);54.7726707458;1.0;08:46:08:716;0;4;-1.5;2.27839643652561;1.85728250244379;0;0;0;1;1;1;1;0;0;0;0;0;0;0;0;0;();(-2000.0, -2000.0);
08:46:08:717;08:46:08:686;1448480763.28;(0.459926700592041, 0.519894282023112);54.7726707458;1.0;08:46:08:717;0;4;-1.5;2.27839643652561;1.85728250244379;0;0;0;1;1;1;1;0;0;0;0;0;0;0;0;0;();(-2000.0, -2000.0);
08:46:08:718;08:46:08:686;1448480763.28;(0.459926700592041, 0.519894282023112);54.7726707458;1.0;08:46:08:718;0;4;-1.5;2.27839643652561;1.85728250244379;0;0;0;1;1;1;1;0;0;0;0;0;0;0;0;0;();(-2000.0, -2000.0);
08:46:08:719;08:46:08:686;1448480763.28;(0.459926700592041, 0.519894282023112);54.7726707458;1.0;08:46:08:719;0;4;-1.5;2.27839643652561;1.85728250244379;0;0;0;1;1;1;1;0;0;0;0;0;0;0;0;0;();(-2000.0, -2000.0);
08:46:08:720;08:46:08:686;1448480763.28;(0.459926700592041, 0.519894282023112);54.7726707458;1.0;08:46:08:720;0;4;-1.5;2.27839643652561;1.85728250244379;0;0;0;1;1;1;1;0;0;0;0;0;0;0;0;0;();(-2000.0, -2000.0);
08:46:08:721;08:46:08:686;1448480763.28;(0.459926700592041, 0.519894282023112);54.7726707458;1.0;08:46:08:721;0;4;-1.5;2.27839643652561;1.85728250244379;0;0;0;1;1;1;1;0;0;0;0;0;0;0;0;0;();(-2000.0, -2000.0);
08:46:08:722;08:46:08:686;1448480763.28;(0.459926700592041, 0.519894282023112);54.7726707458;1.0;08:46:08:722;0;4;-1.5;2.27839643652561;1.85728250244379;0;0;0;1;1;1;1;0;0;0;0;0;0;0;0;0;();(-2000.0, -2000.0);
08:46:08:723;08:46:08:686;1448480763.28;(0.459926700592041, 0.519894282023112);54.7726707458;1.0;08:46:08:723;0;4;-1.5;2.27839643652561;1.85728250244379;0;0;0;1;1;1;1;0;0;0;0;0;0;0;0;0;();(-2000.0, -2000.0);
08:46:08:724;08:46:08:686;1448480763.28;(0.459926700592041, 0.519894282023112);54.7726707458;1.0;08:46:08:724;0;8;-1.5;2.13125;1.95503421309873;0;0;0;1;1;1;1;0;0;0;0;0;0;0;0;0;();(-2000.0, -2000.0);
08:46:08:726;08:46:08:726;1448480763.31;(0.4600513935089111, 0.5203379313151042);54.7129974365;1.0;08:46:08:726;0;0;-1.5;2.0625;1.46627565982405;0;0;0;1;1;1;1;0;0;0;0;0;0;0;0;0;();(-2000.0, -2000.0);
08:46:08:728;08:46:08:726;1448480763.31;(0.4600513935089111, 0.5203379313151042);54.7129974365;1.0;08:46:08:728;0;9;-1.5;2.16737288135593;1.46627565982405;0;0;0;1;1;1;1;0;0;0;0;0;0;0;0;0;();(-2000.0, -2000.0);
08:46:08:731;08:46:08:726;1448480763.31;(0.4600513935089111, 0.5203379313151042);54.7129974365;1.0;08:46:08:731;0;9;-1.5;2.16737288135593;1.46627565982405;0;0;0;1;1;1;1;0;0;0;0;0;0;0;0;0;();(-2000.0, -2000.0);
08:46:08:762;08:46:08:726;1448480763.31;(0.4600513935089111, 0.5203379313151042);54.7129974365;1.0;08:46:08:762;0;15;-1.5;2.11801242236025;1.46627565982405;0;0;0;1;1;1;1;0;0;0;0;0;0;0;0;0;();(-2000.0, -2000.0);
08:46:08:779;08:46:08:767;1448480763.34;(0.4588911533355713, 0.5202985551622179);54.2609710693;1.0;08:46:08:779;0;10;-1.5;2.07085020242915;1.46627565982405;0;0;0;1;1;1;1;0;0;0;0;0;0;0;0;0;();(-2000.0, -2000.0);
08:46:08:796;08:46:08:767;1448480763.34;(0.4588911533355713, 0.5202985551622179);54.2609710693;1.0;08:46:08:796;0;9;-1.5;1.90858208955224;1.36852394916911;0;0;0;1;1;1;1;0;0;0;0;0;0;0;0;0;();(-2000.0, -2000.0);
08:46:08:813;08:46:08:767;1448480763.34;(0.4588911533355713, 0.5202985551622179);54.2609710693;1.0;08:46:08:813;0;4;-1.5;2.03784860557769;1.46627565982405;0;0;0;1;1;1;1;0;0;0;0;0;0;0;0;0;();(-2000.0, -2000.0);
08:46:08:829;08:46:08:767;1448480763.34;(0.4588911533355713, 0.5202985551622179);54.2609710693;1.0;08:46:08:829;0;10;-1.5;2.07926829268293;1.46627565982405;0;0;0;1;1;1;1;0;0;0;0;0;0;0;0;0;();(-2000.0, -2000.0);
08:46:08:847;08:46:08:767;1448480763.34;(0.4588911533355713, 0.5202985551622179);54.2609710693;1.0;08:46:08:847;0;4;-1.5;2.0625;1.46627565982405;0;0;0;1;1;1;1;0;0;0;0;0;0;0;0;0;();(-2000.0, -2000.0);
08:46:08:879;08:46:08:767;1448480763.34;(0.4588911533355713, 0.5202985551622179);54.2609710693;1.0;08:46:08:879;0;4;-1.5;2.24835164835165;1.46627565982405;0;0;0;1;1;1;1;0;0;0;0;0;0;0;0;0;();(-2000.0, -2000.0);
08:46:08:896;08:46:08:767;1448480763.34;(0.4588911533355713, 0.5202985551622179);54.2609710693;1.0;08:46:08:896;0;10;-1.5;2.16737288135593;1.46627565982405;0;0;0;1;1;1;1;0;0;0;0;0;0;0;0;0;();(-2000.0, -2000.0);
08:46:08:914;08:46:08:767;1448480763.34;(0.4588911533355713, 0.5202985551622179);54.2609710693;1.0;08:46:08:914;0;5;-1.5;2.24835164835165;1.46627565982405;0;0;0;1;1;1;1;0;0;0;0;0;0;0;0;0;();(-2000.0, -2000.0);
08:46:08:930;08:46:08:767;1448480763.34;(0.4588911533355713, 0.5202985551622179);54.2609710693;1.0;08:46:08:930;0;10;-1.5;2.27839643652561;1.85728250244379;0;0;0;1;1;1;1;0;0;0;0;0;0;0;0;0;();(-2000.0, -2000.0);
08:46:08:947;08:46:08:934;1448480763.52;(0.41632614135742185, 0.5052110883924696);55.8352622986;1.0;08:46:08:947;0;4;-1.5;2.30405405405405;1.85728250244379;0;0;0;1;1;1;1;0;0;0;0;0;0;0;0;0;();(-2000.0, -2000.0);
08:46:08:982;08:46:08:974;1448480763.58;(0.41654057502746583, 0.5056248135036893);55.8448066711;1.0;08:46:08:982;0;0;-1.5;2.20950323974082;1.46627565982405;0;0;0;1;1;1;1;0;0;0;0;0;0;0;0;0;();(-2000.0, -2000.0);
08:46:08:997;08:46:08:974;1448480763.58;(0.41654057502746583, 0.5056248135036893);55.8448066711;1.0;08:46:08:997;0;10;-1.5;2.44152744630072;1.85728250244379;0;0;0;1;1;1;1;0;0;0;0;0;0;0;0;0;();(-2000.0, -2000.0);
08:46:09:014;08:46:08:974;1448480763.58;(0.41654057502746583, 0.5056248135036893);55.8448066711;1.0;08:46:09:014;0;15;-1.5;2.28348214285714;1.46627565982405;0;0;0;1;1;1;1;0;0;0;0;0;0;0;0;0;();(-2000.0, -2000.0);
08:46:09:031;08:46:08:974;1448480763.58;(0.41654057502746583, 0.5056248135036893);55.8448066711;1.0;08:46:09:031;0;4;-1.5;2.325;1.66177908113392;0;0;0;1;1;1;1;0;0;0;0;0;0;0;0;0;();(-2000.0, -2000.0);
08:46:09:048;08:46:08:974;1448480763.58;(0.41654057502746583, 0.5056248135036893);55.8448066711;1.0;08:46:09:048;0;0;-1.5;2.26829268292683;1.85728250244379;0;0;0;1;1;1;1;0;0;0;0;0;0;0;0;0;();(-2000.0, -2000.0);
08:46:09:081;08:46:09:058;1448480763.61;(0.41780524253845214, 0.5104193369547526);55.7638626099;1.0;08:46:09:081;0;10;-1.5;2.325;1.85728250244379;0;0;0;1;1;1;1;0;0;0;0;0;0;0;0;0;();(-2000.0, -2000.0);
08:46:09:097;08:46:09:058;1448480763.61;(0.41780524253845214, 0.5104193369547526);55.7638626099;1.0;08:46:09:097;0;4;-1.5;2.24835164835165;1.85728250244379;0;0;0;1;1;1;1;0;0;0;0;0;0;0;0;0;();(-2000.0, -2000.0);
08:46:09:114;08:46:09:098;1448480763.68;(0.41776080131530763, 0.5108594258626302);55.7691383362;1.0;08:46:09:114;0;15;-1.5;2.36258660508083;1.66177908113392;0;0;0;1;1;1;1;0;0;0;0;0;0;0;0;0;();(-2000.0, -2000.0);
08:46:09:131;08:46:09:098;1448480763.68;(0.41776080131530763, 0.5108594258626302);55.7691383362;1.0;08:46:09:131;0;4;-1.5;2.33561643835616;2.34604105571848;0;0;0;1;1;1;1;0;0;0;0;0;0;0;0;0;();(-2000.0, -2000.0);
08:46:09:148;08:46:09:142;1448480763.74;(0.41739139556884763, 0.5111616770426433);55.9233131409;1.0;08:46:09:148;0;10;-1.5;2.44152744630072;1.85728250244379;0;0;0;1;1;1;1;0;0;0;0;0;0;0;0;0;();(-2000.0, -2000.0);
08:46:09:181;08:46:09:142;1448480763.74;(0.41739139556884763, 0.5111616770426433);55.9233131409;1.0;08:46:09:181;0;9;-1.5;2.20950323974082;1.85728250244379;0;0;0;1;1;1;1;0;0;0;0;0;0;0;0;0;();(-2000.0, -2000.0);
08:46:09:198;08:46:09:182;1448480763.78;(0.41738138198852537, 0.5109638214111328);55.8898849487;1.0;08:46:09:198;0;4;-1.5;2.26829268292683;1.46627565982405;0;0;0;1;1;1;1;0;0;0;0;0;0;0;0;0;();(-2000.0, -2000.0);
08:46:09:215;08:46:09:182;1448480763.78;(0.41738138198852537, 0.5109638214111328);55.8898849487;1.0;08:46:09:215;0;15;-1.5;2.22391304347826;1.85728250244379;0;0;0;1;1;1;1;0;0;0;0;0;0;0;0;0;();(-2000.0, -2000.0);
08:46:09:231;08:46:09:226;1448480763.81;(0.4173163414001465, 0.5105989244249132);56.0960617065;1.0;08:46:09:231;0;5;-1.5;2.325;1.66177908113392;0;0;0;1;1;1;1;0;0;0;0;0;0;0;0;0;();(-2000.0, -2000.0);
08:46:09:249;08:46:09:226;1448480763.81;(0.4173163414001465, 0.5105989244249132);56.0960617065;1.0;08:46:09:249;0;10;-1.5;2.24835164835165;1.85728250244379;0;0;0;1;1;1;1;0;0;0;0;0;0;0;0;0;();(-2000.0, -2000.0);
08:46:09:282;08:46:09:267;1448480763.84;(0.4173236608505249, 0.5105748494466146);56.0581665039;1.0;08:46:09:282;0;9;-1.5;2.11801242236025;1.66177908113392;0;0;0;1;1;1;1;0;0;0;0;0;0;0;0;0;();(-2000.0, -2000.0);
08:46:09:299;08:46:09:267;1448480763.84;(0.4173236608505249, 0.5105748494466146);56.0581665039;1.0;08:46:09:299;0;0;-1.5;2.13125;1.46627565982405;0;0;0;1;1;1;1;0;0;0;0;0;0;0;0;0;();(-2000.0, -2000.0);
08:46:09:316;08:46:09:306;1448480763.88;(0.4172121286392212, 0.5103924645317925);56.2698554993;1.0;08:46:09:316;0;10;-1.5;2.22391304347826;1.85728250244379;0;0;0;1;1;1;1;0;0;0;0;0;0;0;0;0;();(-2000.0, -2000.0);
08:46:09:332;08:46:09:306;1448480763.88;(0.4172121286392212, 0.5103924645317925);56.2698554993;1.0;08:46:09:332;0;15;-1.5;2.20950323974082;1.46627565982405;0;0;0;1;1;1;1;0;0;0;0;0;0;0;0;0;();(-2000.0, -2000.0);
08:46:09:349;08:46:09:306;1448480763.88;(0.4172121286392212, 0.5103924645317925);56.2698554993;1.0;08:46:09:349;0;4;-1.5;2.11801242236025;1.46627565982405;0;0;0;1;1;1;1;0;0;0;0;0;0;0;0;0;();(-2000.0, -2000.0);
08:46:09:366;08:46:09:351;1448480763.94;(0.41699976921081544, 0.5104449801974826);56.4770317078;1.0;08:46:09:366;0;15;-1.5;2.1006160164271;1.85728250244379;0;0;0;1;1;1;1;0;0;0;0;0;0;0;0;0;();(-2000.0, -2000.0);
08:46:09:399;08:46:09:390;1448480763.98;(0.4170722961425781, 0.5102351294623482);56.6169013977;1.0;08:46:09:399;0;15;-1.5;2.24835164835165;1.46627565982405;0;0;0;1;1;1;1;0;0;0;0;0;0;0;0;0;();(-2000.0, -2000.0);
08:46:09:416;08:46:09:390;1448480763.98;(0.4170722961425781, 0.5102351294623482);56.6169013977;1.0;08:46:09:416;0;4;-1.5;2.13125;1.46627565982405;0;0;0;1;1;1;1;0;0;0;0;0;0;0;0;0;();(-2000.0, -2000.0);
08:46:09:434;08:46:09:390;1448480763.98;(0.4170722961425781, 0.5102351294623482);56.6169013977;1.0;08:46:09:434;0;10;-1.5;2.14915966386555;2.1505376344086;0;0;0;1;1;1;1;0;0;0;0;0;0;0;0;0;();(-2000.0, -2000.0);
08:46:09:449;08:46:09:434;1448480764.01;(0.4172402620315552, 0.5101765526665581);56.538356781;1.0;08:46:09:449;0;5;-1.5;2.325;1.66177908113392;0;0;0;1;1;1;1;0;0;0;0;0;0;0;0;0;();(-2000.0, -2000.0);
08:46:09:466;08:46:09:434;1448480764.01;(0.4172402620315552, 0.5101765526665581);56.538356781;1.0;08:46:09:466;0;10;-1.5;2.01377952755906;1.46627565982405;0;0;0;1;1;1;1;0;0;0;0;0;0;0;0;0;();(-2000.0, -2000.0);
08:46:09:500;08:46:09:474;1448480764.08;(0.4172964334487915, 0.5100735558403863);56.7525939941;1.0;08:46:09:500;0;10;-1.5;2.0297619047619;1.46627565982405;0;0;0;1;1;1;1;0;0;0;0;0;0;0;0;0;();(-2000.0, -2000.0);
08:46:09:517;08:46:09:514;1448480764.11;(0.4170765161514282, 0.5101326836480035);56.8057289124;1.0;08:46:09:517;0;4;-1.5;2.0625;1.85728250244379;0;0;0;1;1;1;1;0;0;0;0;0;0;0;0;0;();(-2000.0, -2000.0);
08:46:09:534;08:46:09:514;1448480764.11;(0.4170765161514282, 0.5101326836480035);56.8057289124;1.0;08:46:09:534;0;9;-1.5;2.20950323974082;1.46627565982405;0;0;0;1;1;1;1;0;0;0;0;0;0;0;0;0;();(-2000.0, -2000.0);
08:46:09:551;08:46:09:514;1448480764.11;(0.4170765161514282, 0.5101326836480035);56.8057289124;1.0;08:46:09:551;0;5;-1.5;2.24835164835165;1.46627565982405;0;0;0;1;1;1;1;0;0;0;0;0;0;0;0;0;();(-2000.0, -2000.0);
08:46:09:567;08:46:09:558;1448480764.14;(0.41689879894256593, 0.5102316114637586);56.7950973511;1.0;08:46:09:567;0;10;-1.5;2.26829268292683;1.46627565982405;0;0;0;1;1;1;1;0;0;0;0;0;0;0;0;0;();(-2000.0, -2000.0);
08:46:09:602;08:46:09:598;1448480764.18;(0.4170271635055542, 0.5101643880208333);56.4527511597;1.0;08:46:09:602;0;9;-1.5;2.27839643652561;1.56402737047898;0;0;0;1;1;1;1;0;0;0;0;0;0;0;0;0;();(-2000.0, -2000.0);
08:46:09:617;08:46:09:598;1448480764.18;(0.4170271635055542, 0.5101643880208333);56.4527511597;1.0;08:46:09:617;0;4;-1.5;2.28348214285714;1.46627565982405;0;0;0;1;1;1;1;0;0;0;0;0;0;0;0;0;();(-2000.0, -2000.0);
08:46:09:634;08:46:09:598;1448480764.18;(0.4170271635055542, 0.5101643880208333);56.4527511597;1.0;08:46:09:634;0;10;-1.5;2.28348214285714;1.66177908113392;0;0;0;1;1;1;1;0;0;0;0;0;0;0;0;0;();(-2000.0, -2000.0);
08:46:09:651;08:46:09:638;1448480764.21;(0.4170912981033325, 0.5102390289306641);56.6295852661;1.0;08:46:09:651;0;4;-1.5;2.05835010060362;1.85728250244379;0;0;0;1;1;1;1;0;0;0;0;0;0;0;0;0;();(-2000.0, -2000.0);
08:46:09:668;08:46:09:638;1448480764.21;(0.4170912981033325, 0.5102390289306641);56.6295852661;1.0;08:46:09:668;0;10;-1.5;2.11801242236025;1.85728250244379;0;0;0;1;1;1;1;0;0;0;0;0;0;0;0;0;();(-2000.0, -2000.0);
08:46:09:701;08:46:09:683;1448480764.28;(0.4173269271850586, 0.5104447682698567);56.0428237915;1.0;08:46:09:701;0;9;-1.5;2.13125;1.46627565982405;0;0;0;1;1;1;1;0;0;0;0;0;0;0;0;0;();(-2000.0, -2000.0);
08:46:09:718;08:46:09:683;1448480764.28;(0.4173269271850586, 0.5104447682698567);56.0428237915;1.0;08:46:09:718;0;15;-1.5;2.14915966386555;1.46627565982405;0;0;0;1;1;1;1;0;0;0;0;0;0;0;0;0;();(-2000.0, -2000.0);
08:46:09:735;08:46:09:722;1448480764.31;(0.4170747995376587, 0.5109466552734375);56.0228919983;1.0;08:46:09:735;0;4;-1.5;1.98640776699029;1.46627565982405;0;0;0;1;1;1;1;0;0;0;0;0;0;0;0;0;();(-2000.0, -2000.0);
08:46:09:751;08:46:09:722;1448480764.31;(0.4170747995376587, 0.5109466552734375);56.0228919983;1.0;08:46:09:751;0;15;-1.5;2.0297619047619;1.46627565982405;0;0;0;1;1;1;1;0;0;0;0;0;0;0;0;0;();(-2000.0, -2000.0);
08:46:09:769;08:46:09:767;1448480764.34;(0.4172008275985718, 0.5107602861192491);55.9230041504;1.0;08:46:09:769;0;9;-1.5;1.90858208955224;1.36852394916911;0;0;0;1;1;1;1;0;0;0;0;0;0;0;0;0;();(-2000.0, -2000.0);
08:46:09:786;08:46:09:767;1448480764.34;(0.4172008275985718, 0.5107602861192491);55.9230041504;1.0;08:46:09:786;0;0;-1.5;1.85662431941924;1.17302052785924;0;0;0;1;1;1;1;0;0;0;0;0;0;0;0;0;();(-2000.0, -2000.0);
08:46:09:818;08:46:09:810;1448480764.38;(0.49416799545288087, 0.8518251948886447);30.1476688385;0.929927294785;08:46:09:818;0;0;-1.5;2.00588235294118;1.46627565982405;0;0;0;1;1;1;1;0;0;0;0;0;0;0;0;0;();(-2000.0, -2000.0);
08:46:09:836;08:46:09:810;1448480764.38;(0.49416799545288087, 0.8518251948886447);30.1476688385;0.929927294785;08:46:09:836;0;4;-1.5;2.20950323974082;1.46627565982405;0;0;0;1;1;1;1;0;0;0;0;0;0;0;0;0;();(-2000.0, -2000.0);
08:46:09:852;08:46:09:851;1448480764.41;(0.4231943845748901, 0.5532462226019965);55.1997261047;1.0;08:46:09:852;0;0;-1.5;2.19057815845824;1.46627565982405;0;0;0;1;1;1;1;0;0;0;0;0;0;0;0;0;();(-2000.0, -2000.0);
08:46:09:869;08:46:09:851;1448480764.41;(0.4231943845748901, 0.5532462226019965);55.1997261047;1.0;08:46:09:869;0;5;-1.5;2.28348214285714;2.34604105571848;0;0;0;1;1;1;1;0;0;0;0;0;0;0;0;0;();(-2000.0, -2000.0);
08:46:09:886;08:46:09:851;1448480764.41;(0.4231943845748901, 0.5532462226019965);55.1997261047;1.0;08:46:09:886;0;15;-1.5;2.23851203501094;1.85728250244379;0;0;0;1;1;1;1;0;0;0;0;0;0;0;0;0;();(-2000.0, -2000.0);
08:46:09:919;08:46:09:890;1448480764.48;(0.4279685735702515, 0.5549972958034939);48.8668479919;0.637636464848;08:46:09:919;0;4;-1.5;2.39018691588785;1.66177908113392;0;0;0;1;1;1;1;0;0;0;0;0;0;0;0;0;();(-2000.0, -2000.0);
08:46:09:937;08:46:09:934;1448480764.51;(0, 0);0;0;08:46:09:937;0;4;-1.5;2.22391304347826;1.46627565982405;0;0;0;1;1;1;1;0;0;0;0;0;0;0;0;0;();(-2000.0, -2000.0);
08:46:09:954;08:46:09:934;1448480764.51;(0, 0);0;0;08:46:09:954;0;10;-1.5;2.30405405405405;1.66177908113392;0;0;0;1;1;1;1;0;0;0;0;0;0;0;0;0;();(-2000.0, -2000.0);
08:46:09:970;08:46:09:934;1448480764.51;(0, 0);0;0;08:46:09:970;0;5;-1.5;2.07085020242915;1.46627565982405;0;0;0;1;1;1;1;0;0;0;0;0;0;0;0;0;();(-2000.0, -2000.0);
08:46:09:986;08:46:09:974;1448480764.54;(0.30173208713531496, 0.4766212463378906);26.7769737244;0.636494545476;08:46:09:986;0;10;-1.5;1.99415204678363;1.36852394916911;0;0;0;1;1;1;1;0;0;0;0;0;0;0;0;0;();(-2000.0, -2000.0);
08:46:10:020;08:46:10:018;1448480764.58;(0, 0);0;0;08:46:10:020;0;9;-1.5;2.28348214285714;1.85728250244379;0;0;0;1;1;1;1;0;0;0;0;0;0;0;0;0;();(-2000.0, -2000.0);
08:46:10:036;08:46:10:018;1448480764.58;(0, 0);0;0;08:46:10:036;0;15;-1.5;2.0625;1.46627565982405;0;0;0;1;1;1;1;0;0;0;0;0;0;0;0;0;();(-2000.0, -2000.0);
08:46:10:053;08:46:10:018;1448480764.58;(0, 0);0;0;08:46:10:053;0;10;-1.5;2.23851203501094;1.46627565982405;0;0;0;1;1;1;1;0;0;0;0;0;0;0;0;0;();(-2000.0, -2000.0);
08:46:10:070;08:46:10:058;1448480764.64;(0.42505335807800293, 0.5594183603922527);53.9603996277;1.0;08:46:10:070;0;6;-1.5;2.1006160164271;1.46627565982405;0;0;0;1;1;1;1;0;0;0;0;0;0;0;0;0;();(-2000.0, -2000.0);
08:46:10:087;08:46:10:058;1448480764.64;(0.42505335807800293, 0.5594183603922527);53.9603996277;1.0;08:46:10:087;0;4;-1.5;2.11801242236025;1.46627565982405;0;0;0;1;1;1;1;0;0;0;0;0;0;0;0;0;();(-2000.0, -2000.0);
08:46:10:120;08:46:10:098;1448480764.68;(0.4255190134048462, 0.5578255547417534);54.1479530334;1.0;08:46:10:120;0;10;-1.5;2.22391304347826;1.46627565982405;0;0;0;1;1;1;1;0;0;0;0;0;0;0;0;0;();(-2000.0, -2000.0);
08:46:10:137;08:46:10:098;1448480764.68;(0.4255190134048462, 0.5578255547417534);54.1479530334;1.0;08:46:10:137;0;15;-1.5;2.24835164835165;1.46627565982405;0;0;0;1;1;1;1;0;0;0;0;0;0;0;0;0;();(-2000.0, -2000.0);
08:46:10:154;08:46:10:142;1448480764.74;(0.4261345863342285, 0.5538144853379992);54.2850151062;1.0;08:46:10:154;0;4;-1.5;2.24835164835165;1.46627565982405;0;0;0;1;1;1;1;0;0;0;0;0;0;0;0;0;();(-2000.0, -2000.0);
08:46:10:171;08:46:10:142;1448480764.74;(0.4261345863342285, 0.5538144853379992);54.2850151062;1.0;08:46:10:171;0;15;-1.5;2.19057815845824;1.46627565982405;0;0;0;1;1;1;1;0;0;0;0;0;0;0;0;0;();(-2000.0, -2000.0);
08:46:10:187;08:46:10:182;1448480764.78;(0.42634475231170654, 0.5515336778428819);54.18983078;1.0;08:46:10:187;0;5;-1.5;2.21428571428571;1.46627565982405;0;0;0;1;1;1;1;0;0;0;0;0;0;0;0;0;();(-2000.0, -2000.0);
08:46:10:221;08:46:10:182;1448480764.78;(0.42634475231170654, 0.5515336778428819);54.18983078;1.0;08:46:10:221;0;4;-1.5;2.14915966386555;1.66177908113392;0;0;0;1;1;1;1;0;0;0;0;0;0;0;0;0;();(-2000.0, -2000.0);
08:46:10:238;08:46:10:222;1448480764.81;(0.4265439987182617, 0.5495552910698784);54.1463623047;1.0;08:46:10:238;0;10;-1.5;1.92655367231638;1.36852394916911;0;0;0;1;1;1;1;0;0;0;0;0;0;0;0;0;();(-2000.0, -2000.0);
08:46:10:254;08:46:10:222;1448480764.81;(0.4265439987182617, 0.5495552910698784);54.1463623047;1.0;08:46:10:254;0;5;-1.5;2.1006160164271;1.66177908113392;0;0;0;1;1;1;1;0;0;0;0;0;0;0;0;0;();(-2000.0, -2000.0);
08:46:10:272;08:46:10:266;1448480764.84;(0.42650618553161623, 0.5475863138834636);54.3483734131;1.0;08:46:10:272;0;10;-1.5;2.28348214285714;1.66177908113392;0;0;0;1;1;1;1;0;0;0;0;0;0;0;0;0;();(-2000.0, -2000.0);
08:46:10:289;08:46:10:266;1448480764.84;(0.42650618553161623, 0.5475863138834636);54.3483734131;1.0;08:46:10:288;0;15;-1.5;2.35172413793103;1.66177908113392;0;0;0;1;1;1;1;0;0;0;0;0;0;0;0;0;();(-2000.0, -2000.0);
08:46:10:321;08:46:10:306;1448480764.88;(0.4263652563095093, 0.5456080118815104);54.3708343506;1.0;08:46:10:321;0;13;-1.5;2.24835164835165;1.46627565982405;0;0;0;1;1;1;1;0;0;0;0;0;0;0;0;0;();(-2000.0, -2000.0);
08:46:10:338;08:46:10:306;1448480764.88;(0.4263652563095093, 0.5456080118815104);54.3708343506;1.0;08:46:10:338;0;9;-1.5;2.36258660508083;1.66177908113392;0;0;0;1;1;1;1;0;0;0;0;0;0;0;0;0;();(-2000.0, -2000.0);
08:46:10:355;08:46:10:346;1448480764.94;(0.4259206533432007, 0.54183349609375);55.0266799927;1.0;08:46:10:355;0;15;-1.5;1.87020109689214;1.17302052785924;0;0;0;1;1;1;1;0;0;0;0;0;0;0;0;0;();(-2000.0, -2000.0);
08:46:10:372;08:46:10:346;1448480764.94;(0.4259206533432007, 0.54183349609375);55.0266799927;1.0;08:46:10:372;0;10;-1.5;1.77913043478261;1.17302052785924;0;0;0;1;1;1;1;0;0;0;0;0;0;0;0;0;();(-2000.0, -2000.0);
08:46:10:389;08:46:10:346;1448480764.94;(0.4259206533432007, 0.54183349609375);55.0266799927;1.0;08:46:10:389;0;4;-1.5;1.71932773109244;1.17302052785924;0;0;0;1;1;1;1;0;0;0;0;0;0;0;0;0;();(-2000.0, -2000.0);
08:46:10:423;08:46:10:390;1448480764.98;(0.4185148239135742, 0.5525098164876302);55.2958335876;1.0;08:46:10:423;0;0;-1.5;2.07926829268293;1.66177908113392;0;0;0;1;1;1;1;0;0;0;0;0;0;0;0;0;();(-2000.0, -2000.0);
08:46:10:440;08:46:10:430;1448480765.01;(0.4185917377471924, 0.5594523535834419);55.4183349609;1.0;08:46:10:440;0;10;-1.5;2.28348214285714;1.85728250244379;0;0;0;1;1;1;1;0;0;0;0;0;0;0;0;0;();(-2000.0, -2000.0);
08:46:10:456;08:46:10:430;1448480765.01;(0.4185917377471924, 0.5594523535834419);55.4183349609;1.0;08:46:10:456;0;15;-1.5;2.28348214285714;1.66177908113392;0;0;0;1;1;1;1;0;0;0;0;0;0;0;0;0;();(-2000.0, -2000.0);
08:46:10:473;08:46:10:430;1448480765.01;(0.4185917377471924, 0.5594523535834419);55.4183349609;1.0;08:46:10:473;0;4;-1.5;2.20950323974082;1.85728250244379;0;0;0;1;1;1;1;0;0;0;0;0;0;0;0;0;();(-2000.0, -2000.0);
08:46:10:489;08:46:10:474;1448480765.04;(0.41829524040222166, 0.5575660705566406);56.0342445374;1.0;08:46:10:489;0;15;-1.5;2.24835164835165;1.46627565982405;0;0;0;1;1;1;1;0;0;0;0;0;0;0;0;0;();(-2000.0, -2000.0);
08:46:10:506;08:46:10:474;1448480765.04;(0.41829524040222166, 0.5575660705566406);56.0342445374;1.0;08:46:10:506;0;5;-1.5;2.27839643652561;2.34604105571848;0;0;0;1;1;1;1;0;0;0;0;0;0;0;0;0;();(-2000.0, -2000.0);
08:46:10:541;08:46:10:514;1448480765.11;(0.4181494951248169, 0.5548475477430556);56.3681335449;1.0;08:46:10:541;0;4;-1.5;2.07926829268293;1.46627565982405;0;0;0;1;1;1;1;0;0;0;0;0;0;0;0;0;();(-2000.0, -2000.0);
08:46:10:556;08:46:10:554;1448480765.14;(0.4178525686264038, 0.5542488521999783);56.6363830566;1.0;08:46:10:556;0;15;-1.5;2.17659574468085;1.46627565982405;0;0;0;1;1;1;1;0;0;0;0;0;0;0;0;0;();(-2000.0, -2000.0);
08:46:10:573;08:46:10:554;1448480765.14;(0.4178525686264038, 0.5542488521999783);56.6363830566;1.0;08:46:10:573;0;5;-1.5;2.14915966386555;1.66177908113392;0;0;0;1;1;1;1;0;0;0;0;0;0;0;0;0;();(-2000.0, -2000.0);
08:46:10:590;08:46:10:554;1448480765.14;(0.4178525686264038, 0.5542488521999783);56.6363830566;1.0;08:46:10:590;0;10;-1.5;2.21428571428571;1.46627565982405;0;0;0;1;1;1;1;0;0;0;0;0;0;0;0;0;();(-2000.0, -2000.0);
08:46:10:608;08:46:10:598;1448480765.18;(0.41834316253662107, 0.5549523247612846);56.5344963074;1.0;08:46:10:608;0;5;-1.5;2.01377952755906;1.46627565982405;0;0;0;1;1;1;1;0;0;0;0;0;0;0;0;0;();(-2000.0, -2000.0);
08:46:10:640;08:46:10:639;1448480765.21;(0.4184821605682373, 0.5606927235921224);56.1686782837;1.0;08:46:10:640;0;4;-1.5;1.96353166986564;1.36852394916911;0;0;0;1;1;1;1;0;0;0;0;0;0;0;0;0;();(-2000.0, -2000.0);
08:46:10:658;08:46:10:639;1448480765.21;(0.4184821605682373, 0.5606927235921224);56.1686782837;1.0;08:46:10:658;0;9;-1.5;1.95229007633588;1.36852394916911;0;0;0;1;1;1;1;0;0;0;0;0;0;0;0;0;();(-2000.0, -2000.0);
08:46:10:673;08:46:10:639;1448480765.21;(0.4184821605682373, 0.5606927235921224);56.1686782837;1.0;08:46:10:673;0;5;-1.5;2.01377952755906;1.36852394916911;0;0;0;1;1;1;1;0;0;0;0;0;0;0;0;0;();(-2000.0, -2000.0);
08:46:10:691;08:46:10:678;1448480765.28;(0.41885478496551515, 0.5585165235731337);56.1792106628;1.0;08:46:10:691;0;10;-1.5;2.0625;1.46627565982405;0;0;0;1;1;1;1;0;0;0;0;0;0;0;0;0;();(-2000.0, -2000.0);
08:46:10:707;08:46:10:678;1448480765.28;(0.41885478496551515, 0.5585165235731337);56.1792106628;1.0;08:46:10:707;0;15;-1.5;2.24835164835165;1.85728250244379;0;0;0;1;1;1;1;0;0;0;0;0;0;0;0;0;();(-2000.0, -2000.0);
08:46:10:742;08:46:10:722;1448480765.31;(0.4189975500106812, 0.5569596184624566);56.1650772095;1.0;08:46:10:742;0;0;-1.5;2.22391304347826;1.46627565982405;0;0;0;1;1;1;1;0;0;0;0;0;0;0;0;0;();(-2000.0, -2000.0);
08:46:10:758;08:46:10:722;1448480765.31;(0.4189975500106812, 0.5569596184624566);56.1650772095;1.0;08:46:10:758;0;5;-1.5;2.325;1.66177908113392;0;0;0;1;1;1;1;0;0;0;0;0;0;0;0;0;();(-2000.0, -2000.0);
08:46:10:776;08:46:10:762;1448480765.34;(0.4190807580947876, 0.5557799021402995);55.8869895935;1.0;08:46:10:776;0;15;-1.5;2.44152744630072;1.85728250244379;0;0;0;1;1;1;1;0;0;0;0;0;0;0;0;0;();(-2000.0, -2000.0);
08:46:10:792;08:46:10:762;1448480765.34;(0.4190807580947876, 0.5557799021402995);55.8869895935;1.0;08:46:10:792;0;10;-1.5;2.23851203501094;1.46627565982405;0;0;0;1;1;1;1;0;0;0;0;0;0;0;0;0;();(-2000.0, -2000.0);
08:46:10:808;08:46:10:806;1448480765.38;(0.4192026138305664, 0.5560434129503038);56.0926589966;1.0;08:46:10:808;0;15;-1.5;2.325;1.85728250244379;0;0;0;1;1;1;1;0;0;0;0;0;0;0;0;0;();(-2000.0, -2000.0);
08:46:10:841;08:46:10:806;1448480765.38;(0.4192026138305664, 0.5560434129503038);56.0926589966;1.0;08:46:10:841;0;15;-1.5;2.27839643652561;1.46627565982405;0;0;0;1;1;1;1;0;0;0;0;0;0;0;0;0;();(-2000.0, -2000.0);
08:46:10:858;08:46:10:846;1448480765.44;(0.41961188316345216, 0.5587491353352865);56.4235839844;1.0;08:46:10:858;0;4;-1.5;2.13125;1.46627565982405;0;0;0;1;1;1;1;0;0;0;0;0;0;0;0;0;();(-2000.0, -2000.0);
08:46:10:875;08:46:10:846;1448480765.44;(0.41961188316345216, 0.5587491353352865);56.4235839844;1.0;08:46:10:875;0;15;-1.5;2.27839643652561;2.34604105571848;0;0;0;1;1;1;1;0;0;0;0;0;0;0;0;0;();(-2000.0, -2000.0);
08:46:10:893;08:46:10:846;1448480765.44;(0.41961188316345216, 0.5587491353352865);56.4235839844;1.0;08:46:10:893;0;5;-1.5;2.39018691588785;1.66177908113392;0;0;0;1;1;1;1;0;0;0;0;0;0;0;0;0;();(-2000.0, -2000.0);
08:46:10:908;08:46:10:846;1448480765.44;(0.41961188316345216, 0.5587491353352865);56.4235839844;1.0;08:46:10:908;0;10;-1.5;2.325;1.66177908113392;0;0;0;1;1;1;1;0;0;0;0;0;0;0;0;0;();(-2000.0, -2000.0);
08:46:10:942;08:46:10:930;1448480765.51;(0.4190066814422607, 0.565312491522895);56.4723167419;1.0;08:46:10:942;0;15;-1.5;2.24835164835165;1.46627565982405;0;0;0;1;1;1;1;0;0;0;0;0;0;0;0;0;();(-2000.0, -2000.0);
08:46:10:959;08:46:10:930;1448480765.51;(0.4190066814422607, 0.565312491522895);56.4723167419;1.0;08:46:10:959;0;4;-1.5;2.20950323974082;1.46627565982405;0;0;0;1;1;1;1;0;0;0;0;0;0;0;0;0;();(-2000.0, -2000.0);
08:46:10:976;08:46:10:970;1448480765.54;(0.41945044994354247, 0.5663505130343967);56.5884933472;1.0;08:46:10:976;0;10;-1.5;2.35172413793103;1.66177908113392;0;0;0;1;1;1;1;0;0;0;0;0;0;0;0;0;();(-2000.0, -2000.0);
08:46:10:993;08:46:10:970;1448480765.54;(0.41945044994354247, 0.5663505130343967);56.5884933472;1.0;08:46:10:993;0;5;-1.5;2.20950323974082;1.46627565982405;0;0;0;1;1;1;1;0;0;0;0;0;0;0;0;0;();(-2000.0, -2000.0);
08:46:11:009;08:46:10:970;1448480765.54;(0.41945044994354247, 0.5663505130343967);56.5884933472;1.0;08:46:11:009;0;10;-1.5;2.11801242236025;1.66177908113392;0;0;0;1;1;1;1;0;0;0;0;0;0;0;0;0;();(-2000.0, -2000.0);
08:46:11:026;08:46:11:010;1448480765.58;(0.4196983575820923, 0.5664426167805989);56.8605422974;1.0;08:46:11:026;0;15;-1.5;2.17659574468085;1.46627565982405;0;0;0;1;1;1;1;0;0;0;0;0;0;0;0;0;();(-2000.0, -2000.0);
08:46:11:059;08:46:11:054;1448480765.64;(0.4197652816772461, 0.5649442036946615);57.1423873901;1.0;08:46:11:059;0;0;-1.5;2.0297619047619;1.46627565982405;0;0;0;1;1;1;1;0;0;0;0;0;0;0;0;0;();(-2000.0, -2000.0);
08:46:11:076;08:46:11:054;1448480765.64;(0.4197652816772461, 0.5649442036946615);57.1423873901;1.0;08:46:11:076;0;10;-1.5;2.00195694716243;1.46627565982405;0;0;0;1;1;1;1;0;0;0;0;0;0;0;0;0;();(-2000.0, -2000.0);
08:46:11:093;08:46:11:054;1448480765.64;(0.4197652816772461, 0.5649442036946615);57.1423873901;1.0;08:46:11:093;0;15;-1.5;2.13125;1.46627565982405;0;0;0;1;1;1;1;0;0;0;0;0;0;0;0;0;();(-2000.0, -2000.0);
08:46:11:110;08:46:11:094;1448480765.68;(0.4197753667831421, 0.5648475646972656);56.9794616699;1.0;08:46:11:110;0;4;-1.5;2.31972789115646;1.66177908113392;0;0;0;1;1;1;1;0;0;0;0;0;0;0;0;0;();(-2000.0, -2000.0);
08:46:11:127;08:46:11:094;1448480765.68;(0.4197753667831421, 0.5648475646972656);56.9794616699;1.0;08:46:11:127;0;15;-1.5;2.11801242236025;1.66177908113392;0;0;0;1;1;1;1;0;0;0;0;0;0;0;0;0;();(-2000.0, -2000.0);
08:46:11:160;08:46:11:138;1448480765.71;(0.4194782733917236, 0.5652598910861545);57.1697502136;1.0;08:46:11:160;0;15;-1.5;2.19057815845824;1.46627565982405;0;0;0;1;1;1;1;0;0;0;0;0;0;0;0;0;();(-2000.0, -2000.0);
08:46:11:177;08:46:11:138;1448480765.71;(0.4194782733917236, 0.5652598910861545);57.1697502136;1.0;08:46:11:177;0;10;-1.5;2.20950323974082;2.1505376344086;0;0;0;1;1;1;1;0;0;0;0;0;0;0;0;0;();(-2000.0, -2000.0);
08:46:11:194;08:46:11:178;1448480765.78;(0.4189174652099609, 0.5674950069851346);57.0969581604;1.0;08:46:11:194;0;15;-1.5;1.88745387453875;1.46627565982405;0;0;0;1;1;1;1;0;0;0;0;0;0;0;0;0;();(-2000.0, -2000.0);
08:46:11:210;08:46:11:178;1448480765.78;(0.4189174652099609, 0.5674950069851346);57.0969581604;1.0;08:46:11:210;0;5;-1.5;1.90858208955224;1.17302052785924;0;0;0;1;1;1;1;0;0;0;0;0;0;0;0;0;();(-2000.0, -2000.0);
08:46:11:227;08:46:11:218;1448480765.81;(0.41878674030303953, 0.5684324476453992);57.1119918823;1.0;08:46:11:227;0;5;-1.5;2.1006160164271;1.46627565982405;0;0;0;1;1;1;1;0;0;0;0;0;0;0;0;0;();(-2000.0, -2000.0);
08:46:11:261;08:46:11:218;1448480765.81;(0.41878674030303953, 0.5684324476453992);57.1119918823;1.0;08:46:11:261;0;4;-1.5;2.13125;1.46627565982405;0;0;0;1;1;1;1;0;0;0;0;0;0;0;0;0;();(-2000.0, -2000.0);
08:46:11:278;08:46:11:262;1448480765.84;(0.41884915828704833, 0.5687263912624783);57.0072059631;1.0;08:46:11:278;0;4;-1.5;2.26829268292683;1.46627565982405;0;0;0;1;1;1;1;0;0;0;0;0;0;0;0;0;();(-2000.0, -2000.0);
08:46:11:294;08:46:11:262;1448480765.84;(0.41884915828704833, 0.5687263912624783);57.0072059631;1.0;08:46:11:294;0;9;-1.5;2.1006160164271;1.46627565982405;0;0;0;1;1;1;1;0;0;0;0;0;0;0;0;0;();(-2000.0, -2000.0);
08:46:11:311;08:46:11:302;1448480765.88;(0.41846141815185545, 0.5676873948838976);57.0212593079;1.0;08:46:11:311;0;5;-1.5;2.16737288135593;1.66177908113392;0;0;0;1;1;1;1;0;0;0;0;0;0;0;0;0;();(-2000.0, -2000.0);
08:46:11:328;08:46:11:302;1448480765.88;(0.41846141815185545, 0.5676873948838976);57.0212593079;1.0;08:46:11:328;0;15;-1.5;2.20950323974082;1.46627565982405;0;0;0;1;1;1;1;0;0;0;0;0;0;0;0;0;();(-2000.0, -2000.0);
08:46:11:362;08:46:11:342;1448480765.91;(0.4176189422607422, 0.5616844601101345);55.8116416931;0.813944938651;08:46:11:362;0;9;-1.5;2.1006160164271;1.46627565982405;0;0;0;1;1;1;1;0;0;0;0;0;0;0;0;0;();(-2000.0, -2000.0);
08:46:11:378;08:46:11:342;1448480765.91;(0.4176189422607422, 0.5616844601101345);55.8116416931;0.813944938651;08:46:11:378;0;4;-1.5;2.26829268292683;1.46627565982405;0;0;0;1;1;1;1;0;0;0;0;0;0;0;0;0;();(-2000.0, -2000.0);
08:46:11:394;08:46:11:386;1448480765.98;(0, 0);0;0;08:46:11:394;0;10;-1.5;2.20950323974082;1.46627565982405;0;0;0;1;1;1;1;0;0;0;0;0;0;0;0;0;();(-2000.0, -2000.0);
08:46:11:412;08:46:11:386;1448480765.98;(0, 0);0;0;08:46:11:412;0;15;-1.5;2.10493827160494;1.46627565982405;0;0;0;1;1;1;1;0;0;0;0;0;0;0;0;0;();(-2000.0, -2000.0);
08:46:11:429;08:46:11:426;1448480766.01;(0.3868705272674561, 0.6003323872884114);27.8658847809;0.777501960597;08:46:11:429;0;10;-1.5;2.1006160164271;1.46627565982405;0;0;0;1;1;1;1;0;0;0;0;0;0;0;0;0;();(-2000.0, -2000.0);
08:46:11:462;08:46:11:426;1448480766.01;(0.3868705272674561, 0.6003323872884114);27.8658847809;0.777501960597;08:46:11:462;0;10;-1.5;2.1006160164271;1.46627565982405;0;0;0;1;1;1;1;0;0;0;0;0;0;0;0;0;();(-2000.0, -2000.0);
08:46:11:479;08:46:11:466;1448480766.04;(0.4221012830734253, 0.5652358161078559);55.9557533264;0.900439981066;08:46:11:479;0;0;-1.5;1.97109826589595;1.66177908113392;0;0;0;1;1;1;1;0;0;0;0;0;0;0;0;0;();(-2000.0, -2000.0);
08:46:11:496;08:46:11:466;1448480766.04;(0.4221012830734253, 0.5652358161078559);55.9557533264;0.900439981066;08:46:11:496;0;11;-1.5;2.0625;1.46627565982405;0;0;0;1;1;1;1;0;0;0;0;0;0;0;0;0;();(-2000.0, -2000.0);
08:46:11:513;08:46:11:510;1448480766.11;(0.4220183610916138, 0.5699762980143229);57.609210968;1.0;08:46:11:513;0;15;-1.5;2.1006160164271;1.66177908113392;0;0;0;1;1;1;1;0;0;0;0;0;0;0;0;0;();(-2000.0, -2000.0);
08:46:11:529;08:46:11:510;1448480766.11;(0.4220183610916138, 0.5699762980143229);57.609210968;1.0;08:46:11:529;0;9;-1.5;2.07926829268293;1.46627565982405;0;0;0;1;1;1;1;0;0;0;0;0;0;0;0;0;();(-2000.0, -2000.0);
08:46:11:547;08:46:11:510;1448480766.11;(0.4220183610916138, 0.5699762980143229);57.609210968;1.0;08:46:11:547;0;0;-1.5;2.20950323974082;1.46627565982405;0;0;0;1;1;1;1;0;0;0;0;0;0;0;0;0;();(-2000.0, -2000.0);
08:46:11:579;08:46:11:550;1448480766.14;(0.42270536422729493, 0.5696238623725043);57.3534584045;1.0;08:46:11:579;0;15;-1.5;2.325;1.66177908113392;0;0;0;1;1;1;1;0;0;0;0;0;0;0;0;0;();(-2000.0, -2000.0);
08:46:11:596;08:46:11:594;1448480766.18;(0.42318294048309324, 0.5688292609320746);57.6249008179;1.0;08:46:11:596;0;4;-1.5;2.25330396475771;1.46627565982405;0;0;0;1;1;1;1;0;0;0;0;0;0;0;0;0;();(-2000.0, -2000.0);
08:46:11:613;08:46:11:594;1448480766.18;(0.42318294048309324, 0.5688292609320746);57.6249008179;1.0;08:46:11:613;0;15;-1.5;2.21428571428571;1.85728250244379;0;0;0;1;1;1;1;0;0;0;0;0;0;0;0;0;();(-2000.0, -2000.0);
08:46:11:629;08:46:11:594;1448480766.18;(0.42318294048309324, 0.5688292609320746);57.6249008179;1.0;08:46:11:629;0;10;-1.5;2.10493827160494;1.46627565982405;0;0;0;1;1;1;1;0;0;0;0;0;0;0;0;0;();(-2000.0, -2000.0);
08:46:11:646;08:46:11:634;1448480766.21;(0.42386934757232664, 0.5679233127170139);57.6301383972;1.0;08:46:11:646;0;15;-1.5;2.28348214285714;1.56402737047898;0;0;0;1;1;1;1;0;0;0;0;0;0;0;0;0;();(-2000.0, -2000.0);
08:46:11:680;08:46:11:674;1448480766.28;(0.4250751256942749, 0.5647397783067492);57.5214920044;1.0;08:46:11:680;0;9;-1.5;2.19057815845824;1.85728250244379;0;0;0;1;1;1;1;0;0;0;0;0;0;0;0;0;();(-2000.0, -2000.0);
08:46:11:697;08:46:11:674;1448480766.28;(0.4250751256942749, 0.5647397783067492);57.5214920044;1.0;08:46:11:697;0;0;-1.5;2.14915966386555;1.46627565982405;0;0;0;1;1;1;1;0;0;0;0;0;0;0;0;0;();(-2000.0, -2000.0);
08:46:11:713;08:46:11:674;1448480766.28;(0.4250751256942749, 0.5647397783067492);57.5214920044;1.0;08:46:11:713;0;10;-1.5;2.28348214285714;1.85728250244379;0;0;0;1;1;1;1;0;0;0;0;0;0;0;0;0;();(-2000.0, -2000.0);
08:46:11:731;08:46:11:718;1448480766.31;(0.4257087707519531, 0.5640870836046007);57.6255226135;1.0;08:46:11:731;0;4;-1.5;2.11801242236025;1.46627565982405;0;0;0;1;1;1;1;0;0;0;0;0;0;0;0;0;();(-2000.0, -2000.0);
08:46:11:747;08:46:11:718;1448480766.31;(0.4257087707519531, 0.5640870836046007);57.6255226135;1.0;08:46:11:747;0;9;-1.5;2.16279069767442;1.46627565982405;0;0;0;1;1;1;1;0;0;0;0;0;0;0;0;0;();(-2000.0, -2000.0);
08:46:11:782;08:46:11:758;1448480766.34;(0.4247795581817627, 0.5629741668701171);57.5648765564;0.879085344982;08:46:11:782;0;5;-1.5;2.20950323974082;1.46627565982405;0;0;0;1;1;1;1;0;0;0;0;0;0;0;0;0;();(-2000.0, -2000.0);
08:46:11:797;08:46:11:758;1448480766.34;(0.4247795581817627, 0.5629741668701171);57.5648765564;0.879085344982;08:46:11:797;0;15;-1.5;2.20950323974082;1.46627565982405;0;0;0;1;1;1;1;0;0;0;0;0;0;0;0;0;();(-2000.0, -2000.0);
08:46:11:814;08:46:11:798;1448480766.38;(0.40626647472381594, 0.5372247483995225);58.1822433472;1.0;08:46:11:814;0;10;-1.5;2.20950323974082;1.85728250244379;0;0;0;1;1;1;1;0;0;0;0;0;0;0;0;0;();(-2000.0, -2000.0);
08:46:11:831;08:46:11:798;1448480766.38;(0.40626647472381594, 0.5372247483995225);58.1822433472;1.0;08:46:11:831;0;15;-1.5;2.28348214285714;1.85728250244379;0;0;0;1;1;1;1;0;0;0;0;0;0;0;0;0;();(-2000.0, -2000.0);
08:46:11:848;08:46:11:842;1448480766.44;(0.40487017631530764, 0.5381696912977431);58.5117340088;1.0;08:46:11:848;0;9;-1.5;2.0501002004008;1.46627565982405;0;0;0;1;1;1;1;0;0;0;0;0;0;0;0;0;();(-2000.0, -2000.0);
08:46:11:881;08:46:11:842;1448480766.44;(0.40487017631530764, 0.5381696912977431);58.5117340088;1.0;08:46:11:881;0;4;-1.5;2.19057815845824;1.85728250244379;0;0;0;1;1;1;1;0;0;0;0;0;0;0;0;0;();(-2000.0, -2000.0);
08:46:11:898;08:46:11:882;1448480766.48;(0.40472161769866943, 0.5372883690728081);58.8701248169;1.0;08:46:11:898;0;10;-1.5;2.19057815845824;1.46627565982405;0;0;0;1;1;1;1;0;0;0;0;0;0;0;0;0;();(-2000.0, -2000.0);
08:46:11:914;08:46:11:882;1448480766.48;(0.40472161769866943, 0.5372883690728081);58.8701248169;1.0;08:46:11:914;0;4;-1.5;2.19057815845824;1.46627565982405;0;0;0;1;1;1;1;0;0;0;0;0;0;0;0;0;();(-2000.0, -2000.0);
08:46:11:931;08:46:11:926;1448480766.51;(0.4046493053436279, 0.535638427734375);58.644618988;1.0;08:46:11:931;0;9;-1.5;2.0625;1.46627565982405;0;0;0;1;1;1;1;0;0;0;0;0;0;0;0;0;();(-2000.0, -2000.0);
08:46:11:948;08:46:11:926;1448480766.51;(0.4046493053436279, 0.535638427734375);58.644618988;1.0;08:46:11:948;0;5;-1.5;2.0625;1.46627565982405;0;0;0;1;1;1;1;0;0;0;0;0;0;0;0;0;();(-2000.0, -2000.0);
08:46:11:982;08:46:11:966;1448480766.54;(0.40483412742614744, 0.5343706342909071);58.8049316406;1.0;08:46:11:982;0;4;-1.5;2.26829268292683;1.46627565982405;0;0;0;1;1;1;1;0;0;0;0;0;0;0;0;0;();(-2000.0, -2000.0);
08:46:11:999;08:46:11:966;1448480766.54;(0.40483412742614744, 0.5343706342909071);58.8049316406;1.0;08:46:11:999;0;9;-1.5;2.14915966386555;1.46627565982405;0;0;0;1;1;1;1;0;0;0;0;0;0;0;0;0;();(-2000.0, -2000.0);
08:46:12:015;08:46:12:006;1448480766.58;(0.4049426794052124, 0.533287090725369);58.8185348511;1.0;08:46:12:015;0;4;-1.5;2.26829268292683;1.85728250244379;0;0;0;1;1;1;1;0;0;0;0;0;0;0;0;0;();(-2000.0, -2000.0);
08:46:12:033;08:46:12:006;1448480766.58;(0.4049426794052124, 0.533287090725369);58.8185348511;1.0;08:46:12:033;0;10;-1.5;2.05835010060362;1.46627565982405;0;0;0;1;1;1;1;0;0;0;0;0;0;0;0;0;();(-2000.0, -2000.0);
08:46:12:049;08:46:12:006;1448480766.58;(0.4049426794052124, 0.533287090725369);58.8185348511;1.0;08:46:12:049;0;5;-1.5;1.88745387453875;1.46627565982405;0;0;0;1;1;1;1;0;0;0;0;0;0;0;0;0;();(-2000.0, -2000.0);
08:46:12:066;08:46:12:050;1448480766.64;(0.40517282485961914, 0.5342215220133464);58.4167366028;1.0;08:46:12:066;0;10;-1.5;1.63942307692308;0.684261974584555;0;0;0;1;1;1;1;0;0;0;0;0;0;0;0;0;();(-2000.0, -2000.0);
08:46:12:099;08:46:12:090;1448480766.68;(0.40529546737670896, 0.5359625922309028);58.3455467224;1.0;08:46:12:099;0;9;-1.5;2.16737288135593;1.46627565982405;0;0;0;1;1;1;1;0;0;0;0;0;0;0;0;0;();(-2000.0, -2000.0);
08:46:12:116;08:46:12:090;1448480766.68;(0.40529546737670896, 0.5359625922309028);58.3455467224;1.0;08:46:12:116;0;15;-1.5;2.24835164835165;2.34604105571848;0;0;0;1;1;1;1;0;0;0;0;0;0;0;0;0;();(-2000.0, -2000.0);
08:46:12:134;08:46:12:130;1448480766.71;(0.4185693025588989, 0.5174349890814887);58.508682251;0.944825139605;08:46:12:134;0;2;-1.5;2.19057815845824;1.46627565982405;0;0;0;1;1;1;1;0;0;0;0;0;0;0;0;0;();(-2000.0, -2000.0);
08:46:12:149;08:46:12:130;1448480766.71;(0.4185693025588989, 0.5174349890814887);58.508682251;0.944825139605;08:46:12:149;0;15;-1.5;2.26829268292683;1.46627565982405;0;0;0;1;1;1;1;0;0;0;0;0;0;0;0;0;();(-2000.0, -2000.0);
08:46:12:171;08:46:12:130;1448480766.71;(0.4185693025588989, 0.5174349890814887);58.508682251;0.944825139605;08:46:12:171;0;5;-1.5;2.33561643835616;1.85728250244379;0;0;0;1;1;1;1;0;0;0;0;0;0;0;0;0;();(-2000.0, -2000.0);
08:46:12:200;08:46:12:174;1448480766.78;(0.42344739437103274, 0.5065302530924479);57.280632019;1.0;08:46:12:200;0;5;-1.5;2.20950323974082;1.46627565982405;0;0;0;1;1;1;1;0;0;0;0;0;0;0;0;0;();(-2000.0, -2000.0);
08:46:12:216;08:46:12:215;1448480766.81;(0.4232455253601074, 0.5055230458577473);57.2915115356;1.0;08:46:12:216;0;15;-1.5;2.24835164835165;1.85728250244379;0;0;0;1;1;1;1;0;0;0;0;0;0;0;0;0;();(-2000.0, -2000.0);
08:46:12:234;08:46:12:215;1448480766.81;(0.4232455253601074, 0.5055230458577473);57.2915115356;1.0;08:46:12:234;0;4;-1.5;2.20950323974082;1.46627565982405;0;0;0;1;1;1;1;0;0;0;0;0;0;0;0;0;();(-2000.0, -2000.0);
08:46:12:250;08:46:12:215;1448480766.81;(0.4232455253601074, 0.5055230458577473);57.2915115356;1.0;08:46:12:250;0;9;-1.5;2.23851203501094;1.46627565982405;0;0;0;1;1;1;1;0;0;0;0;0;0;0;0;0;();(-2000.0, -2000.0);
08:46:12:267;08:46:12:258;1448480766.84;(0.4231588363647461, 0.5045217302110461);56.9224891663;1.0;08:46:12:267;0;5;-1.5;2.20950323974082;1.85728250244379;0;0;0;1;1;1;1;0;0;0;0;0;0;0;0;0;();(-2000.0, -2000.0);
08:46:12:301;08:46:12:299;1448480766.88;(0.42249958515167235, 0.5046359592013889);56.9024238586;1.0;08:46:12:301;0;4;-1.5;2.10493827160494;1.66177908113392;0;0;0;1;1;1;1;0;0;0;0;0;0;0;0;0;();(-2000.0, -2000.0);
08:46:12:317;08:46:12:299;1448480766.88;(0.42249958515167235, 0.5046359592013889);56.9024238586;1.0;08:46:12:317;0;9;-1.5;2.0297619047619;1.36852394916911;0;0;0;1;1;1;1;0;0;0;0;0;0;0;0;0;();(-2000.0, -2000.0);
08:46:12:334;08:46:12:299;1448480766.88;(0.42249958515167235, 0.5046359592013889);56.9024238586;1.0;08:46:12:334;0;5;-1.5;2.0501002004008;1.46627565982405;0;0;0;1;1;1;1;0;0;0;0;0;0;0;0;0;();(-2000.0, -2000.0);
08:46:12:351;08:46:12:338;1448480766.91;(0.4222153663635254, 0.5049722883436415);57.0759773254;1.0;08:46:12:351;0;10;-1.5;2.01377952755906;1.36852394916911;0;0;0;1;1;1;1;0;0;0;0;0;0;0;0;0;();(-2000.0, -2000.0);
08:46:12:367;08:46:12:338;1448480766.91;(0.4222153663635254, 0.5049722883436415);57.0759773254;1.0;08:46:12:367;0;4;-1.5;1.90858208955224;1.36852394916911;0;0;0;1;1;1;1;0;0;0;0;0;0;0;0;0;();(-2000.0, -2000.0);
08:46:12:402;08:46:12:382;1448480766.98;(0.42204985618591306, 0.5083535936143664);56.9768409729;1.0;08:46:12:402;0;4;-1.5;2.22875816993464;1.46627565982405;0;0;0;1;1;1;1;0;0;0;0;0;0;0;0;0;();(-2000.0, -2000.0);
08:46:12:419;08:46:12:382;1448480766.98;(0.42204985618591306, 0.5083535936143664);56.9768409729;1.0;08:46:12:419;0;9;-1.5;2.28348214285714;2.34604105571848;0;0;0;1;1;1;1;0;0;0;0;0;0;0;0;0;();(-2000.0, -2000.0);
08:46:12:434;08:46:12:422;1448480767.01;(0.422595739364624, 0.5101882934570312);56.7549476624;1.0;08:46:12:434;0;5;-1.5;2.22391304347826;1.46627565982405;0;0;0;1;1;1;1;0;0;0;0;0;0;0;0;0;();(-2000.0, -2000.0);
08:46:12:451;08:46:12:422;1448480767.01;(0.422595739364624, 0.5101882934570312);56.7549476624;1.0;08:46:12:451;0;10;-1.5;2.325;1.66177908113392;0;0;0;1;1;1;1;0;0;0;0;0;0;0;0;0;();(-2000.0, -2000.0);
08:46:12:470;08:46:12:422;1448480767.01;(0.422595739364624, 0.5101882934570312);56.7549476624;1.0;08:46:12:470;0;15;-1.5;2.39018691588785;1.66177908113392;0;0;0;1;1;1;1;0;0;0;0;0;0;0;0;0;();(-2000.0, -2000.0);
08:46:12:502;08:46:12:422;1448480767.01;(0.422595739364624, 0.5101882934570312);56.7549476624;1.0;08:46:12:502;0;15;-1.5;2.26829268292683;1.46627565982405;0;0;0;1;1;1;1;0;0;0;0;0;0;0;0;0;();(-2000.0, -2000.0);
08:46:12:519;08:46:12:506;1448480767.04;(0.4028244256973267, 0.49681226942274304);66.9159164429;0.832323104036;08:46:12:519;0;10;-1.5;2.19057815845824;1.85728250244379;0;0;0;1;1;1;1;0;0;0;0;0;0;0;0;0;();(-2000.0, -2000.0);
08:46:12:535;08:46:12:506;1448480767.04;(0.4028244256973267, 0.49681226942274304);66.9159164429;0.832323104036;08:46:12:535;0;15;-1.5;2.27839643652561;1.46627565982405;0;0;0;1;1;1;1;0;0;0;0;0;0;0;0;0;();(-2000.0, -2000.0);
08:46:12:552;08:46:12:546;1448480767.12;(0.3791200160980225, 0.48147718641493054);58.0266113281;1.0;08:46:12:552;0;10;-1.5;2.24835164835165;1.46627565982405;0;0;0;1;1;1;1;0;0;0;0;0;0;0;0;0;();(-2000.0, -2000.0);
08:46:12:569;08:46:12:546;1448480767.12;(0.3791200160980225, 0.48147718641493054);58.0266113281;1.0;08:46:12:569;0;15;-1.5;2.20950323974082;1.85728250244379;0;0;0;1;1;1;1;0;0;0;0;0;0;0;0;0;();(-2000.0, -2000.0);
08:46:12:586;08:46:12:546;1448480767.12;(0.3791200160980225, 0.48147718641493054);58.0266113281;1.0;08:46:12:586;0;5;-1.5;2.26829268292683;1.46627565982405;0;0;0;1;1;1;1;0;0;0;0;0;0;0;0;0;();(-2000.0, -2000.0);
08:46:12:619;08:46:12:586;1448480767.18;(0.37861578464508056, 0.4823628319634332);58.210395813;1.0;08:46:12:619;0;15;-1.5;2.24835164835165;1.85728250244379;0;0;0;1;1;1;1;0;0;0;0;0;0;0;0;0;();(-2000.0, -2000.0);
08:46:12:637;08:46:12:630;1448480767.21;(0.37792062759399414, 0.4826487223307292);58.4860496521;1.0;08:46:12:637;0;9;-1.5;2.16737288135593;1.46627565982405;0;0;0;1;1;1;1;0;0;0;0;0;0;0;0;0;();(-2000.0, -2000.0);
08:46:12:653;08:46:12:630;1448480767.21;(0.37792062759399414, 0.4826487223307292);58.4860496521;1.0;08:46:12:653;0;4;-1.5;2.24835164835165;1.46627565982405;0;0;0;1;1;1;1;0;0;0;0;0;0;0;0;0;();(-2000.0, -2000.0);
08:46:12:669;08:46:12:630;1448480767.21;(0.37792062759399414, 0.4826487223307292);58.4860496521;1.0;08:46:12:669;0;10;-1.5;2.35172413793103;1.66177908113392;0;0;0;1;1;1;1;0;0;0;0;0;0;0;0;0;();(-2000.0, -2000.0);
08:46:12:687;08:46:12:670;1448480767.24;(0.3587182998657227, 0.47180095248752174);59.2109870911;1.0;08:46:12:687;0;5;-1.5;2.13125;1.46627565982405;0;0;0;1;1;1;1;0;0;0;0;0;0;0;0;0;();(-2000.0, -2000.0);
08:46:12:719;08:46:12:714;1448480767.31;(0.35833523273468015, 0.47337184482150607);59.4241371155;1.0;08:46:12:719;0;4;-1.5;2.16279069767442;1.46627565982405;0;0;0;1;1;1;1;0;0;0;0;0;0;0;0;0;();(-2000.0, -2000.0);
08:46:12:736;08:46:12:714;1448480767.31;(0.35833523273468015, 0.47337184482150607);59.4241371155;1.0;08:46:12:736;0;9;-1.5;2.24835164835165;1.46627565982405;0;0;0;1;1;1;1;0;0;0;0;0;0;0;0;0;();(-2000.0, -2000.0);
08:46:12:753;08:46:12:714;1448480767.31;(0.35833523273468015, 0.47337184482150607);59.4241371155;1.0;08:46:12:753;0;3;-1.5;2.22391304347826;1.46627565982405;0;0;0;1;1;1;1;0;0;0;0;0;0;0;0;0;();(-2000.0, -2000.0);
08:46:12:770;08:46:12:754;1448480767.34;(0.35870425701141356, 0.47456198798285587);59.3578605652;1.0;08:46:12:770;0;10;-1.5;2.20950323974082;1.46627565982405;0;0;0;1;1;1;1;0;0;0;0;0;0;0;0;0;();(-2000.0, -2000.0);
08:46:12:789;08:46:12:754;1448480767.34;(0.35870425701141356, 0.47456198798285587);59.3578605652;1.0;08:46:12:789;0;14;-1.5;2.28348214285714;1.46627565982405;0;0;0;1;1;1;1;0;0;0;0;0;0;0;0;0;();(-2000.0, -2000.0);
08:46:12:820;08:46:12:794;1448480767.38;(0.3594300031661987, 0.4749690161810981);59.4888534546;1.0;08:46:12:820;0;5;-1.5;2.16737288135593;1.46627565982405;0;0;0;1;1;1;1;0;0;0;0;0;0;0;0;0;();(-2000.0, -2000.0);
08:46:12:838;08:46:12:794;1448480767.38;(0.3594300031661987, 0.4749690161810981);59.4888534546;1.0;08:46:12:838;0;1;-1.5;2.13125;1.85728250244379;0;0;0;1;1;1;1;0;0;0;0;0;0;0;0;0;();(-2000.0, -2000.0);
08:46:12:854;08:46:12:839;1448480767.41;(0.36029534339904784, 0.4753565894232856);59.5257835388;1.0;08:46:12:854;0;15;-1.5;2.20950323974082;1.46627565982405;0;0;0;1;1;1;1;0;0;0;0;0;0;0;0;0;();(-2000.0, -2000.0);
08:46:12:870;08:46:12:839;1448480767.41;(0.36029534339904784, 0.4753565894232856);59.5257835388;1.0;08:46:12:870;0;4;-1.5;2.24835164835165;1.85728250244379;0;0;0;1;1;1;1;0;0;0;0;0;0;0;0;0;();(-2000.0, -2000.0);
08:46:12:887;08:46:12:878;1448480767.48;(0.36242990493774413, 0.47726728651258676);59.3577728271;1.0;08:46:12:887;0;0;-1.5;2.00588235294118;1.36852394916911;0;0;0;1;1;1;1;0;0;0;0;0;0;0;0;0;();(-2000.0, -2000.0);
08:46:12:921;08:46:12:918;1448480767.51;(0.3635304689407349, 0.4782144758436415);59.2237052917;1.0;08:46:12:921;0;15;-1.5;2.12681912681913;1.46627565982405;0;0;0;1;1;1;1;0;0;0;0;0;0;0;0;0;();(-2000.0, -2000.0);
08:46:12:937;08:46:12:918;1448480767.51;(0.3635304689407349, 0.4782144758436415);59.2237052917;1.0;08:46:12:937;0;4;-1.5;2.14915966386555;1.46627565982405;0;0;0;1;1;1;1;0;0;0;0;0;0;0;0;0;();(-2000.0, -2000.0);
08:46:12:955;08:46:12:918;1448480767.51;(0.3635304689407349, 0.4782144758436415);59.2237052917;1.0;08:46:12:955;0;15;-1.5;2.325;1.66177908113392;0;0;0;1;1;1;1;0;0;0;0;0;0;0;0;0;();(-2000.0, -2000.0);
08:46:12:971;08:46:12:962;1448480767.54;(0.3645451068878174, 0.47972178988986547);59.1816902161;1.0;08:46:12:971;0;4;-1.5;2.24835164835165;1.46627565982405;0;0;0;1;1;1;1;0;0;0;0;0;0;0;0;0;();(-2000.0, -2000.0);
08:46:12:988;08:46:12:962;1448480767.54;(0.3645451068878174, 0.47972178988986547);59.1816902161;1.0;08:46:12:988;0;10;-1.5;2.05835010060362;1.46627565982405;0;0;0;1;1;1;1;0;0;0;0;0;0;0;0;0;();(-2000.0, -2000.0);
08:46:13:021;08:46:13:003;1448480767.58;(0.36535604000091554, 0.48121532864040795);58.8391723633;1.0;08:46:13:021;0;9;-1.5;1.65;0.879765395894428;0;0;0;1;1;1;1;0;0;0;0;0;0;0;0;0;();(-2000.0, -2000.0);
08:46:13:038;08:46:13:003;1448480767.58;(0.36535604000091554, 0.48121532864040795);58.8391723633;1.0;08:46:13:038;0;4;-1.5;2.01377952755906;1.36852394916911;0;0;0;1;1;1;1;0;0;0;0;0;0;0;0;0;();(-2000.0, -2000.0);
08:46:13:055;08:46:13:046;1448480767.64;(0.367043662071228, 0.4819798787434896);58.5816879272;1.0;08:46:13:055;0;9;-1.5;2.44152744630072;1.85728250244379;0;0;0;1;1;1;1;0;0;0;0;0;0;0;0;0;();(-2000.0, -2000.0);
08:46:13:072;08:46:13:046;1448480767.64;(0.367043662071228, 0.4819798787434896);58.5816879272;1.0;08:46:13:072;0;15;-1.5;2.19057815845824;1.46627565982405;0;0;0;1;1;1;1;0;0;0;0;0;0;0;0;0;();(-2000.0, -2000.0);
08:46:13:088;08:46:13:086;1448480767.68;(0.367999792098999, 0.4813621520996094);58.9167633057;1.0;08:46:13:088;0;10;-1.5;2.41843971631206;1.85728250244379;0;0;0;1;1;1;1;0;0;0;0;0;0;0;0;0;();(-2000.0, -2000.0);
08:46:13:123;08:46:13:086;1448480767.68;(0.367999792098999, 0.4813621520996094);58.9167633057;1.0;08:46:13:123;0;9;-1.5;2.20950323974082;1.46627565982405;0;0;0;1;1;1;1;0;0;0;0;0;0;0;0;0;();(-2000.0, -2000.0);
08:46:13:138;08:46:13:126;1448480767.71;(0.3679919719696045, 0.48039775424533415);58.4998970032;1.0;08:46:13:138;0;0;-1.5;2.07926829268293;1.46627565982405;0;0;0;1;1;1;1;0;0;0;0;0;0;0;0;0;();(-2000.0, -2000.0);
08:46:13:155;08:46:13:126;1448480767.71;(0.3679919719696045, 0.48039775424533415);58.4998970032;1.0;08:46:13:155;0;10;-1.5;2.19057815845824;1.46627565982405;0;0;0;1;1;1;1;0;0;0;0;0;0;0;0;0;();(-2000.0, -2000.0);
08:46:13:173;08:46:13:170;1448480767.74;(0.3661890745162964, 0.4808374616834853);58.3208351135;0.815168623827;08:46:13:173;0;0;-1.5;2.13125;1.46627565982405;0;0;0;1;1;1;1;0;0;0;0;0;0;0;0;0;();(-2000.0, -2000.0);
08:46:13:189;08:46:13:170;1448480767.74;(0.3661890745162964, 0.4808374616834853);58.3208351135;0.815168623827;08:46:13:189;0;10;-1.5;2.16737288135593;1.46627565982405;0;0;0;1;1;1;1;0;0;0;0;0;0;0;0;0;();(-2000.0, -2000.0);
08:46:13:206;08:46:13:170;1448480767.74;(0.3661890745162964, 0.4808374616834853);58.3208351135;0.815168623827;08:46:13:206;0;0;-1.5;2.22391304347826;1.46627565982405;0;0;0;1;1;1;1;0;0;0;0;0;0;0;0;0;();(-2000.0, -2000.0);
08:46:13:240;08:46:13:210;1448480767.81;(0.3659663200378418, 0.4819418165418837);58.2627182007;1.0;08:46:13:240;0;15;-1.5;2.2;1.85728250244379;0;0;0;1;1;1;1;0;0;0;0;0;0;0;0;0;();(-2000.0, -2000.0);
08:46:13:256;08:46:13:250;1448480767.84;(0.36647772789001465, 0.4834921518961589);58.3862342834;1.0;08:46:13:256;0;4;-1.5;1.89444444444444;1.46627565982405;0;0;0;1;1;1;1;0;0;0;0;0;0;0;0;0;();(-2000.0, -2000.0);
08:46:13:273;08:46:13:250;1448480767.84;(0.36647772789001465, 0.4834921518961589);58.3862342834;1.0;08:46:13:273;0;15;-1.5;2.13125;1.46627565982405;0;0;0;1;1;1;1;0;0;0;0;0;0;0;0;0;();(-2000.0, -2000.0);
08:46:13:290;08:46:13:250;1448480767.84;(0.36647772789001465, 0.4834921518961589);58.3862342834;1.0;08:46:13:290;0;9;-1.5;2.0501002004008;1.85728250244379;0;0;0;1;1;1;1;0;0;0;0;0;0;0;0;0;();(-2000.0, -2000.0);
08:46:13:306;08:46:13:295;1448480767.88;(0.3670593023300171, 0.48499993218315973);58.5059242249;1.0;08:46:13:306;0;0;-1.5;1.81705150976909;1.17302052785924;0;0;0;1;1;1;1;0;0;0;0;0;0;0;0;0;();(-2000.0, -2000.0);
08:46:13:341;08:46:13:334;1448480767.91;(0.3678045511245728, 0.4861318800184462);58.2488899231;1.0;08:46:13:341;0;10;-1.5;2.01377952755906;1.46627565982405;0;0;0;1;1;1;1;0;0;0;0;0;0;0;0;0;();(-2000.0, -2000.0);
08:46:13:358;08:46:13:334;1448480767.91;(0.3678045511245728, 0.4861318800184462);58.2488899231;1.0;08:46:13:357;0;4;-1.5;2.24835164835165;1.46627565982405;0;0;0;1;1;1;1;0;0;0;0;0;0;0;0;0;();(-2000.0, -2000.0);
08:46:13:374;08:46:13:334;1448480767.91;(0.3678045511245728, 0.4861318800184462);58.2488899231;1.0;08:46:13:374;0;15;-1.5;2.22391304347826;1.46627565982405;0;0;0;1;1;1;1;0;0;0;0;0;0;0;0;0;();(-2000.0, -2000.0);
08:46:13:390;08:46:13:378;1448480767.98;(0.36861093044281007, 0.48598306443956163);58.6534080505;1.0;08:46:13:390;0;5;-1.5;2.26829268292683;1.46627565982405;0;0;0;1;1;1;1;0;0;0;0;0;0;0;0;0;();(-2000.0, -2000.0);
08:46:13:408;08:46:13:378;1448480767.98;(0.36861093044281007, 0.48598306443956163);58.6534080505;1.0;08:46:13:408;0;10;-1.5;2.35172413793103;1.66177908113392;0;0;0;1;1;1;1;0;0;0;0;0;0;0;0;0;();(-2000.0, -2000.0);
08:46:13:442;08:46:13:418;1448480768.01;(0.36862180233001707, 0.4855461544460721);58.6390724182;1.0;08:46:13:442;0;9;-1.5;2.16279069767442;1.46627565982405;0;0;0;1;1;1;1;0;0;0;0;0;0;0;0;0;();(-2000.0, -2000.0);
08:46:13:459;08:46:13:418;1448480768.01;(0.36862180233001707, 0.4855461544460721);58.6390724182;1.0;08:46:13:459;0;0;-1.5;2.13125;1.66177908113392;0;0;0;1;1;1;1;0;0;0;0;0;0;0;0;0;();(-2000.0, -2000.0);
08:46:13:474;08:46:13:418;1448480768.01;(0.36862180233001707, 0.4855461544460721);58.6390724182;1.0;08:46:13:474;0;10;-1.5;2.325;1.66177908113392;0;0;0;1;1;1;1;0;0;0;0;0;0;0;0;0;();(-2000.0, -2000.0);
08:46:13:491;08:46:13:418;1448480768.01;(0.36862180233001707, 0.4855461544460721);58.6390724182;1.0;08:46:13:491;0;6;-1.5;2.22391304347826;1.85728250244379;0;0;0;1;1;1;1;0;0;0;0;0;0;0;0;0;();(-2000.0, -2000.0);
08:46:13:508;08:46:13:502;1448480768.08;(0.3730108022689819, 0.4859493255615235);59.6182556152;0.878883843471;08:46:13:508;0;9;-1.5;2.26829268292683;1.46627565982405;0;0;0;1;1;1;1;0;0;0;0;0;0;0;0;0;();(-2000.0, -2000.0);
08:46:13:541;08:46:13:502;1448480768.08;(0.3730108022689819, 0.4859493255615235);59.6182556152;0.878883843471;08:46:13:541;0;5;-1.5;2.28348214285714;2.34604105571848;0;0;0;1;1;1;1;0;0;0;0;0;0;0;0;0;();(-2000.0, -2000.0);
08:46:13:558;08:46:13:542;1448480768.14;(0.374001669883728, 0.48641412523057725);59.1316184998;1.0;08:46:13:558;0;15;-1.5;2.13125;1.46627565982405;0;0;0;1;1;1;1;0;0;0;0;0;0;0;0;0;();(-2000.0, -2000.0);
08:46:13:575;08:46:13:542;1448480768.14;(0.374001669883728, 0.48641412523057725);59.1316184998;1.0;08:46:13:575;0;10;-1.5;2.28348214285714;1.85728250244379;0;0;0;1;1;1;1;0;0;0;0;0;0;0;0;0;();(-2000.0, -2000.0);
08:46:13:593;08:46:13:582;1448480768.18;(0.37418427467346194, 0.486665768093533);59.218132019;1.0;08:46:13:592;0;15;-1.5;2.325;1.66177908113392;0;0;0;1;1;1;1;0;0;0;0;0;0;0;0;0;();(-2000.0, -2000.0);
08:46:13:608;08:46:13:582;1448480768.18;(0.37418427467346194, 0.486665768093533);59.218132019;1.0;08:46:13:608;0;9;-1.5;2.19057815845824;1.85728250244379;0;0;0;1;1;1;1;0;0;0;0;0;0;0;0;0;();(-2000.0, -2000.0);
08:46:13:642;08:46:13:627;1448480768.21;(0.3742667675018311, 0.4869625091552734);59.1361999512;1.0;08:46:13:642;0;5;-1.5;2.16737288135593;1.46627565982405;0;0;0;1;1;1;1;0;0;0;0;0;0;0;0;0;();(-2000.0, -2000.0);
08:46:13:658;08:46:13:627;1448480768.21;(0.3742667675018311, 0.4869625091552734);59.1361999512;1.0;08:46:13:658;0;15;-1.5;2.27839643652561;1.85728250244379;0;0;0;1;1;1;1;0;0;0;0;0;0;0;0;0;();(-2000.0, -2000.0);
08:46:13:675;08:46:13:667;1448480768.24;(0.374340295791626, 0.48749304877387156);59.3419799805;1.0;08:46:13:675;0;4;-1.5;2.12681912681913;1.66177908113392;0;0;0;1;1;1;1;0;0;0;0;0;0;0;0;0;();(-2000.0, -2000.0);
08:46:13:693;08:46:13:667;1448480768.24;(0.374340295791626, 0.48749304877387156);59.3419799805;1.0;08:46:13:693;0;10;-1.5;2.11801242236025;1.66177908113392;0;0;0;1;1;1;1;0;0;0;0;0;0;0;0;0;();(-2000.0, -2000.0);
08:46:13:708;08:46:13:706;1448480768.28;(0.3744704484939575, 0.4878644307454427);59.2729225159;1.0;08:46:13:708;0;5;-1.5;2.16737288135593;1.46627565982405;0;0;0;1;1;1;1;0;0;0;0;0;0;0;0;0;();(-2000.0, -2000.0);
08:46:13:726;08:46:13:706;1448480768.28;(0.3744704484939575, 0.4878644307454427);59.2729225159;1.0;08:46:13:726;0;15;-1.5;2.0625;1.56402737047898;0;0;0;1;1;1;1;0;0;0;0;0;0;0;0;0;();(-2000.0, -2000.0);
08:46:13:760;08:46:13:750;1448480768.34;(0.37469217777252195, 0.48810840182834203);59.356967926;1.0;08:46:13:760;0;9;-1.5;2.13125;1.66177908113392;0;0;0;1;1;1;1;0;0;0;0;0;0;0;0;0;();(-2000.0, -2000.0);
08:46:13:776;08:46:13:750;1448480768.34;(0.37469217777252195, 0.48810840182834203);59.356967926;1.0;08:46:13:776;0;5;-1.5;2.24835164835165;1.46627565982405;0;0;0;1;1;1;1;0;0;0;0;0;0;0;0;0;();(-2000.0, -2000.0);
08:46:13:793;08:46:13:791;1448480768.38;(0.3748028755187988, 0.48800315856933596);59.6490020752;1.0;08:46:13:793;0;10;-1.5;2.20950323974082;1.46627565982405;0;0;0;1;1;1;1;0;0;0;0;0;0;0;0;0;();(-2000.0, -2000.0);
08:46:13:810;08:46:13:791;1448480768.38;(0.3748028755187988, 0.48800315856933596);59.6490020752;1.0;08:46:13:810;0;4;-1.5;2.0501002004008;1.46627565982405;0;0;0;1;1;1;1;0;0;0;0;0;0;0;0;0;();(-2000.0, -2000.0);
08:46:13:826;08:46:13:791;1448480768.38;(0.3748028755187988, 0.48800315856933596);59.6490020752;1.0;08:46:13:826;0;9;-1.5;2.1006160164271;1.46627565982405;0;0;0;1;1;1;1;0;0;0;0;0;0;0;0;0;();(-2000.0, -2000.0);
08:46:13:860;08:46:13:834;1448480768.41;(0.3747562885284424, 0.48795547485351565);59.6365242004;1.0;08:46:13:860;0;5;-1.5;2.22391304347826;1.46627565982405;0;0;0;1;1;1;1;0;0;0;0;0;0;0;0;0;();(-2000.0, -2000.0);
08:46:13:877;08:46:13:874;1448480768.48;(0.37321717739105226, 0.48721169365776906);59.8274993896;1.0;08:46:13:877;0;15;-1.5;2.16737288135593;2.1505376344086;0;0;0;1;1;1;1;0;0;0;0;0;0;0;0;0;();(-2000.0, -2000.0);
08:46:13:893;08:46:13:874;1448480768.48;(0.37321717739105226, 0.48721169365776906);59.8274993896;1.0;08:46:13:893;0;15;-1.5;2.16737288135593;2.1505376344086;0;0;0;1;1;1;1;0;0;0;0;0;0;0;0;0;();(-2000.0, -2000.0);
08:46:13:912;08:46:13:874;1448480768.48;(0.37321717739105226, 0.48721169365776906);59.8274993896;1.0;08:46:13:912;0;5;-1.5;2.13125;1.46627565982405;0;0;0;1;1;1;1;0;0;0;0;0;0;0;0;0;();(-2000.0, -2000.0);
08:46:13:928;08:46:13:914;1448480768.51;(0.3723394155502319, 0.4870040469699436);59.8504524231;1.0;08:46:13:928;0;9;-1.5;2.13125;1.46627565982405;0;0;0;1;1;1;1;0;0;0;0;0;0;0;0;0;();(-2000.0, -2000.0);
08:46:13:961;08:46:13:958;1448480768.54;(0.37221243381500246, 0.48716862996419275);60.0732688904;1.0;08:46:13:961;0;4;-1.5;2.1006160164271;1.66177908113392;0;0;0;1;1;1;1;0;0;0;0;0;0;0;0;0;();(-2000.0, -2000.0);
08:46:13:977;08:46:13:958;1448480768.54;(0.37221243381500246, 0.48716862996419275);60.0732688904;1.0;08:46:13:977;0;0;-1.5;2.13125;1.46627565982405;0;0;0;1;1;1;1;0;0;0;0;0;0;0;0;0;();(-2000.0, -2000.0);
08:46:13:994;08:46:13:958;1448480768.54;(0.37221243381500246, 0.48716862996419275);60.0732688904;1.0;08:46:13:994;0;4;-1.5;2.24835164835165;1.85728250244379;0;0;0;1;1;1;1;0;0;0;0;0;0;0;0;0;();(-2000.0, -2000.0);
08:46:14:011;08:46:13:998;1448480768.58;(0.3724692344665527, 0.48745146857367616);59.9783630371;1.0;08:46:14:011;0;0;-1.5;2.24835164835165;1.46627565982405;0;0;0;1;1;1;1;0;0;0;0;0;0;0;0;0;();(-2000.0, -2000.0);
08:46:14:027;08:46:13:998;1448480768.58;(0.3724692344665527, 0.48745146857367616);59.9783630371;1.0;08:46:14:027;0;5;-1.5;2.36258660508083;1.66177908113392;0;0;0;1;1;1;1;0;0;0;0;0;0;0;0;0;();(-2000.0, -2000.0);
08:46:14:061;08:46:14:038;1448480768.61;(0.37246007919311525, 0.487705569797092);60.0170555115;1.0;08:46:14:061;0;4;-1.5;1.76683937823834;1.36852394916911;0;0;0;1;1;1;1;0;0;0;0;0;0;0;0;0;();(-2000.0, -2000.0);
08:46:14:079;08:46:14:038;1448480768.61;(0.37246007919311525, 0.487705569797092);60.0170555115;1.0;08:46:14:079;0;9;-1.5;1.73389830508475;1.17302052785924;0;0;0;1;1;1;1;0;0;0;0;0;0;0;0;0;();(-2000.0, -2000.0);
08:46:14:095;08:46:14:082;1448480768.68;(0.37243309020996096, 0.4875316619873047);60.0924720764;1.0;08:46:14:095;0;4;-1.5;2.0297619047619;1.85728250244379;0;0;0;1;1;1;1;0;0;0;0;0;0;0;0;0;();(-2000.0, -2000.0);
08:46:14:111;08:46:14:082;1448480768.68;(0.37243309020996096, 0.4875316619873047);60.0924720764;1.0;08:46:14:111;0;10;-1.5;2.24835164835165;1.46627565982405;0;0;0;1;1;1;1;0;0;0;0;0;0;0;0;0;();(-2000.0, -2000.0);
08:46:14:129;08:46:14:122;1448480768.71;(0.3722285985946655, 0.4880569034152561);60.2377929688;1.0;08:46:14:129;0;15;-1.5;2.16279069767442;2.1505376344086;0;0;0;1;1;1;1;0;0;0;0;0;0;0;0;0;();(-2000.0, -2000.0);
08:46:14:162;08:46:14:122;1448480768.71;(0.3722285985946655, 0.4880569034152561);60.2377929688;1.0;08:46:14:162;0;4;-1.5;2.41843971631206;1.85728250244379;0;0;0;1;1;1;1;0;0;0;0;0;0;0;0;0;();(-2000.0, -2000.0);
08:46:14:178;08:46:14:166;1448480768.74;(0.37217321395874026, 0.48823856777615016);60.2224349976;1.0;08:46:14:178;0;9;-1.5;2.22391304347826;1.46627565982405;0;0;0;1;1;1;1;0;0;0;0;0;0;0;0;0;();(-2000.0, -2000.0);
08:46:14:196;08:46:14:166;1448480768.74;(0.37217321395874026, 0.48823856777615016);60.2224349976;1.0;08:46:14:196;0;15;-1.5;2.16737288135593;2.1505376344086;0;0;0;1;1;1;1;0;0;0;0;0;0;0;0;0;();(-2000.0, -2000.0);
08:46:14:212;08:46:14:206;1448480768.78;(0.372091269493103, 0.4879216935899523);59.8986740112;1.0;08:46:14:212;0;10;-1.5;2.36805555555556;1.66177908113392;0;0;0;1;1;1;1;0;0;0;0;0;0;0;0;0;();(-2000.0, -2000.0);
08:46:14:229;08:46:14:206;1448480768.78;(0.372091269493103, 0.4879216935899523);59.8986740112;1.0;08:46:14:229;0;13;-1.5;2.325;1.66177908113392;0;0;0;1;1;1;1;0;0;0;0;0;0;0;0;0;();(-2000.0, -2000.0);
08:46:14:263;08:46:14:248;1448480768.84;(0.3705393075942993, 0.48839403788248703);60.3554496765;1.0;08:46:14:263;0;0;-1.5;2.11801242236025;1.46627565982405;0;0;0;1;1;1;1;0;0;0;0;0;0;0;0;0;();(-2000.0, -2000.0);
08:46:14:280;08:46:14:248;1448480768.84;(0.3705393075942993, 0.48839403788248703);60.3554496765;1.0;08:46:14:280;0;10;-1.5;2.16737288135593;1.46627565982405;0;0;0;1;1;1;1;0;0;0;0;0;0;0;0;0;();(-2000.0, -2000.0);
08:46:14:297;08:46:14:290;1448480768.88;(0.369953989982605, 0.4881263732910156);60.4477729797;1.0;08:46:14:297;0;15;-1.5;2.0625;1.56402737047898;0;0;0;1;1;1;1;0;0;0;0;0;0;0;0;0;();(-2000.0, -2000.0);
08:46:14:312;08:46:14:290;1448480768.88;(0.369953989982605, 0.4881263732910156);60.4477729797;1.0;08:46:14:312;0;4;-1.5;2.17659574468085;1.46627565982405;0;0;0;1;1;1;1;0;0;0;0;0;0;0;0;0;();(-2000.0, -2000.0);
08:46:14:329;08:46:14:290;1448480768.88;(0.369953989982605, 0.4881263732910156);60.4477729797;1.0;08:46:14:329;0;0;-1.5;2.00588235294118;1.46627565982405;0;0;0;1;1;1;1;0;0;0;0;0;0;0;0;0;();(-2000.0, -2000.0);
08:46:14:347;08:46:14:330;1448480768.91;(0.36982154846191406, 0.48821898566351996);60.3597640991;1.0;08:46:14:347;0;5;-1.5;2.03784860557769;1.46627565982405;0;0;0;1;1;1;1;0;0;0;0;0;0;0;0;0;();(-2000.0, -2000.0);
08:46:14:380;08:46:14:370;1448480768.94;(0.36969456672668455, 0.48843091328938804);60.5456008911;1.0;08:46:14:380;0;4;-1.5;2.0297619047619;1.85728250244379;0;0;0;1;1;1;1;0;0;0;0;0;0;0;0;0;();(-2000.0, -2000.0);
08:46:14:396;08:46:14:370;1448480768.94;(0.36969456672668455, 0.48843091328938804);60.5456008911;1.0;08:46:14:396;0;9;-1.5;2.05835010060362;1.46627565982405;0;0;0;1;1;1;1;0;0;0;0;0;0;0;0;0;();(-2000.0, -2000.0);
08:46:14:413;08:46:14:370;1448480768.94;(0.36969456672668455, 0.48843091328938804);60.5456008911;1.0;08:46:14:413;0;5;-1.5;2.28348214285714;2.34604105571848;0;0;0;1;1;1;1;0;0;0;0;0;0;0;0;0;();(-2000.0, -2000.0);
08:46:14:430;08:46:14:415;1448480769.01;(0.3691748857498169, 0.4882664150661893);60.342502594;1.0;08:46:14:430;0;15;-1.5;2.325;1.85728250244379;0;0;0;1;1;1;1;0;0;0;0;0;0;0;0;0;();(-2000.0, -2000.0);
08:46:14:447;08:46:14:415;1448480769.01;(0.3691748857498169, 0.4882664150661893);60.342502594;1.0;08:46:14:447;0;5;-1.5;2.25330396475771;1.46627565982405;0;0;0;1;1;1;1;0;0;0;0;0;0;0;0;0;();(-2000.0, -2000.0);
08:46:14:480;08:46:14:454;1448480769.04;(0.3690843343734741, 0.48829337226019964);60.5006446838;1.0;08:46:14:480;0;4;-1.5;2.46506024096386;1.85728250244379;0;0;0;1;1;1;1;0;0;0;0;0;0;0;0;0;();(-2000.0, -2000.0);
08:46:14:497;08:46:14:454;1448480769.04;(0.3690843343734741, 0.48829337226019964);60.5006446838;1.0;08:46:14:497;0;9;-1.5;2.53846153846154;1.85728250244379;0;0;0;1;1;1;1;0;0;0;0;0;0;0;0;0;();(-2000.0, -2000.0);
08:46:14:514;08:46:14:498;1448480769.08;(0.36874406337738036, 0.48823026021321614);60.5452766418;1.0;08:46:14:514;0;15;-1.5;2.26829268292683;1.46627565982405;0;0;0;1;1;1;1;0;0;0;0;0;0;0;0;0;();(-2000.0, -2000.0);
08:46:14:531;08:46:14:498;1448480769.08;(0.36874406337738036, 0.48823026021321614);60.5452766418;1.0;08:46:14:531;0;10;-1.5;2.28348214285714;1.56402737047898;0;0;0;1;1;1;1;0;0;0;0;0;0;0;0;0;();(-2000.0, -2000.0);
08:46:14:547;08:46:14:539;1448480769.11;(0.36878840923309325, 0.4883703443739149);60.3968200684;1.0;08:46:14:547;0;4;-1.5;2.11801242236025;1.66177908113392;0;0;0;1;1;1;1;0;0;0;0;0;0;0;0;0;();(-2000.0, -2000.0);
08:46:14:582;08:46:14:578;1448480769.18;(0.3686155080795288, 0.48850652906629777);60.1503334045;1.0;08:46:14:581;0;5;-1.5;2.22391304347826;2.1505376344086;0;0;0;1;1;1;1;0;0;0;0;0;0;0;0;0;();(-2000.0, -2000.0);
08:46:14:598;08:46:14:578;1448480769.18;(0.3686155080795288, 0.48850652906629777);60.1503334045;1.0;08:46:14:598;0;10;-1.5;2.19057815845824;1.85728250244379;0;0;0;1;1;1;1;0;0;0;0;0;0;0;0;0;();(-2000.0, -2000.0);
08:46:14:614;08:46:14:578;1448480769.18;(0.3686155080795288, 0.48850652906629777);60.1503334045;1.0;08:46:14:614;0;15;-1.5;2.14915966386555;1.46627565982405;0;0;0;1;1;1;1;0;0;0;0;0;0;0;0;0;();(-2000.0, -2000.0);
08:46:14:631;08:46:14:622;1448480769.21;(0.3685025215148926, 0.48843994140625);59.9615936279;1.0;08:46:14:631;0;10;-1.5;2.10493827160494;1.46627565982405;0;0;0;1;1;1;1;0;0;0;0;0;0;0;0;0;();(-2000.0, -2000.0);
08:46:14:648;08:46:14:622;1448480769.21;(0.3685025215148926, 0.48843994140625);59.9615936279;1.0;08:46:14:648;0;15;-1.5;2.07085020242915;1.46627565982405;0;0;0;1;1;1;1;0;0;0;0;0;0;0;0;0;();(-2000.0, -2000.0);
08:46:14:682;08:46:14:662;1448480769.24;(0.3681257963180542, 0.48847872416178384);59.9408531189;1.0;08:46:14:682;0;15;-1.5;2.14915966386555;1.46627565982405;0;0;0;1;1;1;1;0;0;0;0;0;0;0;0;0;();(-2000.0, -2000.0);
08:46:14:698;08:46:14:662;1448480769.24;(0.3681257963180542, 0.48847872416178384);59.9408531189;1.0;08:46:14:698;0;4;-1.5;2.16279069767442;1.46627565982405;0;0;0;1;1;1;1;0;0;0;0;0;0;0;0;0;();(-2000.0, -2000.0);
08:46:14:715;08:46:14:702;1448480769.28;(0.3679917573928833, 0.48875363667805993);59.7614059448;1.0;08:46:14:715;0;15;-1.5;2.33561643835616;1.66177908113392;0;0;0;1;1;1;1;0;0;0;0;0;0;0;0;0;();(-2000.0, -2000.0);
08:46:14:733;08:46:14:702;1448480769.28;(0.3679917573928833, 0.48875363667805993);59.7614059448;1.0;08:46:14:733;0;5;-1.5;2.22391304347826;1.46627565982405;0;0;0;1;1;1;1;0;0;0;0;0;0;0;0;0;();(-2000.0, -2000.0);
08:46:14:749;08:46:14:746;1448480769.31;(0, 0);0;0;08:46:14:749;0;10;-1.5;2.28348214285714;1.85728250244379;0;0;0;1;1;1;1;0;0;0;0;0;0;0;0;0;();(-2000.0, -2000.0);
08:46:14:783;08:46:14:746;1448480769.31;(0, 0);0;0;08:46:14:783;0;9;-1.5;2.30405405405405;1.85728250244379;0;0;0;1;1;1;1;0;0;0;0;0;0;0;0;0;();(-2000.0, -2000.0);
08:46:14:799;08:46:14:786;1448480769.38;(0.35316522121429444, 0.5201712290445963);24.7567996979;0.785529647148;08:46:14:799;0;4;-1.5;2.28348214285714;1.66177908113392;0;0;0;1;1;1;1;0;0;0;0;0;0;0;0;0;();(-2000.0, -2000.0);
08:46:14:816;08:46:14:786;1448480769.38;(0.35316522121429444, 0.5201712290445963);24.7567996979;0.785529647148;08:46:14:816;0;0;-1.5;2.22391304347826;1.46627565982405;0;0;0;1;1;1;1;0;0;0;0;0;0;0;0;0;();(-2000.0, -2000.0);
08:46:14:832;08:46:14:826;1448480769.41;(0.4375649929046631, 0.5397764417860242);54.9689292908;0.665719122198;08:46:14:832;0;5;-1.5;2.21428571428571;1.85728250244379;0;0;0;1;1;1;1;0;0;0;0;0;0;0;0;0;();(-2000.0, -2000.0);
08:46:14:849;08:46:14:826;1448480769.41;(0.4375649929046631, 0.5397764417860242);54.9689292908;0.665719122198;08:46:14:849;0;10;-1.5;2.28348214285714;1.66177908113392;0;0;0;1;1;1;1;0;0;0;0;0;0;0;0;0;();(-2000.0, -2000.0);
08:46:14:866;08:46:14:826;1448480769.41;(0.4375649929046631, 0.5397764417860242);54.9689292908;0.665719122198;08:46:14:866;0;4;-1.5;1.99415204678363;1.36852394916911;0;0;0;1;1;1;1;0;0;0;0;0;0;0;0;0;();(-2000.0, -2000.0);
08:46:14:900;08:46:14:870;1448480769.44;(0.43654694557189944, 0.5433120727539062);56.7455673218;1.0;08:46:14:900;0;0;-1.5;2.0625;1.46627565982405;0;0;0;1;1;1;1;0;0;0;0;0;0;0;0;0;();(-2000.0, -2000.0);
08:46:14:916;08:46:14:911;1448480769.51;(0.4350782871246338, 0.5452891455756294);56.9030532837;1.0;08:46:14:916;0;10;-1.5;2.13125;1.46627565982405;0;0;0;1;1;1;1;0;0;0;0;0;0;0;0;0;();(-2000.0, -2000.0);
08:46:14:933;08:46:14:911;1448480769.51;(0.4350782871246338, 0.5452891455756294);56.9030532837;1.0;08:46:14:933;0;15;-1.5;2.19057815845824;1.46627565982405;0;0;0;1;1;1;1;0;0;0;0;0;0;0;0;0;();(-2000.0, -2000.0);
08:46:14:950;08:46:14:911;1448480769.51;(0.4350782871246338, 0.5452891455756294);56.9030532837;1.0;08:46:14:950;0;4;-1.5;2.13125;1.46627565982405;0;0;0;1;1;1;1;0;0;0;0;0;0;0;0;0;();(-2000.0, -2000.0);
08:46:14:967;08:46:14:950;1448480769.54;(0.43365342617034913, 0.5458501603868273);56.8814239502;1.0;08:46:14:967;0;15;-1.5;2.19057815845824;1.85728250244379;0;0;0;1;1;1;1;0;0;0;0;0;0;0;0;0;();(-2000.0, -2000.0);
08:46:15:000;08:46:14:994;1448480769.58;(0.4324357986450195, 0.5467707739935981);56.854385376;1.0;08:46:15:000;0;15;-1.5;2.16737288135593;1.46627565982405;0;0;0;1;1;1;1;0;0;0;0;0;0;0;0;0;();(-2000.0, -2000.0);
08:46:15:017;08:46:14:994;1448480769.58;(0.4324357986450195, 0.5467707739935981);56.854385376;1.0;08:46:15:017;0;4;-1.5;2.0501002004008;1.85728250244379;0;0;0;1;1;1;1;0;0;0;0;0;0;0;0;0;();(-2000.0, -2000.0);
08:46:15:034;08:46:14:994;1448480769.58;(0.4324357986450195, 0.5467707739935981);56.854385376;1.0;08:46:15:034;0;10;-1.5;2.0625;1.46627565982405;0;0;0;1;1;1;1;0;0;0;0;0;0;0;0;0;();(-2000.0, -2000.0);
08:46:15:051;08:46:15:035;1448480769.61;(0.43131988048553466, 0.547157245212131);56.4553451538;1.0;08:46:15:051;0;5;-1.5;2.0501002004008;1.46627565982405;0;0;0;1;1;1;1;0;0;0;0;0;0;0;0;0;();(-2000.0, -2000.0);
08:46:15:067;08:46:15:035;1448480769.61;(0.43131988048553466, 0.547157245212131);56.4553451538;1.0;08:46:15:067;0;10;-1.5;1.91573033707865;1.36852394916911;0;0;0;1;1;1;1;0;0;0;0;0;0;0;0;0;();(-2000.0, -2000.0);
08:46:15:102;08:46:15:078;1448480769.68;(0.42972729206085203, 0.5474073621961806);56.2477340698;1.0;08:46:15:102;0;10;-1.5;2.14915966386555;1.46627565982405;0;0;0;1;1;1;1;0;0;0;0;0;0;0;0;0;();(-2000.0, -2000.0);
08:46:15:117;08:46:15:078;1448480769.68;(0.42972729206085203, 0.5474073621961806);56.2477340698;1.0;08:46:15:117;0;4;-1.5;2.0920245398773;1.66177908113392;0;0;0;1;1;1;1;0;0;0;0;0;0;0;0;0;();(-2000.0, -2000.0);
08:46:15:134;08:46:15:118;1448480769.71;(0.4291642189025879, 0.5470461103651258);55.8186950684;1.0;08:46:15:134;0;0;-1.5;2.24835164835165;1.46627565982405;0;0;0;1;1;1;1;0;0;0;0;0;0;0;0;0;();(-2000.0, -2000.0);
08:46:15:152;08:46:15:118;1448480769.71;(0.4291642189025879, 0.5470461103651258);55.8186950684;1.0;08:46:15:151;0;5;-1.5;2.325;1.66177908113392;0;0;0;1;1;1;1;0;0;0;0;0;0;0;0;0;();(-2000.0, -2000.0);
08:46:15:168;08:46:15:158;1448480769.74;(0.4284210205078125, 0.5469678666856554);55.899433136;1.0;08:46:15:168;0;15;-1.5;2.35172413793103;1.85728250244379;0;0;0;1;1;1;1;0;0;0;0;0;0;0;0;0;();(-2000.0, -2000.0);
08:46:15:202;08:46:15:158;1448480769.74;(0.4284210205078125, 0.5469678666856554);55.899433136;1.0;08:46:15:202;0;9;-1.5;2.13125;1.46627565982405;0;0;0;1;1;1;1;0;0;0;0;0;0;0;0;0;();(-2000.0, -2000.0);
08:46:15:218;08:46:15:202;1448480769.78;(0.42791900634765623, 0.5468078189425998);55.5468406677;1.0;08:46:15:218;0;4;-1.5;2.24835164835165;1.46627565982405;0;0;0;1;1;1;1;0;0;0;0;0;0;0;0;0;();(-2000.0, -2000.0);
08:46:15:235;08:46:15:202;1448480769.78;(0.42791900634765623, 0.5468078189425998);55.5468406677;1.0;08:46:15:235;0;10;-1.5;2.325;1.85728250244379;0;0;0;1;1;1;1;0;0;0;0;0;0;0;0;0;();(-2000.0, -2000.0);
08:46:15:252;08:46:15:242;1448480769.84;(0.42701234817504885, 0.5465463426378039);55.3170127869;1.0;08:46:15:252;0;15;-1.5;2.19057815845824;1.85728250244379;0;0;0;1;1;1;1;0;0;0;0;0;0;0;0;0;();(-2000.0, -2000.0);
08:46:15:269;08:46:15:242;1448480769.84;(0.42701234817504885, 0.5465463426378039);55.3170127869;1.0;08:46:15:269;0;10;-1.5;2.1006160164271;1.66177908113392;0;0;0;1;1;1;1;0;0;0;0;0;0;0;0;0;();(-2000.0, -2000.0);
08:46:15:302;08:46:15:242;1448480769.84;(0.42701234817504885, 0.5465463426378039);55.3170127869;1.0;08:46:15:302;0;5;-1.5;2.1006160164271;1.46627565982405;0;0;0;1;1;1;1;0;0;0;0;0;0;0;0;0;();(-2000.0, -2000.0);
08:46:15:319;08:46:15:242;1448480769.84;(0.42701234817504885, 0.5465463426378039);55.3170127869;1.0;08:46:15:319;0;15;-1.5;1.98640776699029;1.85728250244379;0;0;0;1;1;1;1;0;0;0;0;0;0;0;0;0;();(-2000.0, -2000.0);
08:46:15:335;08:46:15:326;1448480769.88;(0.4336528301239014, 0.5545801798502604);54.7461166382;1.0;08:46:15:335;0;10;-1.5;2.0625;1.46627565982405;0;0;0;1;1;1;1;0;0;0;0;0;0;0;0;0;();(-2000.0, -2000.0);
08:46:15:352;08:46:15:326;1448480769.88;(0.4336528301239014, 0.5545801798502604);54.7461166382;1.0;08:46:15:352;0;15;-1.5;2.1006160164271;1.46627565982405;0;0;0;1;1;1;1;0;0;0;0;0;0;0;0;0;();(-2000.0, -2000.0);
08:46:15:369;08:46:15:368;1448480769.91;(0.44818720817565916, 0.5622376759847005);54.394367218;1.0;08:46:15:369;0;10;-1.5;1.88397790055249;1.17302052785924;0;0;0;1;1;1;1;0;0;0;0;0;0;0;0;0;();(-2000.0, -2000.0);
08:46:15:386;08:46:15:368;1448480769.91;(0.44818720817565916, 0.5622376759847005);54.394367218;1.0;08:46:15:386;0;0;-1.5;1.95229007633588;1.46627565982405;0;0;0;1;1;1;1;0;0;0;0;0;0;0;0;0;();(-2000.0, -2000.0);
08:46:15:419;08:46:15:410;1448480770.01;(0.44953627586364747, 0.564483896891276);54.2531700134;1.0;08:46:15:419;0;10;-1.5;2.0297619047619;1.46627565982405;0;0;0;1;1;1;1;0;0;0;0;0;0;0;0;0;();(-2000.0, -2000.0);
08:46:15:437;08:46:15:410;1448480770.01;(0.44953627586364747, 0.564483896891276);54.2531700134;1.0;08:46:15:436;0;4;-1.5;2.0297619047619;1.46627565982405;0;0;0;1;1;1;1;0;0;0;0;0;0;0;0;0;();(-2000.0, -2000.0);
08:46:15:453;08:46:15:450;1448480770.04;(0.4498401641845703, 0.5652872721354167);54.1558418274;1.0;08:46:15:453;0;0;-1.5;2.26829268292683;2.34604105571848;0;0;0;1;1;1;1;0;0;0;0;0;0;0;0;0;();(-2000.0, -2000.0);
08:46:15:471;08:46:15:450;1448480770.04;(0.4498401641845703, 0.5652872721354167);54.1558418274;1.0;08:46:15:471;0;5;-1.5;2.27839643652561;1.46627565982405;0;0;0;1;1;1;1;0;0;0;0;0;0;0;0;0;();(-2000.0, -2000.0);
08:46:15:486;08:46:15:450;1448480770.04;(0.4498401641845703, 0.5652872721354167);54.1558418274;1.0;08:46:15:486;0;15;-1.5;2.21428571428571;1.85728250244379;0;0;0;1;1;1;1;0;0;0;0;0;0;0;0;0;();(-2000.0, -2000.0);
08:46:15:520;08:46:15:490;1448480770.08;(0.45003390312194824, 0.5651288774278429);53.7025756836;1.0;08:46:15:520;0;9;-1.5;2.0297619047619;1.46627565982405;0;0;0;1;1;1;1;0;0;0;0;0;0;0;0;0;();(-2000.0, -2000.0);
08:46:15:537;08:46:15:534;1448480770.11;(0.45031490325927737, 0.5644860161675347);53.8278388977;1.0;08:46:15:537;0;15;-1.5;2.16737288135593;1.46627565982405;0;0;0;1;1;1;1;0;0;0;0;0;0;0;0;0;();(-2000.0, -2000.0);
08:46:15:553;08:46:15:534;1448480770.11;(0.45031490325927737, 0.5644860161675347);53.8278388977;1.0;08:46:15:553;0;10;-1.5;2.19057815845824;1.46627565982405;0;0;0;1;1;1;1;0;0;0;0;0;0;0;0;0;();(-2000.0, -2000.0);
08:46:15:571;08:46:15:534;1448480770.11;(0.45031490325927737, 0.5644860161675347);53.8278388977;1.0;08:46:15:571;0;15;-1.5;2.30405405405405;1.85728250244379;0;0;0;1;1;1;1;0;0;0;0;0;0;0;0;0;();(-2000.0, -2000.0);
08:46:15:587;08:46:15:574;1448480770.18;(0.4503664970397949, 0.5619032541910807);53.2630386353;1.0;08:46:15:587;0;14;-1.5;2.36805555555556;1.66177908113392;0;0;0;1;1;1;1;0;0;0;0;0;0;0;0;0;();(-2000.0, -2000.0);
08:46:15:621;08:46:15:614;1448480770.21;(0.4502882480621338, 0.5605923546685112);53.1883392334;1.0;08:46:15:621;0;9;-1.5;2.325;1.66177908113392;0;0;0;1;1;1;1;0;0;0;0;0;0;0;0;0;();(-2000.0, -2000.0);
08:46:15:637;08:46:15:614;1448480770.21;(0.4502882480621338, 0.5605923546685112);53.1883392334;1.0;08:46:15:637;0;0;-1.5;2.28348214285714;1.66177908113392;0;0;0;1;1;1;1;0;0;0;0;0;0;0;0;0;();(-2000.0, -2000.0);
08:46:15:655;08:46:15:614;1448480770.21;(0.4502882480621338, 0.5605923546685112);53.1883392334;1.0;08:46:15:655;0;9;-1.5;2.26829268292683;1.85728250244379;0;0;0;1;1;1;1;0;0;0;0;0;0;0;0;0;();(-2000.0, -2000.0);
08:46:15:671;08:46:15:614;1448480770.21;(0.4502882480621338, 0.5605923546685112);53.1883392334;1.0;08:46:15:671;0;15;-1.5;2.22391304347826;2.24828934506354;0;0;0;1;1;1;1;0;0;0;0;0;0;0;0;0;();(-2000.0, -2000.0);
08:46:15:689;08:46:15:614;1448480770.21;(0.4502882480621338, 0.5605923546685112);53.1883392334;1.0;08:46:15:688;0;9;-1.5;2.13125;1.46627565982405;0;0;0;1;1;1;1;0;0;0;0;0;0;0;0;0;();(-2000.0, -2000.0);
08:46:15:721;08:46:15:614;1448480770.21;(0.4502882480621338, 0.5605923546685112);53.1883392334;1.0;08:46:15:721;0;5;-1.5;2.19057815845824;2.1505376344086;0;0;0;1;1;1;1;0;0;0;0;0;0;0;0;0;();(-2000.0, -2000.0);
08:46:15:738;08:46:15:614;1448480770.21;(0.4502882480621338, 0.5605923546685112);53.1883392334;1.0;08:46:15:738;0;15;-1.5;2.30405405405405;1.66177908113392;0;0;0;1;1;1;1;0;0;0;0;0;0;0;0;0;();(-2000.0, -2000.0);
08:46:15:755;08:46:15:614;1448480770.21;(0.4502882480621338, 0.5605923546685112);53.1883392334;1.0;08:46:15:755;0;4;-1.5;2.2;1.85728250244379;0;0;0;1;1;1;1;0;0;0;0;0;0;0;0;0;();(-2000.0, -2000.0);
08:46:15:772;08:46:15:614;1448480770.21;(0.4502882480621338, 0.5605923546685112);53.1883392334;1.0;08:46:15:772;0;9;-1.5;2.24835164835165;1.46627565982405;0;0;0;1;1;1;1;0;0;0;0;0;0;0;0;0;();(-2000.0, -2000.0);
08:46:15:788;08:46:15:614;1448480770.21;(0.4502882480621338, 0.5605923546685112);53.1883392334;1.0;08:46:15:788;0;4;-1.5;2.28348214285714;1.46627565982405;0;0;0;1;1;1;1;0;0;0;0;0;0;0;0;0;();(-2000.0, -2000.0);
08:46:15:805;08:46:15:614;1448480770.21;(0.4502882480621338, 0.5605923546685112);53.1883392334;1.0;08:46:15:805;0;10;-1.5;2.27839643652561;2.34604105571848;0;0;0;1;1;1;1;0;0;0;0;0;0;0;0;0;();(-2000.0, -2000.0);
08:46:15:839;08:46:15:822;1448480770.4;(0.416498589515686, 0.5634415944417317);54.0804214478;1.0;08:46:15:839;0;9;-1.5;2.13125;1.46627565982405;0;0;0;1;1;1;1;0;0;0;0;0;0;0;0;0;();(-2000.0, -2000.0);
08:46:15:855;08:46:15:822;1448480770.4;(0.416498589515686, 0.5634415944417317);54.0804214478;1.0;08:46:15:855;0;0;-1.5;2.12681912681913;1.66177908113392;0;0;0;1;1;1;1;0;0;0;0;0;0;0;0;0;();(-2000.0, -2000.0);
08:46:15:873;08:46:15:866;1448480770.44;(0.4154662132263184, 0.5617309146457248);54.8021774292;1.0;08:46:15:873;0;10;-1.5;2.23851203501094;1.85728250244379;0;0;0;1;1;1;1;0;0;0;0;0;0;0;0;0;();(-2000.0, -2000.0);
08:46:15:889;08:46:15:866;1448480770.44;(0.4154662132263184, 0.5617309146457248);54.8021774292;1.0;08:46:15:889;0;15;-1.5;2.20950323974082;1.46627565982405;0;0;0;1;1;1;1;0;0;0;0;0;0;0;0;0;();(-2000.0, -2000.0);
08:46:15:906;08:46:15:906;1448480770.48;(0.4148364543914795, 0.5606782701280382);54.9312210083;1.0;08:46:15:906;0;10;-1.5;2.07926829268293;1.66177908113392;0;0;0;1;1;1;1;0;0;0;0;0;0;0;0;0;();(-2000.0, -2000.0);
08:46:15:939;08:46:15:906;1448480770.48;(0.4148364543914795, 0.5606782701280382);54.9312210083;1.0;08:46:15:939;0;10;-1.5;2.12681912681913;1.46627565982405;0;0;0;1;1;1;1;0;0;0;0;0;0;0;0;0;();(-2000.0, -2000.0);
08:46:15:956;08:46:15:946;1448480770.54;(0.4142099618911743, 0.5599083794487847);55.6284217834;1.0;08:46:15:956;0;15;-1.5;2.11801242236025;1.46627565982405;0;0;0;1;1;1;1;0;0;0;0;0;0;0;0;0;();(-2000.0, -2000.0);
08:46:15:973;08:46:15:946;1448480770.54;(0.4142099618911743, 0.5599083794487847);55.6284217834;1.0;08:46:15:973;0;4;-1.5;2.01377952755906;1.46627565982405;0;0;0;1;1;1;1;0;0;0;0;0;0;0;0;0;();(-2000.0, -2000.0);
08:46:15:989;08:46:15:946;1448480770.54;(0.4142099618911743, 0.5599083794487847);55.6284217834;1.0;08:46:15:989;0;15;-1.5;2.16737288135593;2.1505376344086;0;0;0;1;1;1;1;0;0;0;0;0;0;0;0;0;();(-2000.0, -2000.0);
08:46:16:006;08:46:15:990;1448480770.58;(0.4139806509017944, 0.5603025648328993);55.8903999329;1.0;08:46:16:006;0;4;-1.5;2.0625;1.46627565982405;0;0;0;1;1;1;1;0;0;0;0;0;0;0;0;0;();(-2000.0, -2000.0);
08:46:16:041;08:46:15:990;1448480770.58;(0.4139806509017944, 0.5603025648328993);55.8903999329;1.0;08:46:16:041;0;5;-1.5;2.07926829268293;1.66177908113392;0;0;0;1;1;1;1;0;0;0;0;0;0;0;0;0;();(-2000.0, -2000.0);
08:46:16:056;08:46:15:990;1448480770.58;(0.4139806509017944, 0.5603025648328993);55.8903999329;1.0;08:46:16:056;0;15;-1.5;2.19057815845824;1.85728250244379;0;0;0;1;1;1;1;0;0;0;0;0;0;0;0;0;();(-2000.0, -2000.0);
08:46:16:073;08:46:15:990;1448480770.58;(0.4139806509017944, 0.5603025648328993);55.8903999329;1.0;08:46:16:073;0;4;-1.5;2.07926829268293;1.46627565982405;0;0;0;1;1;1;1;0;0;0;0;0;0;0;0;0;();(-2000.0, -2000.0);
08:46:16:090;08:46:16:075;1448480770.68;(0.41665096282958985, 0.5677920871310764);56.7458877563;1.0;08:46:16:090;0;0;-1.5;2.28348214285714;1.46627565982405;0;0;0;1;1;1;1;0;0;0;0;0;0;0;0;0;();(-2000.0, -2000.0);
08:46:16:107;08:46:16:075;1448480770.68;(0.41665096282958985, 0.5677920871310764);56.7458877563;1.0;08:46:16:107;0;5;-1.5;2.17659574468085;1.46627565982405;0;0;0;1;1;1;1;0;0;0;0;0;0;0;0;0;();(-2000.0, -2000.0);
08:46:16:141;08:46:16:114;1448480770.71;(0.4167810916900635, 0.5679467942979601);56.9172401428;1.0;08:46:16:141;0;4;-1.5;1.65;1.17302052785924;0;0;0;1;1;1;1;0;0;0;0;0;0;0;0;0;();(-2000.0, -2000.0);
08:46:16:160;08:46:16:154;1448480770.74;(0.416800856590271, 0.5683698866102431);57.4140815735;1.0;08:46:16:160;0;9;-1.5;1.90858208955224;1.36852394916911;0;0;0;1;1;1;1;0;0;0;0;0;0;0;0;0;();(-2000.0, -2000.0);
08:46:16:174;08:46:16:154;1448480770.74;(0.416800856590271, 0.5683698866102431);57.4140815735;1.0;08:46:16:174;0;7;-1.5;2.20950323974082;1.85728250244379;0;0;0;1;1;1;1;0;0;0;0;0;0;0;0;0;();(-2000.0, -2000.0);
08:46:16:192;08:46:16:154;1448480770.74;(0.416800856590271, 0.5683698866102431);57.4140815735;1.0;08:46:16:192;0;10;-1.5;2.26829268292683;1.46627565982405;0;0;0;1;1;1;1;0;0;0;0;0;0;0;0;0;();(-2000.0, -2000.0);
08:46:16:208;08:46:16:198;1448480770.78;(0.4167834997177124, 0.5689819759792751);57.2024154663;1.0;08:46:16:208;0;15;-1.5;2.33561643835616;1.66177908113392;0;0;0;1;1;1;1;0;0;0;0;0;0;0;0;0;();(-2000.0, -2000.0);
08:46:16:241;08:46:16:238;1448480770.81;(0.41679675579071046, 0.5696825239393446);57.3004608154;1.0;08:46:16:241;0;0;-1.5;2.31972789115646;1.66177908113392;0;0;0;1;1;1;1;0;0;0;0;0;0;0;0;0;();(-2000.0, -2000.0);
08:46:16:258;08:46:16:238;1448480770.81;(0.41679675579071046, 0.5696825239393446);57.3004608154;1.0;08:46:16:258;0;10;-1.5;2.25330396475771;1.46627565982405;0;0;0;1;1;1;1;0;0;0;0;0;0;0;0;0;();(-2000.0, -2000.0);
08:46:16:274;08:46:16:238;1448480770.81;(0.41679675579071046, 0.5696825239393446);57.3004608154;1.0;08:46:16:274;0;15;-1.5;2.12681912681913;1.66177908113392;0;0;0;1;1;1;1;0;0;0;0;0;0;0;0;0;();(-2000.0, -2000.0);
08:46:16:291;08:46:16:278;1448480770.88;(0.41731624603271483, 0.5699721866183811);57.7325401306;1.0;08:46:16:291;0;10;-1.5;2.24835164835165;1.46627565982405;0;0;0;1;1;1;1;0;0;0;0;0;0;0;0;0;();(-2000.0, -2000.0);
08:46:16:308;08:46:16:278;1448480770.88;(0.41731624603271483, 0.5699721866183811);57.7325401306;1.0;08:46:16:308;0;15;-1.5;2.325;1.85728250244379;0;0;0;1;1;1;1;0;0;0;0;0;0;0;0;0;();(-2000.0, -2000.0);
08:46:16:327;08:46:16:322;1448480770.91;(0.4172875165939331, 0.5703216976589627);57.9455566406;1.0;08:46:16:327;0;4;-1.5;2.19057815845824;1.46627565982405;0;0;0;1;1;1;1;0;0;0;0;0;0;0;0;0;();(-2000.0, -2000.0);
08:46:16:358;08:46:16:322;1448480770.91;(0.4172875165939331, 0.5703216976589627);57.9455566406;1.0;08:46:16:358;0;10;-1.5;2.14915966386555;1.66177908113392;0;0;0;1;1;1;1;0;0;0;0;0;0;0;0;0;();(-2000.0, -2000.0);
08:46:16:376;08:46:16:362;1448480770.94;(0.4169097661972046, 0.5677908155653212);57.6062355042;0.841490360982;08:46:16:375;0;15;-1.5;2.07926829268293;1.46627565982405;0;0;0;1;1;1;1;0;0;0;0;0;0;0;0;0;();(-2000.0, -2000.0);
08:46:16:392;08:46:16:362;1448480770.94;(0.4169097661972046, 0.5677908155653212);57.6062355042;0.841490360982;08:46:16:392;0;9;-1.5;2.07926829268293;1.46627565982405;0;0;0;1;1;1;1;0;0;0;0;0;0;0;0;0;();(-2000.0, -2000.0);
08:46:16:409;08:46:16:402;1448480770.98;(0, 0);0;0;08:46:16:409;0;15;-1.5;1.97109826589595;1.36852394916911;0;0;0;1;1;1;1;0;0;0;0;0;0;0;0;0;();(-2000.0, -2000.0);
08:46:16:426;08:46:16:402;1448480770.98;(0, 0);0;0;08:46:16:426;0;5;-1.5;1.998046875;1.36852394916911;0;0;0;1;1;1;1;0;0;0;0;0;0;0;0;0;();(-2000.0, -2000.0);
08:46:16:459;08:46:16:446;1448480771.04;(0.3092806816101074, 0.5263834211561416);26.2793598175;0.648222870641;08:46:16:459;0;15;-1.5;1.83333333333333;1.46627565982405;0;0;0;1;1;1;1;0;0;0;0;0;0;0;0;0;();(-2000.0, -2000.0);
08:46:16:476;08:46:16:446;1448480771.04;(0.3092806816101074, 0.5263834211561416);26.2793598175;0.648222870641;08:46:16:476;0;9;-1.5;1.95229007633588;1.36852394916911;0;0;0;1;1;1;1;0;0;0;0;0;0;0;0;0;();(-2000.0, -2000.0);
08:46:16:495;08:46:16:486;1448480771.08;(0.4104166507720947, 0.5664111667209202);56.4768218994;0.936124443258;08:46:16:494;0;4;-1.5;2.22391304347826;1.85728250244379;0;0;0;1;1;1;1;0;0;0;0;0;0;0;0;0;();(-2000.0, -2000.0);
08:46:16:509;08:46:16:486;1448480771.08;(0.4104166507720947, 0.5664111667209202);56.4768218994;0.936124443258;08:46:16:509;0;10;-1.5;2.24835164835165;1.46627565982405;0;0;0;1;1;1;1;0;0;0;0;0;0;0;0;0;();(-2000.0, -2000.0);
08:46:16:526;08:46:16:486;1448480771.08;(0.4104166507720947, 0.5664111667209202);56.4768218994;0.936124443258;08:46:16:526;0;5;-1.5;2.22391304347826;1.46627565982405;0;0;0;1;1;1;1;0;0;0;0;0;0;0;0;0;();(-2000.0, -2000.0);
08:46:16:561;08:46:16:530;1448480771.11;(0.4104130744934082, 0.5694343566894531);58.4143791199;1.0;08:46:16:561;0;4;-1.5;2.30405405405405;1.66177908113392;0;0;0;1;1;1;1;0;0;0;0;0;0;0;0;0;();(-2000.0, -2000.0);
08:46:16:576;08:46:16:570;1448480771.14;(0.4114943504333496, 0.568724865383572);58.7262153625;1.0;08:46:16:576;0;9;-1.5;2.17659574468085;2.1505376344086;0;0;0;1;1;1;1;0;0;0;0;0;0;0;0;0;();(-2000.0, -2000.0);
08:46:16:593;08:46:16:570;1448480771.14;(0.4114943504333496, 0.568724865383572);58.7262153625;1.0;08:46:16:593;0;15;-1.5;2.16737288135593;1.46627565982405;0;0;0;1;1;1;1;0;0;0;0;0;0;0;0;0;();(-2000.0, -2000.0);
08:46:16:611;08:46:16:610;1448480771.21;(0.4128511905670166, 0.5679137759738498);58.7406539917;1.0;08:46:16:611;0;4;-1.5;2.21428571428571;1.46627565982405;0;0;0;1;1;1;1;0;0;0;0;0;0;0;0;0;();(-2000.0, -2000.0);
08:46:16:627;08:46:16:610;1448480771.21;(0.4128511905670166, 0.5679137759738498);58.7406539917;1.0;08:46:16:627;0;15;-1.5;2.26829268292683;2.34604105571848;0;0;0;1;1;1;1;0;0;0;0;0;0;0;0;0;();(-2000.0, -2000.0);
08:46:16:661;08:46:16:654;1448480771.24;(0.4133500099182129, 0.5685995313856337);58.6167182922;1.0;08:46:16:660;0;4;-1.5;2.325;1.66177908113392;0;0;0;1;1;1;1;0;0;0;0;0;0;0;0;0;();(-2000.0, -2000.0);
08:46:16:677;08:46:16:654;1448480771.24;(0.4133500099182129, 0.5685995313856337);58.6167182922;1.0;08:46:16:677;0;10;-1.5;2.16737288135593;1.85728250244379;0;0;0;1;1;1;1;0;0;0;0;0;0;0;0;0;();(-2000.0, -2000.0);
08:46:16:693;08:46:16:654;1448480771.24;(0.4133500099182129, 0.5685995313856337);58.6167182922;1.0;08:46:16:693;0;15;-1.5;2.28348214285714;1.85728250244379;0;0;0;1;1;1;1;0;0;0;0;0;0;0;0;0;();(-2000.0, -2000.0);
08:46:16:710;08:46:16:694;1448480771.28;(0.4141041040420532, 0.5689081827799479);58.9143753052;1.0;08:46:16:709;0;4;-1.5;2.14915966386555;1.46627565982405;0;0;0;1;1;1;1;0;0;0;0;0;0;0;0;0;();(-2000.0, -2000.0);
08:46:16:727;08:46:16:694;1448480771.28;(0.4141041040420532, 0.5689081827799479);58.9143753052;1.0;08:46:16:727;0;0;-1.5;2.22391304347826;1.85728250244379;0;0;0;1;1;1;1;0;0;0;0;0;0;0;0;0;();(-2000.0, -2000.0);
08:46:16:761;08:46:16:734;1448480771.31;(0.4147423267364502, 0.569160164727105);58.7660102844;1.0;08:46:16:761;0;10;-1.5;2.325;1.85728250244379;0;0;0;1;1;1;1;0;0;0;0;0;0;0;0;0;();(-2000.0, -2000.0);
08:46:16:778;08:46:16:778;1448480771.34;(0.4144135475158691, 0.5679878234863281);58.2108306885;1.0;08:46:16:778;0;4;-1.5;2.22391304347826;1.85728250244379;0;0;0;1;1;1;1;0;0;0;0;0;0;0;0;0;();(-2000.0, -2000.0);
08:46:16:795;08:46:16:778;1448480771.34;(0.4144135475158691, 0.5679878234863281);58.2108306885;1.0;08:46:16:795;0;15;-1.5;2.31972789115646;1.66177908113392;0;0;0;1;1;1;1;0;0;0;0;0;0;0;0;0;();(-2000.0, -2000.0);
08:46:16:811;08:46:16:778;1448480771.34;(0.4144135475158691, 0.5679878234863281);58.2108306885;1.0;08:46:16:811;0;5;-1.5;2.325;1.66177908113392;0;0;0;1;1;1;1;0;0;0;0;0;0;0;0;0;();(-2000.0, -2000.0);
08:46:16:828;08:46:16:818;1448480771.38;(0.40351779460906984, 0.549080827501085);59.2775611877;1.0;08:46:16:828;0;10;-1.5;2.24835164835165;1.46627565982405;0;0;0;1;1;1;1;0;0;0;0;0;0;0;0;0;();(-2000.0, -2000.0);
08:46:16:861;08:46:16:818;1448480771.38;(0.40351779460906984, 0.549080827501085);59.2775611877;1.0;08:46:16:861;0;9;-1.5;2.0501002004008;1.46627565982405;0;0;0;1;1;1;1;0;0;0;0;0;0;0;0;0;();(-2000.0, -2000.0);
08:46:16:879;08:46:16:862;1448480771.42;(0.40395348072052, 0.5459783342149522);59.2430305481;1.0;08:46:16:879;0;4;-1.5;2.11801242236025;1.46627565982405;0;0;0;1;1;1;1;0;0;0;0;0;0;0;0;0;();(-2000.0, -2000.0);
08:46:16:895;08:46:16:862;1448480771.42;(0.40395348072052, 0.5459783342149522);59.2430305481;1.0;08:46:16:895;0;15;-1.5;2.10493827160494;1.46627565982405;0;0;0;1;1;1;1;0;0;0;0;0;0;0;0;0;();(-2000.0, -2000.0);
08:46:16:913;08:46:16:902;1448480771.48;(0.2928507328033447, 0.6878714243570964);23.8978900909;0.846957215761;08:46:16:913;0;15;-1.5;2.1006160164271;1.46627565982405;0;0;0;1;1;1;1;0;0;0;0;0;0;0;0;0;();(-2000.0, -2000.0);
08:46:16:929;08:46:16:902;1448480771.48;(0.2928507328033447, 0.6878714243570964);23.8978900909;0.846957215761;08:46:16:929;0;10;-1.5;2.24835164835165;2.34604105571848;0;0;0;1;1;1;1;0;0;0;0;0;0;0;0;0;();(-2000.0, -2000.0);
08:46:16:947;08:46:16:942;1448480771.54;(0.29295670986175537, 0.6879445181952583);22.733259201;0.928975030258;08:46:16:947;0;15;-1.5;2.325;1.85728250244379;0;0;0;1;1;1;1;0;0;0;0;0;0;0;0;0;();(-2000.0, -2000.0);
08:46:16:979;08:46:16:942;1448480771.54;(0.29295670986175537, 0.6879445181952583);22.733259201;0.928975030258;08:46:16:979;0;4;-1.5;2.26829268292683;1.46627565982405;0;0;0;1;1;1;1;0;0;0;0;0;0;0;0;0;();(-2000.0, -2000.0);
08:46:16:996;08:46:16:986;1448480771.58;(0.2922873020172119, 0.6881963517930773);22.6258945465;0.899597920582;08:46:16:996;0;10;-1.5;2.13125;1.66177908113392;0;0;0;1;1;1;1;0;0;0;0;0;0;0;0;0;();(-2000.0, -2000.0);
08:46:17:012;08:46:16:986;1448480771.58;(0.2922873020172119, 0.6881963517930773);22.6258945465;0.899597920582;08:46:17:012;0;15;-1.5;1.69370860927152;1.17302052785924;0;0;0;1;1;1;1;0;0;0;0;0;0;0;0;0;();(-2000.0, -2000.0);
08:46:17:029;08:46:17:026;1448480771.61;(0.29172074794769287, 0.6882903205023871);22.9750061035;0.992476249655;08:46:17:029;0;4;-1.5;1.99415204678363;1.36852394916911;0;0;0;1;1;1;1;0;0;0;0;0;0;0;0;0;();(-2000.0, -2000.0);
08:46:17:046;08:46:17:026;1448480771.61;(0.29172074794769287, 0.6882903205023871);22.9750061035;0.992476249655;08:46:17:046;0;0;-1.5;2.16737288135593;1.46627565982405;0;0;0;1;1;1;1;0;0;0;0;0;0;0;0;0;();(-2000.0, -2000.0);
08:46:17:079;08:46:17:066;1448480771.64;(0.29149508476257324, 0.688095940483941);22.7835903168;0.842618239698;08:46:17:079;0;15;-1.5;2.24835164835165;1.46627565982405;0;0;0;1;1;1;1;0;0;0;0;0;0;0;0;0;();(-2000.0, -2000.0);
08:46:17:096;08:46:17:066;1448480771.64;(0.29149508476257324, 0.688095940483941);22.7835903168;0.842618239698;08:46:17:096;0;10;-1.5;2.36805555555556;1.66177908113392;0;0;0;1;1;1;1;0;0;0;0;0;0;0;0;0;();(-2000.0, -2000.0);
08:46:17:114;08:46:17:111;1448480771.71;(0.2914175510406494, 0.6872016270955403);23.3745861053;0.986955908934;08:46:17:114;0;15;-1.5;2.36805555555556;1.95503421309873;0;0;0;1;1;1;1;0;0;0;0;0;0;0;0;0;();(-2000.0, -2000.0);
08:46:17:130;08:46:17:111;1448480771.71;(0.2914175510406494, 0.6872016270955403);23.3745861053;0.986955908934;08:46:17:130;0;9;-1.5;2.20950323974082;1.85728250244379;0;0;0;1;1;1;1;0;0;0;0;0;0;0;0;0;();(-2000.0, -2000.0);
08:46:17:146;08:46:17:111;1448480771.71;(0.2914175510406494, 0.6872016270955403);23.3745861053;0.986955908934;08:46:17:146;0;0;-1.5;2.24835164835165;2.34604105571848;0;0;0;1;1;1;1;0;0;0;0;0;0;0;0;0;();(-2000.0, -2000.0);
08:46:17:180;08:46:17:150;1448480771.74;(0.2916194677352905, 0.6865282270643447);22.998210907;0.838190748236;08:46:17:180;0;10;-1.5;2.20950323974082;1.46627565982405;0;0;0;1;1;1;1;0;0;0;0;0;0;0;0;0;();(-2000.0, -2000.0);
08:46:17:197;08:46:17:190;1448480771.78;(0.4148751974105835, 0.5278867933485243);59.6999130249;1.0;08:46:17:197;0;4;-1.5;2.325;1.66177908113392;0;0;0;1;1;1;1;0;0;0;0;0;0;0;0;0;();(-2000.0, -2000.0);
08:46:17:215;08:46:17:190;1448480771.78;(0.4148751974105835, 0.5278867933485243);59.6999130249;1.0;08:46:17:214;0;9;-1.5;2.13125;1.46627565982405;0;0;0;1;1;1;1;0;0;0;0;0;0;0;0;0;();(-2000.0, -2000.0);
08:46:17:230;08:46:17:190;1448480771.78;(0.4148751974105835, 0.5278867933485243);59.6999130249;1.0;08:46:17:230;0;5;-1.5;2.24835164835165;1.85728250244379;0;0;0;1;1;1;1;0;0;0;0;0;0;0;0;0;();(-2000.0, -2000.0);
08:46:17:247;08:46:17:234;1448480771.81;(0.42654578685760497, 0.5114168802897135);58.6943397522;1.0;08:46:17:247;0;15;-1.5;2.0297619047619;1.46627565982405;0;0;0;1;1;1;1;0;0;0;0;0;0;0;0;0;();(-2000.0, -2000.0);
08:46:17:280;08:46:17:274;1448480771.84;(0.42599854469299314, 0.5118485344780817);59.0493927002;1.0;08:46:17:280;0;9;-1.5;1.998046875;1.46627565982405;0;0;0;1;1;1;1;0;0;0;0;0;0;0;0;0;();(-2000.0, -2000.0);
08:46:17:297;08:46:17:274;1448480771.84;(0.42599854469299314, 0.5118485344780817);59.0493927002;1.0;08:46:17:297;0;4;-1.5;2.0625;1.46627565982405;0;0;0;1;1;1;1;0;0;0;0;0;0;0;0;0;();(-2000.0, -2000.0);
08:46:17:315;08:46:17:274;1448480771.84;(0.42599854469299314, 0.5118485344780817);59.0493927002;1.0;08:46:17:315;0;10;-1.5;1.97109826589595;1.46627565982405;0;0;0;1;1;1;1;0;0;0;0;0;0;0;0;0;();(-2000.0, -2000.0);
08:46:17:331;08:46:17:318;1448480771.91;(0.42504057884216306, 0.5130169762505425);58.861492157;1.0;08:46:17:331;0;5;-1.5;2.00588235294118;1.36852394916911;0;0;0;1;1;1;1;0;0;0;0;0;0;0;0;0;();(-2000.0, -2000.0);
08:46:17:348;08:46:17:318;1448480771.91;(0.42504057884216306, 0.5130169762505425);58.861492157;1.0;08:46:17:348;0;10;-1.5;1.998046875;1.36852394916911;0;0;0;1;1;1;1;0;0;0;0;0;0;0;0;0;();(-2000.0, -2000.0);
08:46:17:381;08:46:17:358;1448480771.94;(0.4246713399887085, 0.5138742234971788);58.688129425;1.0;08:46:17:381;0;9;-1.5;2.00588235294118;1.36852394916911;0;0;0;1;1;1;1;0;0;0;0;0;0;0;0;0;();(-2000.0, -2000.0);
08:46:17:398;08:46:17:398;1448480771.98;(0.42459750175476074, 0.514024141099718);58.4529495239;1.0;08:46:17:398;0;15;-1.5;2.21428571428571;1.85728250244379;0;0;0;1;1;1;1;0;0;0;0;0;0;0;0;0;();(-2000.0, -2000.0);
08:46:17:415;08:46:17:398;1448480771.98;(0.42459750175476074, 0.514024141099718);58.4529495239;1.0;08:46:17:415;0;4;-1.5;2.13125;1.85728250244379;0;0;0;1;1;1;1;0;0;0;0;0;0;0;0;0;();(-2000.0, -2000.0);
08:46:17:432;08:46:17:398;1448480771.98;(0.42459750175476074, 0.514024141099718);58.4529495239;1.0;08:46:17:432;0;15;-1.5;2.325;1.85728250244379;0;0;0;1;1;1;1;0;0;0;0;0;0;0;0;0;();(-2000.0, -2000.0);
08:46:17:448;08:46:17:442;1448480772.01;(0.42439820766448977, 0.5141870286729601);58.2840270996;1.0;08:46:17:448;0;9;-1.5;2.07085020242915;1.46627565982405;0;0;0;1;1;1;1;0;0;0;0;0;0;0;0;0;();(-2000.0, -2000.0);
08:46:17:467;08:46:17:442;1448480772.01;(0.42439820766448977, 0.5141870286729601);58.2840270996;1.0;08:46:17:467;0;15;-1.5;2.28348214285714;1.66177908113392;0;0;0;1;1;1;1;0;0;0;0;0;0;0;0;0;();(-2000.0, -2000.0);
08:46:17:499;08:46:17:442;1448480772.01;(0.42439820766448977, 0.5141870286729601);58.2840270996;1.0;08:46:17:499;0;15;-1.5;2.27839643652561;1.46627565982405;0;0;0;1;1;1;1;0;0;0;0;0;0;0;0;0;();(-2000.0, -2000.0);
08:46:17:515;08:46:17:442;1448480772.01;(0.42439820766448977, 0.5141870286729601);58.2840270996;1.0;08:46:17:515;0;4;-1.5;2.07926829268293;1.46627565982405;0;0;0;1;1;1;1;0;0;0;0;0;0;0;0;0;();(-2000.0, -2000.0);
08:46:17:532;08:46:17:442;1448480772.01;(0.42439820766448977, 0.5141870286729601);58.2840270996;1.0;08:46:17:532;0;10;-1.5;2.14915966386555;1.46627565982405;0;0;0;1;1;1;1;0;0;0;0;0;0;0;0;0;();(-2000.0, -2000.0);
08:46:17:549;08:46:17:442;1448480772.01;(0.42439820766448977, 0.5141870286729601);58.2840270996;1.0;08:46:17:549;0;5;-1.5;2.25330396475771;1.46627565982405;0;0;0;1;1;1;1;0;0;0;0;0;0;0;0;0;();(-2000.0, -2000.0);
08:46:17:566;08:46:17:442;1448480772.01;(0.42439820766448977, 0.5141870286729601);58.2840270996;1.0;08:46:17:566;0;9;-1.5;2.24835164835165;1.46627565982405;0;0;0;1;1;1;1;0;0;0;0;0;0;0;0;0;();(-2000.0, -2000.0);
08:46:17:599;08:46:17:442;1448480772.01;(0.42439820766448977, 0.5141870286729601);58.2840270996;1.0;08:46:17:599;0;9;-1.5;2.11801242236025;1.46627565982405;0;0;0;1;1;1;1;0;0;0;0;0;0;0;0;0;();(-2000.0, -2000.0);
08:46:17:616;08:46:17:442;1448480772.01;(0.42439820766448977, 0.5141870286729601);58.2840270996;1.0;08:46:17:616;0;5;-1.5;2.23851203501094;2.24828934506354;0;0;0;1;1;1;1;0;0;0;0;0;0;0;0;0;();(-2000.0, -2000.0);
08:46:17:634;08:46:17:442;1448480772.01;(0.42439820766448977, 0.5141870286729601);58.2840270996;1.0;08:46:17:634;0;9;-1.5;2.27839643652561;1.46627565982405;0;0;0;1;1;1;1;0;0;0;0;0;0;0;0;0;();(-2000.0, -2000.0);
08:46:17:651;08:46:17:650;1448480772.04;(0.42656118869781495, 0.5136971367730034);58.5411682129;0.998590434516;08:46:17:651;0;15;-1.5;2.14915966386555;1.46627565982405;0;0;0;1;1;1;1;0;0;0;0;0;0;0;0;0;();(-2000.0, -2000.0);
08:46:17:666;08:46:17:650;1448480772.04;(0.42656118869781495, 0.5136971367730034);58.5411682129;0.998590434516;08:46:17:666;0;9;-1.5;2.16737288135593;1.46627565982405;0;0;0;1;1;1;1;0;0;0;0;0;0;0;0;0;();(-2000.0, -2000.0);
08:46:17:700;08:46:17:690;1448480772.28;(0.45590639114379883, 0.49873004489474826);55.3092041016;1.0;08:46:17:700;0;10;-1.5;2.19057815845824;1.46627565982405;0;0;0;1;1;1;1;0;0;0;0;0;0;0;0;0;();(-2000.0, -2000.0);
08:46:17:717;08:46:17:690;1448480772.28;(0.45590639114379883, 0.49873004489474826);55.3092041016;1.0;08:46:17:717;0;15;-1.5;2.01377952755906;1.36852394916911;0;0;0;1;1;1;1;0;0;0;0;0;0;0;0;0;();(-2000.0, -2000.0);
08:46:17:733;08:46:17:730;1448480772.31;(0.4558143615722656, 0.498951170179579);54.9631347656;1.0;08:46:17:733;0;10;-1.5;2.24835164835165;1.46627565982405;0;0;0;1;1;1;1;0;0;0;0;0;0;0;0;0;();(-2000.0, -2000.0);
08:46:17:751;08:46:17:730;1448480772.31;(0.4558143615722656, 0.498951170179579);54.9631347656;1.0;08:46:17:751;0;15;-1.5;2.28348214285714;1.56402737047898;0;0;0;1;1;1;1;0;0;0;0;0;0;0;0;0;();(-2000.0, -2000.0);
08:46:17:769;08:46:17:730;1448480772.31;(0.4558143615722656, 0.498951170179579);54.9631347656;1.0;08:46:17:769;0;4;-1.5;2.20950323974082;1.85728250244379;0;0;0;1;1;1;1;0;0;0;0;0;0;0;0;0;();(-2000.0, -2000.0);
08:46:17:800;08:46:17:774;1448480772.38;(0.4557472229003906, 0.49952121310763886);54.7352714539;1.0;08:46:17:799;0;10;-1.5;2.2;1.46627565982405;0;0;0;1;1;1;1;0;0;0;0;0;0;0;0;0;();(-2000.0, -2000.0);
08:46:17:817;08:46:17:814;1448480772.41;(0.4557307243347168, 0.4998611874050565);54.4652366638;1.0;08:46:17:817;0;15;-1.5;2.21428571428571;1.46627565982405;0;0;0;1;1;1;1;0;0;0;0;0;0;0;0;0;();(-2000.0, -2000.0);
08:46:17:834;08:46:17:814;1448480772.41;(0.4557307243347168, 0.4998611874050565);54.4652366638;1.0;08:46:17:834;0;4;-1.5;2.24835164835165;1.46627565982405;0;0;0;1;1;1;1;0;0;0;0;0;0;0;0;0;();(-2000.0, -2000.0);
08:46:17:851;08:46:17:814;1448480772.41;(0.4557307243347168, 0.4998611874050565);54.4652366638;1.0;08:46:17:851;0;9;-1.5;2.0501002004008;1.46627565982405;0;0;0;1;1;1;1;0;0;0;0;0;0;0;0;0;();(-2000.0, -2000.0);
08:46:17:868;08:46:17:854;1448480772.44;(0.4556124687194824, 0.4999458312988281);54.3198204041;1.0;08:46:17:868;0;5;-1.5;2.1006160164271;1.46627565982405;0;0;0;1;1;1;1;0;0;0;0;0;0;0;0;0;();(-2000.0, -2000.0);
08:46:17:901;08:46:17:899;1448480772.48;(0.4556295394897461, 0.5001780615912543);54.3742408752;1.0;08:46:17:901;0;4;-1.5;2.11801242236025;1.66177908113392;0;0;0;1;1;1;1;0;0;0;0;0;0;0;0;0;();(-2000.0, -2000.0);
08:46:17:918;08:46:17:899;1448480772.48;(0.4556295394897461, 0.5001780615912543);54.3742408752;1.0;08:46:17:918;0;9;-1.5;2.13125;1.66177908113392;0;0;0;1;1;1;1;0;0;0;0;0;0;0;0;0;();(-2000.0, -2000.0);
08:46:17:935;08:46:17:899;1448480772.48;(0.4556295394897461, 0.5001780615912543);54.3742408752;1.0;08:46:17:935;0;4;-1.5;2.28348214285714;1.66177908113392;0;0;0;1;1;1;1;0;0;0;0;0;0;0;0;0;();(-2000.0, -2000.0);
08:46:17:951;08:46:17:938;1448480772.51;(0.45430917739868165, 0.49996168348524306);54.1424674988;1.0;08:46:17:951;0;10;-1.5;2.16737288135593;1.46627565982405;0;0;0;1;1;1;1;0;0;0;0;0;0;0;0;0;();(-2000.0, -2000.0);
08:46:17:969;08:46:17:938;1448480772.51;(0.45430917739868165, 0.49996168348524306);54.1424674988;1.0;08:46:17:969;0;15;-1.5;1.97109826589595;1.46627565982405;0;0;0;1;1;1;1;0;0;0;0;0;0;0;0;0;();(-2000.0, -2000.0);
08:46:17:986;08:46:17:978;1448480772.54;(0.4310441970825195, 0.49389788309733074);54.7467727661;1.0;08:46:17:986;0;9;-1.5;1.82678571428571;1.36852394916911;0;0;0;1;1;1;1;0;0;0;0;0;0;0;0;0;();(-2000.0, -2000.0);
08:46:18:018;08:46:17:978;1448480772.54;(0.4310441970825195, 0.49389788309733074);54.7467727661;1.0;08:46:18:017;0;9;-1.5;2.00195694716243;1.46627565982405;0;0;0;1;1;1;1;0;0;0;0;0;0;0;0;0;();(-2000.0, -2000.0);
08:46:18:035;08:46:18:023;1448480772.61;(0.42979607582092283, 0.49446631537543406);54.7220993042;1.0;08:46:18:035;0;5;-1.5;2.11801242236025;1.46627565982405;0;0;0;1;1;1;1;0;0;0;0;0;0;0;0;0;();(-2000.0, -2000.0);
08:46:18:053;08:46:18:023;1448480772.61;(0.42979607582092283, 0.49446631537543406);54.7220993042;1.0;08:46:18:053;0;10;-1.5;2.28348214285714;1.66177908113392;0;0;0;1;1;1;1;0;0;0;0;0;0;0;0;0;();(-2000.0, -2000.0);
08:46:18:069;08:46:18:062;1448480772.64;(0.4299160003662109, 0.4949225955539279);54.4113197327;1.0;08:46:18:069;0;15;-1.5;2.35172413793103;2.34604105571848;0;0;0;1;1;1;1;0;0;0;0;0;0;0;0;0;();(-2000.0, -2000.0);
08:46:18:086;08:46:18:062;1448480772.64;(0.4299160003662109, 0.4949225955539279);54.4113197327;1.0;08:46:18:086;0;5;-1.5;2.36258660508083;1.66177908113392;0;0;0;1;1;1;1;0;0;0;0;0;0;0;0;0;();(-2000.0, -2000.0);
08:46:18:119;08:46:18:106;1448480772.68;(0.4299149036407471, 0.4951361762152777);54.544128418;1.0;08:46:18:119;0;10;-1.5;2.36805555555556;1.66177908113392;0;0;0;1;1;1;1;0;0;0;0;0;0;0;0;0;();(-2000.0, -2000.0);
08:46:18:136;08:46:18:106;1448480772.68;(0.4299149036407471, 0.4951361762152777);54.544128418;1.0;08:46:18:136;0;15;-1.5;2.17659574468085;1.46627565982405;0;0;0;1;1;1;1;0;0;0;0;0;0;0;0;0;();(-2000.0, -2000.0);
08:46:18:153;08:46:18:146;1448480772.74;(0.4301095485687256, 0.49518792894151475);54.392906189;1.0;08:46:18:153;0;9;-1.5;2.16737288135593;1.66177908113392;0;0;0;1;1;1;1;0;0;0;0;0;0;0;0;0;();(-2000.0, -2000.0);
08:46:18:170;08:46:18:146;1448480772.74;(0.4301095485687256, 0.49518792894151475);54.392906189;1.0;08:46:18:170;0;15;-1.5;2.24835164835165;1.85728250244379;0;0;0;1;1;1;1;0;0;0;0;0;0;0;0;0;();(-2000.0, -2000.0);
08:46:18:186;08:46:18:186;1448480772.78;(0.4301000118255615, 0.4954292297363281);54.353351593;1.0;08:46:18:186;0;5;-1.5;2.25330396475771;2.34604105571848;0;0;0;1;1;1;1;0;0;0;0;0;0;0;0;0;();(-2000.0, -2000.0);
08:46:18:220;08:46:18:186;1448480772.78;(0.4301000118255615, 0.4954292297363281);54.353351593;1.0;08:46:18:220;0;4;-1.5;2.24835164835165;1.85728250244379;0;0;0;1;1;1;1;0;0;0;0;0;0;0;0;0;();(-2000.0, -2000.0);
08:46:18:237;08:46:18:230;1448480772.81;(0.5042614936828613, 0.8295857217576769);26.8153896332;1.0;08:46:18:237;0;9;-1.5;2.0297619047619;1.46627565982405;0;0;0;1;1;1;1;0;0;0;0;0;0;0;0;0;();(-2000.0, -2000.0);
08:46:18:253;08:46:18:230;1448480772.81;(0.5042614936828613, 0.8295857217576769);26.8153896332;1.0;08:46:18:253;0;4;-1.5;2.1006160164271;1.46627565982405;0;0;0;1;1;1;1;0;0;0;0;0;0;0;0;0;();(-2000.0, -2000.0);
08:46:18:271;08:46:18:270;1448480772.84;(0.39994173049926757, 0.501883061726888);55.0472183228;1.0;08:46:18:271;0;10;-1.5;2.11801242236025;1.46627565982405;0;0;0;1;1;1;1;0;0;0;0;0;0;0;0;0;();(-2000.0, -2000.0);
08:46:18:287;08:46:18:270;1448480772.84;(0.39994173049926757, 0.501883061726888);55.0472183228;1.0;08:46:18:287;0;5;-1.5;1.97490347490347;1.36852394916911;0;0;0;1;1;1;1;0;0;0;0;0;0;0;0;0;();(-2000.0, -2000.0);
08:46:18:321;08:46:18:310;1448480772.88;(0.3995641231536865, 0.5022776709662544);55.2870979309;1.0;08:46:18:321;0;0;-1.5;2.07926829268293;1.46627565982405;0;0;0;1;1;1;1;0;0;0;0;0;0;0;0;0;();(-2000.0, -2000.0);
08:46:18:337;08:46:18:310;1448480772.88;(0.3995641231536865, 0.5022776709662544);55.2870979309;1.0;08:46:18:337;0;10;-1.5;2.13125;1.46627565982405;0;0;0;1;1;1;1;0;0;0;0;0;0;0;0;0;();(-2000.0, -2000.0);
08:46:18:354;08:46:18:354;1448480772.94;(0.3993720769882202, 0.5023014492458767);55.2170944214;1.0;08:46:18:354;0;5;-1.5;2.16737288135593;1.66177908113392;0;0;0;1;1;1;1;0;0;0;0;0;0;0;0;0;();(-2000.0, -2000.0);
08:46:18:371;08:46:18:354;1448480772.94;(0.3993720769882202, 0.5023014492458767);55.2170944214;1.0;08:46:18:371;0;10;-1.5;2.41843971631206;1.85728250244379;0;0;0;1;1;1;1;0;0;0;0;0;0;0;0;0;();(-2000.0, -2000.0);
08:46:18:388;08:46:18:354;1448480772.94;(0.3993720769882202, 0.5023014492458767);55.2170944214;1.0;08:46:18:388;0;15;-1.5;2.28348214285714;1.66177908113392;0;0;0;1;1;1;1;0;0;0;0;0;0;0;0;0;();(-2000.0, -2000.0);
08:46:18:421;08:46:18:394;1448480772.98;(0.39943101406097414, 0.5023969014485676);55.4869155884;1.0;08:46:18:421;0;0;-1.5;2.22391304347826;1.46627565982405;0;0;0;1;1;1;1;0;0;0;0;0;0;0;0;0;();(-2000.0, -2000.0);
08:46:18:439;08:46:18:438;1448480773.01;(0.3994202375411987, 0.5024748908148872);55.5105857849;1.0;08:46:18:439;0;10;-1.5;2.24835164835165;1.46627565982405;0;0;0;1;1;1;1;0;0;0;0;0;0;0;0;0;();(-2000.0, -2000.0);
08:46:18:454;08:46:18:438;1448480773.01;(0.3994202375411987, 0.5024748908148872);55.5105857849;1.0;08:46:18:454;0;15;-1.5;2.19057815845824;1.46627565982405;0;0;0;1;1;1;1;0;0;0;0;0;0;0;0;0;();(-2000.0, -2000.0);
08:46:18:472;08:46:18:438;1448480773.01;(0.3994202375411987, 0.5024748908148872);55.5105857849;1.0;08:46:18:471;0;9;-1.5;2.13125;1.46627565982405;0;0;0;1;1;1;1;0;0;0;0;0;0;0;0;0;();(-2000.0, -2000.0);
08:46:18:488;08:46:18:478;1448480773.08;(0.3999375343322754, 0.5024166107177734);55.5938072205;1.0;08:46:18:488;0;15;-1.5;2.21428571428571;2.24828934506354;0;0;0;1;1;1;1;0;0;0;0;0;0;0;0;0;();(-2000.0, -2000.0);
08:46:18:522;08:46:18:519;1448480773.11;(0.3996387243270874, 0.505082533094618);55.4785652161;0.941332214605;08:46:18:522;0;10;-1.5;2.21428571428571;2.1505376344086;0;0;0;1;1;1;1;0;0;0;0;0;0;0;0;0;();(-2000.0, -2000.0);
08:46:18:539;08:46:18:519;1448480773.11;(0.3996387243270874, 0.505082533094618);55.4785652161;0.941332214605;08:46:18:539;0;4;-1.5;2.1006160164271;1.46627565982405;0;0;0;1;1;1;1;0;0;0;0;0;0;0;0;0;();(-2000.0, -2000.0);
08:46:18:555;08:46:18:519;1448480773.11;(0.3996387243270874, 0.505082533094618);55.4785652161;0.941332214605;08:46:18:555;0;9;-1.5;1.99415204678363;1.36852394916911;0;0;0;1;1;1;1;0;0;0;0;0;0;0;0;0;();(-2000.0, -2000.0);
08:46:18:572;08:46:18:562;1448480773.14;(0.40143351554870604, 0.5349178314208984);55.0671653748;1.0;08:46:18:572;0;4;-1.5;2.26829268292683;2.34604105571848;0;0;0;1;1;1;1;0;0;0;0;0;0;0;0;0;();(-2000.0, -2000.0);
08:46:18:589;08:46:18:562;1448480773.14;(0.40143351554870604, 0.5349178314208984);55.0671653748;1.0;08:46:18:589;0;10;-1.5;2.21428571428571;2.1505376344086;0;0;0;1;1;1;1;0;0;0;0;0;0;0;0;0;();(-2000.0, -2000.0);
08:46:18:623;08:46:18:602;1448480773.18;(0.40386035442352297, 0.5419343736436633);55.1763076782;1.0;08:46:18:623;0;9;-1.5;2.14915966386555;1.46627565982405;0;0;0;1;1;1;1;0;0;0;0;0;0;0;0;0;();(-2000.0, -2000.0);
08:46:18:639;08:46:18:602;1448480773.18;(0.40386035442352297, 0.5419343736436633);55.1763076782;1.0;08:46:18:639;0;4;-1.5;2.19057815845824;1.46627565982405;0;0;0;1;1;1;1;0;0;0;0;0;0;0;0;0;();(-2000.0, -2000.0);
08:46:18:656;08:46:18:642;1448480773.21;(0.4040187358856201, 0.5425960964626736);55.375213623;1.0;08:46:18:656;0;9;-1.5;2.0920245398773;1.66177908113392;0;0;0;1;1;1;1;0;0;0;0;0;0;0;0;0;();(-2000.0, -2000.0);
08:46:18:672;08:46:18:642;1448480773.21;(0.4040187358856201, 0.5425960964626736);55.375213623;1.0;08:46:18:672;0;14;-1.5;2.0920245398773;1.46627565982405;0;0;0;1;1;1;1;0;0;0;0;0;0;0;0;0;();(-2000.0, -2000.0);
08:46:18:689;08:46:18:686;1448480773.28;(0.47713456153869627, 0.8966132481892903);26.5663852692;0.831476453739;08:46:18:689;0;10;-1.5;2.26829268292683;1.46627565982405;0;0;0;1;1;1;1;0;0;0;0;0;0;0;0;0;();(-2000.0, -2000.0);
08:46:18:706;08:46:18:686;1448480773.28;(0.47713456153869627, 0.8966132481892903);26.5663852692;0.831476453739;08:46:18:706;0;4;-1.5;2.0501002004008;1.46627565982405;0;0;0;1;1;1;1;0;0;0;0;0;0;0;0;0;();(-2000.0, -2000.0);
