%Timestamp,timestamp_write;timestamp_gotpupil;eyeTrackerTime;normPos;diameter;confidence;timestamp_gotbitdata;CRC;SEQ;AnalogOutp1;AnalogOutp2;AnalogOutp3;AnalogOutp4;AnalogOutp5;AnalogOutp6;DigitalOutp1;DigitalOutp2;DigitalOutp3;DigitalOutp4;nplanes;listofAirplanesonScreen;lastAction;lastActionDetails;lastActionAirplaneNumber;calculatedScore;positiveScore;negativeScore;collidedAirplaneNumbers;targetPositions;collisionPoint
08:55:05:266;08:55:05:260;1448481299.85;(0.41060092449188235, 0.5104212866889106);55.0375137329;1.0;;;;;;;;;;;;;;0;0;0;0;0;0;0;0;0;();(0.0, 0.0);
08:55:05:273;08:55:05:260;1448481299.85;(0.41060092449188235, 0.5104212866889106);55.0375137329;1.0;;;;;;;;;;;;;;0;0;0;0;0;0;0;0;0;();(-2000.0, -2000.0);
08:55:05:274;08:55:05:260;1448481299.85;(0.41060092449188235, 0.5104212866889106);55.0375137329;1.0;;;;;;;;;;;;;;0;0;0;0;0;0;0;0;0;();(-2000.0, -2000.0);
08:55:05:274;08:55:05:260;1448481299.85;(0.41060092449188235, 0.5104212866889106);55.0375137329;1.0;;;;;;;;;;;;;;0;0;0;0;0;0;0;0;0;();(-2000.0, -2000.0);
08:55:05:274;08:55:05:260;1448481299.85;(0.41060092449188235, 0.5104212866889106);55.0375137329;1.0;;;;;;;;;;;;;;0;0;0;0;0;0;0;0;0;();(-2000.0, -2000.0);
08:55:05:275;08:55:05:260;1448481299.85;(0.41060092449188235, 0.5104212866889106);55.0375137329;1.0;;;;;;;;;;;;;;0;0;0;0;0;0;0;0;0;();(-2000.0, -2000.0);
08:55:05:275;08:55:05:260;1448481299.85;(0.41060092449188235, 0.5104212866889106);55.0375137329;1.0;;;;;;;;;;;;;;0;0;0;0;0;0;0;0;0;();(-2000.0, -2000.0);
08:55:05:275;08:55:05:260;1448481299.85;(0.41060092449188235, 0.5104212866889106);55.0375137329;1.0;;;;;;;;;;;;;;0;0;0;0;0;0;0;0;0;();(-2000.0, -2000.0);
08:55:05:275;08:55:05:260;1448481299.85;(0.41060092449188235, 0.5104212866889106);55.0375137329;1.0;;;;;;;;;;;;;;0;0;0;0;0;0;0;0;0;();(-2000.0, -2000.0);
08:55:05:276;08:55:05:260;1448481299.85;(0.41060092449188235, 0.5104212866889106);55.0375137329;1.0;;;;;;;;;;;;;;0;0;0;0;0;0;0;0;0;();(-2000.0, -2000.0);
08:55:05:276;08:55:05:260;1448481299.85;(0.41060092449188235, 0.5104212866889106);55.0375137329;1.0;;;;;;;;;;;;;;0;0;0;0;0;0;0;0;0;();(-2000.0, -2000.0);
08:55:05:276;08:55:05:260;1448481299.85;(0.41060092449188235, 0.5104212866889106);55.0375137329;1.0;;;;;;;;;;;;;;0;0;0;0;0;0;0;0;0;();(-2000.0, -2000.0);
08:55:05:276;08:55:05:260;1448481299.85;(0.41060092449188235, 0.5104212866889106);55.0375137329;1.0;;;;;;;;;;;;;;0;0;0;0;0;0;0;0;0;();(-2000.0, -2000.0);
08:55:05:276;08:55:05:260;1448481299.85;(0.41060092449188235, 0.5104212866889106);55.0375137329;1.0;;;;;;;;;;;;;;0;0;0;0;0;0;0;0;0;();(-2000.0, -2000.0);
08:55:05:277;08:55:05:260;1448481299.85;(0.41060092449188235, 0.5104212866889106);55.0375137329;1.0;;;;;;;;;;;;;;0;0;0;0;0;0;0;0;0;();(-2000.0, -2000.0);
08:55:05:277;08:55:05:260;1448481299.85;(0.41060092449188235, 0.5104212866889106);55.0375137329;1.0;;;;;;;;;;;;;;0;0;0;0;0;0;0;0;0;();(-2000.0, -2000.0);
08:55:05:278;08:55:05:260;1448481299.85;(0.41060092449188235, 0.5104212866889106);55.0375137329;1.0;;;;;;;;;;;;;;0;0;0;0;0;0;0;0;0;();(-2000.0, -2000.0);
08:55:05:316;08:55:05:308;1448481299.91;(0, 0);0;0;;;;;;;;;;;;;;0;0;0;0;0;0;0;0;0;();(-2000.0, -2000.0);
08:55:05:316;08:55:05:308;1448481299.91;(0, 0);0;0;;;;;;;;;;;;;;0;0;0;0;0;0;0;0;0;();(-2000.0, -2000.0);
08:55:05:333;08:55:05:308;1448481299.91;(0, 0);0;0;;;;;;;;;;;;;;0;0;0;0;0;0;0;0;0;();(-2000.0, -2000.0);
08:55:05:365;08:55:05:360;1448481299.95;(0, 0);0;0;;;;;;;;;;;;;;0;0;0;0;0;0;0;0;0;();(-2000.0, -2000.0);
08:55:05:382;08:55:05:360;1448481299.95;(0, 0);0;0;;;;;;;;;;;;;;0;0;0;0;0;0;0;0;0;();(-2000.0, -2000.0);
08:55:05:400;08:55:05:360;1448481299.95;(0, 0);0;0;;;;;;;;;;;;;;0;0;0;0;0;0;0;0;0;();(-2000.0, -2000.0);
08:55:05:417;08:55:05:408;1448481299.98;(0.23041948080062866, 0.4000673505995008);38.6787147522;0.611386658965;;;;;;;;;;;;;;0;0;0;0;0;0;0;0;0;();(-2000.0, -2000.0);
08:55:10:218;08:55:10:188;1448481304.78;(0, 0);0;0;;;;;;;;;;;;;;0;0;0;0;0;0;0;0;0;();(-2000.0, -2000.0);
08:55:10:219;08:55:10:188;1448481304.78;(0, 0);0;0;;;;;;;;;;;;;;0;0;0;0;0;0;0;0;0;();(-2000.0, -2000.0);
08:55:10:219;08:55:10:188;1448481304.78;(0, 0);0;0;;;;;;;;;;;;;;0;0;0;0;0;0;0;0;0;();(-2000.0, -2000.0);
08:55:10:220;08:55:10:188;1448481304.78;(0, 0);0;0;;;;;;;;;;;;;;0;0;0;0;0;0;0;0;0;();(-2000.0, -2000.0);
08:55:10:220;08:55:10:188;1448481304.78;(0, 0);0;0;;;;;;;;;;;;;;0;0;0;0;0;0;0;0;0;();(-2000.0, -2000.0);
08:55:10:221;08:55:10:188;1448481304.78;(0, 0);0;0;;;;;;;;;;;;;;0;0;0;0;0;0;0;0;0;();(-2000.0, -2000.0);
08:55:10:221;08:55:10:188;1448481304.78;(0, 0);0;0;;;;;;;;;;;;;;0;0;0;0;0;0;0;0;0;();(-2000.0, -2000.0);
08:55:10:221;08:55:10:188;1448481304.78;(0, 0);0;0;;;;;;;;;;;;;;0;0;0;0;0;0;0;0;0;();(-2000.0, -2000.0);
08:55:10:221;08:55:10:188;1448481304.78;(0, 0);0;0;;;;;;;;;;;;;;0;0;0;0;0;0;0;0;0;();(-2000.0, -2000.0);
08:55:10:222;08:55:10:188;1448481304.78;(0, 0);0;0;;;;;;;;;;;;;;0;0;0;0;0;0;0;0;0;();(-2000.0, -2000.0);
08:55:10:222;08:55:10:188;1448481304.78;(0, 0);0;0;;;;;;;;;;;;;;0;0;0;0;0;0;0;0;0;();(-2000.0, -2000.0);
08:55:10:222;08:55:10:188;1448481304.78;(0, 0);0;0;;;;;;;;;;;;;;0;0;0;0;0;0;0;0;0;();(-2000.0, -2000.0);
08:55:10:222;08:55:10:188;1448481304.78;(0, 0);0;0;;;;;;;;;;;;;;0;0;0;0;0;0;0;0;0;();(-2000.0, -2000.0);
08:55:10:223;08:55:10:188;1448481304.78;(0, 0);0;0;;;;;;;;;;;;;;0;0;0;0;0;0;0;0;0;();(-2000.0, -2000.0);
08:55:10:223;08:55:10:188;1448481304.78;(0, 0);0;0;;;;;;;;;;;;;;0;0;0;0;0;0;0;0;0;();(-2000.0, -2000.0);
08:55:10:223;08:55:10:188;1448481304.78;(0, 0);0;0;;;;;;;;;;;;;;0;0;0;0;0;0;0;0;0;();(-2000.0, -2000.0);
08:55:10:224;08:55:10:188;1448481304.78;(0, 0);0;0;;;;;;;;;;;;;;0;0;0;0;0;0;0;0;0;();(-2000.0, -2000.0);
08:55:10:246;08:55:10:236;1448481304.81;(0, 0);0;0;;;;;;;;;;;;;;0;0;0;0;0;0;0;0;0;();(-2000.0, -2000.0);
08:55:10:263;08:55:10:236;1448481304.81;(0, 0);0;0;;;;;;;;;;;;;;0;0;0;0;0;0;0;0;0;();(-2000.0, -2000.0);
08:55:10:280;08:55:10:236;1448481304.81;(0, 0);0;0;;;;;;;;;;;;;;0;0;0;0;0;0;0;0;0;();(-2000.0, -2000.0);
08:55:10:311;08:55:10:288;1448481304.88;(0.4079547882080078, 0.5076612260606554);51.120262146;1.0;;;;;;;;;;;;;;0;0;0;0;0;0;0;0;0;();(-2000.0, -2000.0);
08:55:10:330;08:55:10:288;1448481304.88;(0.4079547882080078, 0.5076612260606554);51.120262146;1.0;;;;;;;;;;;;;;0;0;0;0;0;0;0;0;0;();(-2000.0, -2000.0);
08:55:10:345;08:55:10:336;1448481304.91;(0.40897235870361326, 0.5084698147243923);51.6148529053;1.0;;;;;;;;;;;;;;0;0;0;0;0;0;0;0;0;();(-2000.0, -2000.0);
08:55:10:363;08:55:10:336;1448481304.91;(0.40897235870361326, 0.5084698147243923);51.6148529053;1.0;;;;;;;;;;;;;;0;0;0;0;0;0;0;0;0;();(-2000.0, -2000.0);
08:55:10:379;08:55:10:336;1448481304.91;(0.40897235870361326, 0.5084698147243923);51.6148529053;1.0;;;;;;;;;;;;;;0;0;0;0;0;0;0;0;0;();(-2000.0, -2000.0);
08:55:10:413;08:55:10:384;1448481304.98;(0.41108274459838867, 0.5083735148111979);51.7051200867;1.0;;;;;;;;;;;;;;0;0;0;0;0;0;0;0;0;();(-2000.0, -2000.0);
08:55:10:447;08:55:10:435;1448481305.01;(0.41166253089904786, 0.5084896935356988);51.915397644;1.0;;;;;;;;;;;;;;0;0;0;0;0;0;0;0;0;();(-2000.0, -2000.0);
08:55:10:447;08:55:10:435;1448481305.01;(0.41166253089904786, 0.5084896935356988);51.915397644;1.0;;;;;;;;;;;;;;0;0;0;0;0;0;0;0;0;();(-2000.0, -2000.0);
08:55:10:460;08:55:10:435;1448481305.01;(0.41166253089904786, 0.5084896935356988);51.915397644;1.0;;;;;;;;;;;;;;0;0;0;0;0;0;0;0;0;();(-2000.0, -2000.0);
08:55:10:490;08:55:10:484;1448481305.08;(0.41299893856048586, 0.508435312906901);51.5807037354;1.0;;;;;;;;;;;;;;0;0;0;0;0;0;0;0;0;();(-2000.0, -2000.0);
08:55:10:507;08:55:10:484;1448481305.08;(0.41299893856048586, 0.508435312906901);51.5807037354;1.0;;;;;;;;;;;;;;0;0;0;0;0;0;0;0;0;();(-2000.0, -2000.0);
08:55:10:522;08:55:10:484;1448481305.08;(0.41299893856048586, 0.508435312906901);51.5807037354;1.0;;;;;;;;;;;;;;0;0;0;0;0;0;0;0;0;();(-2000.0, -2000.0);
08:55:10:554;08:55:10:536;1448481305.11;(0.4136465072631836, 0.5077681223551432);51.5975723267;1.0;;;;;;;;;;;;;;0;0;0;0;0;0;0;0;0;();(-2000.0, -2000.0);
08:55:10:570;08:55:10:536;1448481305.11;(0.4136465072631836, 0.5077681223551432);51.5975723267;1.0;;;;;;;;;;;;;;0;0;0;0;0;0;0;0;0;();(-2000.0, -2000.0);
08:55:10:584;08:55:10:584;1448481305.18;(0.3884082794189453, 0.5083515167236328);52.9954414368;1.0;;;;;;;;;;;;;;0;0;0;0;0;0;0;0;0;();(-2000.0, -2000.0);
08:55:10:600;08:55:10:584;1448481305.18;(0.3884082794189453, 0.5083515167236328);52.9954414368;1.0;;;;;;;;;;;;;;0;0;0;0;0;0;0;0;0;();(-2000.0, -2000.0);
08:55:10:632;08:55:10:584;1448481305.18;(0.3884082794189453, 0.5083515167236328);52.9954414368;1.0;;;;;;;;;;;;;;0;0;0;0;0;0;0;0;0;();(-2000.0, -2000.0);
08:55:10:648;08:55:10:636;1448481305.21;(0.3883903980255127, 0.5086344824896918);52.958152771;1.0;;;;;;;;;;;;;;0;0;0;0;0;0;0;0;0;();(-2000.0, -2000.0);
08:55:10:665;08:55:10:636;1448481305.21;(0.3883903980255127, 0.5086344824896918);52.958152771;1.0;;;;;;;;;;;;;;0;0;0;0;0;0;0;0;0;();(-2000.0, -2000.0);
08:55:10:682;08:55:10:636;1448481305.21;(0.3883903980255127, 0.5086344824896918);52.958152771;1.0;;;;;;;;;;;;;;0;0;0;0;0;0;0;0;0;();(-2000.0, -2000.0);
08:55:10:715;08:55:10:684;1448481305.28;(0.3894874811172485, 0.5086217668321398);53.4588546753;1.0;;;;;;;;;;;;;;0;0;0;0;0;0;0;0;0;();(-2000.0, -2000.0);
08:55:10:732;08:55:10:684;1448481305.28;(0.3894874811172485, 0.5086217668321398);53.4588546753;1.0;;;;;;;;;;;;;;0;0;0;0;0;0;0;0;0;();(-2000.0, -2000.0);
08:55:10:749;08:55:10:736;1448481305.31;(0.389913535118103, 0.5086241404215495);54.0091972351;1.0;;;;;;;;;;;;;;0;0;0;0;0;0;0;0;0;();(-2000.0, -2000.0);
08:55:10:764;08:55:10:736;1448481305.31;(0.389913535118103, 0.5086241404215495);54.0091972351;1.0;;;;;;;;;;;;;;0;0;0;0;0;0;0;0;0;();(-2000.0, -2000.0);
08:55:10:782;08:55:10:736;1448481305.31;(0.389913535118103, 0.5086241404215495);54.0091972351;1.0;;;;;;;;;;;;;;0;0;0;0;0;0;0;0;0;();(-2000.0, -2000.0);
08:55:10:799;08:55:10:785;1448481305.38;(0.3905982494354248, 0.5086945003933376);54.2471389771;1.0;;;;;;;;;;;;;;0;0;0;0;0;0;0;0;0;();(-2000.0, -2000.0);
08:55:10:833;08:55:10:785;1448481305.38;(0.3905982494354248, 0.5086945003933376);54.2471389771;1.0;;;;;;;;;;;;;;0;0;0;0;0;0;0;0;0;();(-2000.0, -2000.0);
08:55:10:849;08:55:10:836;1448481305.41;(0.391264009475708, 0.5083487616644966);54.3013687134;1.0;;;;;;;;;;;;;;0;0;0;0;0;0;0;0;0;();(-2000.0, -2000.0);
08:55:10:866;08:55:10:836;1448481305.41;(0.391264009475708, 0.5083487616644966);54.3013687134;1.0;;;;;;;;;;;;;;0;0;0;0;0;0;0;0;0;();(-2000.0, -2000.0);
08:55:10:883;08:55:10:836;1448481305.41;(0.391264009475708, 0.5083487616644966);54.3013687134;1.0;;;;;;;;;;;;;;0;0;0;0;0;0;0;0;0;();(-2000.0, -2000.0);
08:55:10:900;08:55:10:885;1448481305.48;(0.3920191049575806, 0.5108157687717014);54.4621276855;1.0;;;;;;;;;;;;;;0;0;0;0;0;0;0;0;0;();(-2000.0, -2000.0);
08:55:11:458;08:55:11:432;1448481306.01;(0.4037185192108154, 0.4791239844428168);54.2700805664;1.0;08:55:11:455;0;4;-1.5;2.97383720930233;2.34604105571848;0;0;0;1;1;1;1;2;85,70;0;0;0;0;0;0;0;();(-2000.0, -2000.0);
08:55:11:465;08:55:11:432;1448481306.01;(0.4037185192108154, 0.4791239844428168);54.2700805664;1.0;08:55:11:465;0;15;-1.5;1.91573033707865;1.46627565982405;0;0;0;1;1;1;1;2;85,70;0;0;0;0;0;0;0;();(-2000.0, -2000.0);
08:55:11:471;08:55:11:432;1448481306.01;(0.4037185192108154, 0.4791239844428168);54.2700805664;1.0;08:55:11:471;0;15;-1.5;1.91573033707865;1.46627565982405;0;0;0;1;1;1;1;1;85;0;0;0;5;1;0;0;();(-2000.0, -2000.0);
08:55:11:471;08:55:11:432;1448481306.01;(0.4037185192108154, 0.4791239844428168);54.2700805664;1.0;08:55:11:471;0;15;-1.5;1.91573033707865;1.46627565982405;0;0;0;1;1;1;1;1;85;0;0;0;5;1;0;0;();(-2000.0, -2000.0);
08:55:11:471;08:55:11:432;1448481306.01;(0.4037185192108154, 0.4791239844428168);54.2700805664;1.0;08:55:11:471;0;1;-1.5;1.80742049469965;1.17302052785924;0;0;0;1;1;1;1;1;85;0;0;0;5;1;0;0;();(-2000.0, -2000.0);
08:55:11:471;08:55:11:432;1448481306.01;(0.4037185192108154, 0.4791239844428168);54.2700805664;1.0;08:55:11:471;0;6;-1.5;2.14915966386555;1.95503421309873;0;0;0;1;1;1;1;1;85;0;0;0;5;1;0;0;();(-2000.0, -2000.0);
08:55:11:471;08:55:11:432;1448481306.01;(0.4037185192108154, 0.4791239844428168);54.2700805664;1.0;08:55:11:471;0;10;-1.5;2.6640625;2.1505376344086;0;0;0;1;1;1;1;1;85;0;0;0;5;1;0;0;();(-2000.0, -2000.0);
08:55:11:472;08:55:11:432;1448481306.01;(0.4037185192108154, 0.4791239844428168);54.2700805664;1.0;08:55:11:472;0;10;-1.5;2.6640625;2.1505376344086;0;0;0;1;1;1;1;1;85;0;0;0;5;1;0;0;();(-2000.0, -2000.0);
08:55:11:472;08:55:11:432;1448481306.01;(0.4037185192108154, 0.4791239844428168);54.2700805664;1.0;08:55:11:472;0;10;-1.5;2.6640625;2.1505376344086;0;0;0;1;1;1;1;1;85;0;0;0;5;1;0;0;();(-2000.0, -2000.0);
08:55:11:472;08:55:11:432;1448481306.01;(0.4037185192108154, 0.4791239844428168);54.2700805664;1.0;08:55:11:472;0;10;-1.5;2.6640625;2.1505376344086;0;0;0;1;1;1;1;1;85;0;0;0;5;1;0;0;();(-2000.0, -2000.0);
08:55:11:472;08:55:11:432;1448481306.01;(0.4037185192108154, 0.4791239844428168);54.2700805664;1.0;08:55:11:472;0;10;-1.5;2.6640625;2.1505376344086;0;0;0;1;1;1;1;1;85;0;0;0;5;1;0;0;();(-2000.0, -2000.0);
08:55:11:473;08:55:11:432;1448481306.01;(0.4037185192108154, 0.4791239844428168);54.2700805664;1.0;08:55:11:473;0;10;-1.5;2.6640625;2.1505376344086;0;0;0;1;1;1;1;1;85;0;0;0;5;1;0;0;();(-2000.0, -2000.0);
08:55:11:473;08:55:11:432;1448481306.01;(0.4037185192108154, 0.4791239844428168);54.2700805664;1.0;08:55:11:473;0;10;-1.5;2.6640625;2.1505376344086;0;0;0;1;1;1;1;1;85;0;0;0;5;1;0;0;();(-2000.0, -2000.0);
08:55:11:473;08:55:11:432;1448481306.01;(0.4037185192108154, 0.4791239844428168);54.2700805664;1.0;08:55:11:473;0;10;-1.5;2.6640625;2.1505376344086;0;0;0;1;1;1;1;1;85;0;0;0;5;1;0;0;();(-2000.0, -2000.0);
08:55:11:473;08:55:11:432;1448481306.01;(0.4037185192108154, 0.4791239844428168);54.2700805664;1.0;08:55:11:473;0;10;-1.5;2.6640625;2.1505376344086;0;0;0;1;1;1;1;1;85;0;0;0;5;1;0;0;();(-2000.0, -2000.0);
08:55:11:474;08:55:11:432;1448481306.01;(0.4037185192108154, 0.4791239844428168);54.2700805664;1.0;08:55:11:474;0;10;-1.5;2.6640625;2.1505376344086;0;0;0;1;1;1;1;1;85;0;0;0;5;1;0;0;();(-2000.0, -2000.0);
08:55:11:494;08:55:11:481;1448481306.08;(0.40345916748046873, 0.47992303636338973);54.5419235229;1.0;08:55:11:494;0;15;-1.5;3.20689655172414;3.03030303030303;0;0;0;1;1;1;1;1;85;0;0;0;5;1;0;0;();(-2000.0, -2000.0);
08:55:11:494;08:55:11:481;1448481306.08;(0.40345916748046873, 0.47992303636338973);54.5419235229;1.0;08:55:11:494;0;15;-1.5;3.20689655172414;3.03030303030303;0;0;0;1;1;1;1;1;85;0;0;0;5;1;0;0;();(-2000.0, -2000.0);
08:55:11:494;08:55:11:481;1448481306.08;(0.40345916748046873, 0.47992303636338973);54.5419235229;1.0;08:55:11:494;0;15;-1.5;3.20689655172414;3.03030303030303;0;0;0;1;1;1;1;1;85;0;0;0;5;1;0;0;();(-2000.0, -2000.0);
08:55:11:520;08:55:11:481;1448481306.08;(0.40345916748046873, 0.47992303636338973);54.5419235229;1.0;08:55:11:520;0;4;-1.5;3.12844036697248;2.44379276637341;0;0;0;1;1;1;1;1;85;0;0;0;5;1;0;0;();(-2000.0, -2000.0);
08:55:11:537;08:55:11:532;1448481306.11;(0.40318386554718016, 0.48039974636501737);54.2746276855;1.0;08:55:11:537;0;10;-1.5;2.6640625;2.1505376344086;0;0;0;1;1;1;1;1;85;0;0;0;5;1;0;0;();(-2000.0, -2000.0);
08:55:11:554;08:55:11:532;1448481306.11;(0.40318386554718016, 0.48039974636501737);54.2746276855;1.0;08:55:11:554;0;10;-1.5;2.6640625;2.1505376344086;0;0;0;1;1;1;1;1;85;0;0;0;5;1;0;0;();(-2000.0, -2000.0);
08:55:11:570;08:55:11:532;1448481306.11;(0.40318386554718016, 0.48039974636501737);54.2746276855;1.0;08:55:11:570;0;10;-1.5;2.13125;1.46627565982405;0;0;0;1;1;1;1;1;85;0;0;0;5;1;0;0;();(-2000.0, -2000.0);
08:55:11:587;08:55:11:580;1448481306.18;(0.4297414541244507, 0.46897121005588105);64.1966552734;0.652432364381;08:55:11:587;0;5;-1.5;1.95229007633588;1.36852394916911;0;0;0;1;1;1;1;1;85;0;0;0;5;1;0;0;();(-2000.0, -2000.0);
08:55:11:621;08:55:11:580;1448481306.18;(0.4297414541244507, 0.46897121005588105);64.1966552734;0.652432364381;08:55:11:621;0;0;-1.5;1.73096446700508;1.17302052785924;0;0;0;1;1;1;1;1;85;0;0;0;5;1;0;0;();(-2000.0, -2000.0);
08:55:11:637;08:55:11:580;1448481306.18;(0.4297414541244507, 0.46897121005588105);64.1966552734;0.652432364381;08:55:11:637;0;10;-1.5;2.61636828644501;2.1505376344086;0;0;0;1;1;1;1;1;85;0;0;0;5;1;0;0;();(-2000.0, -2000.0);
08:55:11:654;08:55:11:580;1448481306.18;(0.4297414541244507, 0.46897121005588105);64.1966552734;0.652432364381;08:55:11:654;0;15;-1.5;2.88169014084507;2.73704789833822;0;0;0;1;1;1;1;1;85;0;0;0;5;1;0;0;();(-2000.0, -2000.0);
08:55:11:671;08:55:11:580;1448481306.18;(0.4297414541244507, 0.46897121005588105);64.1966552734;0.652432364381;08:55:11:671;0;10;-1.5;1.453125;0.684261974584555;0;0;0;1;1;1;1;1;85;0;0;0;5;1;0;0;();(-2000.0, -2000.0);
08:55:11:688;08:55:11:679;1448481306.21;(0.46736321449279783, 0.4450334337022569);54.3650169373;0.943531453828;08:55:11:688;0;4;-1.5;1.73389830508475;1.17302052785924;0;0;0;1;1;1;1;1;85;0;0;0;5;1;0;0;();(-2000.0, -2000.0);
08:55:11:705;08:55:11:679;1448481306.21;(0.46736321449279783, 0.4450334337022569);54.3650169373;0.943531453828;08:55:11:705;0;10;-1.5;1.69370860927152;0.879765395894428;0;0;0;1;1;1;1;1;85;0;0;0;5;1;0;0;();(-2000.0, -2000.0);
08:55:11:738;08:55:11:728;1448481306.31;(0.4864507675170898, 0.4045825958251953);52.6690635681;0.939363408983;08:55:11:738;0;10;-1.5;1.88397790055249;1.17302052785924;0;0;0;1;1;1;1;1;85;0;0;0;5;1;0;0;();(-2000.0, -2000.0);
08:55:11:755;08:55:11:728;1448481306.31;(0.4864507675170898, 0.4045825958251953);52.6690635681;0.939363408983;08:55:11:755;0;15;-1.5;1.88745387453875;1.46627565982405;0;0;0;1;1;1;1;1;85;0;0;0;5;1;0;0;();(-2000.0, -2000.0);
08:55:11:772;08:55:11:728;1448481306.31;(0.4864507675170898, 0.4045825958251953);52.6690635681;0.939363408983;08:55:11:772;0;4;-1.5;1.87020109689214;1.17302052785924;0;0;0;1;1;1;1;1;85;0;0;0;5;1;0;0;();(-2000.0, -2000.0);
08:55:11:788;08:55:11:780;1448481306.38;(0.48413815498352053, 0.4077953338623047);52.3433609009;1.0;08:55:11:788;0;4;-1.5;1.87020109689214;1.17302052785924;0;0;0;1;1;1;1;1;85;0;0;0;5;1;0;0;();(-2000.0, -2000.0);
08:55:11:805;08:55:11:780;1448481306.38;(0.48413815498352053, 0.4077953338623047);52.3433609009;1.0;08:55:11:805;0;5;-1.5;1.88397790055249;1.56402737047898;0;0;0;1;1;1;1;1;85;0;0;0;5;1;0;0;();(-2000.0, -2000.0);
08:55:11:839;08:55:11:828;1448481306.41;(0.4832332134246826, 0.4089938269721137);51.9641685486;1.0;08:55:11:839;0;4;-1.5;1.80105633802817;1.36852394916911;0;0;0;1;1;1;1;1;85;0;0;0;5;1;0;0;();(-2000.0, -2000.0);
08:55:11:854;08:55:11:828;1448481306.41;(0.4832332134246826, 0.4089938269721137);51.9641685486;1.0;08:55:11:854;0;15;-1.5;1.90858208955224;1.17302052785924;0;0;0;1;1;1;1;1;85;0;0;0;5;1;0;0;();(-2000.0, -2000.0);
08:55:11:872;08:55:11:828;1448481306.41;(0.4832332134246826, 0.4089938269721137);51.9641685486;1.0;08:55:11:872;0;4;-1.5;1.89444444444444;1.17302052785924;0;0;0;1;1;1;1;1;85;0;0;0;5;1;0;0;();(-2000.0, -2000.0);
08:55:11:889;08:55:11:879;1448481306.45;(0.48293051719665525, 0.40944425794813366);51.6289978027;1.0;08:55:11:889;0;10;-1.5;2.01377952755906;1.46627565982405;0;0;0;1;1;1;1;1;85;0;0;0;5;1;0;0;();(-2000.0, -2000.0);
08:55:11:906;08:55:11:879;1448481306.45;(0.48293051719665525, 0.40944425794813366);51.6289978027;1.0;08:55:11:906;0;5;-1.5;1.94117647058824;1.36852394916911;0;0;0;1;1;1;1;1;85;0;0;0;5;1;0;0;();(-2000.0, -2000.0);
08:55:11:939;08:55:11:928;1448481306.51;(0.25999386310577394, 0.4455567253960504);18.1145153046;1.0;08:55:11:939;0;4;-1.5;1.87706422018349;1.17302052785924;0;0;0;1;1;1;1;1;85;0;0;0;5;1;0;0;();(-2000.0, -2000.0);
08:55:11:956;08:55:11:928;1448481306.51;(0.25999386310577394, 0.4455567253960504);18.1145153046;1.0;08:55:11:956;0;9;-1.5;1.87020109689214;1.17302052785924;0;0;0;1;1;1;1;1;85;0;0;0;5;1;0;0;();(-2000.0, -2000.0);
08:55:11:973;08:55:11:928;1448481306.51;(0.25999386310577394, 0.4455567253960504);18.1145153046;1.0;08:55:11:973;0;15;-1.5;1.89444444444444;1.17302052785924;0;0;0;1;1;1;1;1;85;0;0;0;5;1;0;0;();(-2000.0, -2000.0);
08:55:11:990;08:55:11:980;1448481306.58;(0.25999131202697756, 0.4431107838948568);18.4319114685;1.0;08:55:11:990;0;10;-1.5;1.95229007633588;1.46627565982405;0;0;0;1;1;1;1;1;85;0;0;0;5;1;0;0;();(-2000.0, -2000.0);
08:55:12:006;08:55:11:980;1448481306.58;(0.25999131202697756, 0.4431107838948568);18.4319114685;1.0;08:55:12:006;0;4;-1.5;1.82678571428571;1.36852394916911;0;0;0;1;1;1;1;1;85;0;0;0;5;1;0;0;();(-2000.0, -2000.0);
08:55:12:040;08:55:12:027;1448481306.61;(0.2597237825393677, 0.4417701297336154);18.1419277191;0.99114106909;08:55:12:040;0;0;-1.5;1.90502793296089;1.36852394916911;0;0;0;1;1;1;1;1;85;0;0;0;5;1;0;0;();(-2000.0, -2000.0);
08:55:12:057;08:55:12:027;1448481306.61;(0.2597237825393677, 0.4417701297336154);18.1419277191;0.99114106909;08:55:12:057;0;5;-1.5;1.83992805755396;1.17302052785924;0;0;0;1;1;1;1;1;85;0;0;0;5;1;0;0;();(-2000.0, -2000.0);
08:55:12:072;08:55:12:027;1448481306.61;(0.2597237825393677, 0.4417701297336154);18.1419277191;0.99114106909;08:55:12:072;0;15;-1.5;2.03784860557769;1.46627565982405;0;0;0;1;1;1;1;1;85;0;0;0;5;1;0;0;();(-2000.0, -2000.0);
08:55:12:090;08:55:12:080;1448481306.68;(0.26050262451171874, 0.4391738043891059);18.3770103455;1.0;08:55:12:090;0;4;-1.5;2.84958217270195;2.34604105571848;0;0;0;1;1;1;1;1;85;0;0;0;5;1;0;0;();(-2000.0, -2000.0);
08:55:12:107;08:55:12:080;1448481306.68;(0.26050262451171874, 0.4391738043891059);18.3770103455;1.0;08:55:12:107;0;0;-1.5;2.21428571428571;1.46627565982405;0;0;0;1;1;1;1;1;85;0;0;0;5;1;0;0;();(-2000.0, -2000.0);
08:55:12:141;08:55:12:129;1448481306.71;(0.260309100151062, 0.4384287940131293);17.9721927643;1.0;08:55:12:141;0;10;-1.5;2.22391304347826;1.85728250244379;0;0;0;1;1;1;1;1;85;0;0;0;5;1;0;0;();(-2000.0, -2000.0);
08:55:12:158;08:55:12:129;1448481306.71;(0.260309100151062, 0.4384287940131293);17.9721927643;1.0;08:55:12:158;0;4;-1.5;4.125;3.2258064516129;0;0;0;1;1;1;1;1;85;0;0;0;5;1;0;0;();(-2000.0, -2000.0);
08:55:12:174;08:55:12:129;1448481306.71;(0.260309100151062, 0.4384287940131293);17.9721927643;1.0;08:55:12:174;0;10;-1.5;3.06287425149701;2.44379276637341;0;0;0;1;1;1;1;1;85;0;0;0;5;1;0;0;();(-2000.0, -2000.0);
08:55:12:191;08:55:12:176;1448481306.75;(0.2601549386978149, 0.437009514702691);18.0327167511;0.974108076421;08:55:12:191;0;10;-1.5;3.06287425149701;2.44379276637341;0;0;0;1;1;1;1;1;85;0;0;0;5;1;0;0;();(-2000.0, -2000.0);
08:55:12:208;08:55:12:176;1448481306.75;(0.2601549386978149, 0.437009514702691);18.0327167511;0.974108076421;08:55:12:208;0;10;-1.5;2.26829268292683;1.46627565982405;0;0;0;1;1;1;1;1;85;0;0;0;5;1;0;0;();(-2000.0, -2000.0);
08:55:12:241;08:55:12:227;1448481306.78;(0.48425931930541993, 0.4049294789632162);47.4529037476;1.0;08:55:12:241;0;15;-1.5;3.12844036697248;3.03030303030303;0;0;0;1;1;1;1;1;85;0;0;0;5;1;0;0;();(-2000.0, -2000.0);
08:55:12:258;08:55:12:227;1448481306.78;(0.48425931930541993, 0.4049294789632162);47.4529037476;1.0;08:55:12:258;0;4;-1.5;3.20689655172414;3.03030303030303;0;0;0;1;1;1;1;1;85;0;0;0;5;1;0;0;();(-2000.0, -2000.0);
08:55:12:275;08:55:12:227;1448481306.78;(0.48425931930541993, 0.4049294789632162);47.4529037476;1.0;08:55:12:275;0;10;-1.5;3.60211267605634;3.81231671554252;0;0;0;1;1;1;1;1;85;0;0;0;5;1;0;0;();(-2000.0, -2000.0);
08:55:12:291;08:55:12:277;1448481306.88;(0, 0);0;0;08:55:12:291;0;5;-1.5;1.97109826589595;1.66177908113392;0;0;0;1;1;1;1;1;85;0;0;0;5;1;0;0;();(-2000.0, -2000.0);
08:55:12:310;08:55:12:277;1448481306.88;(0, 0);0;0;08:55:12:308;0;10;-1.5;1.94117647058824;1.36852394916911;0;0;0;1;1;1;1;1;85;0;0;0;5;1;0;0;();(-2000.0, -2000.0);
08:55:12:325;08:55:12:277;1448481306.88;(0, 0);0;0;08:55:12:325;0;15;-1.5;1.71932773109244;0.879765395894428;0;0;0;1;1;1;1;1;85;0;0;0;5;1;0;0;();(-2000.0, -2000.0);
08:55:12:359;08:55:12:328;1448481306.91;(0.22787917852401735, 0.4863298628065321);20.7285404205;0.631577475847;08:55:12:359;0;0;-1.5;2.47101449275362;2.44379276637341;0;0;0;1;1;1;1;1;85;0;0;0;5;1;0;0;();(-2000.0, -2000.0);
08:55:12:375;08:55:12:328;1448481306.91;(0.22787917852401735, 0.4863298628065321);20.7285404205;0.631577475847;08:55:12:375;0;10;-1.5;2.41843971631206;1.85728250244379;0;0;0;1;1;1;1;1;85;0;0;0;5;1;0;0;();(-2000.0, -2000.0);
08:55:12:392;08:55:12:376;1448481306.95;(0.398851203918457, 0.4889020707872179);48.1820755005;1.0;08:55:12:392;0;15;-1.5;2.6640625;2.1505376344086;0;0;0;1;1;1;1;1;85;0;0;0;5;1;0;0;();(-2000.0, -2000.0);
08:55:12:409;08:55:12:376;1448481306.95;(0.398851203918457, 0.4889020707872179);48.1820755005;1.0;08:55:12:409;0;9;-1.5;2.36258660508083;1.85728250244379;0;0;0;1;1;1;1;1;85;0;0;0;5;1;0;0;();(-2000.0, -2000.0);
08:55:12:426;08:55:12:376;1448481306.95;(0.398851203918457, 0.4889020707872179);48.1820755005;1.0;08:55:12:426;0;0;-1.5;1.97490347490347;1.46627565982405;0;0;0;1;1;1;1;1;85;0;0;0;5;1;0;0;();(-2000.0, -2000.0);
08:55:12:459;08:55:12:427;1448481307.01;(0.4055607318878174, 0.4880986531575521);48.0134429932;1.0;08:55:12:459;0;15;-1.5;3.46779661016949;2.93255131964809;0;0;0;1;1;1;1;1;85;0;0;0;5;1;0;0;();(-2000.0, -2000.0);
08:55:12:477;08:55:12:476;1448481307.05;(0.40789356231689455, 0.4880975935194227);48.1552124023;1.0;08:55:12:476;0;9;-1.5;1.88397790055249;1.17302052785924;0;0;0;1;1;1;1;1;85;0;0;0;5;1;0;0;();(-2000.0, -2000.0);
08:55:12:493;08:55:12:476;1448481307.05;(0.40789356231689455, 0.4880975935194227);48.1552124023;1.0;08:55:12:493;0;4;-1.5;3.05373134328358;2.93255131964809;0;0;0;1;1;1;1;1;85;0;0;0;5;1;0;0;();(-2000.0, -2000.0);
08:55:12:510;08:55:12:476;1448481307.05;(0.40789356231689455, 0.4880975935194227);48.1552124023;1.0;08:55:12:510;0;5;-1.5;2.0625;1.46627565982405;0;0;0;1;1;1;1;1;85;0;0;0;5;1;0;0;();(-2000.0, -2000.0);
08:55:12:527;08:55:12:476;1448481307.05;(0.40789356231689455, 0.4880975935194227);48.1552124023;1.0;08:55:12:527;0;10;-1.5;2.21428571428571;1.46627565982405;0;0;0;1;1;1;1;1;85;0;0;0;5;1;0;0;();(-2000.0, -2000.0);
08:55:12:560;08:55:12:528;1448481307.08;(0.4097339391708374, 0.48859816657172306);47.9459381104;1.0;08:55:12:560;0;9;-1.5;2.0625;1.46627565982405;0;0;0;1;1;1;1;1;85;0;0;0;5;1;0;0;();(-2000.0, -2000.0);
08:55:12:577;08:55:12:577;1448481307.11;(0.4109344482421875, 0.4881832546657986);48.4231948853;0.976556030956;08:55:12:577;0;4;-1.5;2.50122249388753;2.34604105571848;0;0;0;1;1;1;1;1;85;0;0;0;5;1;0;0;();(-2000.0, -2000.0);
08:55:12:593;08:55:12:577;1448481307.18;(0.4128448963165283, 0.48794068230523);48.0783462524;1.0;08:55:12:593;0;9;-1.5;2.55112219451372;1.85728250244379;0;0;0;1;1;1;1;1;85;0;0;0;5;1;0;0;();(-2000.0, -2000.0);
08:55:12:610;08:55:12:577;1448481307.18;(0.4128448963165283, 0.48794068230523);48.0783462524;1.0;08:55:12:610;0;5;-1.5;1.60093896713615;0.879765395894428;0;0;0;1;1;1;1;1;85;0;0;0;5;1;0;0;();(-2000.0, -2000.0);
08:55:12:627;08:55:12:577;1448481307.18;(0.4128448963165283, 0.48794068230523);48.0783462524;1.0;08:55:12:627;0;10;-1.5;1.80105633802817;1.17302052785924;0;0;0;1;1;1;1;1;85;0;0;0;5;1;0;0;();(-2000.0, -2000.0);
08:55:12:660;08:55:12:628;1448481307.21;(0.4248652935028076, 0.47788416544596357);48.4478759766;1.0;08:55:12:660;0;10;-1.5;2.35172413793103;1.85728250244379;0;0;0;1;1;1;1;1;85;0;0;0;5;1;0;0;();(-2000.0, -2000.0);
08:55:12:678;08:55:12:677;1448481307.28;(0.4257352828979492, 0.4774976094563802);48.7144432068;1.0;08:55:12:678;0;0;-1.5;2.31972789115646;1.85728250244379;0;0;0;1;1;1;1;1;85;0;0;0;5;1;0;0;();(-2000.0, -2000.0);
08:55:12:694;08:55:12:677;1448481307.28;(0.4257352828979492, 0.4774976094563802);48.7144432068;1.0;08:55:12:694;0;10;-1.5;2.30405405405405;1.66177908113392;0;0;0;1;1;1;1;1;85;0;0;0;5;1;0;0;();(-2000.0, -2000.0);
08:55:12:711;08:55:12:677;1448481307.28;(0.4257352828979492, 0.4774976094563802);48.7144432068;1.0;08:55:12:711;0;15;-1.5;2.50735294117647;2.34604105571848;0;0;0;1;1;1;1;1;85;0;0;0;5;1;0;0;();(-2000.0, -2000.0);
08:55:12:727;08:55:12:723;1448481307.31;(0.42554948329925535, 0.47766409979926217);49.2940673828;1.0;08:55:12:727;0;10;-1.5;2.12681912681913;1.66177908113392;0;0;0;1;1;1;1;1;85;0;0;0;5;1;0;0;();(-2000.0, -2000.0);
08:55:12:761;08:55:12:723;1448481307.31;(0.42554948329925535, 0.47766409979926217);49.2940673828;1.0;08:55:12:761;0;9;-1.5;2.44152744630072;1.85728250244379;0;0;0;1;1;1;1;1;85;0;0;0;5;1;0;0;();(-2000.0, -2000.0);
08:55:12:778;08:55:12:775;1448481307.35;(0.4253070592880249, 0.4780408647325304);49.6133728027;1.0;08:55:12:778;0;15;-1.5;2.6640625;2.93255131964809;0;0;0;1;1;1;1;1;85;0;0;0;5;1;0;0;();(-2000.0, -2000.0);
08:55:12:794;08:55:12:775;1448481307.35;(0.4253070592880249, 0.4780408647325304);49.6133728027;1.0;08:55:12:794;0;10;-1.5;2.00195694716243;1.46627565982405;0;0;0;1;1;1;1;1;85;0;0;0;5;1;0;0;();(-2000.0, -2000.0);
08:55:12:811;08:55:12:775;1448481307.35;(0.4253070592880249, 0.4780408647325304);49.6133728027;1.0;08:55:12:811;0;15;-1.5;2.0297619047619;1.46627565982405;0;0;0;1;1;1;1;1;85;0;0;0;5;1;0;0;();(-2000.0, -2000.0);
08:55:12:828;08:55:12:823;1448481307.41;(0.42483837604522706, 0.4784829457600911);50.4581413269;1.0;08:55:12:828;0;15;-1.5;2.0297619047619;1.46627565982405;0;0;0;1;1;1;1;1;85;0;0;0;5;1;0;0;();(-2000.0, -2000.0);
08:55:12:845;08:55:12:823;1448481307.41;(0.42483837604522706, 0.4784829457600911);50.4581413269;1.0;08:55:12:845;0;10;-1.5;2.39018691588785;2.34604105571848;0;0;0;1;1;1;1;1;85;0;0;0;5;1;0;0;();(-2000.0, -2000.0);
08:55:12:879;08:55:12:875;1448481307.45;(0.42468044757843015, 0.4785678015814887);50.9603729248;1.0;08:55:12:879;0;9;-1.5;2.11801242236025;1.46627565982405;0;0;0;1;1;1;1;1;85;0;0;0;5;1;0;0;();(-2000.0, -2000.0);
08:55:12:895;08:55:12:875;1448481307.45;(0.42468044757843015, 0.4785678015814887);50.9603729248;1.0;08:55:12:895;0;4;-1.5;2.97383720930233;2.34604105571848;0;0;0;1;1;1;1;1;85;0;0;0;5;1;0;0;();(-2000.0, -2000.0);
08:55:12:912;08:55:12:875;1448481307.45;(0.42468044757843015, 0.4785678015814887);50.9603729248;1.0;08:55:12:912;0;10;-1.5;3.08132530120482;2.93255131964809;0;0;0;1;1;1;1;1;85;0;0;0;5;1;0;0;();(-2000.0, -2000.0);
08:55:12:930;08:55:12:923;1448481307.48;(0.4214193820953369, 0.47701225280761717);51.347858429;1.0;08:55:12:929;0;5;-1.5;1.90858208955224;1.46627565982405;0;0;0;1;1;1;1;1;85;0;0;0;5;1;0;0;();(-2000.0, -2000.0);
08:55:12:962;08:55:12:923;1448481307.48;(0.4214193820953369, 0.47701225280761717);51.347858429;1.0;08:55:12:962;0;15;-1.5;1.81705150976909;1.17302052785924;0;0;0;1;1;1;1;1;85;0;0;0;5;1;0;0;();(-2000.0, -2000.0);
08:55:12:980;08:55:12:977;1448481307.58;(0.42092347145080566, 0.47794125874837234);51.9925422668;1.0;08:55:12:979;0;10;-1.5;2.50735294117647;1.85728250244379;0;0;0;1;1;1;1;1;85;0;0;0;5;1;0;0;();(-2000.0, -2000.0);
08:55:12:995;08:55:12:977;1448481307.58;(0.42092347145080566, 0.47794125874837234);51.9925422668;1.0;08:55:12:995;0;5;-1.5;2.20950323974082;1.46627565982405;0;0;0;1;1;1;1;1;85;0;0;0;5;1;0;0;();(-2000.0, -2000.0);
08:55:13:012;08:55:12:977;1448481307.58;(0.42092347145080566, 0.47794125874837234);51.9925422668;1.0;08:55:13:012;0;10;-1.5;1.95229007633588;1.46627565982405;0;0;0;1;1;1;1;1;85;0;0;0;5;1;0;0;();(-2000.0, -2000.0);
08:55:13:030;08:55:13:024;1448481307.61;(0.4207177639007568, 0.47852096557617185);52.4943580627;1.0;08:55:13:030;0;15;-1.5;2.56390977443609;2.34604105571848;0;0;0;1;1;1;1;1;85;0;0;0;5;1;0;0;();(-2000.0, -2000.0);
08:55:13:046;08:55:13:024;1448481307.61;(0.4207177639007568, 0.47852096557617185);52.4943580627;1.0;08:55:13:046;0;9;-1.5;2.00588235294118;1.36852394916911;0;0;0;1;1;1;1;1;85;0;0;0;5;1;0;0;();(-2000.0, -2000.0);
08:55:13:080;08:55:13:077;1448481307.68;(0.42026548385620116, 0.47813097635904944);52.7128791809;1.0;08:55:13:080;0;9;-1.5;3.36513157894737;2.73704789833822;0;0;0;1;1;1;1;1;85;0;0;0;5;1;0;0;();(-2000.0, -2000.0);
08:55:13:096;08:55:13:077;1448481307.68;(0.42026548385620116, 0.47813097635904944);52.7128791809;1.0;08:55:13:096;0;15;-1.5;2.61636828644501;2.34604105571848;0;0;0;1;1;1;1;1;85;0;0;0;5;1;0;0;();(-2000.0, -2000.0);
08:55:13:113;08:55:13:077;1448481307.68;(0.42026548385620116, 0.47813097635904944);52.7128791809;1.0;08:55:13:113;0;10;-1.5;1.87020109689214;1.17302052785924;0;0;0;1;1;1;1;1;85;0;0;0;5;1;0;0;();(-2000.0, -2000.0);
08:55:13:130;08:55:13:124;1448481307.71;(0.41990368366241454, 0.4784328884548611);52.7848472595;1.0;08:55:13:130;0;15;-1.5;1.78222996515679;1.36852394916911;0;0;0;1;1;1;1;1;85;0;0;0;5;1;0;0;();(-2000.0, -2000.0);
08:55:13:148;08:55:13:124;1448481307.71;(0.41990368366241454, 0.4784328884548611);52.7848472595;1.0;08:55:13:148;0;10;-1.5;2.6640625;2.34604105571848;0;0;0;1;1;1;1;1;85;0;0;0;5;1;0;0;();(-2000.0, -2000.0);
08:55:13:180;08:55:13:171;1448481307.75;(0.41973147392272947, 0.4781935373942058);52.861076355;1.0;08:55:13:180;0;10;-1.5;2.2;1.46627565982405;0;0;0;1;1;1;1;1;85;0;0;0;5;1;0;0;();(-2000.0, -2000.0);
08:55:13:197;08:55:13:171;1448481307.75;(0.41973147392272947, 0.4781935373942058);52.861076355;1.0;08:55:13:197;0;15;-1.5;2.6640625;2.34604105571848;0;0;0;1;1;1;1;1;85;0;0;0;5;1;0;0;();(-2000.0, -2000.0);
08:55:13:214;08:55:13:171;1448481307.75;(0.41973147392272947, 0.4781935373942058);52.861076355;1.0;08:55:13:214;0;4;-1.5;2.57035175879397;2.34604105571848;0;0;0;1;1;1;1;1;85;0;0;0;5;1;0;0;();(-2000.0, -2000.0);
08:55:13:231;08:55:13:223;1448481307.81;(0.4204491376876831, 0.4766801198323568);52.901473999;1.0;08:55:13:231;0;0;-1.5;1.78846153846154;1.17302052785924;0;0;0;1;1;1;1;1;85;0;0;0;5;1;0;0;();(-2000.0, -2000.0);
08:55:13:248;08:55:13:223;1448481307.81;(0.4204491376876831, 0.4766801198323568);52.901473999;1.0;08:55:13:248;0;5;-1.5;1.88745387453875;1.17302052785924;0;0;0;1;1;1;1;1;85;0;0;0;5;1;0;0;();(-2000.0, -2000.0);
08:55:13:281;08:55:13:271;1448481307.88;(0.42209463119506835, 0.4749229007297092);52.8515815735;1.0;08:55:13:281;0;4;-1.5;1.97109826589595;1.66177908113392;0;0;0;1;1;1;1;1;85;0;0;0;5;1;0;0;();(-2000.0, -2000.0);
08:55:13:299;08:55:13:271;1448481307.88;(0.42209463119506835, 0.4749229007297092);52.8515815735;1.0;08:55:13:299;0;9;-1.5;2.55112219451372;2.73704789833822;0;0;0;1;1;1;1;1;85;0;0;0;5;1;0;0;();(-2000.0, -2000.0);
08:55:13:314;08:55:13:271;1448481307.88;(0.42209463119506835, 0.4749229007297092);52.8515815735;1.0;08:55:13:314;0;5;-1.5;2.0501002004008;1.46627565982405;0;0;0;1;1;1;1;1;85;0;0;0;5;1;0;0;();(-2000.0, -2000.0);
08:55:13:331;08:55:13:323;1448481307.91;(0.42102975845336915, 0.47276577419704857);52.4953651428;0.829453549062;08:55:13:331;0;15;-1.5;2.35172413793103;1.85728250244379;0;0;0;1;1;1;1;1;85;0;0;0;5;1;0;0;();(-2000.0, -2000.0);
08:55:13:348;08:55:13:323;1448481307.91;(0.42102975845336915, 0.47276577419704857);52.4953651428;0.829453549062;08:55:13:348;0;5;-1.5;2.1006160164271;1.46627565982405;0;0;0;1;1;1;1;1;85;0;0;0;5;1;0;0;();(-2000.0, -2000.0);
08:55:13:365;08:55:13:323;1448481307.91;(0.42102975845336915, 0.47276577419704857);52.4953651428;0.829453549062;08:55:13:365;0;15;-1.5;2.64341085271318;2.34604105571848;0;0;0;1;1;1;1;1;85;0;0;0;5;1;0;0;();(-2000.0, -2000.0);
08:55:13:398;08:55:13:373;1448481307.95;(0.4073073625564575, 0.44316240946451824);53.4902229309;1.0;08:55:13:398;0;9;-1.5;2.77989130434783;2.34604105571848;0;0;0;1;1;1;1;1;85;0;0;0;5;1;0;0;();(-2000.0, -2000.0);
08:55:13:415;08:55:13:373;1448481307.95;(0.4073073625564575, 0.44316240946451824);53.4902229309;1.0;08:55:13:415;0;15;-1.5;2.97383720930233;2.93255131964809;0;0;0;1;1;1;1;1;85;0;0;0;5;1;0;0;();(-2000.0, -2000.0);
08:55:13:433;08:55:13:423;1448481307.98;(0.4094651460647583, 0.41941723293728295);53.6821746826;1.0;08:55:13:433;0;9;-1.5;1.77913043478261;1.17302052785924;0;0;0;1;1;1;1;1;85;0;0;0;5;1;0;0;();(-2000.0, -2000.0);
08:55:13:449;08:55:13:423;1448481307.98;(0.4094651460647583, 0.41941723293728295);53.6821746826;1.0;08:55:13:449;0;9;-1.5;2.25330396475771;1.46627565982405;0;0;0;1;1;1;1;1;85;0;0;0;5;1;0;0;();(-2000.0, -2000.0);
08:55:13:465;08:55:13:423;1448481307.98;(0.4094651460647583, 0.41941723293728295);53.6821746826;1.0;08:55:13:465;0;10;-1.5;2.89801699716714;2.73704789833822;0;0;0;1;1;1;1;1;85;0;0;0;5;1;0;0;();(-2000.0, -2000.0);
08:55:13:499;08:55:13:423;1448481307.98;(0.4094651460647583, 0.41941723293728295);53.6821746826;1.0;08:55:13:499;0;5;-1.5;1.98640776699029;1.36852394916911;0;0;0;1;1;1;1;1;85;0;0;0;5;1;0;0;();(-2000.0, -2000.0);
08:55:13:516;08:55:13:423;1448481307.98;(0.4094651460647583, 0.41941723293728295);53.6821746826;1.0;08:55:13:516;0;5;-1.5;1.98640776699029;1.36852394916911;0;0;0;1;1;1;1;1;85;0;0;0;5;1;0;0;();(-2000.0, -2000.0);
08:55:13:533;08:55:13:519;1448481308.01;(0.4094510555267334, 0.4163096110026042);53.4676246643;1.0;08:55:13:533;0;4;-1.5;2.55112219451372;1.85728250244379;0;0;0;1;1;1;1;1;85;0;0;0;5;1;0;0;();(-2000.0, -2000.0);
08:55:13:550;08:55:13:519;1448481308.01;(0.4094510555267334, 0.4163096110026042);53.4676246643;1.0;08:55:13:549;0;0;-1.5;1.60093896713615;1.17302052785924;0;0;0;1;1;1;1;1;85;0;0;0;5;1;0;0;();(-2000.0, -2000.0);
08:55:13:566;08:55:13:519;1448481308.01;(0.4094510555267334, 0.4163096110026042);53.4676246643;1.0;08:55:13:566;0;5;-1.5;1.55235204855842;1.17302052785924;0;0;0;1;1;1;1;1;85;0;0;0;5;1;0;0;();(-2000.0, -2000.0);
08:55:13:599;08:55:13:571;1448481308.15;(0.4086737632751465, 0.415822007921007);53.7436180115;1.0;08:55:13:599;0;4;-1.5;2.75741239892183;2.44379276637341;0;0;0;1;1;1;1;1;85;0;0;0;5;1;0;0;();(-2000.0, -2000.0);
08:55:13:617;08:55:13:571;1448481308.15;(0.4086737632751465, 0.415822007921007);53.7436180115;1.0;08:55:13:617;0;15;-1.5;1.73979591836735;1.17302052785924;0;0;0;1;1;1;1;1;85;0;0;0;5;1;0;0;();(-2000.0, -2000.0);
08:55:13:633;08:55:13:620;1448481308.18;(0.34105424880981444, 0.5385362837049696);19.103099823;1.0;08:55:13:633;0;4;-1.5;2.01377952755906;1.36852394916911;0;0;0;1;1;1;1;1;85;0;0;0;5;1;0;0;();(-2000.0, -2000.0);
08:55:13:650;08:55:13:620;1448481308.18;(0.34105424880981444, 0.5385362837049696);19.103099823;1.0;08:55:13:650;0;0;-1.5;2.325;1.66177908113392;0;0;0;1;1;1;1;1;85;0;0;0;5;1;0;0;();(-2000.0, -2000.0);
08:55:13:667;08:55:13:620;1448481308.18;(0.34105424880981444, 0.5385362837049696);19.103099823;1.0;08:55:13:667;0;5;-1.5;2.24835164835165;1.85728250244379;0;0;0;1;1;1;1;1;85;0;0;0;5;1;0;0;();(-2000.0, -2000.0);
08:55:13:700;08:55:13:673;1448481308.28;(0.37397797107696534, 0.568609619140625);17.1374149323;1.0;08:55:13:700;0;4;-1.5;2.46506024096386;1.85728250244379;0;0;0;1;1;1;1;1;85;0;0;0;5;1;0;0;();(-2000.0, -2000.0);
08:55:13:717;08:55:13:673;1448481308.28;(0.37397797107696534, 0.568609619140625);17.1374149323;1.0;08:55:13:717;0;9;-1.5;3.05373134328358;2.44379276637341;0;0;0;1;1;1;1;1;85;0;0;0;5;1;0;0;();(-2000.0, -2000.0);
08:55:13:734;08:55:13:719;1448481308.31;(0.3739387273788452, 0.56876589457194);16.7079544067;1.0;08:55:13:734;0;5;-1.5;1.69370860927152;0.879765395894428;0;0;0;1;1;1;1;1;85;0;0;0;5;1;0;0;();(-2000.0, -2000.0);
08:55:13:751;08:55:13:719;1448481308.31;(0.3739387273788452, 0.56876589457194);16.7079544067;1.0;08:55:13:751;0;10;-1.5;1.88397790055249;1.17302052785924;0;0;0;1;1;1;1;1;85;0;0;0;5;1;0;0;();(-2000.0, -2000.0);
08:55:13:767;08:55:13:719;1448481308.31;(0.3739387273788452, 0.56876589457194);16.7079544067;1.0;08:55:13:767;0;15;-1.5;1.80742049469965;1.36852394916911;0;0;0;1;1;1;1;1;85;0;0;0;5;1;0;0;();(-2000.0, -2000.0);
08:55:13:801;08:55:13:772;1448481308.35;(0.37302799224853517, 0.5677020178900825);17.2167930603;0.905128677869;08:55:13:801;0;15;-1.5;2.41843971631206;1.85728250244379;0;0;0;1;1;1;1;1;85;0;0;0;5;1;0;0;();(-2000.0, -2000.0);
08:55:13:819;08:55:13:772;1448481308.35;(0.37302799224853517, 0.5677020178900825);17.2167930603;0.905128677869;08:55:13:819;0;10;-1.5;2.26829268292683;1.46627565982405;0;0;0;1;1;1;1;1;85;0;0;0;5;1;0;0;();(-2000.0, -2000.0);
08:55:13:834;08:55:13:819;1448481308.38;(0.398966908454895, 0.4151197645399306);54.5021476746;1.0;08:55:13:834;0;15;-1.5;1.81705150976909;1.36852394916911;0;0;0;1;1;1;1;1;85;0;0;0;5;1;0;0;();(-2000.0, -2000.0);
08:55:13:851;08:55:13:819;1448481308.38;(0.398966908454895, 0.4151197645399306);54.5021476746;1.0;08:55:13:851;0;9;-1.5;1.61867088607595;0.684261974584555;0;0;0;1;1;1;1;1;85;0;0;0;5;1;0;0;();(-2000.0, -2000.0);
08:55:13:868;08:55:13:819;1448481308.38;(0.398966908454895, 0.4151197645399306);54.5021476746;1.0;08:55:13:868;0;0;-1.5;1.73096446700508;1.46627565982405;0;0;0;1;1;1;1;1;85;0;0;0;5;1;0;0;();(-2000.0, -2000.0);
08:55:13:901;08:55:13:872;1448481308.48;(0.39598736763000486, 0.410511228773329);54.9767494202;0.811272775609;08:55:13:901;0;10;-1.5;1.83992805755396;1.36852394916911;0;0;0;1;1;1;1;1;85;0;0;0;5;1;0;0;();(-2000.0, -2000.0);
08:55:13:918;08:55:13:872;1448481308.48;(0.39598736763000486, 0.410511228773329);54.9767494202;0.811272775609;08:55:13:918;0;4;-1.5;2.75741239892183;2.34604105571848;0;0;0;1;1;1;1;1;85;0;0;0;5;1;0;0;();(-2000.0, -2000.0);
08:55:13:936;08:55:13:872;1448481308.48;(0.39598736763000486, 0.410511228773329);54.9767494202;0.811272775609;08:55:13:936;0;9;-1.5;2.75741239892183;2.44379276637341;0;0;0;1;1;1;1;1;85;0;0;0;5;1;0;0;();(-2000.0, -2000.0);
08:55:13:952;08:55:13:872;1448481308.48;(0.39598736763000486, 0.410511228773329);54.9767494202;0.811272775609;08:55:13:952;0;5;-1.5;1.82678571428571;1.17302052785924;0;0;0;1;1;1;1;1;85;0;0;0;5;1;0;0;();(-2000.0, -2000.0);
08:55:13:969;08:55:13:968;1448481308.56;(0.3939838409423828, 0.40796190897623696);55.2504272461;0.999166185662;08:55:13:969;0;10;-1.5;2.21428571428571;1.46627565982405;0;0;0;1;1;1;1;1;85;0;0;0;5;1;0;0;();(-2000.0, -2000.0);
08:55:13:985;08:55:13:968;1448481308.56;(0.3939838409423828, 0.40796190897623696);55.2504272461;0.999166185662;08:55:13:985;0;5;-1.5;1.97109826589595;1.46627565982405;0;0;0;1;1;1;1;1;85;0;0;0;5;1;0;0;();(-2000.0, -2000.0);
08:55:14:019;08:55:13:968;1448481308.56;(0.3939838409423828, 0.40796190897623696);55.2504272461;0.999166185662;08:55:14:019;0;15;-1.5;1.61867088607595;0.684261974584555;0;0;0;1;1;1;1;1;85;0;0;0;5;1;0;0;();(-2000.0, -2000.0);
08:55:14:036;08:55:14:019;1448481308.58;(0.3745271682739258, 0.5645221710205078);18.4628200531;1.0;08:55:14:036;0;15;-1.5;1.61867088607595;0.684261974584555;0;0;0;1;1;1;1;1;85;0;0;0;5;1;0;0;();(-2000.0, -2000.0);
08:55:14:053;08:55:14:019;1448481308.58;(0.3745271682739258, 0.5645221710205078);18.4628200531;1.0;08:55:14:053;0;5;-1.5;1.65;0.684261974584555;0;0;0;1;1;1;1;1;85;0;0;0;5;1;0;0;();(-2000.0, -2000.0);
08:55:14:071;08:55:14:068;1448481308.65;(0.34017043113708495, 0.5440316518147786);18.8347167969;1.0;08:55:14:071;0;10;-1.5;1.58359133126935;0.684261974584555;0;0;0;1;1;1;1;1;85;0;0;0;5;1;0;0;();(-2000.0, -2000.0);
08:55:14:087;08:55:14:068;1448481308.65;(0.34017043113708495, 0.5440316518147786);18.8347167969;1.0;08:55:14:087;0;14;-1.5;1.68256578947368;0.879765395894428;0;0;0;1;1;1;1;1;85;0;0;0;5;1;0;0;();(-2000.0, -2000.0);
08:55:14:120;08:55:14:120;1448481308.68;(0.4038837432861328, 0.4222262912326389);55.411441803;1.0;08:55:14:120;0;10;-1.5;2.0625;1.46627565982405;0;0;0;1;1;1;1;1;85;0;0;0;5;1;0;0;();(-2000.0, -2000.0);
08:55:14:136;08:55:14:120;1448481308.68;(0.4038837432861328, 0.4222262912326389);55.411441803;1.0;08:55:14:136;0;10;-1.5;2.13125;1.46627565982405;0;0;0;1;1;1;1;1;85;0;0;0;5;1;0;0;();(-2000.0, -2000.0);
08:55:14:153;08:55:14:120;1448481308.68;(0.4038837432861328, 0.4222262912326389);55.411441803;1.0;08:55:14:153;0;15;-1.5;2.36805555555556;2.1505376344086;0;0;0;1;1;1;1;1;85;0;0;0;5;1;0;0;();(-2000.0, -2000.0);
08:55:14:170;08:55:14:167;1448481308.75;(0.4029205799102783, 0.4266246371799045);56.3067245483;0.944187933721;08:55:14:170;0;4;-1.5;2.6640625;2.73704789833822;0;0;0;1;1;1;1;1;85;0;0;0;5;1;0;0;();(-2000.0, -2000.0);
08:55:14:187;08:55:14:167;1448481308.75;(0.4029205799102783, 0.4266246371799045);56.3067245483;0.944187933721;08:55:14:187;0;15;-1.5;1.75773195876289;1.36852394916911;0;0;0;1;1;1;1;1;85;0;0;0;5;1;0;0;();(-2000.0, -2000.0);
08:55:14:222;08:55:14:219;1448481308.81;(0.4028473854064941, 0.428922610812717);56.5570106506;1.0;08:55:14:222;0;15;-1.5;2.85754189944134;2.34604105571848;0;0;0;1;1;1;1;1;85;0;0;0;5;1;0;0;();(-2000.0, -2000.0);
08:55:14:245;08:55:14:219;1448481308.81;(0.4028473854064941, 0.428922610812717);56.5570106506;1.0;08:55:14:245;0;7;-1.5;2.44152744630072;1.46627565982405;0;0;0;1;1;1;1;3;85,18,08;0;0;0;5;1;0;0;();(-2000.0, -2000.0);
08:55:14:254;08:55:14:219;1448481308.81;(0.4028473854064941, 0.428922610812717);56.5570106506;1.0;08:55:14:254;0;15;-1.5;1.83992805755396;1.46627565982405;0;0;0;1;1;1;1;3;85,18,08;0;0;0;5;1;0;0;();(-2000.0, -2000.0);
08:55:14:270;08:55:14:268;1448481308.85;(0.36725702285766604, 0.5754270341661241);18.0683326721;1.0;08:55:14:270;0;4;-1.5;1.94486692015209;1.36852394916911;0;0;0;1;1;1;1;1;85;0;0;0;15;3;0;0;();(-2000.0, -2000.0);
08:55:14:288;08:55:14:268;1448481308.85;(0.36725702285766604, 0.5754270341661241);18.0683326721;1.0;08:55:14:288;0;10;-1.5;2.24835164835165;1.46627565982405;0;0;0;1;1;1;1;1;85;0;0;0;15;3;0;0;();(-2000.0, -2000.0);
08:55:14:320;08:55:14:319;1448481308.91;(0.3660626173019409, 0.5788025750054253);18.8482112885;1.0;08:55:14:320;0;9;-1.5;2.13125;1.46627565982405;0;0;0;1;1;1;1;1;85;0;0;0;15;3;0;0;();(-2000.0, -2000.0);
08:55:14:338;08:55:14:319;1448481308.91;(0.3660626173019409, 0.5788025750054253);18.8482112885;1.0;08:55:14:338;0;4;-1.5;2.44152744630072;1.85728250244379;0;0;0;1;1;1;1;1;85;0;0;0;15;3;0;0;();(-2000.0, -2000.0);
08:55:14:354;08:55:14:319;1448481308.91;(0.3660626173019409, 0.5788025750054253);18.8482112885;1.0;08:55:14:354;0;9;-1.5;2.77989130434783;2.44379276637341;0;0;0;1;1;1;1;1;85;0;0;0;15;3;0;0;();(-2000.0, -2000.0);
08:55:14:372;08:55:14:368;1448481308.95;(0.36629338264465333, 0.5792628818088108);17.4880409241;0.944643910783;08:55:14:372;0;13;-1.5;2.56390977443609;2.34604105571848;0;0;0;1;1;1;1;1;85;0;0;0;15;3;0;0;();(-2000.0, -2000.0);
08:55:14:388;08:55:14:368;1448481308.95;(0.36629338264465333, 0.5792628818088108);17.4880409241;0.944643910783;08:55:14:388;0;10;-1.5;1.80105633802817;1.36852394916911;0;0;0;1;1;1;1;1;85;0;0;0;15;3;0;0;();(-2000.0, -2000.0);
08:55:14:405;08:55:14:368;1448481308.95;(0.36629338264465333, 0.5792628818088108);17.4880409241;0.944643910783;08:55:14:405;0;15;-1.5;1.705;0.879765395894428;0;0;0;1;1;1;1;1;85;0;0;0;15;3;0;0;();(-2000.0, -2000.0);
08:55:14:438;08:55:14:416;1448481309.01;(0.36642587184906006, 0.5813909742567274);17.311756134;1.0;08:55:14:438;0;5;-1.5;2.0501002004008;1.46627565982405;0;0;0;1;1;1;1;1;85;0;0;0;15;3;0;0;();(-2000.0, -2000.0);
08:55:14:455;08:55:14:416;1448481309.01;(0.36642587184906006, 0.5813909742567274);17.311756134;1.0;08:55:14:455;0;10;-1.5;2.50735294117647;2.34604105571848;0;0;0;1;1;1;1;1;85;0;0;0;15;3;0;0;();(-2000.0, -2000.0);
08:55:14:472;08:55:14:467;1448481309.05;(0.36644673347473145, 0.5820320977105035);17.1484069824;1.0;08:55:14:472;0;10;-1.5;2.50735294117647;2.34604105571848;0;0;0;1;1;1;1;1;85;0;0;0;15;3;0;0;();(-2000.0, -2000.0);
08:55:14:488;08:55:14:467;1448481309.05;(0.36644673347473145, 0.5820320977105035);17.1484069824;1.0;08:55:14:488;0;9;-1.5;2.24835164835165;1.46627565982405;0;0;0;1;1;1;1;1;85;0;0;0;15;3;0;0;();(-2000.0, -2000.0);
08:55:14:505;08:55:14:467;1448481309.05;(0.36644673347473145, 0.5820320977105035);17.1484069824;1.0;08:55:14:505;0;15;-1.5;1.94117647058824;1.36852394916911;0;0;0;1;1;1;1;1;85;0;0;0;15;3;0;0;();(-2000.0, -2000.0);
08:55:14:537;08:55:14:515;1448481309.11;(0.34321911334991456, 0.5499145931667752);19.0258331299;0.906015744656;08:55:14:537;0;15;-1.5;3.08132530120482;2.44379276637341;0;0;0;1;1;1;1;1;85;0;0;0;15;3;0;0;();(-2000.0, -2000.0);
08:55:14:556;08:55:14:515;1448481309.11;(0.34321911334991456, 0.5499145931667752);19.0258331299;0.906015744656;08:55:14:556;0;10;-1.5;1.73979591836735;1.46627565982405;0;0;0;1;1;1;1;1;85;0;0;0;15;3;0;0;();(-2000.0, -2000.0);
08:55:14:573;08:55:14:515;1448481309.11;(0.34321911334991456, 0.5499145931667752);19.0258331299;0.906015744656;08:55:14:573;0;15;-1.5;1.85662431941924;1.36852394916911;0;0;0;1;1;1;1;1;85;0;0;0;15;3;0;0;();(-2000.0, -2000.0);
08:55:14:590;08:55:14:515;1448481309.11;(0.34321911334991456, 0.5499145931667752);19.0258331299;0.906015744656;08:55:14:590;0;4;-1.5;1.88745387453875;1.46627565982405;0;0;0;1;1;1;1;1;85;0;0;0;15;3;0;0;();(-2000.0, -2000.0);
08:55:14:606;08:55:14:515;1448481309.11;(0.34321911334991456, 0.5499145931667752);19.0258331299;0.906015744656;08:55:14:606;0;0;-1.5;2.21428571428571;1.46627565982405;0;0;0;1;1;1;1;1;85;0;0;0;15;3;0;0;();(-2000.0, -2000.0);
08:55:14:640;08:55:14:515;1448481309.11;(0.34321911334991456, 0.5499145931667752);19.0258331299;0.906015744656;08:55:14:640;0;15;-1.5;2.46506024096386;1.85728250244379;0;0;0;1;1;1;1;1;85;0;0;0;15;3;0;0;();(-2000.0, -2000.0);
08:55:14:656;08:55:14:515;1448481309.11;(0.34321911334991456, 0.5499145931667752);19.0258331299;0.906015744656;08:55:14:656;0;4;-1.5;2.65714285714286;2.1505376344086;0;0;0;1;1;1;1;1;85;0;0;0;15;3;0;0;();(-2000.0, -2000.0);
08:55:14:673;08:55:14:667;1448481309.25;(0.4085767984390259, 0.42946807013617616);56.7311134338;1.0;08:55:14:673;0;10;-1.5;2.88169014084507;2.34604105571848;0;0;0;1;1;1;1;1;85;0;0;0;15;3;0;0;();(-2000.0, -2000.0);
08:55:14:690;08:55:14:667;1448481309.25;(0.4085767984390259, 0.42946807013617616);56.7311134338;1.0;08:55:14:690;0;5;-1.5;1.83992805755396;1.17302052785924;0;0;0;1;1;1;1;1;85;0;0;0;15;3;0;0;();(-2000.0, -2000.0);
08:55:14:706;08:55:14:667;1448481309.25;(0.4085767984390259, 0.42946807013617616);56.7311134338;1.0;08:55:14:706;0;10;-1.5;1.75471698113208;1.17302052785924;0;0;0;1;1;1;1;1;85;0;0;0;15;3;0;0;();(-2000.0, -2000.0);
08:55:14:740;08:55:14:715;1448481309.28;(0.40808682441711425, 0.42974497477213547);56.8708572388;1.0;08:55:14:740;0;15;-1.5;1.77913043478261;1.17302052785924;0;0;0;1;1;1;1;1;85;0;0;0;15;3;0;0;();(-2000.0, -2000.0);
08:55:14:757;08:55:14:715;1448481309.28;(0.40808682441711425, 0.42974497477213547);56.8708572388;1.0;08:55:14:757;0;4;-1.5;1.90502793296089;1.46627565982405;0;0;0;1;1;1;1;1;85;0;0;0;15;3;0;0;();(-2000.0, -2000.0);
08:55:14:774;08:55:14:768;1448481309.35;(0.4104576110839844, 0.4320722368028429);56.8839492798;0.986680646544;08:55:14:774;0;10;-1.5;2.22391304347826;1.46627565982405;0;0;0;1;1;1;1;1;85;0;0;0;15;3;0;0;();(-2000.0, -2000.0);
08:55:14:790;08:55:14:768;1448481309.35;(0.4104576110839844, 0.4320722368028429);56.8839492798;0.986680646544;08:55:14:790;0;15;-1.5;2.55112219451372;1.85728250244379;0;0;0;1;1;1;1;1;85;0;0;0;15;3;0;0;();(-2000.0, -2000.0);
08:55:14:808;08:55:14:768;1448481309.35;(0.4104576110839844, 0.4320722368028429);56.8839492798;0.986680646544;08:55:14:808;0;9;-1.5;2.20950323974082;1.46627565982405;0;0;0;1;1;1;1;1;85;0;0;0;15;3;0;0;();(-2000.0, -2000.0);
08:55:14:841;08:55:14:817;1448481309.41;(0.40914790630340575, 0.43195593092176654);56.6148452759;1.0;08:55:14:841;0;15;-1.5;1.75471698113208;1.17302052785924;0;0;0;1;1;1;1;1;85;0;0;0;15;3;0;0;();(-2000.0, -2000.0);
08:55:14:857;08:55:14:817;1448481309.41;(0.40914790630340575, 0.43195593092176654);56.6148452759;1.0;08:55:14:857;0;5;-1.5;1.75471698113208;1.17302052785924;0;0;0;1;1;1;1;1;85;0;0;0;15;3;0;0;();(-2000.0, -2000.0);
08:55:14:874;08:55:14:864;1448481309.45;(0.40847024917602537, 0.43285831875271263);56.3557434082;1.0;08:55:14:874;0;10;-1.5;1.73096446700508;1.17302052785924;0;0;0;1;1;1;1;1;85;0;0;0;15;3;0;0;();(-2000.0, -2000.0);
08:55:14:891;08:55:14:864;1448481309.45;(0.40847024917602537, 0.43285831875271263);56.3557434082;1.0;08:55:14:891;0;4;-1.5;2.6640625;2.34604105571848;0;0;0;1;1;1;1;1;85;0;0;0;15;3;0;0;();(-2000.0, -2000.0);
08:55:14:907;08:55:14:864;1448481309.45;(0.40847024917602537, 0.43285831875271263);56.3557434082;1.0;08:55:14:907;0;15;-1.5;1.97109826589595;1.36852394916911;0;0;0;1;1;1;1;1;85;0;0;0;15;3;0;0;();(-2000.0, -2000.0);
08:55:14:941;08:55:14:915;1448481309.51;(0.4073716878890991, 0.4327192094590929);56.2941169739;1.0;08:55:14:941;0;5;-1.5;1.53373313343328;1.17302052785924;0;0;0;1;1;1;1;1;85;0;0;0;15;3;0;0;();(-2000.0, -2000.0);
08:55:14:960;08:55:14:915;1448481309.51;(0.4073716878890991, 0.4327192094590929);56.2941169739;1.0;08:55:14:959;0;9;-1.5;1.75471698113208;1.17302052785924;0;0;0;1;1;1;1;1;85;0;0;0;15;3;0;0;();(-2000.0, -2000.0);
08:55:14:975;08:55:14:963;1448481309.55;(0.40676867961883545, 0.4319628821478949);56.1091041565;1.0;08:55:14:975;0;4;-1.5;2.31972789115646;1.66177908113392;0;0;0;1;1;1;1;1;85;0;0;0;15;3;0;0;();(-2000.0, -2000.0);
08:55:14:992;08:55:14:963;1448481309.55;(0.40676867961883545, 0.4319628821478949);56.1091041565;1.0;08:55:14:992;0;3;-1.5;1.77913043478261;1.17302052785924;0;0;0;1;1;1;1;1;85;0;0;0;15;3;0;0;();(-2000.0, -2000.0);
08:55:15:009;08:55:14:963;1448481309.55;(0.40676867961883545, 0.4319628821478949);56.1091041565;1.0;08:55:15:009;0;5;-1.5;1.71932773109244;1.46627565982405;0;0;0;1;1;1;1;1;85;0;0;0;15;3;0;0;();(-2000.0, -2000.0);
08:55:15:026;08:55:15:016;1448481309.61;(0.4057115316390991, 0.42974340650770404);56.0822792053;1.0;08:55:15:026;0;15;-1.5;3.08132530120482;2.93255131964809;0;0;0;1;1;1;1;1;85;0;0;0;15;3;0;0;();(-2000.0, -2000.0);
08:55:15:058;08:55:15:016;1448481309.61;(0.4057115316390991, 0.42974340650770404);56.0822792053;1.0;08:55:15:057;0;15;-1.5;1.88397790055249;1.46627565982405;0;0;0;1;1;1;1;1;85;0;0;0;15;3;0;0;();(-2000.0, -2000.0);
08:55:15:076;08:55:15:063;1448481309.65;(0.4209348201751709, 0.4286801656087239);55.0908927917;1.0;08:55:15:076;0;4;-1.5;1.80105633802817;1.17302052785924;0;0;0;1;1;1;1;1;85;0;0;0;15;3;0;0;();(-2000.0, -2000.0);
08:55:15:092;08:55:15:063;1448481309.65;(0.4209348201751709, 0.4286801656087239);55.0908927917;1.0;08:55:15:092;0;10;-1.5;1.90858208955224;1.36852394916911;0;0;0;1;1;1;1;1;85;0;0;0;15;3;0;0;();(-2000.0, -2000.0);
08:55:15:109;08:55:15:063;1448481309.65;(0.4209348201751709, 0.4286801656087239);55.0908927917;1.0;08:55:15:109;0;5;-1.5;1.95229007633588;1.66177908113392;0;0;0;1;1;1;1;1;85;0;0;0;15;3;0;0;();(-2000.0, -2000.0);
08:55:15:142;08:55:15:117;1448481309.71;(0.4186518430709839, 0.4282313876681858);54.9661178589;0.976727567796;08:55:15:142;0;0;-1.5;1.66341463414634;1.17302052785924;0;0;0;1;1;1;1;1;85;0;0;0;15;3;0;0;();(-2000.0, -2000.0);
08:55:15:159;08:55:15:117;1448481309.71;(0.4186518430709839, 0.4282313876681858);54.9661178589;0.976727567796;08:55:15:159;0;0;-1.5;1.66341463414634;1.17302052785924;0;0;0;1;1;1;1;1;85;0;0;0;15;3;0;0;();(-2000.0, -2000.0);
08:55:15:177;08:55:15:163;1448481309.74;(0.41717705726623533, 0.4283887227376302);54.9449119568;0.877492805955;08:55:15:176;0;15;-1.5;2.77989130434783;2.34604105571848;0;0;0;1;1;1;1;1;85;0;0;0;15;3;0;0;();(-2000.0, -2000.0);
08:55:15:192;08:55:15:163;1448481309.74;(0.41717705726623533, 0.4283887227376302);54.9449119568;0.877492805955;08:55:15:192;0;10;-1.5;1.77913043478261;1.17302052785924;0;0;0;1;1;1;1;1;85;0;0;0;15;3;0;0;();(-2000.0, -2000.0);
08:55:15:209;08:55:15:163;1448481309.74;(0.41717705726623533, 0.4283887227376302);54.9449119568;0.877492805955;08:55:15:209;0;15;-1.5;1.80105633802817;1.17302052785924;0;0;0;1;1;1;1;1;85;0;0;0;15;3;0;0;();(-2000.0, -2000.0);
08:55:15:227;08:55:15:215;1448481309.81;(0.41417200565338136, 0.43049706353081596);55.0901260376;0.810541157346;08:55:15:226;0;10;-1.5;2.72074468085106;2.34604105571848;0;0;0;1;1;1;1;1;85;0;0;0;15;3;0;0;();(-2000.0, -2000.0);
08:55:15:260;08:55:15:215;1448481309.81;(0.41417200565338136, 0.43049706353081596);55.0901260376;0.810541157346;08:55:15:260;0;10;-1.5;2.16737288135593;1.46627565982405;0;0;0;1;1;1;1;1;85;0;0;0;15;3;0;0;();(-2000.0, -2000.0);
08:55:15:277;08:55:15:263;1448481309.84;(0.41336281299591066, 0.4302089267306858);55.6905097961;1.0;08:55:15:276;0;15;-1.5;2.325;1.85728250244379;0;0;0;1;1;1;1;1;85;0;0;0;15;3;0;0;();(-2000.0, -2000.0);
08:55:15:294;08:55:15:263;1448481309.84;(0.41336281299591066, 0.4302089267306858);55.6905097961;1.0;08:55:15:294;0;4;-1.5;2.53846153846154;1.85728250244379;0;0;0;1;1;1;1;1;85;0;0;0;15;3;0;0;();(-2000.0, -2000.0);
08:55:15:310;08:55:15:263;1448481309.84;(0.41336281299591066, 0.4302089267306858);55.6905097961;1.0;08:55:15:310;0;0;-1.5;1.73096446700508;1.17302052785924;0;0;0;1;1;1;1;1;85;0;0;0;15;3;0;0;();(-2000.0, -2000.0);
08:55:15:328;08:55:15:311;1448481309.88;(0.4220452070236206, 0.4335499233669705);54.7347564697;1.0;08:55:15:327;0;5;-1.5;1.66341463414634;0.684261974584555;0;0;0;1;1;1;1;1;85;0;0;0;15;3;0;0;();(-2000.0, -2000.0);
08:55:15:361;08:55:15:311;1448481309.88;(0.4220452070236206, 0.4335499233669705);54.7347564697;1.0;08:55:15:361;0;4;-1.5;3.20689655172414;3.42130987292278;0;0;0;1;1;1;1;1;85;0;0;0;15;3;0;0;();(-2000.0, -2000.0);
08:55:15:377;08:55:15:364;1448481309.95;(0.4208146333694458, 0.43229560852050786);54.5552825928;1.0;08:55:15:377;0;15;-1.5;1.75773195876289;1.46627565982405;0;0;0;1;1;1;1;1;85;0;0;0;15;3;0;0;();(-2000.0, -2000.0);
08:55:15:395;08:55:15:364;1448481309.95;(0.4208146333694458, 0.43229560852050786);54.5552825928;1.0;08:55:15:395;0;10;-1.5;2.36258660508083;2.34604105571848;0;0;0;1;1;1;1;1;85;0;0;0;15;3;0;0;();(-2000.0, -2000.0);
08:55:15:411;08:55:15:364;1448481309.95;(0.4208146333694458, 0.43229560852050786);54.5552825928;1.0;08:55:15:411;0;10;-1.5;2.00588235294118;1.85728250244379;0;0;0;1;1;1;1;1;85;0;0;0;15;3;0;0;();(-2000.0, -2000.0);
08:55:15:428;08:55:15:413;1448481310.01;(0.42034738063812255, 0.43018324110243056);54.9257049561;1.0;08:55:15:428;0;15;-1.5;2.16737288135593;1.85728250244379;0;0;0;1;1;1;1;1;85;0;0;0;15;3;0;0;();(-2000.0, -2000.0);
08:55:15:445;08:55:15:413;1448481310.01;(0.42034738063812255, 0.43018324110243056);54.9257049561;1.0;08:55:15:445;0;9;-1.5;2.16737288135593;1.46627565982405;0;0;0;1;1;1;1;1;85;0;0;0;15;3;0;0;();(-2000.0, -2000.0);
08:55:15:478;08:55:15:463;1448481310.05;(0.42014477252960203, 0.42881427341037326);54.7341346741;1.0;08:55:15:478;0;10;-1.5;2.84958217270195;2.34604105571848;0;0;0;1;1;1;1;1;85;0;0;0;15;3;0;0;();(-2000.0, -2000.0);
08:55:15:495;08:55:15:463;1448481310.05;(0.42014477252960203, 0.42881427341037326);54.7341346741;1.0;08:55:15:495;0;5;-1.5;1.705;1.17302052785924;0;0;0;1;1;1;1;1;85;0;0;0;15;3;0;0;();(-2000.0, -2000.0);
08:55:15:511;08:55:15:463;1448481310.05;(0.42014477252960203, 0.42881427341037326);54.7341346741;1.0;08:55:15:511;0;10;-1.5;1.71932773109244;1.17302052785924;0;0;0;1;1;1;1;1;85;0;0;0;15;3;0;0;();(-2000.0, -2000.0);
08:55:15:528;08:55:15:512;1448481310.08;(0.41929819583892824, 0.429095204671224);54.5447845459;1.0;08:55:15:528;0;4;-1.5;2.75741239892183;2.34604105571848;0;0;0;1;1;1;1;1;85;0;0;0;15;3;0;0;();(-2000.0, -2000.0);
08:55:15:546;08:55:15:512;1448481310.08;(0.41929819583892824, 0.429095204671224);54.5447845459;1.0;08:55:15:546;0;4;-1.5;1.90858208955224;1.36852394916911;0;0;0;1;1;1;1;1;85;0;0;0;15;3;0;0;();(-2000.0, -2000.0);
08:55:15:578;08:55:15:564;1448481310.15;(0.39786996841430666, 0.4786160363091363);55.2555618286;1.0;08:55:15:578;0;10;-1.5;2.0297619047619;1.85728250244379;0;0;0;1;1;1;1;1;85;0;0;0;15;3;0;0;();(-2000.0, -2000.0);
08:55:15:595;08:55:15:564;1448481310.15;(0.39786996841430666, 0.4786160363091363);55.2555618286;1.0;08:55:15:595;0;15;-1.5;2.0297619047619;1.46627565982405;0;0;0;1;1;1;1;1;85;0;0;0;15;3;0;0;();(-2000.0, -2000.0);
08:55:15:611;08:55:15:564;1448481310.15;(0.39786996841430666, 0.4786160363091363);55.2555618286;1.0;08:55:15:611;0;4;-1.5;2.46506024096386;1.85728250244379;0;0;0;1;1;1;1;1;85;0;0;0;15;3;0;0;();(-2000.0, -2000.0);
08:55:15:629;08:55:15:612;1448481310.21;(0.39921226501464846, 0.47762930128309466);55.6493492126;1.0;08:55:15:629;0;0;-1.5;1.72512647554806;1.0752688172043;0;0;0;1;1;1;1;1;85;0;0;0;15;3;0;0;();(-2000.0, -2000.0);
08:55:15:646;08:55:15:612;1448481310.21;(0.39921226501464846, 0.47762930128309466);55.6493492126;1.0;08:55:15:646;0;5;-1.5;1.705;1.17302052785924;0;0;0;1;1;1;1;1;85;0;0;0;15;3;0;0;();(-2000.0, -2000.0);
08:55:15:679;08:55:15:652;1448481310.25;(0.3998472452163696, 0.4762198130289713);55.8168945312;1.0;08:55:15:679;0;4;-1.5;2.6640625;2.1505376344086;0;0;0;1;1;1;1;1;85;0;0;0;15;3;0;0;();(-2000.0, -2000.0);
08:55:15:696;08:55:15:695;1448481310.28;(0.4005528688430786, 0.4748138003879123);55.6408081055;1.0;08:55:15:696;0;10;-1.5;2.75741239892183;2.34604105571848;0;0;0;1;1;1;1;1;85;0;0;0;15;3;0;0;();(-2000.0, -2000.0);
08:55:15:712;08:55:15:695;1448481310.28;(0.4005528688430786, 0.4748138003879123);55.6408081055;1.0;08:55:15:712;0;5;-1.5;2.0625;1.46627565982405;0;0;0;1;1;1;1;1;85;0;0;0;15;3;0;0;();(-2000.0, -2000.0);
08:55:15:729;08:55:15:695;1448481310.28;(0.4005528688430786, 0.4748138003879123);55.6408081055;1.0;08:55:15:729;0;10;-1.5;2.07926829268293;1.56402737047898;0;0;0;1;1;1;1;1;85;0;0;0;15;3;0;0;();(-2000.0, -2000.0);
08:55:15:746;08:55:15:735;1448481310.31;(0.40136306285858153, 0.47567189534505205);55.9129371643;1.0;08:55:15:746;0;10;-1.5;2.07926829268293;1.56402737047898;0;0;0;1;1;1;1;1;85;0;0;0;15;3;0;0;();(-2000.0, -2000.0);
08:55:15:779;08:55:15:735;1448481310.31;(0.40136306285858153, 0.47567189534505205);55.9129371643;1.0;08:55:15:779;0;4;-1.5;2.28348214285714;1.46627565982405;0;0;0;1;1;1;1;1;85;0;0;0;15;3;0;0;();(-2000.0, -2000.0);
08:55:15:796;08:55:15:779;1448481310.38;(0.40301313400268557, 0.4789495256212023);56.1352081299;1.0;08:55:15:796;0;0;-1.5;1.94117647058824;1.36852394916911;0;0;0;1;1;1;1;1;85;0;0;0;15;3;0;0;();(-2000.0, -2000.0);
08:55:15:813;08:55:15:779;1448481310.38;(0.40301313400268557, 0.4789495256212023);56.1352081299;1.0;08:55:15:813;0;5;-1.5;1.83992805755396;1.46627565982405;0;0;0;1;1;1;1;1;85;0;0;0;15;3;0;0;();(-2000.0, -2000.0);
08:55:15:830;08:55:15:819;1448481310.41;(0.40387179851531985, 0.4809050665961372);56.0984382629;1.0;08:55:15:830;0;9;-1.5;1.88397790055249;1.17302052785924;0;0;0;1;1;1;1;1;85;0;0;0;15;3;0;0;();(-2000.0, -2000.0);
08:55:15:848;08:55:15:819;1448481310.41;(0.40387179851531985, 0.4809050665961372);56.0984382629;1.0;08:55:15:848;0;15;-1.5;1.94117647058824;1.36852394916911;0;0;0;1;1;1;1;1;85;0;0;0;15;3;0;0;();(-2000.0, -2000.0);
08:55:15:880;08:55:15:859;1448481310.45;(0.40490572452545165, 0.482281748453776);56.1448554993;1.0;08:55:15:880;0;4;-1.5;1.94486692015209;1.36852394916911;0;0;0;1;1;1;1;1;85;0;0;0;15;3;0;0;();(-2000.0, -2000.0);
08:55:15:899;08:55:15:859;1448481310.45;(0.40490572452545165, 0.482281748453776);56.1448554993;1.0;08:55:15:899;0;5;-1.5;2.0625;1.46627565982405;0;0;0;1;1;1;1;1;85;0;0;0;15;3;0;0;();(-2000.0, -2000.0);
08:55:15:914;08:55:15:903;1448481310.48;(0.4089427709579468, 0.4844554901123047);56.1064949036;1.0;08:55:15:914;0;15;-1.5;2.13125;1.66177908113392;0;0;0;1;1;1;1;1;85;0;0;0;15;3;0;0;();(-2000.0, -2000.0);
08:55:15:931;08:55:15:903;1448481310.48;(0.4089427709579468, 0.4844554901123047);56.1064949036;1.0;08:55:15:931;0;4;-1.5;2.46506024096386;2.44379276637341;0;0;0;1;1;1;1;1;85;0;0;0;15;3;0;0;();(-2000.0, -2000.0);
08:55:15:947;08:55:15:944;1448481310.55;(0.4115237474441528, 0.4874966515435113);56.3558273315;0.867318924423;08:55:15:947;0;0;-1.5;1.73389830508475;1.17302052785924;0;0;0;1;1;1;1;1;85;0;0;0;15;3;0;0;();(-2000.0, -2000.0);
08:55:15:981;08:55:15:944;1448481310.55;(0.4115237474441528, 0.4874966515435113);56.3558273315;0.867318924423;08:55:15:981;0;10;-1.5;1.68256578947368;0.879765395894428;0;0;0;1;1;1;1;1;85;0;0;0;15;3;0;0;();(-2000.0, -2000.0);
08:55:15:998;08:55:15:944;1448481310.55;(0.4115237474441528, 0.4874966515435113);56.3558273315;0.867318924423;08:55:15:998;0;13;-1.5;1.82678571428571;1.17302052785924;0;0;0;1;1;1;1;1;85;0;0;0;15;3;0;0;();(-2000.0, -2000.0);
08:55:16:014;08:55:15:944;1448481310.55;(0.4115237474441528, 0.4874966515435113);56.3558273315;0.867318924423;08:55:16:014;0;9;-1.5;2.6640625;2.1505376344086;0;0;0;1;1;1;1;1;85;0;0;0;15;3;0;0;();(-2000.0, -2000.0);
08:55:16:031;08:55:16:028;1448481310.61;(0.41716601848602297, 0.49342647128634987);56.3886871338;1.0;08:55:16:031;0;5;-1.5;1.68256578947368;1.17302052785924;0;0;0;1;1;1;1;1;85;0;0;0;15;3;0;0;();(-2000.0, -2000.0);
08:55:16:049;08:55:16:028;1448481310.61;(0.41716601848602297, 0.49342647128634987);56.3886871338;1.0;08:55:16:049;0;10;-1.5;2.0625;1.46627565982405;0;0;0;1;1;1;1;1;85;0;0;0;15;3;0;0;();(-2000.0, -2000.0);
08:55:16:081;08:55:16:067;1448481310.65;(0.4206546306610107, 0.49417669508192275);56.3022232056;1.0;08:55:16:081;0;15;-1.5;2.36805555555556;2.1505376344086;0;0;0;1;1;1;1;1;85;0;0;0;15;3;0;0;();(-2000.0, -2000.0);
08:55:16:099;08:55:16:067;1448481310.65;(0.4206546306610107, 0.49417669508192275);56.3022232056;1.0;08:55:16:099;0;4;-1.5;2.93965517241379;3.03030303030303;0;0;0;1;1;1;1;1;85;0;0;0;15;3;0;0;();(-2000.0, -2000.0);
08:55:16:115;08:55:16:111;1448481310.68;(0.42337489128112793, 0.49440773857964415);56.0906639099;1.0;08:55:16:115;0;10;-1.5;2.96521739130435;2.34604105571848;0;0;0;1;1;1;1;1;85;0;0;0;15;3;0;0;();(-2000.0, -2000.0);
08:55:16:132;08:55:16:111;1448481310.68;(0.42337489128112793, 0.49440773857964415);56.0906639099;1.0;08:55:16:132;0;4;-1.5;1.86;1.17302052785924;0;0;0;1;1;1;1;1;85;0;0;0;15;3;0;0;();(-2000.0, -2000.0);
08:55:16:149;08:55:16:111;1448481310.68;(0.42337489128112793, 0.49440773857964415);56.0906639099;1.0;08:55:16:149;0;15;-1.5;2.84958217270195;2.73704789833822;0;0;0;1;1;1;1;1;85;0;0;0;15;3;0;0;();(-2000.0, -2000.0);
08:55:16:165;08:55:16:151;1448481310.71;(0.38986811637878416, 0.45662447611490886);55.7208518982;0.886278433372;08:55:16:165;0;15;-1.5;1.73979591836735;1.17302052785924;0;0;0;1;1;1;1;1;85;0;0;0;15;3;0;0;();(-2000.0, -2000.0);
08:55:16:199;08:55:16:151;1448481310.71;(0.38986811637878416, 0.45662447611490886);55.7208518982;0.886278433372;08:55:16:199;0;15;-1.5;2.325;2.34604105571848;0;0;0;1;1;1;1;1;85;0;0;0;15;3;0;0;();(-2000.0, -2000.0);
08:55:16:215;08:55:16:151;1448481310.71;(0.38986811637878416, 0.45662447611490886);55.7208518982;0.886278433372;08:55:16:214;0;10;-1.5;2.33561643835616;1.66177908113392;0;0;0;1;1;1;1;1;85;0;0;0;15;3;0;0;();(-2000.0, -2000.0);
08:55:16:232;08:55:16:151;1448481310.71;(0.38986811637878416, 0.45662447611490886);55.7208518982;0.886278433372;08:55:16:232;0;15;-1.5;2.51970443349754;1.85728250244379;0;0;0;1;1;1;1;1;85;0;0;0;15;3;0;0;();(-2000.0, -2000.0);
08:55:16:249;08:55:16:235;1448481310.77;(0.37872378826141356, 0.4232963985866971);58.7235679626;0.995165897323;08:55:16:249;0;9;-1.5;2.28348214285714;1.46627565982405;0;0;0;1;1;1;1;1;85;0;0;0;15;3;0;0;();(-2000.0, -2000.0);
08:55:16:267;08:55:16:235;1448481310.77;(0.37872378826141356, 0.4232963985866971);58.7235679626;0.995165897323;08:55:16:266;0;15;-1.5;1.998046875;1.46627565982405;0;0;0;1;1;1;1;1;85;0;0;0;15;3;0;0;();(-2000.0, -2000.0);
08:55:16:299;08:55:16:275;1448481310.83;(0.39144220352172854, 0.4150018056233724);57.6708984375;1.0;08:55:16:299;0;15;-1.5;3.77490774907749;3.03030303030303;0;0;0;1;1;1;1;1;85;0;0;0;15;3;0;0;();(-2000.0, -2000.0);
08:55:16:316;08:55:16:275;1448481310.83;(0.39144220352172854, 0.4150018056233724);57.6708984375;1.0;08:55:16:316;0;4;-1.5;3.1671826625387;2.44379276637341;0;0;0;1;1;1;1;1;85;0;0;0;15;3;0;0;();(-2000.0, -2000.0);
08:55:16:334;08:55:16:275;1448481310.83;(0.39144220352172854, 0.4150018056233724);57.6708984375;1.0;08:55:16:334;0;15;-1.5;1.97109826589595;1.46627565982405;0;0;0;1;1;1;1;1;85;0;0;0;15;3;0;0;();(-2000.0, -2000.0);
08:55:16:350;08:55:16:275;1448481310.83;(0.39144220352172854, 0.4150018056233724);57.6708984375;1.0;08:55:16:350;0;5;-1.5;2.0625;1.46627565982405;0;0;0;1;1;1;1;1;85;0;0;0;15;3;0;0;();(-2000.0, -2000.0);
08:55:16:367;08:55:16:359;1448481310.87;(0.39537549018859863, 0.4164652930365669);57.6776885986;1.0;08:55:16:367;0;0;-1.5;2.36805555555556;1.85728250244379;0;0;0;1;1;1;1;1;85;0;0;0;15;3;0;0;();(-2000.0, -2000.0);
08:55:16:400;08:55:16:400;1448481310.96;(0.37157914638519285, 0.5777349683973525);18.4356613159;0.889191939916;08:55:16:400;0;15;-1.5;2.41843971631206;1.85728250244379;0;0;0;1;1;1;1;1;85;0;0;0;15;3;0;0;();(-2000.0, -2000.0);
08:55:16:417;08:55:16:400;1448481310.96;(0.37157914638519285, 0.5777349683973525);18.4356613159;0.889191939916;08:55:16:417;0;4;-1.5;2.77989130434783;2.34604105571848;0;0;0;1;1;1;1;1;85;0;0;0;15;3;0;0;();(-2000.0, -2000.0);
08:55:16:433;08:55:16:400;1448481310.96;(0.37157914638519285, 0.5777349683973525);18.4356613159;0.889191939916;08:55:16:433;0;10;-1.5;2.75741239892183;2.34604105571848;0;0;0;1;1;1;1;1;85;0;0;0;15;3;0;0;();(-2000.0, -2000.0);
08:55:16:450;08:55:16:439;1448481310.98;(0.39889347553253174, 0.4091487460666232);59.8146438599;0.886421418978;08:55:16:450;0;5;-1.5;1.67430441898527;0.879765395894428;0;0;0;1;1;1;1;1;85;0;0;0;15;3;0;0;();(-2000.0, -2000.0);
08:55:16:468;08:55:16:439;1448481310.98;(0.39889347553253174, 0.4091487460666232);59.8146438599;0.886421418978;08:55:16:468;0;15;-1.5;2.61636828644501;2.1505376344086;0;0;0;1;1;1;1;1;85;0;0;0;15;3;0;0;();(-2000.0, -2000.0);
08:55:16:502;08:55:16:439;1448481310.98;(0.39889347553253174, 0.4091487460666232);59.8146438599;0.886421418978;08:55:16:501;0;10;-1.5;3.12844036697248;2.44379276637341;0;0;0;1;1;1;1;1;85;0;0;0;15;3;0;0;();(-2000.0, -2000.0);
08:55:16:516;08:55:16:439;1448481310.98;(0.39889347553253174, 0.4091487460666232);59.8146438599;0.886421418978;08:55:16:516;0;5;-1.5;1.94117647058824;1.36852394916911;0;0;0;1;1;1;1;1;85;0;0;0;15;3;0;0;();(-2000.0, -2000.0);
08:55:16:534;08:55:16:439;1448481310.98;(0.39889347553253174, 0.4091487460666232);59.8146438599;0.886421418978;08:55:16:534;0;10;-1.5;2.28348214285714;1.66177908113392;0;0;0;1;1;1;1;1;85;0;0;0;15;3;0;0;();(-2000.0, -2000.0);
08:55:16:551;08:55:16:439;1448481310.98;(0.39889347553253174, 0.4091487460666232);59.8146438599;0.886421418978;08:55:16:551;0;4;-1.5;2.0920245398773;1.46627565982405;0;0;0;1;1;1;1;1;85;0;0;0;15;3;0;0;();(-2000.0, -2000.0);
08:55:16:568;08:55:16:567;1448481311.04;(0.39621500968933104, 0.4077826182047526);57.2907752991;1.0;08:55:16:567;0;9;-1.5;1.68256578947368;1.36852394916911;0;0;0;1;1;1;1;1;85;0;0;0;15;3;0;0;();(-2000.0, -2000.0);
08:55:16:601;08:55:16:570;1448481311.16;(0.3968610048294067, 0.40996949937608507);57.3098869324;0.890315052801;08:55:16:601;0;1;-1.5;2.13125;1.46627565982405;0;0;0;1;1;1;1;1;85;0;0;0;15;3;0;0;();(-2000.0, -2000.0);
08:55:16:618;08:55:16:607;1448481311.18;(0.39619696140289307, 0.4101519690619575);57.2913818359;1.0;08:55:16:618;0;0;-1.5;2.99122807017544;2.93255131964809;0;0;0;1;1;1;1;1;85;0;0;0;15;3;0;0;();(-2000.0, -2000.0);
08:55:16:635;08:55:16:607;1448481311.18;(0.39619696140289307, 0.4101519690619575);57.2913818359;1.0;08:55:16:635;0;4;-1.5;3.26837060702875;2.73704789833822;0;0;0;1;1;1;1;1;85;0;0;0;15;3;0;0;();(-2000.0, -2000.0);
08:55:16:651;08:55:16:647;1448481311.24;(0.43898682594299315, 0.4858200497097439);56.0723648071;0.917834636237;08:55:16:650;0;15;-1.5;1.82352941176471;1.17302052785924;0;0;0;1;1;1;1;1;85;0;0;0;15;3;0;0;();(-2000.0, -2000.0);
08:55:16:668;08:55:16:647;1448481311.24;(0.43898682594299315, 0.4858200497097439);56.0723648071;0.917834636237;08:55:16:668;0;10;-1.5;2.93965517241379;2.34604105571848;0;0;0;1;1;1;1;1;85;0;0;0;15;3;0;0;();(-2000.0, -2000.0);
08:55:16:685;08:55:16:647;1448481311.24;(0.43898682594299315, 0.4858200497097439);56.0723648071;0.917834636237;08:55:16:685;0;0;-1.5;2.50122249388753;2.34604105571848;0;0;0;1;1;1;1;1;85;1;2;85;15;3;0;0;();(-2000.0, -2000.0);
08:55:16:719;08:55:16:691;1448481311.28;(0.45705156326293944, 0.48753712972005203);54.8238296509;1.0;08:55:16:719;0;9;-1.5;1.97109826589595;1.85728250244379;0;0;0;1;1;1;1;1;85;0;0;0;15;3;0;0;();(-2000.0, -2000.0);
08:55:16:735;08:55:16:731;1448481311.31;(0.4548708438873291, 0.4899509429931641);55.2343406677;1.0;08:55:16:735;0;4;-1.5;2.64341085271318;2.1505376344086;0;0;0;1;1;1;1;1;85;0;0;0;15;3;0;0;();(-2000.0, -2000.0);
08:55:16:752;08:55:16:731;1448481311.31;(0.4548708438873291, 0.4899509429931641);55.2343406677;1.0;08:55:16:752;0;9;-1.5;2.56390977443609;1.85728250244379;0;0;0;1;1;1;1;1;85;0;0;0;15;3;0;0;();(-2000.0, -2000.0);
08:55:16:769;08:55:16:731;1448481311.31;(0.4548708438873291, 0.4899509429931641);55.2343406677;1.0;08:55:16:769;0;5;-1.5;1.82352941176471;1.36852394916911;0;0;0;1;1;1;1;1;85;0;0;0;15;3;0;0;();(-2000.0, -2000.0);
08:55:16:787;08:55:16:771;1448481311.34;(0.451875114440918, 0.491753429836697);55.8323402405;1.0;08:55:16:786;0;10;-1.5;1.80105633802817;1.17302052785924;0;0;0;1;1;1;1;1;85;0;0;0;15;3;0;0;();(-2000.0, -2000.0);
08:55:16:819;08:55:16:816;1448481311.41;(0.4440006256103516, 0.49452540079752605);56.0109138489;1.0;08:55:16:819;0;9;-1.5;2.61636828644501;2.73704789833822;0;0;0;1;1;1;1;1;85;0;0;0;15;3;0;0;();(-2000.0, -2000.0);
08:55:16:836;08:55:16:816;1448481311.41;(0.4440006256103516, 0.49452540079752605);56.0109138489;1.0;08:55:16:836;0;0;-1.5;1.88397790055249;1.17302052785924;0;0;0;1;1;1;1;1;85;0;0;0;15;3;0;0;();(-2000.0, -2000.0);
08:55:16:853;08:55:16:816;1448481311.41;(0.4440006256103516, 0.49452540079752605);56.0109138489;1.0;08:55:16:853;0;10;-1.5;1.90858208955224;1.36852394916911;0;0;0;1;1;1;1;1;85;0;0;0;15;3;0;0;();(-2000.0, -2000.0);
08:55:16:869;08:55:16:855;1448481311.44;(0.4403928279876709, 0.49711752997504344);56.4243049622;1.0;08:55:16:869;0;15;-1.5;2.26829268292683;1.46627565982405;0;0;0;1;1;1;1;1;85;0;0;0;15;3;0;0;();(-2000.0, -2000.0);
08:55:16:887;08:55:16:855;1448481311.44;(0.4403928279876709, 0.49711752997504344);56.4243049622;1.0;08:55:16:886;0;9;-1.5;1.97109826589595;1.36852394916911;0;0;0;1;1;1;1;1;85;0;0;0;15;3;0;0;();(-2000.0, -2000.0);
08:55:16:920;08:55:16:899;1448481311.48;(0.4373946666717529, 0.49930318196614587);56.7272491455;1.0;08:55:16:920;0;5;-1.5;1.75471698113208;1.17302052785924;0;0;0;1;1;1;1;1;85;0;0;0;15;3;0;0;();(-2000.0, -2000.0);
08:55:16:937;08:55:16:899;1448481311.48;(0.4373946666717529, 0.49930318196614587);56.7272491455;1.0;08:55:16:937;0;15;-1.5;2.89801699716714;2.34604105571848;0;0;0;1;1;1;1;1;85;0;0;0;15;3;0;0;();(-2000.0, -2000.0);
08:55:16:954;08:55:16:939;1448481311.51;(0.4348637580871582, 0.499992921617296);56.5611724854;1.0;08:55:16:954;0;10;-1.5;1.87706422018349;1.17302052785924;0;0;0;1;1;1;1;1;85;0;0;0;15;3;0;0;();(-2000.0, -2000.0);
08:55:16:971;08:55:16:939;1448481311.51;(0.4348637580871582, 0.499992921617296);56.5611724854;1.0;08:55:16:971;0;14;-1.5;1.80742049469965;1.17302052785924;0;0;0;1;1;1;1;1;85;0;0;0;15;3;0;0;();(-2000.0, -2000.0);
08:55:16:987;08:55:16:980;1448481311.58;(0.4311475038528442, 0.5009853363037109);56.8778266907;0.808560446873;08:55:16:987;0;4;-1.5;1.89444444444444;1.17302052785924;0;0;0;1;1;1;1;1;85;0;0;0;15;3;0;0;();(-2000.0, -2000.0);
08:55:17:021;08:55:16:980;1448481311.58;(0.4311475038528442, 0.5009853363037109);56.8778266907;0.808560446873;08:55:17:020;0;10;-1.5;2.2;1.85728250244379;0;0;0;1;1;1;1;1;85;0;0;0;15;3;0;0;();(-2000.0, -2000.0);
08:55:17:037;08:55:17:023;1448481311.61;(0.42845635414123534, 0.5014492882622612);56.8502693176;1.0;08:55:17:037;0;15;-1.5;2.6640625;2.34604105571848;0;0;0;1;1;1;1;1;85;0;0;0;15;3;0;0;();(-2000.0, -2000.0);
08:55:17:054;08:55:17:023;1448481311.61;(0.42845635414123534, 0.5014492882622612);56.8502693176;1.0;08:55:17:054;0;4;-1.5;2.36258660508083;1.66177908113392;0;0;0;1;1;1;1;1;85;0;0;0;15;3;0;0;();(-2000.0, -2000.0);
08:55:17:072;08:55:17:064;1448481311.64;(0.43001842498779297, 0.5005034552680121);57.8078422546;0.848732560262;08:55:17:072;0;0;-1.5;1.83992805755396;1.17302052785924;0;0;0;1;1;1;1;1;85;0;0;0;15;3;0;0;();(-2000.0, -2000.0);
08:55:17:088;08:55:17:064;1448481311.64;(0.43001842498779297, 0.5005034552680121);57.8078422546;0.848732560262;08:55:17:088;0;5;-1.5;1.87020109689214;1.17302052785924;0;0;0;1;1;1;1;1;85;0;0;0;15;3;0;0;();(-2000.0, -2000.0);
08:55:17:121;08:55:17:104;1448481311.71;(0.42775423526763917, 0.5008252885606554);57.1256713867;1.0;08:55:17:121;0;4;-1.5;3.56445993031359;2.93255131964809;0;0;0;1;1;1;1;1;85;0;0;0;15;3;0;0;();(-2000.0, -2000.0);
08:55:17:139;08:55:17:104;1448481311.71;(0.42775423526763917, 0.5008252885606554);57.1256713867;1.0;08:55:17:139;0;10;-1.5;2.44152744630072;1.85728250244379;0;0;0;1;1;1;1;1;85;0;0;0;15;3;0;0;();(-2000.0, -2000.0);
08:55:17:154;08:55:17:147;1448481311.74;(0.42660501003265383, 0.5016153547498915);57.0098762512;1.0;08:55:17:153;0;5;-1.5;1.97109826589595;1.36852394916911;0;0;0;1;1;1;1;1;85;0;0;0;15;3;0;0;();(-2000.0, -2000.0);
08:55:17:172;08:55:17:147;1448481311.74;(0.42660501003265383, 0.5016153547498915);57.0098762512;1.0;08:55:17:172;0;10;-1.5;2.20950323974082;2.1505376344086;0;0;0;1;1;1;1;1;85;0;0;0;15;3;0;0;();(-2000.0, -2000.0);
08:55:17:190;08:55:17:187;1448481311.78;(0.425594162940979, 0.5021257612440322);57.1727409363;1.0;08:55:17:189;0;5;-1.5;2.31972789115646;1.66177908113392;0;0;0;1;1;1;1;1;85;0;0;0;15;3;0;0;();(-2000.0, -2000.0);
08:55:17:205;08:55:17:187;1448481311.78;(0.425594162940979, 0.5021257612440322);57.1727409363;1.0;08:55:17:205;0;9;-1.5;2.325;1.66177908113392;0;0;0;1;1;1;1;1;85;0;0;0;15;3;0;0;();(-2000.0, -2000.0);
08:55:17:239;08:55:17:231;1448481311.81;(0.4362617015838623, 0.4960784912109375);56.5935630798;1.0;08:55:17:239;0;10;-1.5;3.13803680981595;3.03030303030303;0;0;0;1;1;1;1;1;85;0;0;0;15;3;0;0;();(-2000.0, -2000.0);
08:55:17:255;08:55:17:231;1448481311.81;(0.4362617015838623, 0.4960784912109375);56.5935630798;1.0;08:55:17:255;0;5;-1.5;1.83992805755396;1.17302052785924;0;0;0;1;1;1;1;1;85;0;0;0;15;3;0;0;();(-2000.0, -2000.0);
08:55:17:272;08:55:17:272;1448481311.85;(0.43526430130004884, 0.49689237806532116);57.1447181702;1.0;08:55:17:272;0;10;-1.5;1.80105633802817;1.17302052785924;0;0;0;1;1;1;1;1;85;0;0;0;15;3;0;0;();(-2000.0, -2000.0);
08:55:17:289;08:55:17:273;1448481311.88;(0.43474760055541994, 0.49754897223578554);56.8982505798;1.0;08:55:17:289;0;15;-1.5;1.83333333333333;1.17302052785924;0;0;0;1;1;1;1;1;85;0;0;0;15;3;0;0;();(-2000.0, -2000.0);
08:55:17:306;08:55:17:273;1448481311.88;(0.43474760055541994, 0.49754897223578554);56.8982505798;1.0;08:55:17:306;0;10;-1.5;2.79508196721311;2.34604105571848;0;0;0;1;1;1;1;1;85;0;0;0;15;3;0;0;();(-2000.0, -2000.0);
08:55:17:339;08:55:17:311;1448481311.91;(0.4346590518951416, 0.4979535844590929);56.6614952087;1.0;08:55:17:339;0;5;-1.5;2.21428571428571;1.46627565982405;0;0;0;1;1;1;1;1;85;0;0;0;15;3;0;0;();(-2000.0, -2000.0);
08:55:17:356;08:55:17:355;1448481311.94;(0.43431212902069094, 0.49804526435004337);56.5246124268;1.0;08:55:17:356;0;15;-1.5;2.46506024096386;1.85728250244379;0;0;0;1;1;1;1;1;85;0;0;0;15;3;0;0;();(-2000.0, -2000.0);
08:55:17:372;08:55:17:355;1448481311.94;(0.43431212902069094, 0.49804526435004337);56.5246124268;1.0;08:55:17:372;0;4;-1.5;2.325;1.66177908113392;0;0;0;1;1;1;1;1;85;0;0;0;15;3;0;0;();(-2000.0, -2000.0);
08:55:17:389;08:55:17:355;1448481311.94;(0.43431212902069094, 0.49804526435004337);56.5246124268;1.0;08:55:17:389;0;15;-1.5;1.92655367231638;1.36852394916911;0;0;0;1;1;1;1;1;85;0;0;0;15;3;0;0;();(-2000.0, -2000.0);
08:55:17:407;08:55:17:395;1448481311.98;(0.4341381788253784, 0.4980734083387587);56.4078903198;1.0;08:55:17:406;0;9;-1.5;2.50735294117647;1.85728250244379;0;0;0;1;1;1;1;1;85;0;0;0;15;3;0;0;();(-2000.0, -2000.0);
08:55:17:440;08:55:17:436;1448481312.04;(0.4341694116592407, 0.49808752271864154);56.314655304;1.0;08:55:17:440;0;4;-1.5;2.20950323974082;1.85728250244379;0;0;0;1;1;1;1;1;85;0;0;0;15;3;0;0;();(-2000.0, -2000.0);
08:55:17:457;08:55:17:436;1448481312.04;(0.4341694116592407, 0.49808752271864154);56.314655304;1.0;08:55:17:457;0;15;-1.5;1.68256578947368;0.879765395894428;0;0;0;1;1;1;1;1;85;0;0;0;15;3;0;0;();(-2000.0, -2000.0);
08:55:17:474;08:55:17:436;1448481312.04;(0.4341694116592407, 0.49808752271864154);56.314655304;1.0;08:55:17:474;0;5;-1.5;2.22391304347826;1.46627565982405;0;0;0;1;1;1;1;1;85;0;0;0;15;3;0;0;();(-2000.0, -2000.0);
08:55:17:490;08:55:17:479;1448481312.08;(0.4311331033706665, 0.4970980750189887);55.7080688477;0.860902782679;08:55:17:490;0;10;-1.5;2.17659574468085;1.46627565982405;0;0;0;1;1;1;1;1;85;0;0;0;15;3;0;0;();(-2000.0, -2000.0);
08:55:17:507;08:55:17:479;1448481312.08;(0.4311331033706665, 0.4970980750189887);55.7080688477;0.860902782679;08:55:17:507;0;15;-1.5;2.05835010060362;1.46627565982405;0;0;0;1;1;1;1;1;85;0;0;0;15;3;0;0;();(-2000.0, -2000.0);
08:55:17:540;08:55:17:519;1448481312.11;(0.3987525701522827, 0.4730178409152561);54.172870636;0.665859461572;08:55:17:540;0;4;-1.5;2.41843971631206;2.1505376344086;0;0;0;1;1;1;1;1;85;0;0;0;15;3;0;0;();(-2000.0, -2000.0);
08:55:17:558;08:55:17:519;1448481312.11;(0.3987525701522827, 0.4730178409152561);54.172870636;0.665859461572;08:55:17:557;0;10;-1.5;2.96521739130435;2.34604105571848;0;0;0;1;1;1;1;1;85;0;0;0;15;3;0;0;();(-2000.0, -2000.0);
08:55:17:574;08:55:17:559;1448481312.14;(0, 0);0;0;08:55:17:574;0;5;-1.5;1.86;1.36852394916911;0;0;0;1;1;1;1;1;85;0;0;0;15;3;0;0;();(-2000.0, -2000.0);
08:55:17:591;08:55:17:559;1448481312.14;(0, 0);0;0;08:55:17:591;0;10;-1.5;1.89444444444444;1.17302052785924;0;0;0;1;1;1;1;1;85;0;0;0;15;3;0;0;();(-2000.0, -2000.0);
08:55:17:607;08:55:17:603;1448481312.18;(0.23235056400299073, 0.3742986043294271);25.1112232208;0.812260263212;08:55:17:607;0;4;-1.5;2.72074468085106;2.34604105571848;0;0;0;1;1;1;1;1;85;0;0;0;15;3;0;0;();(-2000.0, -2000.0);
08:55:17:641;08:55:17:603;1448481312.18;(0.23235056400299073, 0.3742986043294271);25.1112232208;0.812260263212;08:55:17:641;0;0;-1.5;2.19057815845824;1.46627565982405;0;0;0;1;1;1;1;1;85;0;0;0;15;3;0;0;();(-2000.0, -2000.0);
08:55:17:659;08:55:17:643;1448481312.21;(0.4038584232330322, 0.41989025539822045);48.2722015381;0.610809296459;08:55:17:658;0;10;-1.5;2.10493827160494;1.46627565982405;0;0;0;1;1;1;1;1;85;0;0;0;15;3;0;0;();(-2000.0, -2000.0);
08:55:17:674;08:55:17:643;1448481312.21;(0.4038584232330322, 0.41989025539822045);48.2722015381;0.610809296459;08:55:17:674;0;15;-1.5;2.14915966386555;1.46627565982405;0;0;0;1;1;1;1;1;85;0;0;0;15;3;0;0;();(-2000.0, -2000.0);
08:55:17:691;08:55:17:687;1448481312.25;(0.39376049041748046, 0.42679769727918837);58.3637695312;0.777699209245;08:55:17:691;0;9;-1.5;2.0297619047619;1.46627565982405;0;0;0;1;1;1;1;1;85;0;0;0;15;3;0;0;();(-2000.0, -2000.0);
08:55:17:708;08:55:17:687;1448481312.25;(0.39376049041748046, 0.42679769727918837);58.3637695312;0.777699209245;08:55:17:708;0;15;-1.5;1.73389830508475;1.17302052785924;0;0;0;1;1;1;1;1;85;0;0;0;15;3;0;0;();(-2000.0, -2000.0);
08:55:17:725;08:55:17:687;1448481312.25;(0.39376049041748046, 0.42679769727918837);58.3637695312;0.777699209245;08:55:17:725;0;5;-1.5;1.61867088607595;0.684261974584555;0;0;0;1;1;1;1;1;85;0;0;0;15;3;0;0;();(-2000.0, -2000.0);
08:55:17:758;08:55:17:687;1448481312.25;(0.39376049041748046, 0.42679769727918837);58.3637695312;0.777699209245;08:55:17:758;0;4;-1.5;3.26837060702875;2.73704789833822;0;0;0;1;1;1;1;1;85;0;0;0;15;3;0;0;();(-2000.0, -2000.0);
08:55:17:775;08:55:17:767;1448481312.37;(0.393841290473938, 0.42723664177788634);58.3467788696;0.94744136511;08:55:17:775;0;15;-1.5;1.80105633802817;1.17302052785924;0;0;0;1;1;1;1;1;85;0;0;0;15;3;0;0;();(-2000.0, -2000.0);
08:55:17:792;08:55:17:767;1448481312.37;(0.393841290473938, 0.42723664177788634);58.3467788696;0.94744136511;08:55:17:792;0;5;-1.5;1.97109826589595;1.36852394916911;0;0;0;1;1;1;1;1;85;0;0;0;15;3;0;0;();(-2000.0, -2000.0);
08:55:17:808;08:55:17:767;1448481312.37;(0.393841290473938, 0.42723664177788634);58.3467788696;0.94744136511;08:55:17:808;0;0;-1.5;2.36258660508083;1.66177908113392;0;0;0;1;1;1;1;1;85;0;0;0;15;3;0;0;();(-2000.0, -2000.0);
08:55:17:825;08:55:17:812;1448481312.41;(0.39364018440246584, 0.42492319742838547);58.0765266418;1.0;08:55:17:825;0;5;-1.5;2.2;1.46627565982405;0;0;0;1;1;1;1;1;85;0;0;0;15;3;0;0;();(-2000.0, -2000.0);
08:55:17:860;08:55:17:851;1448481312.44;(0.3931972742080688, 0.42351298862033415);58.0307579041;1.0;08:55:17:859;0;15;-1.5;1.97490347490347;1.36852394916911;0;0;0;1;1;1;1;1;85;0;0;0;15;3;0;0;();(-2000.0, -2000.0);
08:55:17:874;08:55:17:851;1448481312.44;(0.3931972742080688, 0.42351298862033415);58.0307579041;1.0;08:55:17:874;0;10;-1.5;2.90625;2.34604105571848;0;0;0;1;1;1;1;1;85;0;0;0;15;3;0;0;();(-2000.0, -2000.0);
08:55:17:892;08:55:17:892;1448481312.48;(0.39279019832611084, 0.4226460774739583);58.0853157043;1.0;08:55:17:892;0;15;-1.5;2.77989130434783;2.34604105571848;0;0;0;1;1;1;1;1;85;0;0;0;15;3;0;0;();(-2000.0, -2000.0);
08:55:17:910;08:55:17:892;1448481312.48;(0.39279019832611084, 0.4226460774739583);58.0853157043;1.0;08:55:17:910;0;10;-1.5;1.82678571428571;1.17302052785924;0;0;0;1;1;1;1;1;85;0;0;0;15;3;0;0;();(-2000.0, -2000.0);
08:55:17:927;08:55:17:892;1448481312.48;(0.39279019832611084, 0.4226460774739583);58.0853157043;1.0;08:55:17:927;0;15;-1.5;1.74871794871795;1.17302052785924;0;0;0;1;1;1;1;1;85;0;0;0;15;3;0;0;();(-2000.0, -2000.0);
08:55:17:959;08:55:17:935;1448481312.51;(0.3919306755065918, 0.42137230767144096);58.1167221069;0.957057930211;08:55:17:959;0;4;-1.5;1.94117647058824;1.46627565982405;0;0;0;1;1;1;1;1;85;0;0;0;15;3;0;0;();(-2000.0, -2000.0);
08:55:17:976;08:55:17:976;1448481312.54;(0.3370173454284668, 0.5524002922905815);18.8526725769;1.0;08:55:17:976;0;5;-1.5;2.01377952755906;1.36852394916911;0;0;0;1;1;1;1;1;85;0;0;0;15;3;0;0;();(-2000.0, -2000.0);
08:55:17:993;08:55:17:976;1448481312.54;(0.3370173454284668, 0.5524002922905815);18.8526725769;1.0;08:55:17:993;0;15;-1.5;2.01377952755906;1.46627565982405;0;0;0;1;1;1;1;1;85;0;0;0;15;3;0;0;();(-2000.0, -2000.0);
08:55:18:010;08:55:17:976;1448481312.54;(0.3370173454284668, 0.5524002922905815);18.8526725769;1.0;08:55:18:010;0;9;-1.5;2.0920245398773;1.46627565982405;0;0;0;1;1;1;1;1;85;0;0;0;15;3;0;0;();(-2000.0, -2000.0);
08:55:18:027;08:55:18:020;1448481312.61;(0.4166631460189819, 0.44012760586208766);57.0526351929;1.0;08:55:18:027;0;15;-1.5;1.88745387453875;1.36852394916911;0;0;0;1;1;1;1;1;85;0;0;0;15;3;0;0;();(-2000.0, -2000.0);
08:55:18:060;08:55:18:059;1448481312.64;(0.415753436088562, 0.44064890543619795);57.3395195007;1.0;08:55:18:060;0;9;-1.5;1.705;0.879765395894428;0;0;0;1;1;1;1;1;85;0;0;0;15;3;0;0;();(-2000.0, -2000.0);
08:55:18:077;08:55:18:059;1448481312.64;(0.415753436088562, 0.44064890543619795);57.3395195007;1.0;08:55:18:077;0;9;-1.5;1.705;0.879765395894428;0;0;0;1;1;1;1;1;85;0;0;0;15;3;0;0;();(-2000.0, -2000.0);
08:55:18:094;08:55:18:059;1448481312.64;(0.415753436088562, 0.44064890543619795);57.3395195007;1.0;08:55:18:094;0;15;-1.5;1.86;1.17302052785924;0;0;0;1;1;1;1;1;85;0;0;0;15;3;0;0;();(-2000.0, -2000.0);
08:55:18:111;08:55:18:100;1448481312.68;(0.41515092849731444, 0.44124569363064237);57.3363494873;1.0;08:55:18:111;0;5;-1.5;2.20950323974082;1.46627565982405;0;0;0;1;1;1;1;1;85;0;0;0;15;3;0;0;();(-2000.0, -2000.0);
08:55:18:127;08:55:18:100;1448481312.68;(0.41515092849731444, 0.44124569363064237);57.3363494873;1.0;08:55:18:127;0;15;-1.5;2.41843971631206;2.34604105571848;0;0;0;1;1;1;1;1;85;0;0;0;15;3;0;0;();(-2000.0, -2000.0);
08:55:18:145;08:55:18:143;1448481312.71;(0.41919794082641604, 0.4633378346761068);56.3486213684;0.778507353564;08:55:18:145;0;5;-1.5;1.89444444444444;1.17302052785924;0;0;0;1;1;1;1;1;85;0;0;0;15;3;0;0;();(-2000.0, -2000.0);
08:55:18:178;08:55:18:143;1448481312.71;(0.41919794082641604, 0.4633378346761068);56.3486213684;0.778507353564;08:55:18:178;0;9;-1.5;1.94117647058824;1.36852394916911;0;0;0;1;1;1;1;1;85;0;0;0;15;3;0;0;();(-2000.0, -2000.0);
08:55:18:196;08:55:18:185;1448481312.78;(0.4266009569168091, 0.4939493391248915);57.1775512695;1.0;08:55:18:196;0;4;-1.5;2.21428571428571;1.46627565982405;0;0;0;1;1;1;1;1;85;0;0;0;15;3;0;0;();(-2000.0, -2000.0);
08:55:18:212;08:55:18:185;1448481312.78;(0.4266009569168091, 0.4939493391248915);57.1775512695;1.0;08:55:18:212;0;9;-1.5;2.46506024096386;1.85728250244379;0;0;0;1;1;1;1;1;85;0;0;0;15;3;0;0;();(-2000.0, -2000.0);
08:55:18:228;08:55:18:224;1448481312.81;(0.4248298168182373, 0.49492386711968317);57.2500190735;0.865691089544;08:55:18:228;0;9;-1.5;1.74871794871795;1.17302052785924;0;0;0;1;1;1;1;1;85;0;0;0;15;3;0;0;();(-2000.0, -2000.0);
08:55:18:262;08:55:18:224;1448481312.81;(0.4248298168182373, 0.49492386711968317);57.2500190735;0.865691089544;08:55:18:261;0;9;-1.5;2.88169014084507;2.34604105571848;0;0;0;1;1;1;1;1;85;0;0;0;15;3;0;0;();(-2000.0, -2000.0);
08:55:18:278;08:55:18:267;1448481312.84;(0.4223243474960327, 0.4975805494520399);57.1945114136;1.0;08:55:18:278;0;0;-1.5;2.07926829268293;1.46627565982405;0;0;0;1;1;1;1;1;85;0;0;0;15;3;0;0;();(-2000.0, -2000.0);
08:55:18:296;08:55:18:267;1448481312.84;(0.4223243474960327, 0.4975805494520399);57.1945114136;1.0;08:55:18:296;0;10;-1.5;1.67430441898527;0.879765395894428;0;0;0;1;1;1;1;1;85;0;0;0;15;3;0;0;();(-2000.0, -2000.0);
08:55:18:312;08:55:18:307;1448481312.89;(0.4205412149429321, 0.49973932902018225);57.3527526855;1.0;08:55:18:312;0;15;-1.5;1.82678571428571;1.36852394916911;0;0;0;1;1;1;1;1;85;0;0;0;15;3;0;0;();(-2000.0, -2000.0);
08:55:18:329;08:55:18:307;1448481312.89;(0.4205412149429321, 0.49973932902018225);57.3527526855;1.0;08:55:18:329;0;9;-1.5;1.86;1.46627565982405;0;0;0;1;1;1;1;1;85;0;0;0;15;3;0;0;();(-2000.0, -2000.0);
08:55:18:345;08:55:18:307;1448481312.89;(0.4205412149429321, 0.49973932902018225);57.3527526855;1.0;08:55:18:345;0;0;-1.5;1.83333333333333;1.17302052785924;0;0;0;1;1;1;1;1;85;0;0;0;15;3;0;0;();(-2000.0, -2000.0);
08:55:18:379;08:55:18:347;1448481312.91;(0.41949417591094973, 0.5007331000434028);57.7666168213;0.923665215675;08:55:18:379;0;15;-1.5;2.72074468085106;2.34604105571848;0;0;0;1;1;1;1;1;85;0;0;0;15;3;0;0;();(-2000.0, -2000.0);
08:55:18:395;08:55:18:392;1448481312.98;(0.42289254665374754, 0.4970224168565538);57.1154937744;0.836638025237;08:55:18:395;0;4;-1.5;2.90625;2.34604105571848;0;0;0;1;1;1;1;1;85;0;0;0;15;3;0;0;();(-2000.0, -2000.0);
08:55:18:412;08:55:18:392;1448481312.98;(0.42289254665374754, 0.4970224168565538);57.1154937744;0.836638025237;08:55:18:412;0;10;-1.5;2.50735294117647;1.85728250244379;0;0;0;1;1;1;1;1;85;0;0;0;15;3;0;0;();(-2000.0, -2000.0);
08:55:18:429;08:55:18:392;1448481312.98;(0.42289254665374754, 0.4970224168565538);57.1154937744;0.836638025237;08:55:18:429;0;5;-1.5;1.92655367231638;1.36852394916911;0;0;0;1;1;1;1;1;85;0;0;0;15;3;0;0;();(-2000.0, -2000.0);
08:55:18:447;08:55:18:431;1448481313.01;(0.4216038942337036, 0.49788017272949214);57.0843811035;1.0;08:55:18:447;0;10;-1.5;2.20950323974082;1.46627565982405;0;0;0;1;1;1;1;1;85;0;0;0;15;3;0;0;();(-2000.0, -2000.0);
08:55:18:479;08:55:18:476;1448481313.08;(0.4203573942184448, 0.5010713365342883);57.0222015381;1.0;08:55:18:479;0;9;-1.5;1.94486692015209;1.36852394916911;0;0;0;1;1;1;1;1;85;0;0;0;15;3;0;0;();(-2000.0, -2000.0);
08:55:18:497;08:55:18:476;1448481313.08;(0.4203573942184448, 0.5010713365342883);57.0222015381;1.0;08:55:18:497;0;4;-1.5;2.55112219451372;2.34604105571848;0;0;0;1;1;1;1;1;85;0;0;0;15;3;0;0;();(-2000.0, -2000.0);
08:55:18:513;08:55:18:476;1448481313.08;(0.4203573942184448, 0.5010713365342883);57.0222015381;1.0;08:55:18:513;0;10;-1.5;2.77989130434783;2.44379276637341;0;0;0;1;1;1;1;1;85;0;0;0;15;3;0;0;();(-2000.0, -2000.0);
08:55:18:530;08:55:18:476;1448481313.08;(0.4203573942184448, 0.5010713365342883);57.0222015381;1.0;08:55:18:530;0;5;-1.5;1.70216306156406;0.879765395894428;0;0;0;1;1;1;1;1;85;0;0;0;15;3;0;0;();(-2000.0, -2000.0);
08:55:18:546;08:55:18:476;1448481313.08;(0.4203573942184448, 0.5010713365342883);57.0222015381;1.0;08:55:18:546;0;10;-1.5;1.76683937823834;1.17302052785924;0;0;0;1;1;1;1;1;85;0;0;0;15;3;0;0;();(-2000.0, -2000.0);
08:55:18:580;08:55:18:476;1448481313.08;(0.4203573942184448, 0.5010713365342883);57.0222015381;1.0;08:55:18:580;0;9;-1.5;2.39018691588785;1.66177908113392;0;0;0;1;1;1;1;1;85;0;0;0;15;3;0;0;();(-2000.0, -2000.0);
08:55:18:597;08:55:18:476;1448481313.08;(0.4203573942184448, 0.5010713365342883);57.0222015381;1.0;08:55:18:597;0;4;-1.5;1.61867088607595;0.684261974584555;0;0;0;1;1;1;1;1;85;0;0;0;15;3;0;0;();(-2000.0, -2000.0);
08:55:18:614;08:55:18:599;1448481313.18;(0.4228775978088379, 0.43642624749077696);56.9300231934;1.0;08:55:18:614;0;10;-1.5;1.88397790055249;1.17302052785924;0;0;0;1;1;1;1;1;85;0;0;0;15;3;0;0;();(-2000.0, -2000.0);
08:55:18:631;08:55:18:599;1448481313.18;(0.4228775978088379, 0.43642624749077696);56.9300231934;1.0;08:55:18:631;0;15;-1.5;2.24835164835165;1.46627565982405;0;0;0;1;1;1;1;1;85;0;0;0;15;3;0;0;();(-2000.0, -2000.0);
08:55:18:647;08:55:18:639;1448481313.24;(0.4186257839202881, 0.4346722920735677);57.4423713684;1.0;08:55:18:647;0;9;-1.5;2.0625;1.46627565982405;0;0;0;1;1;1;1;1;85;0;0;0;15;3;0;0;();(-2000.0, -2000.0);
08:55:18:680;08:55:18:679;1448481313.28;(0.4180737495422363, 0.4343201531304254);57.9676055908;1.0;08:55:18:680;0;9;-1.5;2.6640625;2.1505376344086;0;0;0;1;1;1;1;1;85;0;0;0;15;3;0;0;();(-2000.0, -2000.0);
08:55:18:697;08:55:18:679;1448481313.28;(0.4180737495422363, 0.4343201531304254);57.9676055908;1.0;08:55:18:697;0;15;-1.5;2.58333333333333;1.85728250244379;0;0;0;1;1;1;1;1;85;0;0;0;15;3;0;0;();(-2000.0, -2000.0);
08:55:18:714;08:55:18:679;1448481313.28;(0.4180737495422363, 0.4343201531304254);57.9676055908;1.0;08:55:18:714;0;4;-1.5;3.03560830860534;2.34604105571848;0;0;0;1;1;1;1;1;85;0;0;0;15;3;0;0;();(-2000.0, -2000.0);
08:55:18:732;08:55:18:723;1448481313.31;(0.4181785583496094, 0.43922555711534284);57.9051742554;1.0;08:55:18:731;0;15;-1.5;1.88745387453875;1.46627565982405;0;0;0;1;1;1;1;1;85;0;0;0;15;3;0;0;();(-2000.0, -2000.0);
08:55:18:747;08:55:18:723;1448481313.31;(0.4181785583496094, 0.43922555711534284);57.9051742554;1.0;08:55:18:747;0;5;-1.5;2.0501002004008;1.46627565982405;0;0;0;1;1;1;1;1;85;0;0;0;15;3;0;0;();(-2000.0, -2000.0);
08:55:18:782;08:55:18:763;1448481313.34;(0.41801669597625735, 0.43853836059570317);58.1035308838;1.0;08:55:18:782;0;4;-1.5;2.28348214285714;1.46627565982405;0;0;0;1;1;1;1;1;85;0;0;0;15;3;0;0;();(-2000.0, -2000.0);
08:55:18:798;08:55:18:763;1448481313.34;(0.41801669597625735, 0.43853836059570317);58.1035308838;1.0;08:55:18:798;0;9;-1.5;2.325;1.66177908113392;0;0;0;1;1;1;1;1;85;0;0;0;15;3;0;0;();(-2000.0, -2000.0);
08:55:18:815;08:55:18:808;1448481313.41;(0.4176898241043091, 0.4382862938774956);57.8589706421;1.0;08:55:18:815;0;4;-1.5;2.26829268292683;1.85728250244379;0;0;0;1;1;1;1;1;85;0;0;0;15;3;0;0;();(-2000.0, -2000.0);
08:55:18:832;08:55:18:808;1448481313.41;(0.4176898241043091, 0.4382862938774956);57.8589706421;1.0;08:55:18:832;0;9;-1.5;2.41843971631206;1.85728250244379;0;0;0;1;1;1;1;1;85;0;0;0;15;3;0;0;();(-2000.0, -2000.0);
08:55:18:848;08:55:18:847;1448481313.44;(0.4174084186553955, 0.4388036939832899);58.1347198486;1.0;08:55:18:848;0;5;-1.5;1.74871794871795;1.17302052785924;0;0;0;1;1;1;1;1;85;0;0;0;15;3;0;0;();(-2000.0, -2000.0);
08:55:18:865;08:55:18:847;1448481313.44;(0.4174084186553955, 0.4388036939832899);58.1347198486;1.0;08:55:18:865;0;10;-1.5;1.69370860927152;1.17302052785924;0;0;0;1;1;1;1;1;85;0;0;0;15;3;0;0;();(-2000.0, -2000.0);
08:55:18:899;08:55:18:887;1448481313.48;(0.4171687364578247, 0.4387421502007378);58.2335090637;1.0;08:55:18:899;0;10;-1.5;2.6640625;2.93255131964809;0;0;0;1;1;1;1;1;85;0;0;0;15;3;0;0;();(-2000.0, -2000.0);
08:55:18:915;08:55:18:887;1448481313.48;(0.4171687364578247, 0.4387421502007378);58.2335090637;1.0;08:55:18:915;0;0;-1.5;2.20950323974082;2.34604105571848;0;0;0;1;1;1;1;1;85;0;0;0;15;3;0;0;();(-2000.0, -2000.0);
08:55:18:932;08:55:18:931;1448481313.51;(0.41710844039916994, 0.4388518863254123);57.8922996521;1.0;08:55:18:932;0;10;-1.5;2.1006160164271;1.46627565982405;0;0;0;1;1;1;1;1;85;0;0;0;15;3;0;0;();(-2000.0, -2000.0);
08:55:18:949;08:55:18:931;1448481313.51;(0.41710844039916994, 0.4388518863254123);57.8922996521;1.0;08:55:18:949;0;4;-1.5;2.26829268292683;1.46627565982405;0;0;0;1;1;1;1;1;85;0;0;0;15;3;0;0;();(-2000.0, -2000.0);
08:55:18:982;08:55:18:971;1448481313.54;(0.41688473224639894, 0.43928854200575085);57.7832221985;1.0;08:55:18:982;0;5;-1.5;2.61636828644501;2.1505376344086;0;0;0;1;1;1;1;1;85;0;0;0;15;3;0;0;();(-2000.0, -2000.0);
08:55:18:999;08:55:18:971;1448481313.54;(0.41688473224639894, 0.43928854200575085);57.7832221985;1.0;08:55:18:999;0;9;-1.5;2.46506024096386;1.85728250244379;0;0;0;1;1;1;1;1;85;0;0;0;15;3;0;0;();(-2000.0, -2000.0);
08:55:19:017;08:55:19:011;1448481313.58;(0.41562209129333494, 0.4388008965386285);57.5764427185;0.914354717532;08:55:19:016;0;15;-1.5;2.61636828644501;1.95503421309873;0;0;0;1;1;1;1;1;85;0;0;0;15;3;0;0;();(-2000.0, -2000.0);
08:55:19:032;08:55:19:011;1448481313.58;(0.41562209129333494, 0.4388008965386285);57.5764427185;0.914354717532;08:55:19:032;0;10;-1.5;1.73979591836735;1.17302052785924;0;0;0;1;1;1;1;1;85;0;0;0;15;3;0;0;();(-2000.0, -2000.0);
08:55:19:049;08:55:19:011;1448481313.58;(0.41562209129333494, 0.4388008965386285);57.5764427185;0.914354717532;08:55:19:049;0;15;-1.5;1.73096446700508;1.17302052785924;0;0;0;1;1;1;1;1;85;0;0;0;15;3;0;0;();(-2000.0, -2000.0);
08:55:19:067;08:55:19:011;1448481313.58;(0.41562209129333494, 0.4388008965386285);57.5764427185;0.914354717532;08:55:19:066;0;5;-1.5;1.81705150976909;1.36852394916911;0;0;0;1;1;1;1;1;85;0;0;0;15;3;0;0;();(-2000.0, -2000.0);
08:55:19:100;08:55:19:095;1448481313.69;(0.4021921634674072, 0.43648317125108504);58.1377487183;1.0;08:55:19:100;0;10;-1.5;2.20950323974082;1.85728250244379;0;0;0;1;1;1;1;1;85;0;0;0;15;3;0;0;();(-2000.0, -2000.0);
08:55:19:117;08:55:19:095;1448481313.69;(0.4021921634674072, 0.43648317125108504);58.1377487183;1.0;08:55:19:117;0;15;-1.5;2.10493827160494;1.46627565982405;0;0;0;1;1;1;1;1;85;0;0;0;15;3;0;0;();(-2000.0, -2000.0);
08:55:19:134;08:55:19:095;1448481313.69;(0.4021921634674072, 0.43648317125108504);58.1377487183;1.0;08:55:19:134;0;5;-1.5;2.73529411764706;2.34604105571848;0;0;0;1;1;1;1;1;85;0;0;0;15;3;0;0;();(-2000.0, -2000.0);
08:55:19:151;08:55:19:135;1448481313.74;(0.4023362398147583, 0.4376705169677735);58.6355209351;1.0;08:55:19:151;0;0;-1.5;1.89444444444444;1.46627565982405;0;0;0;1;1;1;1;1;85;0;0;0;15;3;0;0;();(-2000.0, -2000.0);
08:55:19:167;08:55:19:135;1448481313.74;(0.4023362398147583, 0.4376705169677735);58.6355209351;1.0;08:55:19:167;0;5;-1.5;1.80105633802817;1.17302052785924;0;0;0;1;1;1;1;1;85;0;0;0;15;3;0;0;();(-2000.0, -2000.0);
08:55:19:200;08:55:19:179;1448481313.78;(0.40237343311309814, 0.4378535376654731);58.7048568726;1.0;08:55:19:200;0;4;-1.5;2.90625;2.73704789833822;0;0;0;1;1;1;1;1;85;0;0;0;15;3;0;0;();(-2000.0, -2000.0);
08:55:19:217;08:55:19:179;1448481313.78;(0.40237343311309814, 0.4378535376654731);58.7048568726;1.0;08:55:19:217;0;15;-1.5;1.75471698113208;1.17302052785924;0;0;0;1;1;1;1;1;85;0;0;0;15;3;0;0;();(-2000.0, -2000.0);
08:55:19:234;08:55:19:219;1448481313.81;(0.40244853496551514, 0.437966071234809);58.9925804138;1.0;08:55:19:234;0;10;-1.5;2.41843971631206;1.66177908113392;0;0;0;1;1;1;1;1;85;0;0;0;15;3;0;0;();(-2000.0, -2000.0);
08:55:19:250;08:55:19:219;1448481313.81;(0.40244853496551514, 0.437966071234809);58.9925804138;1.0;08:55:19:250;0;10;-1.5;2.20950323974082;1.85728250244379;0;0;0;1;1;1;1;1;85;0;0;0;15;3;0;0;();(-2000.0, -2000.0);
08:55:19:267;08:55:19:263;1448481313.84;(0.402757453918457, 0.43821398417154944);58.8753166199;1.0;08:55:19:267;0;4;-1.5;2.24835164835165;1.46627565982405;0;0;0;1;1;1;1;1;85;0;0;0;15;3;0;0;();(-2000.0, -2000.0);
08:55:19:301;08:55:19:263;1448481313.84;(0.402757453918457, 0.43821398417154944);58.8753166199;1.0;08:55:19:301;0;4;-1.5;2.46506024096386;1.85728250244379;0;0;0;1;1;1;1;1;85;0;0;0;15;3;0;0;();(-2000.0, -2000.0);
08:55:19:318;08:55:19:303;1448481313.88;(0.38889360427856445, 0.4356324089898004);60.2065391541;1.0;08:55:19:318;0;10;-1.5;2.72074468085106;2.44379276637341;0;0;0;1;1;1;1;1;85;0;0;0;15;3;0;0;();(-2000.0, -2000.0);
08:55:19:335;08:55:19:303;1448481313.88;(0.38889360427856445, 0.4356324089898004);60.2065391541;1.0;08:55:19:335;0;15;-1.5;1.92655367231638;1.36852394916911;0;0;0;1;1;1;1;1;85;0;0;0;15;3;0;0;();(-2000.0, -2000.0);
08:55:19:351;08:55:19:345;1448481313.94;(0.38993895053863525, 0.4354203965928819);59.8867263794;1.0;08:55:19:351;0;10;-1.5;1.60344827586207;0.684261974584555;0;0;0;1;1;1;1;1;85;0;0;0;15;3;0;0;();(-2000.0, -2000.0);
08:55:19:369;08:55:19:345;1448481313.94;(0.38993895053863525, 0.4354203965928819);59.8867263794;1.0;08:55:19:369;0;15;-1.5;1.85662431941924;1.46627565982405;0;0;0;1;1;1;1;1;85;0;0;0;15;3;0;0;();(-2000.0, -2000.0);
08:55:19:385;08:55:19:345;1448481313.94;(0.38993895053863525, 0.4354203965928819);59.8867263794;1.0;08:55:19:385;0;10;-1.5;2.71352785145889;2.1505376344086;0;0;0;1;1;1;1;1;85;0;0;0;15;3;0;0;();(-2000.0, -2000.0);
08:55:19:419;08:55:19:387;1448481313.98;(0.389762806892395, 0.4358193715413411);59.8849639893;1.0;08:55:19:419;0;4;-1.5;2.13125;1.66177908113392;0;0;0;1;1;1;1;1;85;0;0;0;15;3;0;0;();(-2000.0, -2000.0);
08:55:19:435;08:55:19:427;1448481314.01;(0.38957045078277586, 0.43618286980523);59.9151649475;1.0;08:55:19:435;0;15;-1.5;2.07926829268293;1.46627565982405;0;0;0;1;1;1;1;1;85;0;0;0;15;3;0;0;();(-2000.0, -2000.0);
08:55:19:453;08:55:19:427;1448481314.01;(0.38957045078277586, 0.43618286980523);59.9151649475;1.0;08:55:19:453;0;5;-1.5;2.39018691588785;1.66177908113392;0;0;0;1;1;1;1;1;85;0;0;0;15;3;0;0;();(-2000.0, -2000.0);
08:55:19:469;08:55:19:427;1448481314.01;(0.38957045078277586, 0.43618286980523);59.9151649475;1.0;08:55:19:469;0;0;-1.5;1.73979591836735;1.17302052785924;0;0;0;1;1;1;1;1;85;0;0;0;15;3;0;0;();(-2000.0, -2000.0);
08:55:19:486;08:55:19:471;1448481314.08;(0.3893364429473877, 0.4366154140896268);60.0752067566;1.0;08:55:19:486;0;5;-1.5;1.82678571428571;1.17302052785924;0;0;0;1;1;1;1;1;85;0;0;0;15;3;0;0;();(-2000.0, -2000.0);
08:55:19:519;08:55:19:511;1448481314.11;(0.3894187450408936, 0.43656764560275607);59.9438209534;1.0;08:55:19:519;0;4;-1.5;2.56390977443609;1.85728250244379;0;0;0;1;1;1;1;1;85;0;0;0;15;3;0;0;();(-2000.0, -2000.0);
08:55:19:536;08:55:19:511;1448481314.11;(0.3894187450408936, 0.43656764560275607);59.9438209534;1.0;08:55:19:536;0;10;-1.5;2.41843971631206;2.1505376344086;0;0;0;1;1;1;1;1;85;0;0;0;15;3;0;0;();(-2000.0, -2000.0);
08:55:19:552;08:55:19:511;1448481314.11;(0.3894187450408936, 0.43656764560275607);59.9438209534;1.0;08:55:19:551;0;4;-1.5;1.75773195876289;1.17302052785924;0;0;0;1;1;1;1;1;85;0;0;0;15;3;0;0;();(-2000.0, -2000.0);
08:55:19:569;08:55:19:511;1448481314.11;(0.3894187450408936, 0.43656764560275607);59.9438209534;1.0;08:55:19:569;0;10;-1.5;1.90858208955224;1.17302052785924;0;0;0;1;1;1;1;1;85;0;0;0;15;3;0;0;();(-2000.0, -2000.0);
08:55:19:586;08:55:19:511;1448481314.11;(0.3894187450408936, 0.43656764560275607);59.9438209534;1.0;08:55:19:586;0;4;-1.5;2.28348214285714;1.56402737047898;0;0;0;1;1;1;1;1;85;0;0;0;15;3;0;0;();(-2000.0, -2000.0);
08:55:19:620;08:55:19:596;1448481314.18;(0.41232354640960694, 0.4399495018853081);58.8179016113;1.0;08:55:19:620;0;4;-1.5;2.05835010060362;1.46627565982405;0;0;0;1;1;1;1;1;85;0;0;0;15;3;0;0;();(-2000.0, -2000.0);
08:55:19:638;08:55:19:635;1448481314.24;(0.4122869253158569, 0.43981615702311194);58.6520652771;1.0;08:55:19:638;0;9;-1.5;2.51970443349754;1.85728250244379;0;0;0;1;1;1;1;1;85;0;0;0;15;3;0;0;();(-2000.0, -2000.0);
08:55:19:653;08:55:19:635;1448481314.24;(0.4122869253158569, 0.43981615702311194);58.6520652771;1.0;08:55:19:653;0;5;-1.5;1.71932773109244;0.879765395894428;0;0;0;1;1;1;1;1;85;0;0;0;15;3;0;0;();(-2000.0, -2000.0);
08:55:19:670;08:55:19:635;1448481314.24;(0.4122869253158569, 0.43981615702311194);58.6520652771;1.0;08:55:19:670;0;9;-1.5;1.72512647554806;1.17302052785924;0;0;0;1;1;1;1;1;85;0;0;0;15;3;0;0;();(-2000.0, -2000.0);
08:55:19:686;08:55:19:675;1448481314.28;(0.4122064828872681, 0.43953293694390194);58.7457885742;1.0;08:55:19:686;0;4;-1.5;2.85754189944134;3.03030303030303;0;0;0;1;1;1;1;1;85;0;0;0;15;3;0;0;();(-2000.0, -2000.0);
08:55:19:720;08:55:19:719;1448481314.31;(0.41223297119140623, 0.4401741875542535);58.8724555969;1.0;08:55:19:720;0;0;-1.5;2.39018691588785;1.85728250244379;0;0;0;1;1;1;1;1;85;0;0;0;15;3;0;0;();(-2000.0, -2000.0);
08:55:19:737;08:55:19:719;1448481314.31;(0.41223297119140623, 0.4401741875542535);58.8724555969;1.0;08:55:19:737;0;10;-1.5;2.0297619047619;1.46627565982405;0;0;0;1;1;1;1;1;85;0;0;0;15;3;0;0;();(-2000.0, -2000.0);
08:55:19:754;08:55:19:719;1448481314.31;(0.41223297119140623, 0.4401741875542535);58.8724555969;1.0;08:55:19:754;0;15;-1.5;2.22391304347826;1.46627565982405;0;0;0;1;1;1;1;1;85;0;0;0;15;3;0;0;();(-2000.0, -2000.0);
08:55:19:771;08:55:19:759;1448481314.34;(0.41270573139190675, 0.4406867557101779);58.8381538391;1.0;08:55:19:771;0;4;-1.5;2.30405405405405;1.66177908113392;0;0;0;1;1;1;1;1;85;0;0;0;15;3;0;0;();(-2000.0, -2000.0);
08:55:19:787;08:55:19:759;1448481314.34;(0.41270573139190675, 0.4406867557101779);58.8381538391;1.0;08:55:19:787;0;9;-1.5;2.64341085271318;2.1505376344086;0;0;0;1;1;1;1;1;85;0;0;0;15;3;0;0;();(-2000.0, -2000.0);
08:55:19:822;08:55:19:799;1448481314.38;(0.41344027519226073, 0.4408980051676432);58.6464920044;1.0;08:55:19:822;0;15;-1.5;2.6640625;2.34604105571848;0;0;0;1;1;1;1;1;85;0;0;0;15;3;0;0;();(-2000.0, -2000.0);
08:55:19:837;08:55:19:799;1448481314.38;(0.41344027519226073, 0.4408980051676432);58.6464920044;1.0;08:55:19:837;0;4;-1.5;3.20689655172414;2.73704789833822;0;0;0;1;1;1;1;1;85;0;0;0;15;3;0;0;();(-2000.0, -2000.0);
08:55:19:854;08:55:19:843;1448481314.41;(0.25388875007629397, 0.5004685295952691);29.6147670746;0.728714949269;08:55:19:854;0;15;-1.5;1.72512647554806;0.879765395894428;0;0;0;1;1;1;1;1;85;0;0;0;15;3;0;0;();(-2000.0, -2000.0);
08:55:19:872;08:55:19:843;1448481314.41;(0.25388875007629397, 0.5004685295952691);29.6147670746;0.728714949269;08:55:19:872;0;5;-1.5;1.85662431941924;1.17302052785924;0;0;0;1;1;1;1;1;85;0;0;0;15;3;0;0;();(-2000.0, -2000.0);
08:55:19:887;08:55:19:883;1448481314.48;(0.40736343860626223, 0.504796642727322);58.5653533936;1.0;08:55:19:887;0;10;-1.5;2.24835164835165;1.85728250244379;0;0;0;1;1;1;1;1;85;0;0;0;15;3;0;0;();(-2000.0, -2000.0);
08:55:19:905;08:55:19:883;1448481314.48;(0.40736343860626223, 0.504796642727322);58.5653533936;1.0;08:55:19:905;0;15;-1.5;2.20950323974082;1.85728250244379;0;0;0;1;1;1;1;1;85;0;0;0;15;3;0;0;();(-2000.0, -2000.0);
08:55:19:938;08:55:19:923;1448481314.51;(0.4074008226394653, 0.5042398664686415);58.6715316772;1.0;08:55:19:938;0;5;-1.5;2.28348214285714;1.56402737047898;0;0;0;1;1;1;1;1;85;0;0;0;15;3;0;0;();(-2000.0, -2000.0);
08:55:19:956;08:55:19:923;1448481314.51;(0.4074008226394653, 0.5042398664686415);58.6715316772;1.0;08:55:19:956;0;0;-1.5;1.73096446700508;1.46627565982405;0;0;0;1;1;1;1;1;85;0;0;0;15;3;0;0;();(-2000.0, -2000.0);
08:55:19:972;08:55:19:967;1448481314.54;(0.4074124574661255, 0.5046048906114367);58.7958641052;1.0;08:55:19:972;0;5;-1.5;1.73096446700508;1.17302052785924;0;0;0;1;1;1;1;1;85;0;0;0;15;3;0;0;();(-2000.0, -2000.0);
08:55:19:998;08:55:19:967;1448481314.54;(0.4074124574661255, 0.5046048906114367);58.7958641052;1.0;08:55:19:997;0;11;-1.5;1.68256578947368;1.17302052785924;0;0;0;1;1;1;1;3;85,81,41;0;0;0;15;3;0;0;();(-2000.0, -2000.0);
08:55:20:007;08:55:19:967;1448481314.54;(0.4074124574661255, 0.5046048906114367);58.7958641052;1.0;08:55:20:007;0;15;-1.5;1.85662431941924;1.17302052785924;0;0;0;1;1;1;1;3;85,81,41;0;0;0;15;3;0;0;();(-2000.0, -2000.0);
08:55:20:039;08:55:20:008;1448481314.61;(0.40681474208831786, 0.5042518191867404);58.7708358765;1.0;08:55:20:039;0;0;-1.5;2.27839643652561;1.66177908113392;0;0;0;1;1;1;1;1;85;0;0;0;25;5;0;0;();(-2000.0, -2000.0);
08:55:20:057;08:55:20:051;1448481314.64;(0.40662572383880613, 0.5024479760064019);58.7696380615;1.0;08:55:20:057;0;10;-1.5;2.01377952755906;1.46627565982405;0;0;0;1;1;1;1;1;85;0;0;0;25;5;0;0;();(-2000.0, -2000.0);
08:55:20:072;08:55:20:051;1448481314.64;(0.40662572383880613, 0.5024479760064019);58.7696380615;1.0;08:55:20:072;0;15;-1.5;2.35172413793103;1.66177908113392;0;0;0;1;1;1;1;1;85;0;0;0;25;5;0;0;();(-2000.0, -2000.0);
08:55:20:089;08:55:20:051;1448481314.64;(0.40662572383880613, 0.5024479760064019);58.7696380615;1.0;08:55:20:089;0;9;-1.5;2.11801242236025;1.46627565982405;0;0;0;1;1;1;1;1;85;0;0;0;25;5;0;0;();(-2000.0, -2000.0);
08:55:20:107;08:55:20:091;1448481314.68;(0.4063745975494385, 0.5028989579942491);58.9246520996;1.0;08:55:20:107;0;0;-1.5;1.92655367231638;1.36852394916911;0;0;0;1;1;1;1;1;85;0;0;0;25;5;0;0;();(-2000.0, -2000.0);
08:55:20:140;08:55:20:131;1448481314.71;(0.40485525131225586, 0.5026337093777127);58.78332901;0.908948792912;08:55:20:140;0;15;-1.5;2.39018691588785;1.66177908113392;0;0;0;1;1;1;1;1;85;0;0;0;25;5;0;0;();(-2000.0, -2000.0);
08:55:20:157;08:55:20:131;1448481314.71;(0.40485525131225586, 0.5026337093777127);58.78332901;0.908948792912;08:55:20:157;0;4;-1.5;2.57035175879397;1.85728250244379;0;0;0;1;1;1;1;1;85;0;0;0;25;5;0;0;();(-2000.0, -2000.0);
08:55:20:173;08:55:20:131;1448481314.71;(0.40485525131225586, 0.5026337093777127);58.78332901;0.908948792912;08:55:20:173;0;15;-1.5;1.69370860927152;1.17302052785924;0;0;0;1;1;1;1;1;85;0;0;0;25;5;0;0;();(-2000.0, -2000.0);
08:55:20:190;08:55:20:175;1448481314.74;(0.4006943702697754, 0.5012310451931423);59.2145767212;1.0;08:55:20:190;0;5;-1.5;1.88397790055249;1.46627565982405;0;0;0;1;1;1;1;1;85;0;0;0;25;5;0;0;();(-2000.0, -2000.0);
08:55:20:206;08:55:20:175;1448481314.74;(0.4006943702697754, 0.5012310451931423);59.2145767212;1.0;08:55:20:206;0;0;-1.5;2.16737288135593;1.46627565982405;0;0;0;1;1;1;1;1;85;0;0;0;25;5;0;0;();(-2000.0, -2000.0);
08:55:20:240;08:55:20:215;1448481314.81;(0.40164971351623535, 0.5027501000298393);59.0098953247;1.0;08:55:20:240;0;15;-1.5;2.16737288135593;1.66177908113392;0;0;0;1;1;1;1;1;85;0;0;0;25;5;0;0;();(-2000.0, -2000.0);
08:55:20:257;08:55:20:256;1448481314.84;(0.4023729801177979, 0.5036148495144315);59.2681312561;1.0;08:55:20:257;0;4;-1.5;2.28348214285714;1.46627565982405;0;0;0;1;1;1;1;1;85;0;0;0;25;5;0;0;();(-2000.0, -2000.0);
08:55:20:274;08:55:20:256;1448481314.84;(0.4023729801177979, 0.5036148495144315);59.2681312561;1.0;08:55:20:274;0;15;-1.5;1.82678571428571;1.17302052785924;0;0;0;1;1;1;1;1;85;0;0;0;25;5;0;0;();(-2000.0, -2000.0);
08:55:20:290;08:55:20:256;1448481314.84;(0.4023729801177979, 0.5036148495144315);59.2681312561;1.0;08:55:20:290;0;5;-1.5;1.81705150976909;1.46627565982405;0;0;0;1;1;1;1;1;85;0;0;0;25;5;0;0;();(-2000.0, -2000.0);
08:55:20:307;08:55:20:299;1448481314.88;(0.4029534339904785, 0.5050224304199219);59.0010185242;1.0;08:55:20:307;0;10;-1.5;1.88745387453875;1.17302052785924;0;0;0;1;1;1;1;1;85;0;0;0;25;5;0;0;();(-2000.0, -2000.0);
08:55:20:341;08:55:20:341;1448481314.94;(0.4052323341369629, 0.5078421274820963);59.3419418335;0.919700734615;08:55:20:341;0;10;-1.5;2.75741239892183;2.34604105571848;0;0;0;1;1;1;1;1;85;0;0;0;25;5;0;0;();(-2000.0, -2000.0);
08:55:20:357;08:55:20:341;1448481314.94;(0.4052323341369629, 0.5078421274820963);59.3419418335;0.919700734615;08:55:20:357;0;0;-1.5;2.15368421052632;1.46627565982405;0;0;0;1;1;1;1;1;85;0;0;0;25;5;0;0;();(-2000.0, -2000.0);
08:55:20:375;08:55:20:341;1448481314.94;(0.4052323341369629, 0.5078421274820963);59.3419418335;0.919700734615;08:55:20:375;0;10;-1.5;1.78846153846154;1.17302052785924;0;0;0;1;1;1;1;1;85;0;0;0;25;5;0;0;();(-2000.0, -2000.0);
08:55:20:391;08:55:20:341;1448481314.94;(0.4052323341369629, 0.5078421274820963);59.3419418335;0.919700734615;08:55:20:391;0;15;-1.5;1.61867088607595;1.17302052785924;0;0;0;1;1;1;1;1;85;0;0;0;25;5;0;0;();(-2000.0, -2000.0);
08:55:20:408;08:55:20:341;1448481314.94;(0.4052323341369629, 0.5078421274820963);59.3419418335;0.919700734615;08:55:20:408;0;9;-1.5;1.92655367231638;1.36852394916911;0;0;0;1;1;1;1;1;85;0;0;0;25;5;0;0;();(-2000.0, -2000.0);
08:55:20:442;08:55:20:423;1448481315.01;(0.4092719316482544, 0.5098942226833767);59.4515686035;0.940822236782;08:55:20:442;0;5;-1.5;1.88397790055249;1.46627565982405;0;0;0;1;1;1;1;1;85;0;0;0;25;5;0;0;();(-2000.0, -2000.0);
08:55:20:458;08:55:20:423;1448481315.01;(0.4092719316482544, 0.5098942226833767);59.4515686035;0.940822236782;08:55:20:458;0;15;-1.5;3.20689655172414;3.03030303030303;0;0;0;1;1;1;1;1;85;0;0;0;25;5;0;0;();(-2000.0, -2000.0);
08:55:20:475;08:55:20:423;1448481315.01;(0.4092719316482544, 0.5098942226833767);59.4515686035;0.940822236782;08:55:20:475;0;4;-1.5;3.1671826625387;2.44379276637341;0;0;0;1;1;1;1;1;85;0;0;0;25;5;0;0;();(-2000.0, -2000.0);
08:55:20:492;08:55:20:423;1448481315.01;(0.4092719316482544, 0.5098942226833767);59.4515686035;0.940822236782;08:55:20:492;0;15;-1.5;1.87020109689214;1.17302052785924;0;0;0;1;1;1;1;1;85;0;0;0;25;5;0;0;();(-2000.0, -2000.0);
08:55:20:508;08:55:20:507;1448481315.04;(0.38123674392700196, 0.4745748731825087);62.0388069153;0.763301782555;08:55:20:508;0;15;-1.5;1.87020109689214;1.17302052785924;0;0;0;1;1;1;1;1;85;0;0;0;25;5;0;0;();(-2000.0, -2000.0);
08:55:20:525;08:55:20:507;1448481315.04;(0.38123674392700196, 0.4745748731825087);62.0388069153;0.763301782555;08:55:20:525;0;10;-1.5;2.58333333333333;1.85728250244379;0;0;0;1;1;1;1;1;85;0;0;0;25;5;0;0;();(-2000.0, -2000.0);
08:55:20:559;08:55:20:547;1448481315.13;(0.4475871562957764, 0.6917680316501194);29.8021965027;0.608918024646;08:55:20:559;0;10;-1.5;2.1006160164271;1.46627565982405;0;0;0;1;1;1;1;1;85;0;0;0;25;5;0;0;();(-2000.0, -2000.0);
08:55:20:575;08:55:20:547;1448481315.13;(0.4475871562957764, 0.6917680316501194);29.8021965027;0.608918024646;08:55:20:575;0;4;-1.5;2.31972789115646;1.66177908113392;0;0;0;1;1;1;1;1;85;0;0;0;25;5;0;0;();(-2000.0, -2000.0);
08:55:20:592;08:55:20:547;1448481315.13;(0.4475871562957764, 0.6917680316501194);29.8021965027;0.608918024646;08:55:20:592;0;10;-1.5;2.85754189944134;2.34604105571848;0;0;0;1;1;1;1;1;85;0;0;0;25;5;0;0;();(-2000.0, -2000.0);
08:55:20:609;08:55:20:547;1448481315.13;(0.4475871562957764, 0.6917680316501194);29.8021965027;0.608918024646;08:55:20:609;0;5;-1.5;1.80742049469965;1.17302052785924;0;0;0;1;1;1;1;1;85;0;0;0;25;5;0;0;();(-2000.0, -2000.0);
08:55:20:625;08:55:20:547;1448481315.13;(0.4475871562957764, 0.6917680316501194);29.8021965027;0.608918024646;08:55:20:625;0;10;-1.5;1.82678571428571;1.17302052785924;0;0;0;1;1;1;1;1;85;0;0;0;25;5;0;0;();(-2000.0, -2000.0);
08:55:20:660;08:55:20:547;1448481315.13;(0.4475871562957764, 0.6917680316501194);29.8021965027;0.608918024646;08:55:20:659;0;10;-1.5;2.41843971631206;2.1505376344086;0;0;0;1;1;1;1;1;85;0;0;0;25;5;0;0;();(-2000.0, -2000.0);
08:55:20:676;08:55:20:671;1448481315.15;(0.37518208026885985, 0.4196169535319011);60.2634544373;0.985286074373;08:55:20:676;0;5;-1.5;1.79789103690685;1.17302052785924;0;0;0;1;1;1;1;1;85;0;0;0;25;5;0;0;();(-2000.0, -2000.0);
08:55:20:693;08:55:20:671;1448481315.15;(0.37518208026885985, 0.4196169535319011);60.2634544373;0.985286074373;08:55:20:693;0;10;-1.5;1.89795918367347;1.17302052785924;0;0;0;1;1;1;1;1;85;0;0;0;25;5;0;0;();(-2000.0, -2000.0);
08:55:20:710;08:55:20:671;1448481315.15;(0.37518208026885985, 0.4196169535319011);60.2634544373;0.985286074373;08:55:20:710;0;15;-1.5;2.28348214285714;1.66177908113392;0;0;0;1;1;1;1;1;85;0;0;0;25;5;0;0;();(-2000.0, -2000.0);
08:55:20:726;08:55:20:671;1448481315.15;(0.37518208026885985, 0.4196169535319011);60.2634544373;0.985286074373;08:55:20:726;0;9;-1.5;2.14915966386555;1.46627565982405;0;0;0;1;1;1;1;1;85;0;0;0;25;5;0;0;();(-2000.0, -2000.0);
08:55:20:762;08:55:20:755;1448481315.25;(0.3847665548324585, 0.42543826633029513);59.8466835022;0.902632293306;08:55:20:760;0;5;-1.5;1.998046875;1.36852394916911;0;0;0;1;1;1;1;1;85;0;0;0;25;5;0;0;();(-2000.0, -2000.0);
08:55:20:776;08:55:20:755;1448481315.25;(0.3847665548324585, 0.42543826633029513);59.8466835022;0.902632293306;08:55:20:776;0;15;-1.5;3.46779661016949;3.2258064516129;0;0;0;1;1;1;1;1;85;0;0;0;25;5;0;0;();(-2000.0, -2000.0);
08:55:20:793;08:55:20:755;1448481315.25;(0.3847665548324585, 0.42543826633029513);59.8466835022;0.902632293306;08:55:20:793;0;4;-1.5;3.12844036697248;2.44379276637341;0;0;0;1;1;1;1;1;85;0;0;0;25;5;0;0;();(-2000.0, -2000.0);
08:55:20:810;08:55:20:755;1448481315.25;(0.3847665548324585, 0.42543826633029513);59.8466835022;0.902632293306;08:55:20:810;0;4;-1.5;3.12844036697248;2.44379276637341;0;0;0;1;1;1;1;1;85;0;0;0;25;5;0;0;();(-2000.0, -2000.0);
08:55:20:828;08:55:20:755;1448481315.25;(0.3847665548324585, 0.42543826633029513);59.8466835022;0.902632293306;08:55:20:828;0;10;-1.5;3.06287425149701;2.93255131964809;0;0;0;1;1;1;1;1;85;0;0;0;25;5;0;0;();(-2000.0, -2000.0);
08:55:20:845;08:55:20:839;1448481315.37;(0.38347036838531495, 0.42030682033962674);59.6628570557;1.0;08:55:20:845;0;0;-1.5;2.50735294117647;1.85728250244379;0;0;0;1;1;1;1;1;85;0;0;0;25;5;0;0;();(-2000.0, -2000.0);
08:55:20:878;08:55:20:839;1448481315.37;(0.38347036838531495, 0.42030682033962674);59.6628570557;1.0;08:55:20:878;0;9;-1.5;2.25330396475771;1.46627565982405;0;0;0;1;1;1;1;1;85;0;0;0;25;5;0;0;();(-2000.0, -2000.0);
08:55:20:895;08:55:20:879;1448481315.48;(0.3870709896087646, 0.4216935475667317);58.8786735535;0.944512749197;08:55:20:895;0;4;-1.5;2.39018691588785;1.66177908113392;0;0;0;1;1;1;1;1;85;0;0;0;25;5;0;0;();(-2000.0, -2000.0);
08:55:20:911;08:55:20:879;1448481315.48;(0.3870709896087646, 0.4216935475667317);58.8786735535;0.944512749197;08:55:20:911;0;15;-1.5;1.94486692015209;1.36852394916911;0;0;0;1;1;1;1;1;85;0;0;0;25;5;0;0;();(-2000.0, -2000.0);
08:55:20:928;08:55:20:923;1448481315.51;(0.38712937831878663, 0.4223714616563585);58.7000312805;1.0;08:55:20:928;0;5;-1.5;1.78222996515679;1.36852394916911;0;0;0;1;1;1;1;1;85;0;0;0;25;5;0;0;();(-2000.0, -2000.0);
08:55:20:961;08:55:20:923;1448481315.51;(0.38712937831878663, 0.4223714616563585);58.7000312805;1.0;08:55:20:961;0;4;-1.5;3.05373134328358;2.44379276637341;0;0;0;1;1;1;1;1;85;0;0;0;25;5;0;0;();(-2000.0, -2000.0);
08:55:20:978;08:55:20:963;1448481315.54;(0.38733820915222167, 0.4223105112711588);58.6993675232;1.0;08:55:20:978;0;10;-1.5;2.47101449275362;1.85728250244379;0;0;0;1;1;1;1;1;85;0;0;0;25;5;0;0;();(-2000.0, -2000.0);
08:55:20:997;08:55:20:963;1448481315.54;(0.38733820915222167, 0.4223105112711588);58.6993675232;1.0;08:55:20:996;0;14;-1.5;2.72074468085106;2.44379276637341;0;0;0;1;1;1;1;1;85;0;0;0;25;5;0;0;();(-2000.0, -2000.0);
08:55:21:011;08:55:20:963;1448481315.54;(0.38733820915222167, 0.4223105112711588);58.6993675232;1.0;08:55:21:011;0;10;-1.5;1.92655367231638;1.36852394916911;0;0;0;1;1;1;1;1;85;0;0;0;25;5;0;0;();(-2000.0, -2000.0);
08:55:21:028;08:55:20:963;1448481315.54;(0.38733820915222167, 0.4223105112711588);58.6993675232;1.0;08:55:21:028;0;4;-1.5;2.20950323974082;1.46627565982405;0;0;0;1;1;1;1;1;85;0;0;0;25;5;0;0;();(-2000.0, -2000.0);
08:55:21:045;08:55:21:043;1448481315.58;(0.38672590255737305, 0.41766421000162757);58.8962135315;0.941400966261;08:55:21:045;0;9;-1.5;2.24835164835165;1.46627565982405;0;0;0;1;1;1;1;1;85;0;0;0;25;5;0;0;();(-2000.0, -2000.0);
08:55:21:078;08:55:21:043;1448481315.58;(0.38672590255737305, 0.41766421000162757);58.8962135315;0.941400966261;08:55:21:078;0;9;-1.5;2.6640625;2.1505376344086;0;0;0;1;1;1;1;1;85;0;0;0;25;5;0;0;();(-2000.0, -2000.0);
08:55:21:096;08:55:21:087;1448481315.68;(0.22840802669525145, 0.4639931996663411);18.9464588165;0.766852265064;08:55:21:096;0;15;-1.5;2.72074468085106;2.24828934506354;0;0;0;1;1;1;1;1;85;0;0;0;25;5;0;0;();(-2000.0, -2000.0);
08:55:21:112;08:55:21:087;1448481315.68;(0.22840802669525145, 0.4639931996663411);18.9464588165;0.766852265064;08:55:21:112;0;9;-1.5;1.87706422018349;1.17302052785924;0;0;0;1;1;1;1;1;85;0;0;0;25;5;0;0;();(-2000.0, -2000.0);
08:55:21:129;08:55:21:127;1448481315.71;(0.38249671459198, 0.4105838351779514);60.0678596497;0.958579582567;08:55:21:129;0;15;-1.5;1.85662431941924;1.46627565982405;0;0;0;1;1;1;1;1;85;0;0;0;25;5;0;0;();(-2000.0, -2000.0);
08:55:21:146;08:55:21:127;1448481315.71;(0.38249671459198, 0.4105838351779514);60.0678596497;0.958579582567;08:55:21:146;0;9;-1.5;2.6640625;2.1505376344086;0;0;0;1;1;1;1;1;85;0;0;0;25;5;0;0;();(-2000.0, -2000.0);
08:55:21:179;08:55:21:171;1448481315.74;(0.32615227699279786, 0.558344014485677);23.3175678253;0.925108628037;08:55:21:179;0;10;-1.5;2.00195694716243;1.85728250244379;0;0;0;1;1;1;1;1;85;0;0;0;25;5;0;0;();(-2000.0, -2000.0);
08:55:21:196;08:55:21:171;1448481315.74;(0.32615227699279786, 0.558344014485677);23.3175678253;0.925108628037;08:55:21:196;0;15;-1.5;2.13125;1.66177908113392;0;0;0;1;1;1;1;1;85;0;0;0;25;5;0;0;();(-2000.0, -2000.0);
08:55:21:213;08:55:21:212;1448481315.81;(0.4073596715927124, 0.4801807403564453);58.3484115601;0.725317101058;08:55:21:213;0;4;-1.5;2.50735294117647;1.85728250244379;0;0;0;1;1;1;1;1;85;0;0;0;25;5;0;0;();(-2000.0, -2000.0);
08:55:21:230;08:55:21:212;1448481315.81;(0.4073596715927124, 0.4801807403564453);58.3484115601;0.725317101058;08:55:21:230;0;9;-1.5;2.24835164835165;1.46627565982405;0;0;0;1;1;1;1;1;85;0;0;0;25;5;0;0;();(-2000.0, -2000.0);
08:55:21:246;08:55:21:212;1448481315.81;(0.4073596715927124, 0.4801807403564453);58.3484115601;0.725317101058;08:55:21:246;0;5;-1.5;1.80742049469965;1.17302052785924;0;0;0;1;1;1;1;1;85;0;0;0;25;5;0;0;();(-2000.0, -2000.0);
08:55:21:280;08:55:21:251;1448481315.84;(0.4333669900894165, 0.5060095893012153);59.8944320679;0.864986109178;08:55:21:280;0;4;-1.5;2.84958217270195;2.34604105571848;0;0;0;1;1;1;1;1;85;0;0;0;25;5;0;0;();(-2000.0, -2000.0);
08:55:21:296;08:55:21:295;1448481315.88;(0.44353699684143066, 0.5070382012261285);58.3382377625;1.0;08:55:21:296;0;9;-1.5;2.90625;2.34604105571848;0;0;0;1;1;1;1;1;85;0;0;0;25;5;0;0;();(-2000.0, -2000.0);
