%Timestamp,timestamp_write;timestamp_gotpupil;eyeTrackerTime;normPos;diameter;confidence;timestamp_gotbitdata;CRC;SEQ;AnalogOutp1;AnalogOutp2;AnalogOutp3;AnalogOutp4;AnalogOutp5;AnalogOutp6;DigitalOutp1;DigitalOutp2;DigitalOutp3;DigitalOutp4;nplanes;listofAirplanesonScreen;lastAction;lastActionDetails;lastActionAirplaneNumber;calculatedScore;positiveScore;negativeScore;collidedAirplaneNumbers;targetPositions;collisionPoint
08:47:26:105;08:47:26:102;1448480840.67;(0.42402215003967286, 0.48209618462456594);53.4805831909;1.0;;;;;;;;;;;;;;0;0;0;0;0;0;0;0;0;();(-2000.0, -2000.0);
08:47:26:113;08:47:26:102;1448480840.67;(0.42402215003967286, 0.48209618462456594);53.4805831909;1.0;;;;;;;;;;;;;;0;0;0;0;0;0;0;0;0;();(-2000.0, -2000.0);
08:47:26:118;08:47:26:102;1448480840.67;(0.42402215003967286, 0.48209618462456594);53.4805831909;1.0;;;;;;;;;;;;;;0;0;0;0;0;0;0;0;0;();(-2000.0, -2000.0);
08:47:26:121;08:47:26:102;1448480840.67;(0.42402215003967286, 0.48209618462456594);53.4805831909;1.0;;;;;;;;;;;;;;0;0;0;0;0;0;0;0;0;();(-2000.0, -2000.0);
08:47:26:125;08:47:26:102;1448480840.67;(0.42402215003967286, 0.48209618462456594);53.4805831909;1.0;;;;;;;;;;;;;;0;0;0;0;0;0;0;0;0;();(-2000.0, -2000.0);
08:47:26:128;08:47:26:102;1448480840.67;(0.42402215003967286, 0.48209618462456594);53.4805831909;1.0;;;;;;;;;;;;;;0;0;0;0;0;0;0;0;0;();(-2000.0, -2000.0);
08:47:26:130;08:47:26:102;1448480840.67;(0.42402215003967286, 0.48209618462456594);53.4805831909;1.0;;;;;;;;;;;;;;0;0;0;0;0;0;0;0;0;();(-2000.0, -2000.0);
08:47:26:131;08:47:26:102;1448480840.67;(0.42402215003967286, 0.48209618462456594);53.4805831909;1.0;;;;;;;;;;;;;;0;0;0;0;0;0;0;0;0;();(-2000.0, -2000.0);
08:47:26:134;08:47:26:102;1448480840.67;(0.42402215003967286, 0.48209618462456594);53.4805831909;1.0;;;;;;;;;;;;;;0;0;0;0;0;0;0;0;0;();(-2000.0, -2000.0);
08:47:26:136;08:47:26:102;1448480840.67;(0.42402215003967286, 0.48209618462456594);53.4805831909;1.0;;;;;;;;;;;;;;0;0;0;0;0;0;0;0;0;();(-2000.0, -2000.0);
08:47:26:138;08:47:26:102;1448480840.67;(0.42402215003967286, 0.48209618462456594);53.4805831909;1.0;;;;;;;;;;;;;;0;0;0;0;0;0;0;0;0;();(-2000.0, -2000.0);
08:47:26:140;08:47:26:102;1448480840.67;(0.42402215003967286, 0.48209618462456594);53.4805831909;1.0;;;;;;;;;;;;;;0;0;0;0;0;0;0;0;0;();(-2000.0, -2000.0);
08:47:26:141;08:47:26:102;1448480840.67;(0.42402215003967286, 0.48209618462456594);53.4805831909;1.0;;;;;;;;;;;;;;0;0;0;0;0;0;0;0;0;();(-2000.0, -2000.0);
08:47:26:144;08:47:26:102;1448480840.67;(0.42402215003967286, 0.48209618462456594);53.4805831909;1.0;;;;;;;;;;;;;;0;0;0;0;0;0;0;0;0;();(-2000.0, -2000.0);
08:47:26:146;08:47:26:102;1448480840.67;(0.42402215003967286, 0.48209618462456594);53.4805831909;1.0;;;;;;;;;;;;;;0;0;0;0;0;0;0;0;0;();(-2000.0, -2000.0);
08:47:26:148;08:47:26:102;1448480840.67;(0.42402215003967286, 0.48209618462456594);53.4805831909;1.0;;;;;;;;;;;;;;0;0;0;0;0;0;0;0;0;();(-2000.0, -2000.0);
08:47:26:150;08:47:26:102;1448480840.67;(0.42402215003967286, 0.48209618462456594);53.4805831909;1.0;;;;;;;;;;;;;;0;0;0;0;0;0;0;0;0;();(-2000.0, -2000.0);
08:47:26:154;08:47:26:154;1448480840.74;(0.4237116813659668, 0.4831433614095052);53.4210128784;1.0;;;;;;;;;;;;;;0;0;0;0;0;0;0;0;0;();(-2000.0, -2000.0);
08:47:26:158;08:47:26:154;1448480840.74;(0.4237116813659668, 0.4831433614095052);53.4210128784;1.0;;;;;;;;;;;;;;0;0;0;0;0;0;0;0;0;();(-2000.0, -2000.0);
08:47:26:173;08:47:26:154;1448480840.74;(0.4237116813659668, 0.4831433614095052);53.4210128784;1.0;;;;;;;;;;;;;;0;0;0;0;0;0;0;0;0;();(-2000.0, -2000.0);
08:47:26:206;08:47:26:154;1448480840.74;(0.4237116813659668, 0.4831433614095052);53.4210128784;1.0;;;;;;;;;;;;;;0;0;0;0;0;0;0;0;0;();(-2000.0, -2000.0);
08:47:26:223;08:47:26:213;1448480840.77;(0.4233401298522949, 0.48296750386555987);53.3588066101;1.0;;;;;;;;;;;;;;0;0;0;0;0;0;0;0;0;();(-2000.0, -2000.0);
08:47:26:240;08:47:26:213;1448480840.77;(0.4233401298522949, 0.48296750386555987);53.3588066101;1.0;;;;;;;;;;;;;;0;0;0;0;0;0;0;0;0;();(-2000.0, -2000.0);
08:47:26:256;08:47:26:213;1448480840.77;(0.4233401298522949, 0.48296750386555987);53.3588066101;1.0;;;;;;;;;;;;;;0;0;0;0;0;0;0;0;0;();(-2000.0, -2000.0);
08:47:28:353;08:47:28:305;1448480842.87;(0.3955302476882935, 0.4904065873887804);57.9771652222;1.0;;;;;;;;;;;;;;0;0;0;0;0;0;0;0;0;();(-2000.0, -2000.0);
08:47:28:356;08:47:28:305;1448480842.87;(0.3955302476882935, 0.4904065873887804);57.9771652222;1.0;;;;;;;;;;;;;;0;0;0;0;0;0;0;0;0;();(-2000.0, -2000.0);
08:47:28:358;08:47:28:305;1448480842.87;(0.3955302476882935, 0.4904065873887804);57.9771652222;1.0;;;;;;;;;;;;;;0;0;0;0;0;0;0;0;0;();(-2000.0, -2000.0);
08:47:28:359;08:47:28:305;1448480842.87;(0.3955302476882935, 0.4904065873887804);57.9771652222;1.0;;;;;;;;;;;;;;0;0;0;0;0;0;0;0;0;();(-2000.0, -2000.0);
08:47:28:363;08:47:28:361;1448480842.94;(0.39517812728881835, 0.4913029140896268);57.901309967;1.0;;;;;;;;;;;;;;0;0;0;0;0;0;0;0;0;();(-2000.0, -2000.0);
08:47:28:365;08:47:28:361;1448480842.94;(0.39517812728881835, 0.4913029140896268);57.901309967;1.0;;;;;;;;;;;;;;0;0;0;0;0;0;0;0;0;();(-2000.0, -2000.0);
08:47:28:366;08:47:28:361;1448480842.94;(0.39517812728881835, 0.4913029140896268);57.901309967;1.0;;;;;;;;;;;;;;0;0;0;0;0;0;0;0;0;();(-2000.0, -2000.0);
08:47:28:368;08:47:28:361;1448480842.94;(0.39517812728881835, 0.4913029140896268);57.901309967;1.0;;;;;;;;;;;;;;0;0;0;0;0;0;0;0;0;();(-2000.0, -2000.0);
08:47:28:369;08:47:28:361;1448480842.94;(0.39517812728881835, 0.4913029140896268);57.901309967;1.0;;;;;;;;;;;;;;0;0;0;0;0;0;0;0;0;();(-2000.0, -2000.0);
08:47:28:371;08:47:28:361;1448480842.94;(0.39517812728881835, 0.4913029140896268);57.901309967;1.0;;;;;;;;;;;;;;0;0;0;0;0;0;0;0;0;();(-2000.0, -2000.0);
08:47:28:373;08:47:28:361;1448480842.94;(0.39517812728881835, 0.4913029140896268);57.901309967;1.0;;;;;;;;;;;;;;0;0;0;0;0;0;0;0;0;();(-2000.0, -2000.0);
08:47:28:374;08:47:28:361;1448480842.94;(0.39517812728881835, 0.4913029140896268);57.901309967;1.0;;;;;;;;;;;;;;0;0;0;0;0;0;0;0;0;();(-2000.0, -2000.0);
08:47:28:376;08:47:28:361;1448480842.94;(0.39517812728881835, 0.4913029140896268);57.901309967;1.0;;;;;;;;;;;;;;0;0;0;0;0;0;0;0;0;();(-2000.0, -2000.0);
08:47:28:377;08:47:28:361;1448480842.94;(0.39517812728881835, 0.4913029140896268);57.901309967;1.0;;;;;;;;;;;;;;0;0;0;0;0;0;0;0;0;();(-2000.0, -2000.0);
08:47:28:378;08:47:28:361;1448480842.94;(0.39517812728881835, 0.4913029140896268);57.901309967;1.0;;;;;;;;;;;;;;0;0;0;0;0;0;0;0;0;();(-2000.0, -2000.0);
08:47:28:379;08:47:28:361;1448480842.94;(0.39517812728881835, 0.4913029140896268);57.901309967;1.0;;;;;;;;;;;;;;0;0;0;0;0;0;0;0;0;();(-2000.0, -2000.0);
08:47:28:381;08:47:28:361;1448480842.94;(0.39517812728881835, 0.4913029140896268);57.901309967;1.0;;;;;;;;;;;;;;0;0;0;0;0;0;0;0;0;();(-2000.0, -2000.0);
08:47:28:383;08:47:28:361;1448480842.94;(0.39517812728881835, 0.4913029140896268);57.901309967;1.0;;;;;;;;;;;;;;0;0;0;0;0;0;0;0;0;();(-2000.0, -2000.0);
08:47:28:402;08:47:28:361;1448480842.94;(0.39517812728881835, 0.4913029140896268);57.901309967;1.0;;;;;;;;;;;;;;0;0;0;0;0;0;0;0;0;();(-2000.0, -2000.0);
08:47:28:419;08:47:28:361;1448480842.94;(0.39517812728881835, 0.4913029140896268);57.901309967;1.0;;;;;;;;;;;;;;0;0;0;0;0;0;0;0;0;();(-2000.0, -2000.0);
08:47:28:454;08:47:28:422;1448480843.01;(0.6098903179168701, 0.43493304782443576);28.0811901093;0.689428569503;;;;;;;;;;;;;;0;0;0;0;0;0;0;0;0;();(-2000.0, -2000.0);
08:47:28:456;08:47:28:422;1448480843.01;(0.6098903179168701, 0.43493304782443576);28.0811901093;0.689428569503;;;;;;;;;;;;;;0;0;0;0;0;0;0;0;0;();(-2000.0, -2000.0);
08:47:28:499;08:47:28:477;1448480843.07;(0.28942954540252686, 0.4083399878607856);22.9166679382;0.842135608227;;;;;;;;;;;;;;0;0;0;0;0;0;0;0;0;();(-2000.0, -2000.0);
08:47:28:502;08:47:28:477;1448480843.07;(0.28942954540252686, 0.4083399878607856);22.9166679382;0.842135608227;;;;;;;;;;;;;;0;0;0;0;0;0;0;0;0;();(-2000.0, -2000.0);
08:47:28:520;08:47:28:477;1448480843.07;(0.28942954540252686, 0.4083399878607856);22.9166679382;0.842135608227;;;;;;;;;;;;;;0;0;0;0;0;0;0;0;0;();(-2000.0, -2000.0);
08:47:28:536;08:47:28:477;1448480843.07;(0.28942954540252686, 0.4083399878607856);22.9166679382;0.842135608227;;;;;;;;;;;;;;0;0;0;0;0;0;0;0;0;();(-2000.0, -2000.0);
08:47:28:554;08:47:28:537;1448480843.11;(0.4494602680206299, 0.48382042778862844);46.9666633606;0.622148724699;;;;;;;;;;;;;;0;0;0;0;0;0;0;0;0;();(-2000.0, -2000.0);
08:47:28:587;08:47:28:537;1448480843.11;(0.4494602680206299, 0.48382042778862844);46.9666633606;0.622148724699;;;;;;;;;;;;;;0;0;0;0;0;0;0;0;0;();(-2000.0, -2000.0);
08:47:28:605;08:47:28:593;1448480843.17;(0.4460390567779541, 0.5050582038031683);54.2736549377;1.0;;;;;;;;;;;;;;0;0;0;0;0;0;0;0;0;();(-2000.0, -2000.0);
08:47:28:620;08:47:28:593;1448480843.17;(0.4460390567779541, 0.5050582038031683);54.2736549377;1.0;;;;;;;;;;;;;;0;0;0;0;0;0;0;0;0;();(-2000.0, -2000.0);
08:47:28:637;08:47:28:593;1448480843.17;(0.4460390567779541, 0.5050582038031683);54.2736549377;1.0;;;;;;;;;;;;;;0;0;0;0;0;0;0;0;0;();(-2000.0, -2000.0);
08:47:28:654;08:47:28:653;1448480843.24;(0.4459993362426758, 0.5065256330702039);54.8834953308;1.0;;;;;;;;;;;;;;0;0;0;0;0;0;0;0;0;();(-2000.0, -2000.0);
08:47:28:687;08:47:28:653;1448480843.24;(0.4459993362426758, 0.5065256330702039);54.8834953308;1.0;;;;;;;;;;;;;;0;0;0;0;0;0;0;0;0;();(-2000.0, -2000.0);
08:47:28:704;08:47:28:653;1448480843.24;(0.4459993362426758, 0.5065256330702039);54.8834953308;1.0;;;;;;;;;;;;;;0;0;0;0;0;0;0;0;0;();(-2000.0, -2000.0);
08:47:28:721;08:47:28:709;1448480843.31;(0.44655675888061525, 0.5055566999647352);54.975063324;1.0;;;;;;;;;;;;;;0;0;0;0;0;0;0;0;0;();(-2000.0, -2000.0);
08:47:28:737;08:47:28:709;1448480843.31;(0.44655675888061525, 0.5055566999647352);54.975063324;1.0;;;;;;;;;;;;;;0;0;0;0;0;0;0;0;0;();(-2000.0, -2000.0);
08:47:28:754;08:47:28:709;1448480843.31;(0.44655675888061525, 0.5055566999647352);54.975063324;1.0;;;;;;;;;;;;;;0;0;0;0;0;0;0;0;0;();(-2000.0, -2000.0);
08:47:28:789;08:47:28:770;1448480843.37;(0.4480109691619873, 0.5038065592447917);55.1071014404;1.0;;;;;;;;;;;;;;0;0;0;0;0;0;0;0;0;();(-2000.0, -2000.0);
08:47:28:805;08:47:28:770;1448480843.37;(0.4480109691619873, 0.5038065592447917);55.1071014404;1.0;;;;;;;;;;;;;;0;0;0;0;0;0;0;0;0;();(-2000.0, -2000.0);
08:47:28:821;08:47:28:770;1448480843.37;(0.4480109691619873, 0.5038065592447917);55.1071014404;1.0;;;;;;;;;;;;;;0;0;0;0;0;0;0;0;0;();(-2000.0, -2000.0);
08:47:28:839;08:47:28:825;1448480843.41;(0.4687657356262207, 0.47872339884440107);54.3089141846;1.0;;;;;;;;;;;;;;0;0;0;0;0;0;0;0;0;();(-2000.0, -2000.0);
08:47:28:855;08:47:28:825;1448480843.41;(0.4687657356262207, 0.47872339884440107);54.3089141846;1.0;;;;;;;;;;;;;;0;0;0;0;0;0;0;0;0;();(-2000.0, -2000.0);
08:47:28:873;08:47:28:825;1448480843.41;(0.4687657356262207, 0.47872339884440107);54.3089141846;1.0;;;;;;;;;;;;;;0;0;0;0;0;0;0;0;0;();(-2000.0, -2000.0);
08:47:28:905;08:47:28:885;1448480843.47;(0.4677887439727783, 0.48103675842285154);54.2897758484;1.0;;;;;;;;;;;;;;0;0;0;0;0;0;0;0;0;();(-2000.0, -2000.0);
08:47:28:922;08:47:28:885;1448480843.47;(0.4677887439727783, 0.48103675842285154);54.2897758484;1.0;;;;;;;;;;;;;;0;0;0;0;0;0;0;0;0;();(-2000.0, -2000.0);
08:47:28:939;08:47:28:885;1448480843.47;(0.4677887439727783, 0.48103675842285154);54.2897758484;1.0;;;;;;;;;;;;;;0;0;0;0;0;0;0;0;0;();(-2000.0, -2000.0);
08:47:28:955;08:47:28:941;1448480843.54;(0.4679617404937744, 0.48195898267957904);54.656993866;1.0;;;;;;;;;;;;;;0;0;0;0;0;0;0;0;0;();(-2000.0, -2000.0);
08:47:28:972;08:47:28:941;1448480843.54;(0.4679617404937744, 0.48195898267957904);54.656993866;1.0;;;;;;;;;;;;;;0;0;0;0;0;0;0;0;0;();(-2000.0, -2000.0);
08:47:29:006;08:47:29:001;1448480843.57;(0.4680448055267334, 0.481357913547092);54.8453941345;1.0;;;;;;;;;;;;;;0;0;0;0;0;0;0;0;0;();(-2000.0, -2000.0);
08:47:29:022;08:47:29:001;1448480843.57;(0.4680448055267334, 0.481357913547092);54.8453941345;1.0;;;;;;;;;;;;;;0;0;0;0;0;0;0;0;0;();(-2000.0, -2000.0);
08:47:29:570;08:47:29:526;1448480844.11;(0.3904707670211792, 0.5322940826416016);22.8690128326;0.629619676017;08:47:29:568;0;10;-1.5;1.85662431941924;1.17302052785924;0;0;0;1;1;1;1;0;0;0;0;0;0;0;0;0;();(-2000.0, -2000.0);
08:47:29:573;08:47:29:526;1448480844.11;(0.3904707670211792, 0.5322940826416016);22.8690128326;0.629619676017;08:47:29:573;0;4;-1.5;2.44152744630072;1.85728250244379;0;0;0;1;1;1;1;0;0;0;0;0;0;0;0;0;();(-2000.0, -2000.0);
08:47:29:574;08:47:29:526;1448480844.11;(0.3904707670211792, 0.5322940826416016);22.8690128326;0.629619676017;08:47:29:574;0;4;-1.5;2.44152744630072;1.85728250244379;0;0;0;1;1;1;1;0;0;0;0;0;0;0;0;0;();(-2000.0, -2000.0);
08:47:29:576;08:47:29:526;1448480844.11;(0.3904707670211792, 0.5322940826416016);22.8690128326;0.629619676017;08:47:29:576;0;4;-1.5;2.44152744630072;1.85728250244379;0;0;0;1;1;1;1;0;0;0;0;0;0;0;0;0;();(-2000.0, -2000.0);
08:47:29:578;08:47:29:526;1448480844.11;(0.3904707670211792, 0.5322940826416016);22.8690128326;0.629619676017;08:47:29:578;0;4;-1.5;2.44152744630072;1.85728250244379;0;0;0;1;1;1;1;0;0;0;0;0;0;0;0;0;();(-2000.0, -2000.0);
08:47:29:579;08:47:29:526;1448480844.11;(0.3904707670211792, 0.5322940826416016);22.8690128326;0.629619676017;08:47:29:579;0;4;-1.5;2.44152744630072;1.85728250244379;0;0;0;1;1;1;1;0;0;0;0;0;0;0;0;0;();(-2000.0, -2000.0);
08:47:29:580;08:47:29:526;1448480844.11;(0.3904707670211792, 0.5322940826416016);22.8690128326;0.629619676017;08:47:29:580;0;4;-1.5;2.44152744630072;1.85728250244379;0;0;0;1;1;1;1;0;0;0;0;0;0;0;0;0;();(-2000.0, -2000.0);
08:47:29:581;08:47:29:526;1448480844.11;(0.3904707670211792, 0.5322940826416016);22.8690128326;0.629619676017;08:47:29:581;0;4;-1.5;2.44152744630072;1.85728250244379;0;0;0;1;1;1;1;0;0;0;0;0;0;0;0;0;();(-2000.0, -2000.0);
08:47:29:584;08:47:29:582;1448480844.17;(0.3953755617141724, 0.5776955498589409);53.4909629822;1.0;08:47:29:584;0;4;-1.5;2.44152744630072;1.85728250244379;0;0;0;1;1;1;1;0;0;0;0;0;0;0;0;0;();(-2000.0, -2000.0);
08:47:29:585;08:47:29:582;1448480844.17;(0.3953755617141724, 0.5776955498589409);53.4909629822;1.0;08:47:29:585;0;4;-1.5;2.44152744630072;1.85728250244379;0;0;0;1;1;1;1;0;0;0;0;0;0;0;0;0;();(-2000.0, -2000.0);
08:47:29:586;08:47:29:582;1448480844.17;(0.3953755617141724, 0.5776955498589409);53.4909629822;1.0;08:47:29:586;0;0;-1.5;1.75471698113208;1.17302052785924;0;0;0;1;1;1;1;0;0;0;0;0;0;0;0;0;();(-2000.0, -2000.0);
08:47:29:588;08:47:29:582;1448480844.17;(0.3953755617141724, 0.5776955498589409);53.4909629822;1.0;08:47:29:588;0;0;-1.5;1.75471698113208;1.17302052785924;0;0;0;1;1;1;1;0;0;0;0;0;0;0;0;0;();(-2000.0, -2000.0);
08:47:29:589;08:47:29:582;1448480844.17;(0.3953755617141724, 0.5776955498589409);53.4909629822;1.0;08:47:29:589;0;0;-1.5;1.75471698113208;1.17302052785924;0;0;0;1;1;1;1;0;0;0;0;0;0;0;0;0;();(-2000.0, -2000.0);
08:47:29:590;08:47:29:582;1448480844.17;(0.3953755617141724, 0.5776955498589409);53.4909629822;1.0;08:47:29:590;0;9;-1.5;3.08132530120482;2.44379276637341;0;0;0;1;1;1;1;0;0;0;0;0;0;0;0;0;();(-2000.0, -2000.0);
08:47:29:591;08:47:29:582;1448480844.17;(0.3953755617141724, 0.5776955498589409);53.4909629822;1.0;08:47:29:591;0;9;-1.5;3.08132530120482;2.44379276637341;0;0;0;1;1;1;1;0;0;0;0;0;0;0;0;0;();(-2000.0, -2000.0);
08:47:29:593;08:47:29:582;1448480844.17;(0.3953755617141724, 0.5776955498589409);53.4909629822;1.0;08:47:29:593;0;9;-1.5;3.08132530120482;2.44379276637341;0;0;0;1;1;1;1;0;0;0;0;0;0;0;0;0;();(-2000.0, -2000.0);
08:47:29:594;08:47:29:582;1448480844.17;(0.3953755617141724, 0.5776955498589409);53.4909629822;1.0;08:47:29:594;0;9;-1.5;3.08132530120482;2.44379276637341;0;0;0;1;1;1;1;0;0;0;0;0;0;0;0;0;();(-2000.0, -2000.0);
08:47:29:596;08:47:29:582;1448480844.17;(0.3953755617141724, 0.5776955498589409);53.4909629822;1.0;08:47:29:596;0;9;-1.5;3.08132530120482;2.44379276637341;0;0;0;1;1;1;1;0;0;0;0;0;0;0;0;0;();(-2000.0, -2000.0);
08:47:29:627;08:47:29:582;1448480844.17;(0.3953755617141724, 0.5776955498589409);53.4909629822;1.0;08:47:29:627;0;15;-1.5;2.96521739130435;2.73704789833822;0;0;0;1;1;1;1;0;0;0;0;0;0;0;0;0;();(-2000.0, -2000.0);
08:47:29:630;08:47:29:582;1448480844.17;(0.3953755617141724, 0.5776955498589409);53.4909629822;1.0;08:47:29:630;0;15;-1.5;2.96521739130435;2.73704789833822;0;0;0;1;1;1;1;0;0;0;0;0;0;0;0;0;();(-2000.0, -2000.0);
08:47:29:645;08:47:29:642;1448480844.24;(0.4012199878692627, 0.5784339057074652);54.1372184753;1.0;08:47:29:645;0;10;-1.5;1.705;0.879765395894428;0;0;0;1;1;1;1;0;0;0;0;0;0;0;0;0;();(-2000.0, -2000.0);
08:47:29:678;08:47:29:642;1448480844.24;(0.4012199878692627, 0.5784339057074652);54.1372184753;1.0;08:47:29:678;0;4;-1.5;1.93383742911153;1.46627565982405;0;0;0;1;1;1;1;0;0;0;0;0;0;0;0;0;();(-2000.0, -2000.0);
08:47:29:694;08:47:29:642;1448480844.24;(0.4012199878692627, 0.5784339057074652);54.1372184753;1.0;08:47:29:694;0;10;-1.5;2.0297619047619;1.46627565982405;0;0;0;1;1;1;1;0;0;0;0;0;0;0;0;0;();(-2000.0, -2000.0);
08:47:29:711;08:47:29:698;1448480844.27;(0.40138859748840333, 0.5789688958062066);54.3442993164;1.0;08:47:29:711;0;9;-1.5;1.5618320610687;0.879765395894428;0;0;0;1;1;1;1;0;0;0;0;0;0;0;0;0;();(-2000.0, -2000.0);
08:47:29:728;08:47:29:698;1448480844.27;(0.40138859748840333, 0.5789688958062066);54.3442993164;1.0;08:47:29:728;0;13;-1.5;1.54066265060241;0.684261974584555;0;0;0;1;1;1;1;0;0;0;0;0;0;0;0;0;();(-2000.0, -2000.0);
08:47:29:747;08:47:29:698;1448480844.27;(0.40138859748840333, 0.5789688958062066);54.3442993164;1.0;08:47:29:746;0;4;-1.5;2.1006160164271;1.46627565982405;0;0;0;1;1;1;1;0;0;0;0;0;0;0;0;0;();(-2000.0, -2000.0);
08:47:29:778;08:47:29:758;1448480844.34;(0.40222907066345215, 0.5786860571967232);54.1294898987;1.0;08:47:29:778;0;15;-1.5;3.46779661016949;3.2258064516129;0;0;0;1;1;1;1;0;0;0;0;0;0;0;0;0;();(-2000.0, -2000.0);
08:47:29:795;08:47:29:758;1448480844.34;(0.40222907066345215, 0.5786860571967232);54.1294898987;1.0;08:47:29:795;0;10;-1.5;1.63942307692308;0.684261974584555;0;0;0;1;1;1;1;0;0;0;0;0;0;0;0;0;();(-2000.0, -2000.0);
08:47:29:812;08:47:29:758;1448480844.34;(0.40222907066345215, 0.5786860571967232);54.1294898987;1.0;08:47:29:812;0;15;-1.5;1.73389830508475;1.17302052785924;0;0;0;1;1;1;1;0;0;0;0;0;0;0;0;0;();(-2000.0, -2000.0);
08:47:29:828;08:47:29:814;1448480844.41;(0.40277235507965087, 0.5788770039876302);54.0283088684;1.0;08:47:29:828;0;10;-1.5;2.55112219451372;2.73704789833822;0;0;0;1;1;1;1;0;0;0;0;0;0;0;0;0;();(-2000.0, -2000.0);
08:47:29:845;08:47:29:814;1448480844.41;(0.40277235507965087, 0.5788770039876302);54.0283088684;1.0;08:47:29:845;0;0;-1.5;2.46506024096386;1.85728250244379;0;0;0;1;1;1;1;0;0;0;0;0;0;0;0;0;();(-2000.0, -2000.0);
08:47:29:879;08:47:29:875;1448480844.47;(0.40332982540130613, 0.5803208245171441);53.8855857849;1.0;08:47:29:879;0;15;-1.5;2.72074468085106;2.44379276637341;0;0;0;1;1;1;1;0;0;0;0;0;0;0;0;0;();(-2000.0, -2000.0);
08:47:29:896;08:47:29:875;1448480844.47;(0.40332982540130613, 0.5803208245171441);53.8855857849;1.0;08:47:29:896;0;4;-1.5;2.57035175879397;1.85728250244379;0;0;0;1;1;1;1;0;0;0;0;0;0;0;0;0;();(-2000.0, -2000.0);
08:47:29:912;08:47:29:875;1448480844.47;(0.40332982540130613, 0.5803208245171441);53.8855857849;1.0;08:47:29:912;0;9;-1.5;2.90625;2.34604105571848;0;0;0;1;1;1;1;0;0;0;0;0;0;0;0;0;();(-2000.0, -2000.0);
08:47:29:930;08:47:29:930;1448480844.51;(0.40359225273132326, 0.5814681159125434);53.9661216736;1.0;08:47:29:930;0;4;-1.5;1.73096446700508;1.17302052785924;0;0;0;1;1;1;1;0;0;0;0;0;0;0;0;0;();(-2000.0, -2000.0);
08:47:29:946;08:47:29:930;1448480844.51;(0.40359225273132326, 0.5814681159125434);53.9661216736;1.0;08:47:29:946;0;15;-1.5;3.46779661016949;2.93255131964809;0;0;0;1;1;1;1;0;0;0;0;0;0;0;0;0;();(-2000.0, -2000.0);
08:47:29:963;08:47:29:930;1448480844.51;(0.40359225273132326, 0.5814681159125434);53.9661216736;1.0;08:47:29:963;0;4;-1.5;3.56445993031359;2.93255131964809;0;0;0;1;1;1;1;0;0;0;0;0;0;0;0;0;();(-2000.0, -2000.0);
08:47:29:996;08:47:29:989;1448480844.54;(0.4040019750595093, 0.5814175923665365);54.3857498169;1.0;08:47:29:996;0;5;-1.5;2.0625;1.46627565982405;0;0;0;1;1;1;1;0;0;0;0;0;0;0;0;0;();(-2000.0, -2000.0);
08:47:30:013;08:47:29:989;1448480844.54;(0.4040019750595093, 0.5814175923665365);54.3857498169;1.0;08:47:30:013;0;10;-1.5;1.95229007633588;1.36852394916911;0;0;0;1;1;1;1;0;0;0;0;0;0;0;0;0;();(-2000.0, -2000.0);
08:47:30:031;08:47:29:989;1448480844.54;(0.4040019750595093, 0.5814175923665365);54.3857498169;1.0;08:47:30:031;0;4;-1.5;2.1006160164271;1.46627565982405;0;0;0;1;1;1;1;0;0;0;0;0;0;0;0;0;();(-2000.0, -2000.0);
08:47:30:046;08:47:30:046;1448480844.57;(0.4061815500259399, 0.5604879591200087);54.9448013306;0.925086432382;08:47:30:046;0;10;-1.5;1.85662431941924;1.17302052785924;0;0;0;1;1;1;1;0;0;0;0;0;0;0;0;0;();(-2000.0, -2000.0);
08:47:30:063;08:47:30:046;1448480844.57;(0.4061815500259399, 0.5604879591200087);54.9448013306;0.925086432382;08:47:30:063;0;4;-1.5;2.40705882352941;1.85728250244379;0;0;0;1;1;1;1;0;0;0;0;0;0;0;0;0;();(-2000.0, -2000.0);
08:47:30:097;08:47:30:046;1448480844.57;(0.4061815500259399, 0.5604879591200087);54.9448013306;0.925086432382;08:47:30:097;0;5;-1.5;1.76683937823834;1.17302052785924;0;0;0;1;1;1;1;0;0;0;0;0;0;0;0;0;();(-2000.0, -2000.0);
08:47:30:113;08:47:30:106;1448480844.71;(0.42526404857635497, 0.4826207054985894);54.9704971313;1.0;08:47:30:113;0;10;-1.5;1.66341463414634;0.879765395894428;0;0;0;1;1;1;1;0;0;0;0;0;0;0;0;0;();(-2000.0, -2000.0);
08:47:30:130;08:47:30:106;1448480844.71;(0.42526404857635497, 0.4826207054985894);54.9704971313;1.0;08:47:30:130;0;15;-1.5;1.68256578947368;1.17302052785924;0;0;0;1;1;1;1;0;0;0;0;0;0;0;0;0;();(-2000.0, -2000.0);
08:47:30:148;08:47:30:106;1448480844.71;(0.42526404857635497, 0.4826207054985894);54.9704971313;1.0;08:47:30:148;0;9;-1.5;2.88169014084507;2.34604105571848;0;0;0;1;1;1;1;0;0;0;0;0;0;0;0;0;();(-2000.0, -2000.0);
08:47:30:165;08:47:30:162;1448480844.74;(0.42482073307037355, 0.4827898237440321);55.1150856018;1.0;08:47:30:165;0;0;-1.5;2.0625;1.46627565982405;0;0;0;1;1;1;1;0;0;0;0;0;0;0;0;0;();(-2000.0, -2000.0);
08:47:30:197;08:47:30:162;1448480844.74;(0.42482073307037355, 0.4827898237440321);55.1150856018;1.0;08:47:30:197;0;15;-1.5;2.55112219451372;1.85728250244379;0;0;0;1;1;1;1;0;0;0;0;0;0;0;0;0;();(-2000.0, -2000.0);
08:47:30:215;08:47:30:162;1448480844.74;(0.42482073307037355, 0.4827898237440321);55.1150856018;1.0;08:47:30:215;0;4;-1.5;2.6640625;2.1505376344086;0;0;0;1;1;1;1;0;0;0;0;0;0;0;0;0;();(-2000.0, -2000.0);
08:47:30:231;08:47:30:222;1448480844.81;(0.42528083324432375, 0.4802119361029731);55.5616950989;0.921451392255;08:47:30:231;0;9;-1.5;2.6640625;2.73704789833822;0;0;0;1;1;1;1;0;0;0;0;0;0;0;0;0;();(-2000.0, -2000.0);
08:47:30:248;08:47:30:222;1448480844.81;(0.42528083324432375, 0.4802119361029731);55.5616950989;0.921451392255;08:47:30:248;0;5;-1.5;1.66341463414634;0.879765395894428;0;0;0;1;1;1;1;0;0;0;0;0;0;0;0;0;();(-2000.0, -2000.0);
08:47:30:264;08:47:30:222;1448480844.81;(0.42528083324432375, 0.4802119361029731);55.5616950989;0.921451392255;08:47:30:264;0;15;-1.5;3.33224755700326;2.73704789833822;0;0;0;1;1;1;1;0;0;0;0;0;0;0;0;0;();(-2000.0, -2000.0);
08:47:30:298;08:47:30:278;1448480844.87;(0.42518932819366456, 0.4785897148980035);55.2112693787;1.0;08:47:30:298;0;10;-1.5;2.30405405405405;1.85728250244379;0;0;0;1;1;1;1;0;0;0;0;0;0;0;0;0;();(-2000.0, -2000.0);
08:47:30:315;08:47:30:278;1448480844.87;(0.42518932819366456, 0.4785897148980035);55.2112693787;1.0;08:47:30:315;0;4;-1.5;1.64469453376206;0.684261974584555;0;0;0;1;1;1;1;0;0;0;0;0;0;0;0;0;();(-2000.0, -2000.0);
08:47:30:331;08:47:30:278;1448480844.87;(0.42518932819366456, 0.4785897148980035);55.2112693787;1.0;08:47:30:331;0;10;-1.5;2.02574257425743;1.46627565982405;0;0;0;1;1;1;1;0;0;0;0;0;0;0;0;0;();(-2000.0, -2000.0);
08:47:30:348;08:47:30:338;1448480844.91;(0.4248590230941772, 0.47861298455132384);55.0939712524;1.0;08:47:30:348;0;5;-1.5;1.90858208955224;1.17302052785924;0;0;0;1;1;1;1;0;0;0;0;0;0;0;0;0;();(-2000.0, -2000.0);
08:47:30:365;08:47:30:338;1448480844.91;(0.4248590230941772, 0.47861298455132384);55.0939712524;1.0;08:47:30:365;0;10;-1.5;1.77913043478261;1.36852394916911;0;0;0;1;1;1;1;0;0;0;0;0;0;0;0;0;();(-2000.0, -2000.0);
08:47:30:399;08:47:30:394;1448480844.97;(0.42451179027557373, 0.4774644215901692);55.0070266724;1.0;08:47:30:399;0;9;-1.5;2.88169014084507;2.34604105571848;0;0;0;1;1;1;1;0;0;0;0;0;0;0;0;0;();(-2000.0, -2000.0);
08:47:30:415;08:47:30:394;1448480844.97;(0.42451179027557373, 0.4774644215901692);55.0070266724;1.0;08:47:30:415;0;5;-1.5;1.55235204855842;0.879765395894428;0;0;0;1;1;1;1;0;0;0;0;0;0;0;0;0;();(-2000.0, -2000.0);
08:47:30:432;08:47:30:394;1448480844.97;(0.42451179027557373, 0.4774644215901692);55.0070266724;1.0;08:47:30:432;0;10;-1.5;1.48691860465116;0.684261974584555;0;0;0;1;1;1;1;0;0;0;0;0;0;0;0;0;();(-2000.0, -2000.0);
08:47:30:449;08:47:30:394;1448480844.97;(0.42451179027557373, 0.4774644215901692);55.0070266724;1.0;08:47:30:449;0;15;-1.5;1.34605263157895;0.391006842619746;0;0;0;1;1;1;1;0;0;0;0;0;0;0;0;0;();(-2000.0, -2000.0);
08:47:30:466;08:47:30:454;1448480845.04;(0.4243809938430786, 0.4769505818684896);54.8109283447;1.0;08:47:30:466;0;4;-1.5;1.75471698113208;1.17302052785924;0;0;0;1;1;1;1;0;0;0;0;0;0;0;0;0;();(-2000.0, -2000.0);
08:47:30:499;08:47:30:454;1448480845.04;(0.4243809938430786, 0.4769505818684896);54.8109283447;1.0;08:47:30:499;0;5;-1.5;1.95229007633588;1.36852394916911;0;0;0;1;1;1;1;0;0;0;0;0;0;0;0;0;();(-2000.0, -2000.0);
08:47:30:516;08:47:30:510;1448480845.11;(0.42441134452819823, 0.4796234130859375);54.3845367432;1.0;08:47:30:516;0;15;-1.5;2.72074468085106;2.34604105571848;0;0;0;1;1;1;1;0;0;0;0;0;0;0;0;0;();(-2000.0, -2000.0);
08:47:30:533;08:47:30:510;1448480845.11;(0.42441134452819823, 0.4796234130859375);54.3845367432;1.0;08:47:30:533;0;9;-1.5;2.07926829268293;1.46627565982405;0;0;0;1;1;1;1;0;0;0;0;0;0;0;0;0;();(-2000.0, -2000.0);
08:47:30:549;08:47:30:510;1448480845.11;(0.42441134452819823, 0.4796234130859375);54.3845367432;1.0;08:47:30:549;0;15;-1.5;1.69370860927152;0.879765395894428;0;0;0;1;1;1;1;0;0;0;0;0;0;0;0;0;();(-2000.0, -2000.0);
08:47:30:566;08:47:30:510;1448480845.11;(0.42441134452819823, 0.4796234130859375);54.3845367432;1.0;08:47:30:566;0;5;-1.5;1.73979591836735;1.46627565982405;0;0;0;1;1;1;1;0;0;0;0;0;0;0;0;0;();(-2000.0, -2000.0);
08:47:30:584;08:47:30:570;1448480845.17;(0.4241731882095337, 0.47991171942816835);53.8441123962;1.0;08:47:30:584;0;10;-1.5;1.73096446700508;1.17302052785924;0;0;0;1;1;1;1;0;0;0;0;0;0;0;0;0;();(-2000.0, -2000.0);
08:47:30:617;08:47:30:570;1448480845.17;(0.4241731882095337, 0.47991171942816835);53.8441123962;1.0;08:47:30:617;0;10;-1.5;2.57035175879397;1.85728250244379;0;0;0;1;1;1;1;0;0;0;0;0;0;0;0;0;();(-2000.0, -2000.0);
08:47:30:633;08:47:30:626;1448480845.21;(0.42388813495635985, 0.4793958452012804);53.5591468811;1.0;08:47:30:633;0;4;-1.5;1.69370860927152;0.879765395894428;0;0;0;1;1;1;1;0;0;0;0;0;0;0;0;0;();(-2000.0, -2000.0);
08:47:30:650;08:47:30:626;1448480845.21;(0.42388813495635985, 0.4793958452012804);53.5591468811;1.0;08:47:30:650;0;0;-1.5;2.22391304347826;1.85728250244379;0;0;0;1;1;1;1;0;0;0;0;0;0;0;0;0;();(-2000.0, -2000.0);
08:47:30:667;08:47:30:626;1448480845.21;(0.42388813495635985, 0.4793958452012804);53.5591468811;1.0;08:47:30:667;0;4;-1.5;1.89444444444444;1.36852394916911;0;0;0;1;1;1;1;0;0;0;0;0;0;0;0;0;();(-2000.0, -2000.0);
08:47:30:684;08:47:30:626;1448480845.21;(0.42388813495635985, 0.4793958452012804);53.5591468811;1.0;08:47:30:684;0;9;-1.5;1.86;1.46627565982405;0;0;0;1;1;1;1;0;0;0;0;0;0;0;0;0;();(-2000.0, -2000.0);
08:47:30:717;08:47:30:686;1448480845.27;(0.42409262657165525, 0.4791976081000434);52.8636474609;1.0;08:47:30:717;0;9;-1.5;2.35172413793103;1.66177908113392;0;0;0;1;1;1;1;0;0;0;0;0;0;0;0;0;();(-2000.0, -2000.0);
08:47:30:734;08:47:30:686;1448480845.27;(0.42409262657165525, 0.4791976081000434);52.8636474609;1.0;08:47:30:734;0;5;-1.5;1.48691860465116;0.879765395894428;0;0;0;1;1;1;1;0;0;0;0;0;0;0;0;0;();(-2000.0, -2000.0);
08:47:30:752;08:47:30:746;1448480845.34;(0.42422640323638916, 0.47793070475260413);52.2268371582;1.0;08:47:30:752;0;10;-1.5;1.67980295566502;0.879765395894428;0;0;0;1;1;1;1;0;0;0;0;0;0;0;0;0;();(-2000.0, -2000.0);
08:47:30:768;08:47:30:746;1448480845.34;(0.42422640323638916, 0.47793070475260413);52.2268371582;1.0;08:47:30:768;0;15;-1.5;1.54066265060241;0.879765395894428;0;0;0;1;1;1;1;0;0;0;0;0;0;0;0;0;();(-2000.0, -2000.0);
08:47:30:784;08:47:30:746;1448480845.34;(0.42422640323638916, 0.47793070475260413);52.2268371582;1.0;08:47:30:784;0;10;-1.5;2.62307692307692;2.34604105571848;0;0;0;1;1;1;1;0;0;0;0;0;0;0;0;0;();(-2000.0, -2000.0);
08:47:30:818;08:47:30:746;1448480845.34;(0.42422640323638916, 0.47793070475260413);52.2268371582;1.0;08:47:30:818;0;10;-1.5;2.28348214285714;1.85728250244379;0;0;0;1;1;1;1;0;0;0;0;0;0;0;0;0;();(-2000.0, -2000.0);
08:47:30:835;08:47:30:746;1448480845.34;(0.42422640323638916, 0.47793070475260413);52.2268371582;1.0;08:47:30:835;0;15;-1.5;2.46506024096386;2.24828934506354;0;0;0;1;1;1;1;0;0;0;0;0;0;0;0;0;();(-2000.0, -2000.0);
08:47:30:851;08:47:30:746;1448480845.34;(0.42422640323638916, 0.47793070475260413);52.2268371582;1.0;08:47:30:851;0;10;-1.5;1.86;1.46627565982405;0;0;0;1;1;1;1;0;0;0;0;0;0;0;0;0;();(-2000.0, -2000.0);
08:47:30:868;08:47:30:862;1448480845.37;(0.4151993989944458, 0.48475329081217444);56.2516365051;0.914581097998;08:47:30:868;0;15;-1.5;1.85662431941924;1.17302052785924;0;0;0;1;1;1;1;0;0;0;0;0;0;0;0;0;();(-2000.0, -2000.0);
08:47:30:886;08:47:30:862;1448480845.37;(0.4151993989944458, 0.48475329081217444);56.2516365051;0.914581097998;08:47:30:886;0;5;-1.5;1.80105633802817;1.17302052785924;0;0;0;1;1;1;1;0;0;0;0;0;0;0;0;0;();(-2000.0, -2000.0);
08:47:30:918;08:47:30:918;1448480845.47;(0.37223186492919924, 0.5511341518825955);52.3783798218;1.0;08:47:30:918;0;5;-1.5;1.80105633802817;1.17302052785924;0;0;0;1;1;1;1;0;0;0;0;0;0;0;0;0;();(-2000.0, -2000.0);
08:47:30:935;08:47:30:918;1448480845.47;(0.37223186492919924, 0.5511341518825955);52.3783798218;1.0;08:47:30:935;0;10;-1.5;2.65714285714286;2.1505376344086;0;0;0;1;1;1;1;0;0;0;0;0;0;0;0;0;();(-2000.0, -2000.0);
08:47:30:952;08:47:30:918;1448480845.47;(0.37223186492919924, 0.5511341518825955);52.3783798218;1.0;08:47:30:952;0;4;-1.5;1.94117647058824;1.36852394916911;0;0;0;1;1;1;1;0;0;0;0;0;0;0;0;0;();(-2000.0, -2000.0);
08:47:30:969;08:47:30:918;1448480845.47;(0.37223186492919924, 0.5511341518825955);52.3783798218;1.0;08:47:30:969;0;10;-1.5;2.50735294117647;1.85728250244379;0;0;0;1;1;1;1;0;0;0;0;0;0;0;0;0;();(-2000.0, -2000.0);
08:47:30:985;08:47:30:978;1448480845.57;(0.37125577926635744, 0.5525928073459201);52.4012985229;1.0;08:47:30:985;0;5;-1.5;1.98640776699029;1.46627565982405;0;0;0;1;1;1;1;0;0;0;0;0;0;0;0;0;();(-2000.0, -2000.0);
08:47:31:019;08:47:30:978;1448480845.57;(0.37125577926635744, 0.5525928073459201);52.4012985229;1.0;08:47:31:019;0;9;-1.5;2.13125;1.46627565982405;0;0;0;1;1;1;1;0;0;0;0;0;0;0;0;0;();(-2000.0, -2000.0);
08:47:31:036;08:47:31:035;1448480845.61;(0.370634651184082, 0.5525769551595052);52.5635528564;1.0;08:47:31:036;0;9;-1.5;3.46779661016949;2.93255131964809;0;0;0;1;1;1;1;0;0;0;0;0;0;0;0;0;();(-2000.0, -2000.0);
08:47:31:053;08:47:31:035;1448480845.61;(0.370634651184082, 0.5525769551595052);52.5635528564;1.0;08:47:31:053;0;15;-1.5;3.65357142857143;3.42130987292278;0;0;0;1;1;1;1;0;0;0;0;0;0;0;0;0;();(-2000.0, -2000.0);
08:47:31:069;08:47:31:035;1448480845.61;(0.370634651184082, 0.5525769551595052);52.5635528564;1.0;08:47:31:069;0;10;-1.5;1.69370860927152;0.879765395894428;0;0;0;1;1;1;1;0;0;0;0;0;0;0;0;0;();(-2000.0, -2000.0);
08:47:31:087;08:47:31:035;1448480845.61;(0.370634651184082, 0.5525769551595052);52.5635528564;1.0;08:47:31:087;0;4;-1.5;3.06287425149701;2.44379276637341;0;0;0;1;1;1;1;0;0;0;0;0;0;0;0;0;();(-2000.0, -2000.0);
08:47:31:103;08:47:31:093;1448480845.67;(0.3899595022201538, 0.5792906443277994);52.4489135742;1.0;08:47:31:103;0;9;-1.5;2.75741239892183;2.34604105571848;0;0;0;1;1;1;1;0;0;0;0;0;0;0;0;0;();(-2000.0, -2000.0);
08:47:31:137;08:47:31:093;1448480845.67;(0.3899595022201538, 0.5792906443277994);52.4489135742;1.0;08:47:31:137;0;10;-1.5;2.36805555555556;2.34604105571848;0;0;0;1;1;1;1;0;0;0;0;0;0;0;0;0;();(-2000.0, -2000.0);
08:47:31:153;08:47:31:149;1448480845.71;(0.39249985218048095, 0.5817877451578777);51.8638267517;1.0;08:47:31:153;0;15;-1.5;2.30405405405405;1.66177908113392;0;0;0;1;1;1;1;0;0;0;0;0;0;0;0;0;();(-2000.0, -2000.0);
08:47:31:170;08:47:31:149;1448480845.71;(0.39249985218048095, 0.5817877451578777);51.8638267517;1.0;08:47:31:170;0;10;-1.5;1.81705150976909;1.46627565982405;0;0;0;1;1;1;1;0;0;0;0;0;0;0;0;0;();(-2000.0, -2000.0);
08:47:31:187;08:47:31:149;1448480845.71;(0.39249985218048095, 0.5817877451578777);51.8638267517;1.0;08:47:31:187;0;15;-1.5;1.75471698113208;1.17302052785924;0;0;0;1;1;1;1;0;0;0;0;0;0;0;0;0;();(-2000.0, -2000.0);
08:47:31:203;08:47:31:149;1448480845.71;(0.39249985218048095, 0.5817877451578777);51.8638267517;1.0;08:47:31:203;0;10;-1.5;2.77989130434783;3.03030303030303;0;0;0;1;1;1;1;0;0;0;0;0;0;0;0;0;();(-2000.0, -2000.0);
08:47:31:237;08:47:31:210;1448480845.81;(0.3924181222915649, 0.5836351606580946);51.2225761414;1.0;08:47:31:237;0;4;-1.5;3.05373134328358;2.34604105571848;0;0;0;1;1;1;1;0;0;0;0;0;0;0;0;0;();(-2000.0, -2000.0);
08:47:31:254;08:47:31:210;1448480845.81;(0.3924181222915649, 0.5836351606580946);51.2225761414;1.0;08:47:31:254;0;15;-1.5;1.75471698113208;1.46627565982405;0;0;0;1;1;1;1;0;0;0;0;0;0;0;0;0;();(-2000.0, -2000.0);
08:47:31:270;08:47:31:265;1448480845.84;(0.3925008773803711, 0.583746337890625);50.9515914917;1.0;08:47:31:270;0;9;-1.5;2.56390977443609;1.85728250244379;0;0;0;1;1;1;1;0;0;0;0;0;0;0;0;0;();(-2000.0, -2000.0);
08:47:31:287;08:47:31:265;1448480845.84;(0.3925008773803711, 0.583746337890625);50.9515914917;1.0;08:47:31:287;0;0;-1.5;2.16737288135593;1.46627565982405;0;0;0;1;1;1;1;0;0;0;0;0;0;0;0;0;();(-2000.0, -2000.0);
08:47:31:304;08:47:31:265;1448480845.84;(0.3925008773803711, 0.583746337890625);50.9515914917;1.0;08:47:31:304;0;5;-1.5;1.98640776699029;1.36852394916911;0;0;0;1;1;1;1;0;0;0;0;0;0;0;0;0;();(-2000.0, -2000.0);
08:47:31:338;08:47:31:326;1448480845.91;(0.3919904470443726, 0.5841058095296223);50.6631889343;1.0;08:47:31:338;0;4;-1.5;2.65714285714286;2.34604105571848;0;0;0;1;1;1;1;0;0;0;0;0;0;0;0;0;();(-2000.0, -2000.0);
08:47:31:355;08:47:31:326;1448480845.91;(0.3919904470443726, 0.5841058095296223);50.6631889343;1.0;08:47:31:355;0;15;-1.5;1.82678571428571;1.46627565982405;0;0;0;1;1;1;1;0;0;0;0;0;0;0;0;0;();(-2000.0, -2000.0);
08:47:31:371;08:47:31:326;1448480845.91;(0.3919904470443726, 0.5841058095296223);50.6631889343;1.0;08:47:31:371;0;5;-1.5;1.66341463414634;0.879765395894428;0;0;0;1;1;1;1;0;0;0;0;0;0;0;0;0;();(-2000.0, -2000.0);
08:47:31:388;08:47:31:382;1448480845.97;(0.39270358085632323, 0.5829222361246744);50.7504768372;1.0;08:47:31:388;0;10;-1.5;1.82678571428571;1.17302052785924;0;0;0;1;1;1;1;0;0;0;0;0;0;0;0;0;();(-2000.0, -2000.0);
08:47:31:406;08:47:31:382;1448480845.97;(0.39270358085632323, 0.5829222361246744);50.7504768372;1.0;08:47:31:406;0;4;-1.5;2.93965517241379;2.34604105571848;0;0;0;1;1;1;1;0;0;0;0;0;0;0;0;0;();(-2000.0, -2000.0);
08:47:31:438;08:47:31:382;1448480845.97;(0.39270358085632323, 0.5829222361246744);50.7504768372;1.0;08:47:31:438;0;0;-1.5;2.1006160164271;1.46627565982405;0;0;0;1;1;1;1;0;0;0;0;0;0;0;0;0;();(-2000.0, -2000.0);
08:47:31:455;08:47:31:442;1448480846.01;(0.41046302318572997, 0.5808121151394314);50.3011817932;1.0;08:47:31:455;0;10;-1.5;1.89444444444444;1.46627565982405;0;0;0;1;1;1;1;0;0;0;0;0;0;0;0;0;();(-2000.0, -2000.0);
08:47:31:472;08:47:31:442;1448480846.01;(0.41046302318572997, 0.5808121151394314);50.3011817932;1.0;08:47:31:472;0;0;-1.5;2.48300970873786;2.44379276637341;0;0;0;1;1;1;1;0;0;0;0;0;0;0;0;0;();(-2000.0, -2000.0);
08:47:31:489;08:47:31:442;1448480846.01;(0.41046302318572997, 0.5808121151394314);50.3011817932;1.0;08:47:31:489;0;9;-1.5;1.97490347490347;1.46627565982405;0;0;0;1;1;1;1;0;0;0;0;0;0;0;0;0;();(-2000.0, -2000.0);
08:47:31:505;08:47:31:498;1448480846.07;(0.40987768173217776, 0.5814147101508247);50.0260162354;1.0;08:47:31:505;0;15;-1.5;1.77913043478261;1.17302052785924;0;0;0;1;1;1;1;0;0;0;0;0;0;0;0;0;();(-2000.0, -2000.0);
08:47:31:539;08:47:31:498;1448480846.07;(0.40987768173217776, 0.5814147101508247);50.0260162354;1.0;08:47:31:539;0;15;-1.5;3.74725274725275;3.03030303030303;0;0;0;1;1;1;1;0;0;0;0;0;0;0;0;0;();(-2000.0, -2000.0);
08:47:31:556;08:47:31:498;1448480846.07;(0.40987768173217776, 0.5814147101508247);50.0260162354;1.0;08:47:31:556;0;4;-1.5;2.96521739130435;2.34604105571848;0;0;0;1;1;1;1;0;0;0;0;0;0;0;0;0;();(-2000.0, -2000.0);
08:47:31:572;08:47:31:558;1448480846.14;(0.4095327377319336, 0.5826940324571397);50.3782615662;1.0;08:47:31:572;0;15;-1.5;1.65;0.879765395894428;0;0;0;1;1;1;1;0;0;0;0;0;0;0;0;0;();(-2000.0, -2000.0);
08:47:31:589;08:47:31:558;1448480846.14;(0.4095327377319336, 0.5826940324571397);50.3782615662;1.0;08:47:31:589;0;9;-1.5;2.325;1.66177908113392;0;0;0;1;1;1;1;0;0;0;0;0;0;0;0;0;();(-2000.0, -2000.0);
08:47:31:607;08:47:31:558;1448480846.14;(0.4095327377319336, 0.5826940324571397);50.3782615662;1.0;08:47:31:607;0;0;-1.5;1.77913043478261;1.17302052785924;0;0;0;1;1;1;1;0;0;0;0;0;0;0;0;0;();(-2000.0, -2000.0);
08:47:31:624;08:47:31:614;1448480846.21;(0.40893986225128176, 0.5812997182210287);50.7829055786;1.0;08:47:31:624;0;4;-1.5;2.03784860557769;1.36852394916911;0;0;0;1;1;1;1;0;0;0;0;0;0;0;0;0;();(-2000.0, -2000.0);
08:47:31:656;08:47:31:614;1448480846.21;(0.40893986225128176, 0.5812997182210287);50.7829055786;1.0;08:47:31:656;0;4;-1.5;2.77989130434783;2.34604105571848;0;0;0;1;1;1;1;0;0;0;0;0;0;0;0;0;();(-2000.0, -2000.0);
08:47:31:673;08:47:31:614;1448480846.21;(0.40893986225128176, 0.5812997182210287);50.7829055786;1.0;08:47:31:673;0;15;-1.5;1.82352941176471;1.17302052785924;0;0;0;1;1;1;1;0;0;0;0;0;0;0;0;0;();(-2000.0, -2000.0);
08:47:31:690;08:47:31:674;1448480846.24;(0.4084202527999878, 0.5803614722357856);50.6748771667;1.0;08:47:31:690;0;5;-1.5;1.71932773109244;0.879765395894428;0;0;0;1;1;1;1;0;0;0;0;0;0;0;0;0;();(-2000.0, -2000.0);
08:47:31:707;08:47:31:674;1448480846.24;(0.4084202527999878, 0.5803614722357856);50.6748771667;1.0;08:47:31:707;0;8;-1.5;1.72512647554806;1.17302052785924;0;0;0;1;1;1;1;0;0;0;0;0;0;0;0;0;();(-2000.0, -2000.0);
08:47:31:723;08:47:31:674;1448480846.24;(0.4084202527999878, 0.5803614722357856);50.6748771667;1.0;08:47:31:723;0;4;-1.5;3.65357142857143;3.03030303030303;0;0;0;1;1;1;1;0;0;0;0;0;0;0;0;0;();(-2000.0, -2000.0);
08:47:31:757;08:47:31:730;1448480846.27;(0.37791106700897215, 0.5492065853542751);52.4545822144;0.77247907353;08:47:31:757;0;5;-1.5;1.88397790055249;1.46627565982405;0;0;0;1;1;1;1;0;0;0;0;0;0;0;0;0;();(-2000.0, -2000.0);
08:47:31:775;08:47:31:730;1448480846.27;(0.37791106700897215, 0.5492065853542751);52.4545822144;0.77247907353;08:47:31:775;0;9;-1.5;2.13125;1.46627565982405;0;0;0;1;1;1;1;0;0;0;0;0;0;0;0;0;();(-2000.0, -2000.0);
08:47:31:790;08:47:31:790;1448480846.37;(0.3692756652832031, 0.5319538116455078);52.5024833679;1.0;08:47:31:790;0;5;-1.5;1.88745387453875;1.56402737047898;0;0;0;1;1;1;1;0;0;0;0;0;0;0;0;0;();(-2000.0, -2000.0);
08:47:31:807;08:47:31:790;1448480846.37;(0.3692756652832031, 0.5319538116455078);52.5024833679;1.0;08:47:31:807;0;10;-1.5;1.705;0.879765395894428;0;0;0;1;1;1;1;0;0;0;0;0;0;0;0;0;();(-2000.0, -2000.0);
08:47:31:824;08:47:31:790;1448480846.37;(0.3692756652832031, 0.5319538116455078);52.5024833679;1.0;08:47:31:824;0;4;-1.5;2.72074468085106;2.34604105571848;0;0;0;1;1;1;1;0;0;0;0;0;0;0;0;0;();(-2000.0, -2000.0);
08:47:31:857;08:47:31:846;1448480846.44;(0.3677408218383789, 0.5317135281032986);53.0473518372;1.0;08:47:31:857;0;5;-1.5;1.68256578947368;0.879765395894428;0;0;0;1;1;1;1;0;0;0;0;0;0;0;0;0;();(-2000.0, -2000.0);
08:47:31:874;08:47:31:846;1448480846.44;(0.3677408218383789, 0.5317135281032986);53.0473518372;1.0;08:47:31:874;0;10;-1.5;1.58359133126935;0.684261974584555;0;0;0;1;1;1;1;0;0;0;0;0;0;0;0;0;();(-2000.0, -2000.0);
08:47:31:891;08:47:31:846;1448480846.44;(0.3677408218383789, 0.5317135281032986);53.0473518372;1.0;08:47:31:891;0;15;-1.5;1.60093896713615;0.879765395894428;0;0;0;1;1;1;1;0;0;0;0;0;0;0;0;0;();(-2000.0, -2000.0);
08:47:31:909;08:47:31:906;1448480846.47;(0.36790618896484373, 0.5325063069661458);53.1211967468;1.0;08:47:31:909;0;9;-1.5;2.39018691588785;1.66177908113392;0;0;0;1;1;1;1;0;0;0;0;0;0;0;0;0;();(-2000.0, -2000.0);
08:47:31:924;08:47:31:906;1448480846.47;(0.36790618896484373, 0.5325063069661458);53.1211967468;1.0;08:47:31:924;0;15;-1.5;2.1006160164271;1.66177908113392;0;0;0;1;1;1;1;0;0;0;0;0;0;0;0;0;();(-2000.0, -2000.0);
08:47:31:958;08:47:31:906;1448480846.47;(0.36790618896484373, 0.5325063069661458);53.1211967468;1.0;08:47:31:958;0;15;-1.5;3.01769911504425;2.93255131964809;0;0;0;1;1;1;1;0;0;0;0;0;0;0;0;0;();(-2000.0, -2000.0);
08:47:31:975;08:47:31:962;1448480846.54;(0.36165921688079833, 0.5348337809244792);53.665184021;1.0;08:47:31:975;0;4;-1.5;3.1671826625387;2.73704789833822;0;0;0;1;1;1;1;0;0;0;0;0;0;0;0;0;();(-2000.0, -2000.0);
08:47:31:992;08:47:31:962;1448480846.54;(0.36165921688079833, 0.5348337809244792);53.665184021;1.0;08:47:31:992;0;9;-1.5;3.03560830860534;2.34604105571848;0;0;0;1;1;1;1;0;0;0;0;0;0;0;0;0;();(-2000.0, -2000.0);
08:47:32:008;08:47:31:962;1448480846.54;(0.36165921688079833, 0.5348337809244792);53.665184021;1.0;08:47:32:008;0;5;-1.5;1.76683937823834;1.17302052785924;0;0;0;1;1;1;1;0;0;0;0;0;0;0;0;0;();(-2000.0, -2000.0);
08:47:32:026;08:47:32:022;1448480846.61;(0.36134626865386965, 0.5350122663709853);53.538318634;1.0;08:47:32:026;0;10;-1.5;1.77913043478261;1.17302052785924;0;0;0;1;1;1;1;0;0;0;0;0;0;0;0;0;();(-2000.0, -2000.0);
08:47:32:059;08:47:32:022;1448480846.61;(0.36134626865386965, 0.5350122663709853);53.538318634;1.0;08:47:32:059;0;9;-1.5;2.97383720930233;2.34604105571848;0;0;0;1;1;1;1;0;0;0;0;0;0;0;0;0;();(-2000.0, -2000.0);
08:47:32:076;08:47:32:022;1448480846.61;(0.36134626865386965, 0.5350122663709853);53.538318634;1.0;08:47:32:076;0;0;-1.5;2.01377952755906;1.46627565982405;0;0;0;1;1;1;1;0;0;0;0;0;0;0;0;0;();(-2000.0, -2000.0);
08:47:32:092;08:47:32:078;1448480846.67;(0.3612642526626587, 0.5337439219156901);53.9924621582;1.0;08:47:32:092;0;10;-1.5;2.48300970873786;1.85728250244379;0;0;0;1;1;1;1;0;0;0;0;0;0;0;0;0;();(-2000.0, -2000.0);
08:47:32:109;08:47:32:078;1448480846.67;(0.3612642526626587, 0.5337439219156901);53.9924621582;1.0;08:47:32:109;0;5;-1.5;2.14915966386555;1.66177908113392;0;0;0;1;1;1;1;0;0;0;0;0;0;0;0;0;();(-2000.0, -2000.0);
08:47:32:126;08:47:32:078;1448480846.67;(0.3612642526626587, 0.5337439219156901);53.9924621582;1.0;08:47:32:126;0;10;-1.5;1.77913043478261;1.17302052785924;0;0;0;1;1;1;1;0;0;0;0;0;0;0;0;0;();(-2000.0, -2000.0);
08:47:32:144;08:47:32:138;1448480846.71;(0.36094663143157957, 0.533087158203125);54.064365387;1.0;08:47:32:144;0;4;-1.5;2.93965517241379;3.03030303030303;0;0;0;1;1;1;1;0;0;0;0;0;0;0;0;0;();(-2000.0, -2000.0);
08:47:32:177;08:47:32:138;1448480846.71;(0.36094663143157957, 0.533087158203125);54.064365387;1.0;08:47:32:177;0;6;-1.5;1.67430441898527;0.879765395894428;0;0;0;1;1;1;1;0;0;0;0;0;0;0;0;0;();(-2000.0, -2000.0);
08:47:32:193;08:47:32:138;1448480846.71;(0.36094663143157957, 0.533087158203125);54.064365387;1.0;08:47:32:193;0;15;-1.5;3.12844036697248;2.44379276637341;0;0;0;1;1;1;1;0;0;0;0;0;0;0;0;0;();(-2000.0, -2000.0);
08:47:32:211;08:47:32:198;1448480846.77;(0.3611212015151978, 0.5329996320936414);53.9955444336;1.0;08:47:32:211;0;11;-1.5;1.60093896713615;0.684261974584555;0;0;0;1;1;1;1;0;0;0;0;0;0;0;0;0;();(-2000.0, -2000.0);
08:47:32:226;08:47:32:198;1448480846.77;(0.3611212015151978, 0.5329996320936414);53.9955444336;1.0;08:47:32:226;0;9;-1.5;2.36805555555556;1.66177908113392;0;0;0;1;1;1;1;0;0;0;0;0;0;0;0;0;();(-2000.0, -2000.0);
08:47:32:243;08:47:32:198;1448480846.77;(0.3611212015151978, 0.5329996320936414);53.9955444336;1.0;08:47:32:243;0;15;-1.5;2.26829268292683;1.85728250244379;0;0;0;1;1;1;1;0;0;0;0;0;0;0;0;0;();(-2000.0, -2000.0);
08:47:32:278;08:47:32:254;1448480846.84;(0.36139352321624757, 0.5340938568115234);54.0446777344;1.0;08:47:32:278;0;0;-1.5;3.05373134328358;2.93255131964809;0;0;0;1;1;1;1;0;0;0;0;0;0;0;0;0;();(-2000.0, -2000.0);
08:47:32:293;08:47:32:254;1448480846.84;(0.36139352321624757, 0.5340938568115234);54.0446777344;1.0;08:47:32:293;0;4;-1.5;2.84958217270195;2.34604105571848;0;0;0;1;1;1;1;0;0;0;0;0;0;0;0;0;();(-2000.0, -2000.0);
08:47:32:311;08:47:32:254;1448480846.84;(0.36139352321624757, 0.5340938568115234);54.0446777344;1.0;08:47:32:311;0;15;-1.5;1.75471698113208;1.17302052785924;0;0;0;1;1;1;1;0;0;0;0;0;0;0;0;0;();(-2000.0, -2000.0);
08:47:32:328;08:47:32:314;1448480846.91;(0.3612780809402466, 0.5336449093288845);54.3898773193;1.0;08:47:32:328;0;5;-1.5;1.705;0.879765395894428;0;0;0;1;1;1;1;0;0;0;0;0;0;0;0;0;();(-2000.0, -2000.0);
08:47:32:344;08:47:32:314;1448480846.91;(0.3612780809402466, 0.5336449093288845);54.3898773193;1.0;08:47:32:344;0;10;-1.5;1.76683937823834;1.17302052785924;0;0;0;1;1;1;1;0;0;0;0;0;0;0;0;0;();(-2000.0, -2000.0);
08:47:32:377;08:47:32:369;1448480846.97;(0.3611175298690796, 0.5329876793755426);54.7197799683;1.0;08:47:32:377;0;15;-1.5;1.82678571428571;1.17302052785924;0;0;0;1;1;1;1;0;0;0;0;0;0;0;0;0;();(-2000.0, -2000.0);
08:47:32:394;08:47:32:369;1448480846.97;(0.3611175298690796, 0.5329876793755426);54.7197799683;1.0;08:47:32:394;0;4;-1.5;1.88745387453875;1.17302052785924;0;0;0;1;1;1;1;0;0;0;0;0;0;0;0;0;();(-2000.0, -2000.0);
08:47:32:412;08:47:32:369;1448480846.97;(0.3611175298690796, 0.5329876793755426);54.7197799683;1.0;08:47:32:412;0;0;-1.5;2.0625;1.46627565982405;0;0;0;1;1;1;1;0;0;0;0;0;0;0;0;0;();(-2000.0, -2000.0);
08:47:32:428;08:47:32:369;1448480846.97;(0.3611175298690796, 0.5329876793755426);54.7197799683;1.0;08:47:32:428;0;5;-1.5;1.99415204678363;1.36852394916911;0;0;0;1;1;1;1;0;0;0;0;0;0;0;0;0;();(-2000.0, -2000.0);
08:47:32:444;08:47:32:429;1448480847.01;(0.36130099296569823, 0.533147472805447);54.5464668274;1.0;08:47:32:444;0;15;-1.5;2.41843971631206;2.1505376344086;0;0;0;1;1;1;1;0;0;0;0;0;0;0;0;0;();(-2000.0, -2000.0);
08:47:32:478;08:47:32:429;1448480847.01;(0.36130099296569823, 0.533147472805447);54.5464668274;1.0;08:47:32:478;0;9;-1.5;3.1671826625387;2.63929618768328;0;0;0;1;1;1;1;0;0;0;0;0;0;0;0;0;();(-2000.0, -2000.0);
08:47:32:495;08:47:32:487;1448480847.07;(0.36102159023284913, 0.5330028957790799);55.031036377;1.0;08:47:32:495;0;5;-1.5;1.71932773109244;1.17302052785924;0;0;0;1;1;1;1;0;0;0;0;0;0;0;0;0;();(-2000.0, -2000.0);
08:47:32:511;08:47:32:487;1448480847.07;(0.36102159023284913, 0.5330028957790799);55.031036377;1.0;08:47:32:511;0;10;-1.5;1.65;0.879765395894428;0;0;0;1;1;1;1;0;0;0;0;0;0;0;0;0;();(-2000.0, -2000.0);
08:47:32:529;08:47:32:487;1448480847.07;(0.36102159023284913, 0.5330028957790799);55.031036377;1.0;08:47:32:529;0;4;-1.5;3.08132530120482;2.44379276637341;0;0;0;1;1;1;1;0;0;0;0;0;0;0;0;0;();(-2000.0, -2000.0);
08:47:32:546;08:47:32:546;1448480847.14;(0.3621377944946289, 0.5316373189290364);55.668800354;0.891750469118;08:47:32:546;0;9;-1.5;2.58333333333333;2.73704789833822;0;0;0;1;1;1;1;0;0;0;0;0;0;0;0;0;();(-2000.0, -2000.0);
08:47:32:578;08:47:32:546;1448480847.14;(0.3621377944946289, 0.5316373189290364);55.668800354;0.891750469118;08:47:32:578;0;10;-1.5;2.1006160164271;1.66177908113392;0;0;0;1;1;1;1;0;0;0;0;0;0;0;0;0;();(-2000.0, -2000.0);
08:47:32:595;08:47:32:546;1448480847.14;(0.3621377944946289, 0.5316373189290364);55.668800354;0.891750469118;08:47:32:595;0;15;-1.5;2.6030534351145;1.85728250244379;0;0;0;1;1;1;1;0;0;0;0;0;0;0;0;0;();(-2000.0, -2000.0);
08:47:32:612;08:47:32:546;1448480847.14;(0.3621377944946289, 0.5316373189290364);55.668800354;0.891750469118;08:47:32:612;0;10;-1.5;1.75773195876289;1.36852394916911;0;0;0;1;1;1;1;0;0;0;0;0;0;0;0;0;();(-2000.0, -2000.0);
08:47:32:629;08:47:32:546;1448480847.14;(0.3621377944946289, 0.5316373189290364);55.668800354;0.891750469118;08:47:32:629;0;15;-1.5;1.705;0.879765395894428;0;0;0;1;1;1;1;0;0;0;0;0;0;0;0;0;();(-2000.0, -2000.0);
08:47:32:646;08:47:32:546;1448480847.14;(0.3621377944946289, 0.5316373189290364);55.668800354;0.891750469118;08:47:32:646;0;5;-1.5;1.66341463414634;0.879765395894428;0;0;0;1;1;1;1;0;0;0;0;0;0;0;0;0;();(-2000.0, -2000.0);
08:47:32:664;08:47:32:546;1448480847.14;(0.3621377944946289, 0.5316373189290364);55.668800354;0.891750469118;08:47:32:664;0;1;-1.5;2.81043956043956;2.44379276637341;0;0;0;1;1;1;1;0;0;0;0;0;0;0;0;0;();(-2000.0, -2000.0);
08:47:32:696;08:47:32:546;1448480847.14;(0.3621377944946289, 0.5316373189290364);55.668800354;0.891750469118;08:47:32:696;0;15;-1.5;1.40329218106996;0.684261974584555;0;0;0;1;1;1;1;0;0;0;0;0;0;0;0;0;();(-2000.0, -2000.0);
08:47:32:713;08:47:32:546;1448480847.14;(0.3621377944946289, 0.5316373189290364);55.668800354;0.891750469118;08:47:32:713;0;2;-1.5;1.63157894736842;0.684261974584555;0;0;0;1;1;1;1;0;0;0;0;0;0;0;0;0;();(-2000.0, -2000.0);
08:47:32:732;08:47:32:717;1448480847.28;(0.4046605587005615, 0.501765865749783);55.1851272583;1.0;08:47:32:732;0;10;-1.5;1.87020109689214;1.17302052785924;0;0;0;1;1;1;1;0;0;0;0;0;0;0;0;0;();(-2000.0, -2000.0);
08:47:32:747;08:47:32:717;1448480847.28;(0.4046605587005615, 0.501765865749783);55.1851272583;1.0;08:47:32:747;0;15;-1.5;2.65714285714286;2.1505376344086;0;0;0;1;1;1;1;0;0;0;0;0;0;0;0;0;();(-2000.0, -2000.0);
08:47:32:763;08:47:32:717;1448480847.28;(0.4046605587005615, 0.501765865749783);55.1851272583;1.0;08:47:32:763;0;10;-1.5;1.69370860927152;0.879765395894428;0;0;0;1;1;1;1;0;0;0;0;0;0;0;0;0;();(-2000.0, -2000.0);
08:47:32:796;08:47:32:778;1448480847.32;(0.40418479442596433, 0.5017742156982422);55.5538635254;1.0;08:47:32:796;0;9;-1.5;3.36513157894737;2.73704789833822;0;0;0;1;1;1;1;0;0;0;0;0;0;0;0;0;();(-2000.0, -2000.0);
08:47:32:813;08:47:32:778;1448480847.32;(0.40418479442596433, 0.5017742156982422);55.5538635254;1.0;08:47:32:813;0;5;-1.5;1.75471698113208;1.17302052785924;0;0;0;1;1;1;1;0;0;0;0;0;0;0;0;0;();(-2000.0, -2000.0);
08:47:32:831;08:47:32:778;1448480847.32;(0.40418479442596433, 0.5017742156982422);55.5538635254;1.0;08:47:32:831;0;10;-1.5;1.88397790055249;1.17302052785924;0;0;0;1;1;1;1;0;0;0;0;0;0;0;0;0;();(-2000.0, -2000.0);
08:47:32:847;08:47:32:833;1448480847.35;(0.40384302139282224, 0.5019385867648655);55.5373840332;1.0;08:47:32:847;0;15;-1.5;1.73979591836735;1.17302052785924;0;0;0;1;1;1;1;0;0;0;0;0;0;0;0;0;();(-2000.0, -2000.0);
08:47:32:864;08:47:32:833;1448480847.35;(0.40384302139282224, 0.5019385867648655);55.5373840332;1.0;08:47:32:864;0;9;-1.5;2.93965517241379;2.73704789833822;0;0;0;1;1;1;1;0;0;0;0;0;0;0;0;0;();(-2000.0, -2000.0);
08:47:32:897;08:47:32:894;1448480847.4;(0.43168776035308837, 0.5019347720675998);59.7413253784;0.995311982515;08:47:32:897;0;10;-1.5;2.14915966386555;1.66177908113392;0;0;0;1;1;1;1;0;0;0;0;0;0;0;0;0;();(-2000.0, -2000.0);
08:47:32:914;08:47:32:894;1448480847.4;(0.43168776035308837, 0.5019347720675998);59.7413253784;0.995311982515;08:47:32:914;0;15;-1.5;2.61636828644501;1.85728250244379;0;0;0;1;1;1;1;0;0;0;0;0;0;0;0;0;();(-2000.0, -2000.0);
08:47:32:931;08:47:32:894;1448480847.4;(0.43168776035308837, 0.5019347720675998);59.7413253784;0.995311982515;08:47:32:931;0;10;-1.5;1.83992805755396;1.17302052785924;0;0;0;1;1;1;1;0;0;0;0;0;0;0;0;0;();(-2000.0, -2000.0);
08:47:32:948;08:47:32:894;1448480847.4;(0.43168776035308837, 0.5019347720675998);59.7413253784;0.995311982515;08:47:32:948;0;15;-1.5;1.55707762557078;0.684261974584555;0;0;0;1;1;1;1;0;0;0;0;0;0;0;0;0;();(-2000.0, -2000.0);
08:47:32:965;08:47:32:951;1448480847.54;(0, 0);0;0;08:47:32:965;0;5;-1.5;1.67430441898527;0.684261974584555;0;0;0;1;1;1;1;0;0;0;0;0;0;0;0;0;();(-2000.0, -2000.0);
08:47:32:998;08:47:32:951;1448480847.54;(0, 0);0;0;08:47:32:998;0;4;-1.5;2.62307692307692;2.1505376344086;0;0;0;1;1;1;1;0;0;0;0;0;0;0;0;0;();(-2000.0, -2000.0);
08:47:33:014;08:47:33:010;1448480847.61;(0.28435962200164794, 0.40895241631401913);20.6005039215;0.653899947231;08:47:33:014;0;15;-1.5;1.78846153846154;1.36852394916911;0;0;0;1;1;1;1;0;0;0;0;0;0;0;0;0;();(-2000.0, -2000.0);
08:47:33:031;08:47:33:010;1448480847.61;(0.28435962200164794, 0.40895241631401913);20.6005039215;0.653899947231;08:47:33:031;0;4;-1.5;1.87020109689214;1.17302052785924;0;0;0;1;1;1;1;0;0;0;0;0;0;0;0;0;();(-2000.0, -2000.0);
08:47:33:049;08:47:33:010;1448480847.61;(0.28435962200164794, 0.40895241631401913);20.6005039215;0.653899947231;08:47:33:049;0;10;-1.5;2.46506024096386;1.85728250244379;0;0;0;1;1;1;1;0;0;0;0;0;0;0;0;0;();(-2000.0, -2000.0);
08:47:33:065;08:47:33:010;1448480847.61;(0.28435962200164794, 0.40895241631401913);20.6005039215;0.653899947231;08:47:33:065;0;5;-1.5;1.97490347490347;1.36852394916911;0;0;0;1;1;1;1;0;0;0;0;0;0;0;0;0;();(-2000.0, -2000.0);
08:47:33:099;08:47:33:066;1448480847.64;(0.44718213081359864, 0.4877795749240451);47.7148628235;0.66262890759;08:47:33:099;0;4;-1.5;3.36513157894737;2.73704789833822;0;0;0;1;1;1;1;0;0;0;0;0;0;0;0;0;();(-2000.0, -2000.0);
08:47:33:116;08:47:33:066;1448480847.64;(0.44718213081359864, 0.4877795749240451);47.7148628235;0.66262890759;08:47:33:116;0;9;-1.5;2.84958217270195;2.34604105571848;0;0;0;1;1;1;1;0;0;0;0;0;0;0;0;0;();(-2000.0, -2000.0);
08:47:33:132;08:47:33:126;1448480847.71;(0.44425058364868164, 0.5023660447862413);52.6149749756;1.0;08:47:33:132;0;5;-1.5;1.83992805755396;1.17302052785924;0;0;0;1;1;1;1;0;0;0;0;0;0;0;0;0;();(-2000.0, -2000.0);
08:47:33:149;08:47:33:126;1448480847.71;(0.44425058364868164, 0.5023660447862413);52.6149749756;1.0;08:47:33:149;0;15;-1.5;3.05373134328358;2.93255131964809;0;0;0;1;1;1;1;0;0;0;0;0;0;0;0;0;();(-2000.0, -2000.0);
08:47:33:165;08:47:33:126;1448480847.71;(0.44425058364868164, 0.5023660447862413);52.6149749756;1.0;08:47:33:165;0;4;-1.5;3.13803680981595;3.03030303030303;0;0;0;1;1;1;1;0;0;0;0;0;0;0;0;0;();(-2000.0, -2000.0);
08:47:33:200;08:47:33:182;1448480847.77;(0.44476966857910155, 0.5031720055474176);52.8639984131;1.0;08:47:33:200;0;5;-1.5;2.01775147928994;1.46627565982405;0;0;0;1;1;1;1;0;0;0;0;0;0;0;0;0;();(-2000.0, -2000.0);
08:47:33:216;08:47:33:182;1448480847.77;(0.44476966857910155, 0.5031720055474176);52.8639984131;1.0;08:47:33:216;0;10;-1.5;2.25330396475771;1.46627565982405;0;0;0;1;1;1;1;0;0;0;0;0;0;0;0;0;();(-2000.0, -2000.0);
08:47:33:232;08:47:33:182;1448480847.77;(0.44476966857910155, 0.5031720055474176);52.8639984131;1.0;08:47:33:232;0;15;-1.5;2.48300970873786;1.85728250244379;0;0;0;1;1;1;1;0;0;0;0;0;0;0;0;0;();(-2000.0, -2000.0);
08:47:33:249;08:47:33:241;1448480847.81;(0.44493861198425294, 0.503119871351454);52.6490707397;1.0;08:47:33:249;0;4;-1.5;2.77235772357724;2.44379276637341;0;0;0;1;1;1;1;0;0;0;0;0;0;0;0;0;();(-2000.0, -2000.0);
08:47:33:266;08:47:33:241;1448480847.81;(0.44493861198425294, 0.503119871351454);52.6490707397;1.0;08:47:33:266;0;15;-1.5;1.80105633802817;1.17302052785924;0;0;0;1;1;1;1;0;0;0;0;0;0;0;0;0;();(-2000.0, -2000.0);
08:47:33:284;08:47:33:241;1448480847.81;(0.44493861198425294, 0.503119871351454);52.6490707397;1.0;08:47:33:284;0;10;-1.5;2.6640625;2.1505376344086;0;0;0;1;1;1;1;0;0;0;0;0;0;0;0;0;();(-2000.0, -2000.0);
08:47:33:316;08:47:33:297;1448480847.84;(0.4285600662231445, 0.48765008714463975);53.1564292908;1.0;08:47:33:316;0;10;-1.5;1.77913043478261;1.17302052785924;0;0;0;1;1;1;1;0;0;0;0;0;0;0;0;0;();(-2000.0, -2000.0);
08:47:33:333;08:47:33:297;1448480847.84;(0.4285600662231445, 0.48765008714463975);53.1564292908;1.0;08:47:33:333;0;15;-1.5;1.77913043478261;1.17302052785924;0;0;0;1;1;1;1;0;0;0;0;0;0;0;0;0;();(-2000.0, -2000.0);
08:47:33:350;08:47:33:297;1448480847.84;(0.4285600662231445, 0.48765008714463975);53.1564292908;1.0;08:47:33:350;0;4;-1.5;2.14915966386555;1.66177908113392;0;0;0;1;1;1;1;0;0;0;0;0;0;0;0;0;();(-2000.0, -2000.0);
08:47:33:367;08:47:33:358;1448480847.92;(0.4260250091552734, 0.48493597242567277);53.1548728943;1.0;08:47:33:367;0;15;-1.5;2.39018691588785;1.46627565982405;0;0;0;1;1;1;1;0;0;0;0;0;0;0;0;0;();(-2000.0, -2000.0);
08:47:33:383;08:47:33:358;1448480847.92;(0.4260250091552734, 0.48493597242567277);53.1548728943;1.0;08:47:33:383;0;4;-1.5;1.98640776699029;1.36852394916911;0;0;0;1;1;1;1;0;0;0;0;0;0;0;0;0;();(-2000.0, -2000.0);
08:47:33:418;08:47:33:416;1448480848.01;(0.4262388706207275, 0.4850988176133898);53.6969604492;1.0;08:47:33:418;0;4;-1.5;3.20689655172414;3.03030303030303;0;0;0;1;1;1;1;0;0;0;0;0;0;0;0;0;();(-2000.0, -2000.0);
08:47:33:434;08:47:33:416;1448480848.01;(0.4262388706207275, 0.4850988176133898);53.6969604492;1.0;08:47:33:434;0;9;-1.5;2.53846153846154;2.34604105571848;0;0;0;1;1;1;1;0;0;0;0;0;0;0;0;0;();(-2000.0, -2000.0);
08:47:33:450;08:47:33:416;1448480848.01;(0.4262388706207275, 0.4850988176133898);53.6969604492;1.0;08:47:33:450;0;5;-1.5;1.83992805755396;1.17302052785924;0;0;0;1;1;1;1;0;0;0;0;0;0;0;0;0;();(-2000.0, -2000.0);
08:47:33:467;08:47:33:416;1448480848.01;(0.4262388706207275, 0.4850988176133898);53.6969604492;1.0;08:47:33:467;0;15;-1.5;3.27884615384615;2.73704789833822;0;0;0;1;1;1;1;0;0;0;0;0;0;0;0;0;();(-2000.0, -2000.0);
08:47:33:485;08:47:33:474;1448480848.07;(0.42597734928131104, 0.48542700873480904);54.1211242676;1.0;08:47:33:485;0;10;-1.5;1.65;1.17302052785924;0;0;0;1;1;1;1;0;0;0;0;0;0;0;0;0;();(-2000.0, -2000.0);
08:47:33:518;08:47:33:474;1448480848.07;(0.42597734928131104, 0.48542700873480904);54.1211242676;1.0;08:47:33:518;0;4;-1.5;2.0501002004008;1.46627565982405;0;0;0;1;1;1;1;0;0;0;0;0;0;0;0;0;();(-2000.0, -2000.0);
08:47:33:535;08:47:33:529;1448480848.11;(0.4257859706878662, 0.4853842417399089);54.3015670776;1.0;08:47:33:535;0;10;-1.5;2.42417061611374;1.85728250244379;0;0;0;1;1;1;1;0;0;0;0;0;0;0;0;0;();(-2000.0, -2000.0);
08:47:33:551;08:47:33:529;1448480848.11;(0.4257859706878662, 0.4853842417399089);54.3015670776;1.0;08:47:33:551;0;5;-1.5;1.90858208955224;1.36852394916911;0;0;0;1;1;1;1;0;0;0;0;0;0;0;0;0;();(-2000.0, -2000.0);
08:47:33:568;08:47:33:529;1448480848.11;(0.4257859706878662, 0.4853842417399089);54.3015670776;1.0;08:47:33:568;0;9;-1.5;1.75471698113208;1.17302052785924;0;0;0;1;1;1;1;0;0;0;0;0;0;0;0;0;();(-2000.0, -2000.0);
08:47:33:585;08:47:33:529;1448480848.11;(0.4257859706878662, 0.4853842417399089);54.3015670776;1.0;08:47:33:585;0;15;-1.5;1.5618320610687;0.684261974584555;0;0;0;1;1;1;1;0;0;0;0;0;0;0;0;0;();(-2000.0, -2000.0);
08:47:33:618;08:47:33:590;1448480848.17;(0.42527735233306885, 0.4840430789523654);54.7340202332;1.0;08:47:33:618;0;0;-1.5;2.50122249388753;1.85728250244379;0;0;0;1;1;1;1;0;0;0;0;0;0;0;0;0;();(-2000.0, -2000.0);
08:47:33:637;08:47:33:590;1448480848.17;(0.42527735233306885, 0.4840430789523654);54.7340202332;1.0;08:47:33:637;0;4;-1.5;3.01769911504425;2.34604105571848;0;0;0;1;1;1;1;0;0;0;0;0;0;0;0;0;();(-2000.0, -2000.0);
08:47:33:653;08:47:33:646;1448480848.24;(0.42514207363128664, 0.4837249332004123);55.1577911377;1.0;08:47:33:653;0;15;-1.5;2.0297619047619;1.85728250244379;0;0;0;1;1;1;1;0;0;0;0;0;0;0;0;0;();(-2000.0, -2000.0);
08:47:33:668;08:47:33:646;1448480848.24;(0.42514207363128664, 0.4837249332004123);55.1577911377;1.0;08:47:33:668;0;4;-1.5;2.00195694716243;1.46627565982405;0;0;0;1;1;1;1;0;0;0;0;0;0;0;0;0;();(-2000.0, -2000.0);
08:47:33:686;08:47:33:646;1448480848.24;(0.42514207363128664, 0.4837249332004123);55.1577911377;1.0;08:47:33:686;0;0;-1.5;2.13125;1.46627565982405;0;0;0;1;1;1;1;0;0;0;0;0;0;0;0;0;();(-2000.0, -2000.0);
08:47:33:719;08:47:33:707;1448480848.31;(0.4249942541122437, 0.48505600823296446);55.3859977722;1.0;08:47:33:719;0;15;-1.5;1.82352941176471;1.36852394916911;0;0;0;1;1;1;1;0;0;0;0;0;0;0;0;0;();(-2000.0, -2000.0);
08:47:33:736;08:47:33:707;1448480848.31;(0.4249942541122437, 0.48505600823296446);55.3859977722;1.0;08:47:33:736;0;10;-1.5;1.58114374034003;0.684261974584555;0;0;0;1;1;1;1;0;0;0;0;0;0;0;0;0;();(-2000.0, -2000.0);
08:47:33:752;08:47:33:707;1448480848.31;(0.4249942541122437, 0.48505600823296446);55.3859977722;1.0;08:47:33:752;0;15;-1.5;1.68256578947368;0.879765395894428;0;0;0;1;1;1;1;0;0;0;0;0;0;0;0;0;();(-2000.0, -2000.0);
08:47:33:769;08:47:33:766;1448480848.34;(0.4249179124832153, 0.48560523986816406);55.4628105164;1.0;08:47:33:769;0;5;-1.5;1.73979591836735;1.17302052785924;0;0;0;1;1;1;1;0;0;0;0;0;0;0;0;0;();(-2000.0, -2000.0);
08:47:33:786;08:47:33:766;1448480848.34;(0.4249179124832153, 0.48560523986816406);55.4628105164;1.0;08:47:33:786;0;15;-1.5;2.81043956043956;2.34604105571848;0;0;0;1;1;1;1;0;0;0;0;0;0;0;0;0;();(-2000.0, -2000.0);
08:47:33:803;08:47:33:766;1448480848.34;(0.4249179124832153, 0.48560523986816406);55.4628105164;1.0;08:47:33:803;0;4;-1.5;3.27884615384615;2.73704789833822;0;0;0;1;1;1;1;0;0;0;0;0;0;0;0;0;();(-2000.0, -2000.0);
08:47:33:837;08:47:33:822;1448480848.41;(0.4247214555740356, 0.4850484212239583);55.2626304626;1.0;08:47:33:837;0;4;-1.5;2.16737288135593;1.85728250244379;0;0;0;1;1;1;1;0;0;0;0;0;0;0;0;0;();(-2000.0, -2000.0);
08:47:33:853;08:47:33:822;1448480848.41;(0.4247214555740356, 0.4850484212239583);55.2626304626;1.0;08:47:33:853;0;10;-1.5;2.325;1.66177908113392;0;0;0;1;1;1;1;0;0;0;0;0;0;0;0;0;();(-2000.0, -2000.0);
08:47:33:870;08:47:33:822;1448480848.41;(0.4247214555740356, 0.4850484212239583);55.2626304626;1.0;08:47:33:870;0;5;-1.5;1.85662431941924;1.17302052785924;0;0;0;1;1;1;1;0;0;0;0;0;0;0;0;0;();(-2000.0, -2000.0);
08:47:33:887;08:47:33:882;1448480848.47;(0.42503378391265867, 0.48431930541992185);55.0102958679;1.0;08:47:33:887;0;10;-1.5;1.69370860927152;1.17302052785924;0;0;0;1;1;1;1;0;0;0;0;0;0;0;0;0;();(-2000.0, -2000.0);
08:47:33:903;08:47:33:882;1448480848.47;(0.42503378391265867, 0.48431930541992185);55.0102958679;1.0;08:47:33:903;0;4;-1.5;2.6640625;2.1505376344086;0;0;0;1;1;1;1;0;0;0;0;0;0;0;0;0;();(-2000.0, -2000.0);
08:47:33:937;08:47:33:882;1448480848.47;(0.42503378391265867, 0.48431930541992185);55.0102958679;1.0;08:47:33:937;0;5;-1.5;1.67430441898527;1.17302052785924;0;0;0;1;1;1;1;0;0;0;0;0;0;0;0;0;();(-2000.0, -2000.0);
08:47:33:954;08:47:33:938;1448480848.54;(0.42499282360076907, 0.48530866834852426);54.813583374;1.0;08:47:33:954;0;10;-1.5;1.705;0.879765395894428;0;0;0;1;1;1;1;0;0;0;0;0;0;0;0;0;();(-2000.0, -2000.0);
08:47:33:972;08:47:33:938;1448480848.54;(0.42499282360076907, 0.48530866834852426);54.813583374;1.0;08:47:33:972;0;15;-1.5;1.77913043478261;1.17302052785924;0;0;0;1;1;1;1;0;0;0;0;0;0;0;0;0;();(-2000.0, -2000.0);
08:47:33:988;08:47:33:938;1448480848.54;(0.42499282360076907, 0.48530866834852426);54.813583374;1.0;08:47:33:988;0;10;-1.5;2.16279069767442;1.66177908113392;0;0;0;1;1;1;1;0;0;0;0;0;0;0;0;0;();(-2000.0, -2000.0);
08:47:34:004;08:47:33:997;1448480848.57;(0.42510483264923093, 0.48597123887803817);54.311466217;1.0;08:47:34:004;0;0;-1.5;1.96353166986564;1.36852394916911;0;0;0;1;1;1;1;0;0;0;0;0;0;0;0;0;();(-2000.0, -2000.0);
08:47:34:037;08:47:33:997;1448480848.57;(0.42510483264923093, 0.48597123887803817);54.311466217;1.0;08:47:34:037;0;15;-1.5;2.24835164835165;1.46627565982405;0;0;0;1;1;1;1;0;0;0;0;0;0;0;0;0;();(-2000.0, -2000.0);
08:47:34:054;08:47:34:054;1448480848.64;(0.42553303241729734, 0.48818359375);53.9387016296;1.0;08:47:34:054;0;4;-1.5;2.84958217270195;2.34604105571848;0;0;0;1;1;1;1;0;0;0;0;0;0;0;0;0;();(-2000.0, -2000.0);
08:47:34:071;08:47:34:054;1448480848.64;(0.42553303241729734, 0.48818359375);53.9387016296;1.0;08:47:34:071;0;9;-1.5;2.6640625;2.1505376344086;0;0;0;1;1;1;1;0;0;0;0;0;0;0;0;0;();(-2000.0, -2000.0);
08:47:34:088;08:47:34:054;1448480848.64;(0.42553303241729734, 0.48818359375);53.9387016296;1.0;08:47:34:088;0;5;-1.5;1.75471698113208;1.46627565982405;0;0;0;1;1;1;1;0;0;0;0;0;0;0;0;0;();(-2000.0, -2000.0);
08:47:34:104;08:47:34:054;1448480848.64;(0.42553303241729734, 0.48818359375);53.9387016296;1.0;08:47:34:104;0;10;-1.5;1.705;0.879765395894428;0;0;0;1;1;1;1;0;0;0;0;0;0;0;0;0;();(-2000.0, -2000.0);
08:47:34:138;08:47:34:115;1448480848.71;(0.42562940120697024, 0.4883315192328559);53.8615112305;1.0;08:47:34:138;0;9;-1.5;2.50735294117647;1.85728250244379;0;0;0;1;1;1;1;0;0;0;0;0;0;0;0;0;();(-2000.0, -2000.0);
08:47:34:154;08:47:34:115;1448480848.71;(0.42562940120697024, 0.4883315192328559);53.8615112305;1.0;08:47:34:154;0;4;-1.5;1.98640776699029;1.36852394916911;0;0;0;1;1;1;1;0;0;0;0;0;0;0;0;0;();(-2000.0, -2000.0);
08:47:34:173;08:47:34:170;1448480848.74;(0.4256075382232666, 0.48746473524305556);53.645401001;1.0;08:47:34:173;0;10;-1.5;2.0297619047619;1.46627565982405;0;0;0;1;1;1;1;0;0;0;0;0;0;0;0;0;();(-2000.0, -2000.0);
08:47:34:188;08:47:34:170;1448480848.74;(0.4256075382232666, 0.48746473524305556);53.645401001;1.0;08:47:34:188;0;5;-1.5;1.82678571428571;1.17302052785924;0;0;0;1;1;1;1;0;0;0;0;0;0;0;0;0;();(-2000.0, -2000.0);
08:47:34:205;08:47:34:170;1448480848.74;(0.4256075382232666, 0.48746473524305556);53.645401001;1.0;08:47:34:205;0;10;-1.5;1.82678571428571;1.17302052785924;0;0;0;1;1;1;1;0;0;0;0;0;0;0;0;0;();(-2000.0, -2000.0);
08:47:34:239;08:47:34:229;1448480848.81;(0.4253636598587036, 0.4871130201551649);53.4603347778;1.0;08:47:34:239;0;10;-1.5;3.05373134328358;2.93255131964809;0;0;0;1;1;1;1;0;0;0;0;0;0;0;0;0;();(-2000.0, -2000.0);
08:47:34:255;08:47:34:229;1448480848.81;(0.4253636598587036, 0.4871130201551649);53.4603347778;1.0;08:47:34:255;0;15;-1.5;3.27884615384615;3.03030303030303;0;0;0;1;1;1;1;0;0;0;0;0;0;0;0;0;();(-2000.0, -2000.0);
08:47:34:272;08:47:34:229;1448480848.81;(0.4253636598587036, 0.4871130201551649);53.4603347778;1.0;08:47:34:272;0;10;-1.5;1.80105633802817;1.17302052785924;0;0;0;1;1;1;1;0;0;0;0;0;0;0;0;0;();(-2000.0, -2000.0);
08:47:34:289;08:47:34:286;1448480848.87;(0.4493544101715088, 0.5102180480957031);52.3044281006;1.0;08:47:34:289;0;15;-1.5;1.99415204678363;1.85728250244379;0;0;0;1;1;1;1;0;0;0;0;0;0;0;0;0;();(-2000.0, -2000.0);
08:47:34:306;08:47:34:286;1448480848.87;(0.4493544101715088, 0.5102180480957031);52.3044281006;1.0;08:47:34:306;0;10;-1.5;2.77235772357724;2.34604105571848;0;0;0;1;1;1;1;0;0;0;0;0;0;0;0;0;();(-2000.0, -2000.0);
08:47:34:339;08:47:34:286;1448480848.87;(0.4493544101715088, 0.5102180480957031);52.3044281006;1.0;08:47:34:339;0;10;-1.5;2.64341085271318;2.34604105571848;0;0;0;1;1;1;1;0;0;0;0;0;0;0;0;0;();(-2000.0, -2000.0);
08:47:34:356;08:47:34:346;1448480848.94;(0.4500889301300049, 0.5125522189670139);52.1524658203;1.0;08:47:34:356;0;15;-1.5;2.48300970873786;1.85728250244379;0;0;0;1;1;1;1;0;0;0;0;0;0;0;0;0;();(-2000.0, -2000.0);
08:47:34:373;08:47:34:346;1448480848.94;(0.4500889301300049, 0.5125522189670139);52.1524658203;1.0;08:47:34:373;0;4;-1.5;2.72074468085106;2.24828934506354;0;0;0;1;1;1;1;0;0;0;0;0;0;0;0;0;();(-2000.0, -2000.0);
08:47:34:390;08:47:34:346;1448480848.94;(0.4500889301300049, 0.5125522189670139);52.1524658203;1.0;08:47:34:390;0;9;-1.5;3.01769911504425;2.34604105571848;0;0;0;1;1;1;1;0;0;0;0;0;0;0;0;0;();(-2000.0, -2000.0);
08:47:34:407;08:47:34:402;1448480848.97;(0.45006814002990725, 0.5130889044867621);52.0224838257;1.0;08:47:34:407;0;5;-1.5;1.68256578947368;0.879765395894428;0;0;0;1;1;1;1;0;0;0;0;0;0;0;0;0;();(-2000.0, -2000.0);
08:47:34:424;08:47:34:402;1448480848.97;(0.45006814002990725, 0.5130889044867621);52.0224838257;1.0;08:47:34:424;0;10;-1.5;1.80105633802817;1.17302052785924;0;0;0;1;1;1;1;0;0;0;0;0;0;0;0;0;();(-2000.0, -2000.0);
08:47:34:457;08:47:34:402;1448480848.97;(0.45006814002990725, 0.5130889044867621);52.0224838257;1.0;08:47:34:457;0;15;-1.5;1.87706422018349;1.17302052785924;0;0;0;1;1;1;1;0;0;0;0;0;0;0;0;0;();(-2000.0, -2000.0);
08:47:34:473;08:47:34:461;1448480849.04;(0.4516733169555664, 0.5121990627712674);52.5529975891;0.958028251403;08:47:34:473;0;4;-1.5;2.28348214285714;1.56402737047898;0;0;0;1;1;1;1;0;0;0;0;0;0;0;0;0;();(-2000.0, -2000.0);
08:47:34:490;08:47:34:461;1448480849.04;(0.4516733169555664, 0.5121990627712674);52.5529975891;0.958028251403;08:47:34:490;0;10;-1.5;2.50122249388753;1.85728250244379;0;0;0;1;1;1;1;0;0;0;0;0;0;0;0;0;();(-2000.0, -2000.0);
08:47:34:507;08:47:34:461;1448480849.04;(0.4516733169555664, 0.5121990627712674);52.5529975891;0.958028251403;08:47:34:507;0;5;-1.5;1.96353166986564;1.46627565982405;0;0;0;1;1;1;1;0;0;0;0;0;0;0;0;0;();(-2000.0, -2000.0);
08:47:34:524;08:47:34:517;1448480849.07;(0.45534510612487794, 0.5089652167426215);51.5613288879;1.0;08:47:34:524;0;10;-1.5;1.76683937823834;1.36852394916911;0;0;0;1;1;1;1;0;0;0;0;0;0;0;0;0;();(-2000.0, -2000.0);
08:47:34:557;08:47:34:517;1448480849.07;(0.45534510612487794, 0.5089652167426215);51.5613288879;1.0;08:47:34:557;0;9;-1.5;3.47959183673469;2.93255131964809;0;0;0;1;1;1;1;0;0;0;0;0;0;0;0;0;();(-2000.0, -2000.0);
08:47:34:574;08:47:34:517;1448480849.07;(0.45534510612487794, 0.5089652167426215);51.5613288879;1.0;08:47:34:574;0;5;-1.5;1.64469453376206;0.879765395894428;0;0;0;1;1;1;1;0;0;0;0;0;0;0;0;0;();(-2000.0, -2000.0);
08:47:34:592;08:47:34:578;1448480849.14;(0.4556690216064453, 0.5081702762179905);50.9173736572;1.0;08:47:34:592;0;10;-1.5;1.82678571428571;1.36852394916911;0;0;0;1;1;1;1;0;0;0;0;0;0;0;0;0;();(-2000.0, -2000.0);
08:47:34:608;08:47:34:578;1448480849.14;(0.4556690216064453, 0.5081702762179905);50.9173736572;1.0;08:47:34:608;0;15;-1.5;1.78846153846154;1.17302052785924;0;0;0;1;1;1;1;0;0;0;0;0;0;0;0;0;();(-2000.0, -2000.0);
08:47:34:624;08:47:34:578;1448480849.14;(0.4556690216064453, 0.5081702762179905);50.9173736572;1.0;08:47:34:624;0;10;-1.5;2.65714285714286;2.34604105571848;0;0;0;1;1;1;1;0;0;0;0;0;0;0;0;0;();(-2000.0, -2000.0);
08:47:34:659;08:47:34:633;1448480849.21;(0.5097984790802002, 0.8320011138916016);26.5327110291;0.8899409421;08:47:34:659;0;10;-1.5;2.0501002004008;1.46627565982405;0;0;0;1;1;1;1;0;0;0;0;0;0;0;0;0;();(-2000.0, -2000.0);
08:47:34:675;08:47:34:633;1448480849.21;(0.5097984790802002, 0.8320011138916016);26.5327110291;0.8899409421;08:47:34:675;0;15;-1.5;1.85662431941924;1.46627565982405;0;0;0;1;1;1;1;0;0;0;0;0;0;0;0;0;();(-2000.0, -2000.0);
08:47:34:692;08:47:34:633;1448480849.21;(0.5097984790802002, 0.8320011138916016);26.5327110291;0.8899409421;08:47:34:692;0;4;-1.5;2.6640625;2.73704789833822;0;0;0;1;1;1;1;0;0;0;0;0;0;0;0;0;();(-2000.0, -2000.0);
08:47:34:709;08:47:34:693;1448480849.27;(0.508830213546753, 0.8342623074849447);25.9615345001;0.942376997034;08:47:34:709;0;9;-1.5;2.88169014084507;3.03030303030303;0;0;0;1;1;1;1;0;0;0;0;0;0;0;0;0;();(-2000.0, -2000.0);
08:47:34:726;08:47:34:693;1448480849.27;(0.508830213546753, 0.8342623074849447);25.9615345001;0.942376997034;08:47:34:726;0;5;-1.5;1.61102362204724;1.17302052785924;0;0;0;1;1;1;1;0;0;0;0;0;0;0;0;0;();(-2000.0, -2000.0);
08:47:34:759;08:47:34:749;1448480849.34;(0.5090040683746337, 0.8340957641601563);26.0174827576;0.943808477817;08:47:34:759;0;15;-1.5;2.65714285714286;2.34604105571848;0;0;0;1;1;1;1;0;0;0;0;0;0;0;0;0;();(-2000.0, -2000.0);
08:47:34:775;08:47:34:749;1448480849.34;(0.5090040683746337, 0.8340957641601563);26.0174827576;0.943808477817;08:47:34:775;0;15;-1.5;1.85662431941924;1.17302052785924;0;0;0;1;1;1;1;0;0;0;0;0;0;0;0;0;();(-2000.0, -2000.0);
08:47:34:792;08:47:34:749;1448480849.34;(0.5090040683746337, 0.8340957641601563);26.0174827576;0.943808477817;08:47:34:792;0;5;-1.5;2.31972789115646;1.66177908113392;0;0;0;1;1;1;1;0;0;0;0;0;0;0;0;0;();(-2000.0, -2000.0);
08:47:34:810;08:47:34:809;1448480849.37;(0.508994197845459, 0.8342339833577475);26.2953243256;1.0;08:47:34:810;0;0;-1.5;2.00195694716243;1.36852394916911;0;0;0;1;1;1;1;0;0;0;0;0;0;0;0;0;();(-2000.0, -2000.0);
08:47:34:826;08:47:34:810;1448480849.41;(0.5090013980865479, 0.8339166111416287);26.2950534821;0.92672204985;08:47:34:826;0;5;-1.5;1.80105633802817;1.17302052785924;0;0;0;1;1;1;1;0;0;0;0;0;0;0;0;0;();(-2000.0, -2000.0);
08:47:34:860;08:47:34:810;1448480849.41;(0.5090013980865479, 0.8339166111416287);26.2950534821;0.92672204985;08:47:34:860;0;4;-1.5;2.84958217270195;2.73704789833822;0;0;0;1;1;1;1;0;0;0;0;0;0;0;0;0;();(-2000.0, -2000.0);
08:47:34:876;08:47:34:865;1448480849.44;(0.5089540481567383, 0.8342854393853082);26.2577075958;0.877285198139;08:47:34:876;0;9;-1.5;2.72074468085106;2.24828934506354;0;0;0;1;1;1;1;0;0;0;0;0;0;0;0;0;();(-2000.0, -2000.0);
08:47:34:893;08:47:34:865;1448480849.44;(0.5089540481567383, 0.8342854393853082);26.2577075958;0.877285198139;08:47:34:893;0;5;-1.5;1.63942307692308;0.684261974584555;0;0;0;1;1;1;1;0;0;0;0;0;0;0;0;0;();(-2000.0, -2000.0);
08:47:34:909;08:47:34:865;1448480849.44;(0.5089540481567383, 0.8342854393853082);26.2577075958;0.877285198139;08:47:34:909;0;10;-1.5;1.68256578947368;0.879765395894428;0;0;0;1;1;1;1;0;0;0;0;0;0;0;0;0;();(-2000.0, -2000.0);
08:47:34:926;08:47:34:925;1448480849.51;(0.5089658260345459, 0.8342644797431098);27.748878479;0.898803845925;08:47:34:926;0;4;-1.5;2.79508196721311;2.44379276637341;0;0;0;1;1;1;1;0;0;0;0;0;0;0;0;0;();(-2000.0, -2000.0);
08:47:34:943;08:47:34:925;1448480849.51;(0.5089658260345459, 0.8342644797431098);27.748878479;0.898803845925;08:47:34:943;0;10;-1.5;2.0625;1.46627565982405;0;0;0;1;1;1;1;0;0;0;0;0;0;0;0;0;();(-2000.0, -2000.0);
08:47:34:977;08:47:34:925;1448480849.51;(0.5089658260345459, 0.8342644797431098);27.748878479;0.898803845925;08:47:34:977;0;10;-1.5;2.48300970873786;1.85728250244379;0;0;0;1;1;1;1;0;0;0;0;0;0;0;0;0;();(-2000.0, -2000.0);
08:47:34:993;08:47:34:981;1448480849.57;(0.5090300083160401, 0.8353966818915473);28.7123718262;0.881732613058;08:47:34:993;0;15;-1.5;2.27839643652561;1.46627565982405;0;0;0;1;1;1;1;0;0;0;0;0;0;0;0;0;();(-2000.0, -2000.0);
08:47:35:010;08:47:34:981;1448480849.57;(0.5090300083160401, 0.8353966818915473);28.7123718262;0.881732613058;08:47:35:010;0;4;-1.5;3.3;2.73704789833822;0;0;0;1;1;1;1;0;0;0;0;0;0;0;0;0;();(-2000.0, -2000.0);
08:47:35:027;08:47:34:981;1448480849.57;(0.5090300083160401, 0.8353966818915473);28.7123718262;0.881732613058;08:47:35:027;0;15;-1.5;1.63157894736842;1.17302052785924;0;0;0;1;1;1;1;0;0;0;0;0;0;0;0;0;();(-2000.0, -2000.0);
08:47:35:044;08:47:35:041;1448480849.64;(0.5088093280792236, 0.8369297133551703);29.1374435425;0.900985726783;08:47:35:044;0;10;-1.5;3.56445993031359;3.81231671554252;0;0;0;1;1;1;1;0;0;0;0;0;0;0;0;0;();(-2000.0, -2000.0);
08:47:35:077;08:47:35:041;1448480849.64;(0.5088093280792236, 0.8369297133551703);29.1374435425;0.900985726783;08:47:35:077;0;4;-1.5;2.37906976744186;2.1505376344086;0;0;0;1;1;1;1;0;0;0;0;0;0;0;0;0;();(-2000.0, -2000.0);
08:47:35:094;08:47:35:041;1448480849.64;(0.5088093280792236, 0.8369297133551703);29.1374435425;0.900985726783;08:47:35:094;0;15;-1.5;1.85662431941924;1.17302052785924;0;0;0;1;1;1;1;0;0;0;0;0;0;0;0;0;();(-2000.0, -2000.0);
08:47:35:112;08:47:35:041;1448480849.64;(0.5088093280792236, 0.8369297133551703);29.1374435425;0.900985726783;08:47:35:112;0;5;-1.5;2.41843971631206;1.85728250244379;0;0;0;1;1;1;1;0;0;0;0;0;0;0;0;0;();(-2000.0, -2000.0);
08:47:35:127;08:47:35:041;1448480849.64;(0.5088093280792236, 0.8369297133551703);29.1374435425;0.900985726783;08:47:35:127;0;15;-1.5;2.0625;1.46627565982405;0;0;0;1;1;1;1;0;0;0;0;0;0;0;0;0;();(-2000.0, -2000.0);
08:47:35:145;08:47:35:041;1448480849.64;(0.5088093280792236, 0.8369297133551703);29.1374435425;0.900985726783;08:47:35:145;0;5;-1.5;1.93383742911153;1.46627565982405;0;0;0;1;1;1;1;0;0;0;0;0;0;0;0;0;();(-2000.0, -2000.0);
08:47:35:178;08:47:35:158;1448480849.73;(0.4154976367950439, 0.5327654096815322);50.7579650879;1.0;08:47:35:178;0;4;-1.5;2.46506024096386;2.34604105571848;0;0;0;1;1;1;1;0;0;0;0;0;0;0;0;0;();(-2000.0, -2000.0);
08:47:35:194;08:47:35:158;1448480849.73;(0.4154976367950439, 0.5327654096815322);50.7579650879;1.0;08:47:35:194;0;0;-1.5;1.61867088607595;1.17302052785924;0;0;0;1;1;1;1;0;0;0;0;0;0;0;0;0;();(-2000.0, -2000.0);
08:47:35:211;08:47:35:158;1448480849.73;(0.4154976367950439, 0.5327654096815322);50.7579650879;1.0;08:47:35:211;0;5;-1.5;1.74871794871795;1.17302052785924;0;0;0;1;1;1;1;0;0;0;0;0;0;0;0;0;();(-2000.0, -2000.0);
08:47:35:228;08:47:35:217;1448480849.8;(0.4143171787261963, 0.5318333095974392);51.1828079224;1.0;08:47:35:228;0;10;-1.5;1.705;1.17302052785924;0;0;0;1;1;1;1;0;0;0;0;0;0;0;0;0;();(-2000.0, -2000.0);
08:47:35:246;08:47:35:217;1448480849.8;(0.4143171787261963, 0.5318333095974392);51.1828079224;1.0;08:47:35:246;0;4;-1.5;2.84958217270195;2.34604105571848;0;0;0;1;1;1;1;0;0;0;0;0;0;0;0;0;();(-2000.0, -2000.0);
08:47:35:278;08:47:35:273;1448480849.84;(0.41422059535980227, 0.532035870022244);51.4055557251;1.0;08:47:35:278;0;0;-1.5;2.13125;1.46627565982405;0;0;0;1;1;1;1;0;0;0;0;0;0;0;0;0;();(-2000.0, -2000.0);
08:47:35:295;08:47:35:273;1448480849.84;(0.41422059535980227, 0.532035870022244);51.4055557251;1.0;08:47:35:295;0;10;-1.5;2.53846153846154;2.34604105571848;0;0;0;1;1;1;1;0;0;0;0;0;0;0;0;0;();(-2000.0, -2000.0);
08:47:35:312;08:47:35:273;1448480849.84;(0.41422059535980227, 0.532035870022244);51.4055557251;1.0;08:47:35:312;0;5;-1.5;1.86;1.17302052785924;0;0;0;1;1;1;1;0;0;0;0;0;0;0;0;0;();(-2000.0, -2000.0);
08:47:35:329;08:47:35:273;1448480849.84;(0.41422059535980227, 0.532035870022244);51.4055557251;1.0;08:47:35:329;0;10;-1.5;1.80105633802817;1.17302052785924;0;0;0;1;1;1;1;0;0;0;0;0;0;0;0;0;();(-2000.0, -2000.0);
08:47:35:345;08:47:35:273;1448480849.84;(0.41422059535980227, 0.532035870022244);51.4055557251;1.0;08:47:35:345;0;15;-1.5;1.81705150976909;1.17302052785924;0;0;0;1;1;1;1;0;0;0;0;0;0;0;0;0;();(-2000.0, -2000.0);
08:47:35:379;08:47:35:273;1448480849.84;(0.41422059535980227, 0.532035870022244);51.4055557251;1.0;08:47:35:379;0;15;-1.5;3.05373134328358;2.34604105571848;0;0;0;1;1;1;1;0;0;0;0;0;0;0;0;0;();(-2000.0, -2000.0);
08:47:35:396;08:47:35:389;1448480849.87;(0.38811864852905276, 0.5330880906846789);57.5129203796;0.79106106482;08:47:35:396;0;10;-1.5;2.0501002004008;1.46627565982405;0;0;0;1;1;1;1;0;0;0;0;0;0;0;0;0;();(-2000.0, -2000.0);
08:47:35:412;08:47:35:389;1448480849.87;(0.38811864852905276, 0.5330880906846789);57.5129203796;0.79106106482;08:47:35:412;0;15;-1.5;1.87020109689214;1.46627565982405;0;0;0;1;1;1;1;0;0;0;0;0;0;0;0;0;();(-2000.0, -2000.0);
08:47:35:429;08:47:35:389;1448480849.87;(0.38811864852905276, 0.5330880906846789);57.5129203796;0.79106106482;08:47:35:429;0;10;-1.5;2.36258660508083;1.66177908113392;0;0;0;1;1;1;1;0;0;0;0;0;0;0;0;0;();(-2000.0, -2000.0);
08:47:35:446;08:47:35:389;1448480849.87;(0.38811864852905276, 0.5330880906846789);57.5129203796;0.79106106482;08:47:35:446;0;0;-1.5;1.92655367231638;1.17302052785924;0;0;0;1;1;1;1;0;0;0;0;0;0;0;0;0;();(-2000.0, -2000.0);
08:47:35:463;08:47:35:450;1448480850.04;(0.37006411552429197, 0.534978018866645);52.7544898987;1.0;08:47:35:463;0;4;-1.5;1.92655367231638;1.46627565982405;0;0;0;1;1;1;1;0;0;0;0;0;0;0;0;0;();(-2000.0, -2000.0);
08:47:35:496;08:47:35:450;1448480850.04;(0.37006411552429197, 0.534978018866645);52.7544898987;1.0;08:47:35:496;0;4;-1.5;2.19057815845824;1.46627565982405;0;0;0;1;1;1;1;0;0;0;0;0;0;0;0;0;();(-2000.0, -2000.0);
08:47:35:513;08:47:35:505;1448480850.07;(0.3699753522872925, 0.5347188737657336);52.6825256348;1.0;08:47:35:513;0;15;-1.5;1.71932773109244;0.879765395894428;0;0;0;1;1;1;1;0;0;0;0;0;0;0;0;0;();(-2000.0, -2000.0);
08:47:35:530;08:47:35:505;1448480850.07;(0.3699753522872925, 0.5347188737657336);52.6825256348;1.0;08:47:35:530;0;5;-1.5;1.83333333333333;1.17302052785924;0;0;0;1;1;1;1;0;0;0;0;0;0;0;0;0;();(-2000.0, -2000.0);
08:47:35:546;08:47:35:505;1448480850.07;(0.3699753522872925, 0.5347188737657336);52.6825256348;1.0;08:47:35:546;0;10;-1.5;1.78846153846154;1.36852394916911;0;0;0;1;1;1;1;0;0;0;0;0;0;0;0;0;();(-2000.0, -2000.0);
08:47:35:563;08:47:35:505;1448480850.07;(0.3699753522872925, 0.5347188737657336);52.6825256348;1.0;08:47:35:563;0;4;-1.5;2.72074468085106;2.44379276637341;0;0;0;1;1;1;1;0;0;0;0;0;0;0;0;0;();(-2000.0, -2000.0);
08:47:35:597;08:47:35:565;1448480850.14;(0.42257497310638426, 0.517854012383355);51.7241401672;1.0;08:47:35:597;0;4;-1.5;1.80742049469965;1.17302052785924;0;0;0;1;1;1;1;0;0;0;0;0;0;0;0;0;();(-2000.0, -2000.0);
08:47:35:614;08:47:35:565;1448480850.14;(0.42257497310638426, 0.517854012383355);51.7241401672;1.0;08:47:35:614;0;10;-1.5;2.6640625;2.34604105571848;0;0;0;1;1;1;1;0;0;0;0;0;0;0;0;0;();(-2000.0, -2000.0);
08:47:35:631;08:47:35:621;1448480850.2;(0.4838387966156006, 0.8748323228624132);30.0212917328;0.847642991686;08:47:35:631;0;5;-1.5;1.78846153846154;1.17302052785924;0;0;0;1;1;1;1;0;0;0;0;0;0;0;0;0;();(-2000.0, -2000.0);
08:47:35:647;08:47:35:621;1448480850.2;(0.4838387966156006, 0.8748323228624132);30.0212917328;0.847642991686;08:47:35:646;0;9;-1.5;1.90858208955224;1.46627565982405;0;0;0;1;1;1;1;0;0;0;0;0;0;0;0;0;();(-2000.0, -2000.0);
08:47:35:664;08:47:35:621;1448480850.2;(0.4838387966156006, 0.8748323228624132);30.0212917328;0.847642991686;08:47:35:664;0;15;-1.5;1.705;1.36852394916911;0;0;0;1;1;1;1;0;0;0;0;0;0;0;0;0;();(-2000.0, -2000.0);
08:47:35:698;08:47:35:681;1448480850.27;(0.4841905117034912, 0.8763138771057128);31.0282039642;0.843853540842;08:47:35:698;0;15;-1.5;2.44152744630072;2.1505376344086;0;0;0;1;1;1;1;0;0;0;0;0;0;0;0;0;();(-2000.0, -2000.0);
08:47:35:714;08:47:35:681;1448480850.27;(0.4841905117034912, 0.8763138771057128);31.0282039642;0.843853540842;08:47:35:714;0;10;-1.5;1.453125;0.684261974584555;0;0;0;1;1;1;1;0;0;0;0;0;0;0;0;0;();(-2000.0, -2000.0);
08:47:35:731;08:47:35:681;1448480850.27;(0.4841905117034912, 0.8763138771057128);31.0282039642;0.843853540842;08:47:35:731;0;15;-1.5;1.82678571428571;1.36852394916911;0;0;0;1;1;1;1;0;0;0;0;0;0;0;0;0;();(-2000.0, -2000.0);
08:47:35:748;08:47:35:737;1448480850.34;(0.4844020366668701, 0.8769880082872179);30.9003200531;0.908280075117;08:47:35:748;0;4;-1.5;2.26829268292683;1.85728250244379;0;0;0;1;1;1;1;0;0;0;0;0;0;0;0;0;();(-2000.0, -2000.0);
08:47:35:765;08:47:35:737;1448480850.34;(0.4844020366668701, 0.8769880082872179);30.9003200531;0.908280075117;08:47:35:765;0;0;-1.5;2.12681912681913;1.66177908113392;0;0;0;1;1;1;1;0;0;0;0;0;0;0;0;0;();(-2000.0, -2000.0);
08:47:35:798;08:47:35:798;1448480850.37;(0.4848531723022461, 0.8772992451985677);31.5586261749;0.808337433372;08:47:35:798;0;15;-1.5;2.36805555555556;1.95503421309873;0;0;0;1;1;1;1;0;0;0;0;0;0;0;0;0;();(-2000.0, -2000.0);
08:47:35:816;08:47:35:798;1448480850.37;(0.4848531723022461, 0.8772992451985677);31.5586261749;0.808337433372;08:47:35:816;0;4;-1.5;2.84958217270195;2.34604105571848;0;0;0;1;1;1;1;0;0;0;0;0;0;0;0;0;();(-2000.0, -2000.0);
08:47:35:833;08:47:35:798;1448480850.37;(0.4848531723022461, 0.8772992451985677);31.5586261749;0.808337433372;08:47:35:833;0;9;-1.5;2.73529411764706;2.34604105571848;0;0;0;1;1;1;1;0;0;0;0;0;0;0;0;0;();(-2000.0, -2000.0);
08:47:35:848;08:47:35:798;1448480850.37;(0.4848531723022461, 0.8772992451985677);31.5586261749;0.808337433372;08:47:35:848;0;5;-1.5;1.97109826589595;1.85728250244379;0;0;0;1;1;1;1;0;0;0;0;0;0;0;0;0;();(-2000.0, -2000.0);
08:47:35:866;08:47:35:853;1448480850.4;(0.48514704704284667, 0.8768233511182997);32.0116424561;0.803367059612;08:47:35:866;0;10;-1.5;1.89444444444444;1.46627565982405;0;0;0;1;1;1;1;0;0;0;0;0;0;0;0;0;();(-2000.0, -2000.0);
08:47:35:899;08:47:35:853;1448480850.4;(0.48514704704284667, 0.8768233511182997);32.0116424561;0.803367059612;08:47:35:899;0;9;-1.5;2.73529411764706;2.1505376344086;0;0;0;1;1;1;1;0;0;0;0;0;0;0;0;0;();(-2000.0, -2000.0);
08:47:35:916;08:47:35:913;1448480850.47;(0.42181012630462644, 0.5199835883246529);53.7022132874;1.0;08:47:35:916;0;0;-1.5;1.98640776699029;1.36852394916911;0;0;0;1;1;1;1;0;0;0;0;0;0;0;0;0;();(-2000.0, -2000.0);
08:47:35:932;08:47:35:913;1448480850.47;(0.42181012630462644, 0.5199835883246529);53.7022132874;1.0;08:47:35:932;0;10;-1.5;2.88169014084507;2.34604105571848;0;0;0;1;1;1;1;0;0;0;0;0;0;0;0;0;();(-2000.0, -2000.0);
08:47:35:949;08:47:35:913;1448480850.47;(0.42181012630462644, 0.5199835883246529);53.7022132874;1.0;08:47:35:949;0;15;-1.5;2.88169014084507;2.34604105571848;0;0;0;1;1;1;1;0;0;0;0;0;0;0;0;0;();(-2000.0, -2000.0);
08:47:35:966;08:47:35:913;1448480850.47;(0.42181012630462644, 0.5199835883246529);53.7022132874;1.0;08:47:35:966;0;10;-1.5;1.77913043478261;1.17302052785924;0;0;0;1;1;1;1;0;0;0;0;0;0;0;0;0;();(-2000.0, -2000.0);
08:47:35:984;08:47:35:969;1448480850.54;(0.4292637348175049, 0.5118466271294488);53.7470397949;1.0;08:47:35:984;0;15;-1.5;1.54531722054381;0.684261974584555;0;0;0;1;1;1;1;0;0;0;0;0;0;0;0;0;();(-2000.0, -2000.0);
08:47:36:016;08:47:35:969;1448480850.54;(0.4292637348175049, 0.5118466271294488);53.7470397949;1.0;08:47:36:016;0;5;-1.5;1.61611374407583;0.684261974584555;0;0;0;1;1;1;1;0;0;0;0;0;0;0;0;0;();(-2000.0, -2000.0);
08:47:36:034;08:47:36:029;1448480850.6;(0.4899453163146973, 0.8714628325568305);27.222568512;0.985698104051;08:47:36:034;0;10;-1.5;1.68256578947368;0.879765395894428;0;0;0;1;1;1;1;0;0;0;0;0;0;0;0;0;();(-2000.0, -2000.0);
08:47:36:050;08:47:36:029;1448480850.6;(0.4899453163146973, 0.8714628325568305);27.222568512;0.985698104051;08:47:36:050;0;15;-1.5;2.05835010060362;1.46627565982405;0;0;0;1;1;1;1;0;0;0;0;0;0;0;0;0;();(-2000.0, -2000.0);
08:47:36:068;08:47:36:029;1448480850.6;(0.4899453163146973, 0.8714628325568305);27.222568512;0.985698104051;08:47:36:068;0;14;-1.5;1.77913043478261;1.17302052785924;0;0;0;1;1;1;1;0;0;0;0;0;0;0;0;0;();(-2000.0, -2000.0);
08:47:36:084;08:47:36:029;1448480850.6;(0.4899453163146973, 0.8714628325568305);27.222568512;0.985698104051;08:47:36:084;0;10;-1.5;2.64341085271318;2.1505376344086;0;0;0;1;1;1;1;0;0;0;0;0;0;0;0;0;();(-2000.0, -2000.0);
08:47:36:117;08:47:36:085;1448480850.67;(0.4903913974761963, 0.871687094370524);27.2290859222;0.98977353006;08:47:36:117;0;15;-1.5;2.77235772357724;2.44379276637341;0;0;0;1;1;1;1;0;0;0;0;0;0;0;0;0;();(-2000.0, -2000.0);
08:47:36:134;08:47:36:085;1448480850.67;(0.4903913974761963, 0.871687094370524);27.2290859222;0.98977353006;08:47:36:134;0;9;-1.5;1.83333333333333;1.17302052785924;0;0;0;1;1;1;1;0;0;0;0;0;0;0;0;0;();(-2000.0, -2000.0);
08:47:36:150;08:47:36:145;1448480850.7;(0.4367795467376709, 0.5254996405707466);53.9823570251;1.0;08:47:36:150;0;15;-1.5;1.75471698113208;1.17302052785924;0;0;0;1;1;1;1;0;0;0;0;0;0;0;0;0;();(-2000.0, -2000.0);
08:47:36:170;08:47:36:145;1448480850.7;(0.4367795467376709, 0.5254996405707466);53.9823570251;1.0;08:47:36:170;0;5;-1.5;1.73096446700508;1.17302052785924;0;0;0;1;1;1;1;0;0;0;0;0;0;0;0;0;();(-2000.0, -2000.0);
08:47:36:184;08:47:36:145;1448480850.7;(0.4367795467376709, 0.5254996405707466);53.9823570251;1.0;08:47:36:184;0;15;-1.5;3.27884615384615;2.73704789833822;0;0;0;1;1;1;1;0;0;0;0;0;0;0;0;0;();(-2000.0, -2000.0);
08:47:36:217;08:47:36:202;1448480850.8;(0.48619875907897947, 0.882031938764784);31.4184875488;0.988572029679;08:47:36:217;0;15;-1.5;2.0297619047619;1.46627565982405;0;0;0;1;1;1;1;0;0;0;0;0;0;0;0;0;();(-2000.0, -2000.0);
08:47:36:234;08:47:36:202;1448480850.8;(0.48619875907897947, 0.882031938764784);31.4184875488;0.988572029679;08:47:36:234;0;5;-1.5;2.0625;1.46627565982405;0;0;0;1;1;1;1;0;0;0;0;0;0;0;0;0;();(-2000.0, -2000.0);
08:47:36:251;08:47:36:202;1448480850.8;(0.48619875907897947, 0.882031938764784);31.4184875488;0.988572029679;08:47:36:251;0;10;-1.5;2.53846153846154;1.85728250244379;0;0;0;1;1;1;1;0;0;0;0;0;0;0;0;0;();(-2000.0, -2000.0);
08:47:36:268;08:47:36:261;1448480850.84;(0.48612103462219236, 0.8816366301642524);31.3489017487;0.993077972855;08:47:36:268;0;4;-1.5;1.99415204678363;1.46627565982405;0;0;0;1;1;1;1;0;0;0;0;0;0;0;0;0;();(-2000.0, -2000.0);
08:47:36:285;08:47:36:261;1448480850.84;(0.48612103462219236, 0.8816366301642524);31.3489017487;0.993077972855;08:47:36:285;0;9;-1.5;1.82352941176471;1.17302052785924;0;0;0;1;1;1;1;0;0;0;0;0;0;0;0;0;();(-2000.0, -2000.0);
08:47:36:318;08:47:36:317;1448480850.9;(0.486328649520874, 0.8815076722039117);31.5357112885;0.943887292168;08:47:36:318;0;11;-1.5;2.84958217270195;2.73704789833822;0;0;0;1;1;1;1;0;0;0;0;0;0;0;0;0;();(-2000.0, -2000.0);
08:47:36:335;08:47:36:317;1448480850.9;(0.486328649520874, 0.8815076722039117);31.5357112885;0.943887292168;08:47:36:335;0;5;-1.5;1.78222996515679;1.36852394916911;0;0;0;1;1;1;1;0;0;0;0;0;0;0;0;0;();(-2000.0, -2000.0);
08:47:36:353;08:47:36:317;1448480850.9;(0.486328649520874, 0.8815076722039117);31.5357112885;0.943887292168;08:47:36:353;0;10;-1.5;1.71070234113712;0.879765395894428;0;0;0;1;1;1;1;0;0;0;0;0;0;0;0;0;();(-2000.0, -2000.0);
08:47:36:368;08:47:36:317;1448480850.9;(0.486328649520874, 0.8815076722039117);31.5357112885;0.943887292168;08:47:36:368;0;15;-1.5;2.0625;1.46627565982405;0;0;0;1;1;1;1;0;0;0;0;0;0;0;0;0;();(-2000.0, -2000.0);
08:47:36:385;08:47:36:377;1448480850.97;(0.4861334800720215, 0.8818663385179307);31.325717926;0.974147404085;08:47:36:385;0;10;-1.5;2.41843971631206;2.1505376344086;0;0;0;1;1;1;1;0;0;0;0;0;0;0;0;0;();(-2000.0, -2000.0);
08:47:36:419;08:47:36:377;1448480850.97;(0.4861334800720215, 0.8818663385179307);31.325717926;0.974147404085;08:47:36:419;0;10;-1.5;2.46506024096386;2.24828934506354;0;0;0;1;1;1;1;0;0;0;0;0;0;0;0;0;();(-2000.0, -2000.0);
08:47:36:435;08:47:36:377;1448480850.97;(0.4861334800720215, 0.8818663385179307);31.325717926;0.974147404085;08:47:36:435;0;15;-1.5;2.58333333333333;1.85728250244379;0;0;0;1;1;1;1;0;0;0;0;0;0;0;0;0;();(-2000.0, -2000.0);
08:47:36:453;08:47:36:437;1448480851.0;(0.48645648956298826, 0.8817119068569608);31.2021312714;0.924170012581;08:47:36:453;0;4;-1.5;3.01769911504425;2.34604105571848;0;0;0;1;1;1;1;0;0;0;0;0;0;0;0;0;();(-2000.0, -2000.0);
08:47:36:470;08:47:36:437;1448480851.0;(0.48645648956298826, 0.8817119068569608);31.2021312714;0.924170012581;08:47:36:469;0;15;-1.5;1.67430441898527;1.17302052785924;0;0;0;1;1;1;1;0;0;0;0;0;0;0;0;0;();(-2000.0, -2000.0);
08:47:36:486;08:47:36:437;1448480851.0;(0.48645648956298826, 0.8817119068569608);31.2021312714;0.924170012581;08:47:36:486;0;10;-1.5;3.21698113207547;2.73704789833822;0;0;0;1;1;1;1;0;0;0;0;0;0;0;0;0;();(-2000.0, -2000.0);
08:47:36:519;08:47:36:493;1448480851.07;(0.25336422920227053, 0.34876001146104596);21.9113731384;0.733671948471;08:47:36:519;0;4;-1.5;2.6640625;2.1505376344086;0;0;0;1;1;1;1;0;0;0;0;0;0;0;0;0;();(-2000.0, -2000.0);
08:47:36:536;08:47:36:493;1448480851.07;(0.25336422920227053, 0.34876001146104596);21.9113731384;0.733671948471;08:47:36:536;0;9;-1.5;2.26829268292683;1.46627565982405;0;0;0;1;1;1;1;0;0;0;0;0;0;0;0;0;();(-2000.0, -2000.0);
08:47:36:554;08:47:36:553;1448480851.14;(0, 0);0;0;08:47:36:554;0;4;-1.5;2.24835164835165;1.85728250244379;0;0;0;1;1;1;1;0;0;0;0;0;0;0;0;0;();(-2000.0, -2000.0);
08:47:36:570;08:47:36:553;1448480851.14;(0, 0);0;0;08:47:36:570;0;15;-1.5;2.00588235294118;1.17302052785924;0;0;0;1;1;1;1;0;0;0;0;0;0;0;0;0;();(-2000.0, -2000.0);
08:47:36:588;08:47:36:553;1448480851.14;(0, 0);0;0;08:47:36:588;0;5;-1.5;1.73979591836735;1.17302052785924;0;0;0;1;1;1;1;0;0;0;0;0;0;0;0;0;();(-2000.0, -2000.0);
08:47:36:604;08:47:36:553;1448480851.14;(0, 0);0;0;08:47:36:604;0;9;-1.5;1.89444444444444;1.36852394916911;0;0;0;1;1;1;1;0;0;0;0;0;0;0;0;0;();(-2000.0, -2000.0);
08:47:36:637;08:47:36:609;1448480851.2;(0.4227391004562378, 0.5673877292209202);55.8115768433;1.0;08:47:36:637;0;9;-1.5;2.97383720930233;2.34604105571848;0;0;0;1;1;1;1;0;0;0;0;0;0;0;0;0;();(-2000.0, -2000.0);
08:47:36:654;08:47:36:609;1448480851.2;(0.4227391004562378, 0.5673877292209202);55.8115768433;1.0;08:47:36:654;0;13;-1.5;3.12844036697248;2.44379276637341;0;0;0;1;1;1;1;0;0;0;0;0;0;0;0;0;();(-2000.0, -2000.0);
08:47:36:671;08:47:36:669;1448480851.27;(0.4236825704574585, 0.5665860070122613);55.8362808228;1.0;08:47:36:671;0;10;-1.5;1.87706422018349;1.17302052785924;0;0;0;1;1;1;1;0;0;0;0;0;0;0;0;0;();(-2000.0, -2000.0);
08:47:36:687;08:47:36:669;1448480851.27;(0.4236825704574585, 0.5665860070122613);55.8362808228;1.0;08:47:36:687;0;4;-1.5;2.64341085271318;2.1505376344086;0;0;0;1;1;1;1;0;0;0;0;0;0;0;0;0;();(-2000.0, -2000.0);
08:47:36:704;08:47:36:669;1448480851.27;(0.4236825704574585, 0.5665860070122613);55.8362808228;1.0;08:47:36:704;0;10;-1.5;1.95229007633588;1.36852394916911;0;0;0;1;1;1;1;0;0;0;0;0;0;0;0;0;();(-2000.0, -2000.0);
08:47:36:737;08:47:36:725;1448480851.3;(0.4236506462097168, 0.5666390313042535);55.9300842285;1.0;08:47:36:737;0;10;-1.5;2.21428571428571;1.85728250244379;0;0;0;1;1;1;1;0;0;0;0;0;0;0;0;0;();(-2000.0, -2000.0);
08:47:36:754;08:47:36:725;1448480851.3;(0.4236506462097168, 0.5666390313042535);55.9300842285;1.0;08:47:36:754;0;15;-1.5;3.81716417910448;3.03030303030303;0;0;0;1;1;1;1;0;0;0;0;0;0;0;0;0;();(-2000.0, -2000.0);
08:47:36:771;08:47:36:725;1448480851.3;(0.4236506462097168, 0.5666390313042535);55.9300842285;1.0;08:47:36:771;0;4;-1.5;3.64056939501779;3.81231671554252;0;0;0;1;1;1;1;0;0;0;0;0;0;0;0;0;();(-2000.0, -2000.0);
08:47:36:788;08:47:36:785;1448480851.37;(0.4237168073654175, 0.5688855489095053);56.4947929382;1.0;08:47:36:788;0;15;-1.5;1.63157894736842;0.684261974584555;0;0;0;1;1;1;1;0;0;0;0;0;0;0;0;0;();(-2000.0, -2000.0);
08:47:36:804;08:47:36:785;1448480851.37;(0.4237168073654175, 0.5688855489095053);56.4947929382;1.0;08:47:36:804;0;9;-1.5;2.6640625;2.34604105571848;0;0;0;1;1;1;1;0;0;0;0;0;0;0;0;0;();(-2000.0, -2000.0);
08:47:36:839;08:47:36:785;1448480851.37;(0.4237168073654175, 0.5688855489095053);56.4947929382;1.0;08:47:36:839;0;4;-1.5;2.325;1.66177908113392;0;0;0;1;1;1;1;0;0;0;0;0;0;0;0;0;();(-2000.0, -2000.0);
08:47:36:856;08:47:36:841;1448480851.44;(0.42408902645111085, 0.5685128106011285);56.7092857361;1.0;08:47:36:856;0;9;-1.5;2.46506024096386;1.85728250244379;0;0;0;1;1;1;1;0;0;0;0;0;0;0;0;0;();(-2000.0, -2000.0);
08:47:36:871;08:47:36:841;1448480851.44;(0.42408902645111085, 0.5685128106011285);56.7092857361;1.0;08:47:36:871;0;4;-1.5;2.24835164835165;1.46627565982405;0;0;0;1;1;1;1;0;0;0;0;0;0;0;0;0;();(-2000.0, -2000.0);
08:47:36:888;08:47:36:841;1448480851.44;(0.42408902645111085, 0.5685128106011285);56.7092857361;1.0;08:47:36:888;0;15;-1.5;2.07085020242915;1.46627565982405;0;0;0;1;1;1;1;0;0;0;0;0;0;0;0;0;();(-2000.0, -2000.0);
08:47:36:905;08:47:36:902;1448480851.47;(0.42428388595581057, 0.5683355543348525);56.88438797;1.0;08:47:36:905;0;4;-1.5;1.94117647058824;1.36852394916911;0;0;0;1;1;1;1;0;0;0;0;0;0;0;0;0;();(-2000.0, -2000.0);
08:47:36:922;08:47:36:902;1448480851.47;(0.42428388595581057, 0.5683355543348525);56.88438797;1.0;08:47:36:922;0;9;-1.5;1.89444444444444;1.17302052785924;0;0;0;1;1;1;1;0;0;0;0;0;0;0;0;0;();(-2000.0, -2000.0);
08:47:36:956;08:47:36:902;1448480851.47;(0.42428388595581057, 0.5683355543348525);56.88438797;1.0;08:47:36:956;0;9;-1.5;2.93965517241379;2.34604105571848;0;0;0;1;1;1;1;0;0;0;0;0;0;0;0;0;();(-2000.0, -2000.0);
08:47:36:974;08:47:36:958;1448480851.54;(0.4242973327636719, 0.5679703182644315);57.0330886841;1.0;08:47:36:974;0;5;-1.5;1.67430441898527;0.879765395894428;0;0;0;1;1;1;1;0;0;0;0;0;0;0;0;0;();(-2000.0, -2000.0);
08:47:36:990;08:47:36:958;1448480851.54;(0.4242973327636719, 0.5679703182644315);57.0330886841;1.0;08:47:36:990;0;10;-1.5;1.75471698113208;1.17302052785924;0;0;0;1;1;1;1;0;0;0;0;0;0;0;0;0;();(-2000.0, -2000.0);
08:47:37:006;08:47:36:958;1448480851.54;(0.4242973327636719, 0.5679703182644315);57.0330886841;1.0;08:47:37:006;0;15;-1.5;1.77913043478261;1.36852394916911;0;0;0;1;1;1;1;0;0;0;0;0;0;0;0;0;();(-2000.0, -2000.0);
08:47:37:039;08:47:37:017;1448480851.57;(0.3973418951034546, 0.5696219550238715);58.0686721802;1.0;08:47:37:039;0;4;-1.5;1.82352941176471;1.36852394916911;0;0;0;1;1;1;1;0;0;0;0;0;0;0;0;0;();(-2000.0, -2000.0);
08:47:37:056;08:47:37:017;1448480851.57;(0.3973418951034546, 0.5696219550238715);58.0686721802;1.0;08:47:37:056;0;10;-1.5;2.97383720930233;2.73704789833822;0;0;0;1;1;1;1;0;0;0;0;0;0;0;0;0;();(-2000.0, -2000.0);
08:47:37:073;08:47:37:017;1448480851.57;(0.3973418951034546, 0.5696219550238715);58.0686721802;1.0;08:47:37:073;0;15;-1.5;3.36513157894737;2.73704789833822;0;0;0;1;1;1;1;0;0;0;0;0;0;0;0;0;();(-2000.0, -2000.0);
08:47:37:089;08:47:37:074;1448480851.67;(0.39933199882507325, 0.5710762023925782);57.8167419434;1.0;08:47:37:089;0;4;-1.5;3.27884615384615;2.73704789833822;0;0;0;1;1;1;1;0;0;0;0;0;0;0;0;0;();(-2000.0, -2000.0);
08:47:37:106;08:47:37:074;1448480851.67;(0.39933199882507325, 0.5710762023925782);57.8167419434;1.0;08:47:37:106;0;15;-1.5;1.80105633802817;1.17302052785924;0;0;0;1;1;1;1;0;0;0;0;0;0;0;0;0;();(-2000.0, -2000.0);
08:47:37:123;08:47:37:074;1448480851.67;(0.39933199882507325, 0.5710762023925782);57.8167419434;1.0;08:47:37:123;0;10;-1.5;2.97383720930233;2.34604105571848;0;0;0;1;1;1;1;0;0;0;0;0;0;0;0;0;();(-2000.0, -2000.0);
08:47:37:156;08:47:37:133;1448480851.74;(0.40011889934539796, 0.5732562171088325);57.6938476562;1.0;08:47:37:156;0;10;-1.5;1.92655367231638;1.36852394916911;0;0;0;1;1;1;1;0;0;0;0;0;0;0;0;0;();(-2000.0, -2000.0);
08:47:37:173;08:47:37:133;1448480851.74;(0.40011889934539796, 0.5732562171088325);57.6938476562;1.0;08:47:37:173;0;15;-1.5;2.14915966386555;1.46627565982405;0;0;0;1;1;1;1;0;0;0;0;0;0;0;0;0;();(-2000.0, -2000.0);
08:47:37:190;08:47:37:190;1448480851.77;(0.4003286600112915, 0.5750633239746094);57.2781333923;1.0;08:47:37:190;0;10;-1.5;2.24835164835165;1.46627565982405;0;0;0;1;1;1;1;0;0;0;0;0;0;0;0;0;();(-2000.0, -2000.0);
08:47:37:208;08:47:37:190;1448480851.77;(0.4003286600112915, 0.5750633239746094);57.2781333923;1.0;08:47:37:208;0;0;-1.5;1.90858208955224;1.46627565982405;0;0;0;1;1;1;1;0;0;0;0;0;0;0;0;0;();(-2000.0, -2000.0);
08:47:37:223;08:47:37:190;1448480851.77;(0.4003286600112915, 0.5750633239746094);57.2781333923;1.0;08:47:37:223;0;5;-1.5;1.90502793296089;1.46627565982405;0;0;0;1;1;1;1;0;0;0;0;0;0;0;0;0;();(-2000.0, -2000.0);
08:47:37:257;08:47:37:249;1448480851.84;(0.4006446361541748, 0.57632933722602);56.6583824158;1.0;08:47:37:257;0;4;-1.5;3.2373417721519;2.73704789833822;0;0;0;1;1;1;1;0;0;0;0;0;0;0;0;0;();(-2000.0, -2000.0);
08:47:37:274;08:47:37:249;1448480851.84;(0.4006446361541748, 0.57632933722602);56.6583824158;1.0;08:47:37:274;0;9;-1.5;3.20689655172414;3.03030303030303;0;0;0;1;1;1;1;0;0;0;0;0;0;0;0;0;();(-2000.0, -2000.0);
08:47:37:292;08:47:37:249;1448480851.84;(0.4006446361541748, 0.57632933722602);56.6583824158;1.0;08:47:37:292;0;5;-1.5;1.73389830508475;0.879765395894428;0;0;0;1;1;1;1;0;0;0;0;0;0;0;0;0;();(-2000.0, -2000.0);
08:47:37:307;08:47:37:305;1448480851.9;(0.4006051540374756, 0.5761906517876518);55.392578125;1.0;08:47:37:307;0;15;-1.5;2.6640625;2.1505376344086;0;0;0;1;1;1;1;0;0;0;0;0;0;0;0;0;();(-2000.0, -2000.0);
08:47:37:324;08:47:37:305;1448480851.9;(0.4006051540374756, 0.5761906517876518);55.392578125;1.0;08:47:37:324;0;10;-1.5;1.85662431941924;1.17302052785924;0;0;0;1;1;1;1;0;0;0;0;0;0;0;0;0;();(-2000.0, -2000.0);
08:47:37:358;08:47:37:305;1448480851.9;(0.4006051540374756, 0.5761906517876518);55.392578125;1.0;08:47:37:358;0;5;-1.5;2.30405405405405;2.34604105571848;0;0;0;1;1;1;1;0;0;0;0;0;0;0;0;0;();(-2000.0, -2000.0);
08:47:37:374;08:47:37:365;1448480851.94;(0.4004775285720825, 0.5760052575005425);55.3171272278;1.0;08:47:37:374;0;10;-1.5;2.56390977443609;2.34604105571848;0;0;0;1;1;1;1;0;0;0;0;0;0;0;0;0;();(-2000.0, -2000.0);
08:47:37:391;08:47:37:365;1448480851.94;(0.4004775285720825, 0.5760052575005425);55.3171272278;1.0;08:47:37:391;0;15;-1.5;2.35172413793103;1.66177908113392;0;0;0;1;1;1;1;0;0;0;0;0;0;0;0;0;();(-2000.0, -2000.0);
08:47:37:408;08:47:37:365;1448480851.94;(0.4004775285720825, 0.5760052575005425);55.3171272278;1.0;08:47:37:408;0;10;-1.5;1.63942307692308;0.684261974584555;0;0;0;1;1;1;1;0;0;0;0;0;0;0;0;0;();(-2000.0, -2000.0);
08:47:37:426;08:47:37:422;1448480852.0;(0.4004714012145996, 0.5754126230875651);54.8598976135;1.0;08:47:37:426;0;0;-1.5;1.81705150976909;1.17302052785924;0;0;0;1;1;1;1;0;0;0;0;0;0;0;0;0;();(-2000.0, -2000.0);
08:47:37:458;08:47:37:422;1448480852.0;(0.4004714012145996, 0.5754126230875651);54.8598976135;1.0;08:47:37:458;0;0;-1.5;2.28348214285714;1.66177908113392;0;0;0;1;1;1;1;0;0;0;0;0;0;0;0;0;();(-2000.0, -2000.0);
08:47:37:475;08:47:37:422;1448480852.0;(0.4004714012145996, 0.5754126230875651);54.8598976135;1.0;08:47:37:475;0;4;-1.5;2.61636828644501;1.85728250244379;0;0;0;1;1;1;1;0;0;0;0;0;0;0;0;0;();(-2000.0, -2000.0);
08:47:37:493;08:47:37:481;1448480852.04;(0.39631974697113037, 0.5740360260009766);54.6389923096;1.0;08:47:37:493;0;15;-1.5;2.00195694716243;1.36852394916911;0;0;0;1;1;1;1;0;0;0;0;0;0;0;0;0;();(-2000.0, -2000.0);
08:47:37:509;08:47:37:481;1448480852.04;(0.39631974697113037, 0.5740360260009766);54.6389923096;1.0;08:47:37:509;0;5;-1.5;2.13125;1.46627565982405;0;0;0;1;1;1;1;0;0;0;0;0;0;0;0;0;();(-2000.0, -2000.0);
08:47:37:525;08:47:37:481;1448480852.04;(0.39631974697113037, 0.5740360260009766);54.6389923096;1.0;08:47:37:525;0;5;-1.5;2.13125;1.46627565982405;0;0;0;1;1;1;1;0;0;0;0;0;0;0;0;0;();(-2000.0, -2000.0);
08:47:37:559;08:47:37:537;1448480852.14;(0.39642236232757566, 0.5760276794433594);54.3609085083;1.0;08:47:37:559;0;10;-1.5;1.80105633802817;1.17302052785924;0;0;0;1;1;1;1;0;0;0;0;0;0;0;0;0;();(-2000.0, -2000.0);
08:47:37:576;08:47:37:537;1448480852.14;(0.39642236232757566, 0.5760276794433594);54.3609085083;1.0;08:47:37:576;0;4;-1.5;2.6640625;2.1505376344086;0;0;0;1;1;1;1;0;0;0;0;0;0;0;0;0;();(-2000.0, -2000.0);
08:47:37:592;08:47:37:537;1448480852.14;(0.39642236232757566, 0.5760276794433594);54.3609085083;1.0;08:47:37:592;0;15;-1.5;1.83992805755396;1.17302052785924;0;0;0;1;1;1;1;0;0;0;0;0;0;0;0;0;();(-2000.0, -2000.0);
08:47:37:609;08:47:37:597;1448480852.17;(0.3964599370956421, 0.5763632456461589);54.1626281738;1.0;08:47:37:609;0;5;-1.5;1.82678571428571;1.36852394916911;0;0;0;1;1;1;1;0;0;0;0;0;0;0;0;0;();(-2000.0, -2000.0);
08:47:37:626;08:47:37:597;1448480852.17;(0.3964599370956421, 0.5763632456461589);54.1626281738;1.0;08:47:37:626;0;10;-1.5;1.82678571428571;1.36852394916911;0;0;0;1;1;1;1;0;0;0;0;0;0;0;0;0;();(-2000.0, -2000.0);
08:47:37:643;08:47:37:597;1448480852.17;(0.3964599370956421, 0.5763632456461589);54.1626281738;1.0;08:47:37:643;0;4;-1.5;2.39018691588785;1.66177908113392;0;0;0;1;1;1;1;0;0;0;0;0;0;0;0;0;();(-2000.0, -2000.0);
08:47:37:676;08:47:37:653;1448480852.24;(0.39640753269195556, 0.577063708835178);54.2523498535;1.0;08:47:37:676;0;4;-1.5;2.21428571428571;2.1505376344086;0;0;0;1;1;1;1;0;0;0;0;0;0;0;0;0;();(-2000.0, -2000.0);
08:47:37:694;08:47:37:653;1448480852.24;(0.39640753269195556, 0.577063708835178);54.2523498535;1.0;08:47:37:694;0;10;-1.5;2.56390977443609;1.85728250244379;0;0;0;1;1;1;1;0;0;0;0;0;0;0;0;0;();(-2000.0, -2000.0);
08:47:37:710;08:47:37:653;1448480852.24;(0.39640753269195556, 0.577063708835178);54.2523498535;1.0;08:47:37:710;0;15;-1.5;2.72074468085106;2.24828934506354;0;0;0;1;1;1;1;0;0;0;0;0;0;0;0;0;();(-2000.0, -2000.0);
08:47:37:727;08:47:37:714;1448480852.3;(0.3933274269104004, 0.577094226413303);54.4828948975;0.891826286825;08:47:37:727;0;10;-1.5;1.83992805755396;1.36852394916911;0;0;0;1;1;1;1;0;0;0;0;0;0;0;0;0;();(-2000.0, -2000.0);
08:47:37:743;08:47:37:714;1448480852.3;(0.3933274269104004, 0.577094226413303);54.4828948975;0.891826286825;08:47:37:743;0;4;-1.5;2.93965517241379;2.73704789833822;0;0;0;1;1;1;1;0;0;0;0;0;0;0;0;0;();(-2000.0, -2000.0);
08:47:37:777;08:47:37:769;1448480852.37;(0.3928971290588379, 0.5759194691975911);54.3690681458;1.0;08:47:37:777;0;5;-1.5;1.80105633802817;1.17302052785924;0;0;0;1;1;1;1;0;0;0;0;0;0;0;0;0;();(-2000.0, -2000.0);
08:47:37:794;08:47:37:769;1448480852.37;(0.3928971290588379, 0.5759194691975911);54.3690681458;1.0;08:47:37:794;0;10;-1.5;1.87706422018349;1.17302052785924;0;0;0;1;1;1;1;0;0;0;0;0;0;0;0;0;();(-2000.0, -2000.0);
08:47:37:810;08:47:37:769;1448480852.37;(0.3928971290588379, 0.5759194691975911);54.3690681458;1.0;08:47:37:810;0;15;-1.5;2.2;1.46627565982405;0;0;0;1;1;1;1;0;0;0;0;0;0;0;0;0;();(-2000.0, -2000.0);
08:47:37:828;08:47:37:769;1448480852.37;(0.3928971290588379, 0.5759194691975911);54.3690681458;1.0;08:47:37:828;0;4;-1.5;2.14915966386555;1.66177908113392;0;0;0;1;1;1;1;0;0;0;0;0;0;0;0;0;();(-2000.0, -2000.0);
08:47:37:845;08:47:37:829;1448480852.4;(0.3928050994873047, 0.5751468234592014);54.423248291;1.0;08:47:37:845;0;0;-1.5;2.0625;1.46627565982405;0;0;0;1;1;1;1;0;0;0;0;0;0;0;0;0;();(-2000.0, -2000.0);
08:47:37:878;08:47:37:829;1448480852.4;(0.3928050994873047, 0.5751468234592014);54.423248291;1.0;08:47:37:878;0;15;-1.5;2.88169014084507;3.03030303030303;0;0;0;1;1;1;1;0;0;0;0;0;0;0;0;0;();(-2000.0, -2000.0);
08:47:37:894;08:47:37:885;1448480852.47;(0.3668476104736328, 0.5426448398166233);57.5228881836;0.837042646299;08:47:37:894;0;4;-1.5;2.90625;2.34604105571848;0;0;0;1;1;1;1;0;0;0;0;0;0;0;0;0;();(-2000.0, -2000.0);
08:47:37:912;08:47:37:885;1448480852.47;(0.3668476104736328, 0.5426448398166233);57.5228881836;0.837042646299;08:47:37:912;0;9;-1.5;2.46506024096386;1.85728250244379;0;0;0;1;1;1;1;0;0;0;0;0;0;0;0;0;();(-2000.0, -2000.0);
08:47:37:928;08:47:37:885;1448480852.47;(0.3668476104736328, 0.5426448398166233);57.5228881836;0.837042646299;08:47:37:928;0;5;-1.5;1.73096446700508;1.17302052785924;0;0;0;1;1;1;1;0;0;0;0;0;0;0;0;0;();(-2000.0, -2000.0);
08:47:37:945;08:47:37:885;1448480852.47;(0.3668476104736328, 0.5426448398166233);57.5228881836;0.837042646299;08:47:37:945;0;10;-1.5;1.96353166986564;1.36852394916911;0;0;0;1;1;1;1;0;0;0;0;0;0;0;0;0;();(-2000.0, -2000.0);
08:47:37:978;08:47:37:946;1448480852.54;(0.36151325702667236, 0.5348715464274089);56.4155807495;1.0;08:47:37:978;0;9;-1.5;2.48300970873786;1.85728250244379;0;0;0;1;1;1;1;0;0;0;0;0;0;0;0;0;();(-2000.0, -2000.0);
08:47:37:995;08:47:37:946;1448480852.54;(0.36151325702667236, 0.5348715464274089);56.4155807495;1.0;08:47:37:995;0;4;-1.5;2.1006160164271;1.46627565982405;0;0;0;1;1;1;1;0;0;0;0;0;0;0;0;0;();(-2000.0, -2000.0);
08:47:38:012;08:47:38:005;1448480852.6;(0.3603332281112671, 0.5353257921006944);57.0441360474;1.0;08:47:38:012;0;10;-1.5;2.90625;2.73704789833822;0;0;0;1;1;1;1;0;0;0;0;0;0;0;0;0;();(-2000.0, -2000.0);
08:47:38:028;08:47:38:005;1448480852.6;(0.3603332281112671, 0.5353257921006944);57.0441360474;1.0;08:47:38:028;0;15;-1.5;3.20689655172414;3.03030303030303;0;0;0;1;1;1;1;0;0;0;0;0;0;0;0;0;();(-2000.0, -2000.0);
08:47:38:046;08:47:38:005;1448480852.6;(0.3603332281112671, 0.5353257921006944);57.0441360474;1.0;08:47:38:046;0;10;-1.5;1.89444444444444;1.36852394916911;0;0;0;1;1;1;1;0;0;0;0;0;0;0;0;0;();(-2000.0, -2000.0);
08:47:38:064;08:47:38:061;1448480852.64;(0.36006598472595214, 0.5351294199625651);57.226776123;1.0;08:47:38:064;0;15;-1.5;1.97109826589595;1.36852394916911;0;0;0;1;1;1;1;0;0;0;0;0;0;0;0;0;();(-2000.0, -2000.0);
08:47:38:096;08:47:38:061;1448480852.64;(0.36006598472595214, 0.5351294199625651);57.226776123;1.0;08:47:38:096;0;5;-1.5;1.88397790055249;1.17302052785924;0;0;0;1;1;1;1;0;0;0;0;0;0;0;0;0;();(-2000.0, -2000.0);
08:47:38:112;08:47:38:061;1448480852.64;(0.36006598472595214, 0.5351294199625651);57.226776123;1.0;08:47:38:112;0;10;-1.5;2.0625;1.46627565982405;0;0;0;1;1;1;1;0;0;0;0;0;0;0;0;0;();(-2000.0, -2000.0);
08:47:38:131;08:47:38:121;1448480852.7;(0.3605855941772461, 0.5355643802218967);57.6482429504;1.0;08:47:38:131;0;15;-1.5;2.2;1.46627565982405;0;0;0;1;1;1;1;0;0;0;0;0;0;0;0;0;();(-2000.0, -2000.0);
08:47:38:146;08:47:38:121;1448480852.7;(0.3605855941772461, 0.5355643802218967);57.6482429504;1.0;08:47:38:146;0;4;-1.5;2.36805555555556;1.66177908113392;0;0;0;1;1;1;1;0;0;0;0;0;0;0;0;0;();(-2000.0, -2000.0);
08:47:38:163;08:47:38:121;1448480852.7;(0.3605855941772461, 0.5355643802218967);57.6482429504;1.0;08:47:38:163;0;0;-1.5;1.90858208955224;1.46627565982405;0;0;0;1;1;1;1;0;0;0;0;0;0;0;0;0;();(-2000.0, -2000.0);
08:47:38:196;08:47:38:178;1448480852.77;(0.3606825828552246, 0.5342589060465495);57.9703636169;1.0;08:47:38:196;0;15;-1.5;2.73529411764706;2.44379276637341;0;0;0;1;1;1;1;0;0;0;0;0;0;0;0;0;();(-2000.0, -2000.0);
08:47:38:214;08:47:38:178;1448480852.77;(0.3606825828552246, 0.5342589060465495);57.9703636169;1.0;08:47:38:214;0;4;-1.5;3.20689655172414;2.73704789833822;0;0;0;1;1;1;1;0;0;0;0;0;0;0;0;0;();(-2000.0, -2000.0);
08:47:38:231;08:47:38:178;1448480852.77;(0.3606825828552246, 0.5342589060465495);57.9703636169;1.0;08:47:38:230;0;15;-1.5;1.67430441898527;0.879765395894428;0;0;0;1;1;1;1;0;0;0;0;0;0;0;0;0;();(-2000.0, -2000.0);
08:47:38:246;08:47:38:237;1448480852.84;(0.36088201999664304, 0.5317368401421441);58.3384513855;1.0;08:47:38:246;0;5;-1.5;1.77913043478261;1.36852394916911;0;0;0;1;1;1;1;0;0;0;0;0;0;0;0;0;();(-2000.0, -2000.0);
08:47:38:263;08:47:38:237;1448480852.84;(0.36088201999664304, 0.5317368401421441);58.3384513855;1.0;08:47:38:263;0;15;-1.5;2.84958217270195;2.73704789833822;0;0;0;1;1;1;1;0;0;0;0;0;0;0;0;0;();(-2000.0, -2000.0);
08:47:38:297;08:47:38:293;1448480852.87;(0.3609177589416504, 0.5330958472357856);58.4136352539;1.0;08:47:38:297;0;15;-1.5;2.07926829268293;1.46627565982405;0;0;0;1;1;1;1;0;0;0;0;0;0;0;0;0;();(-2000.0, -2000.0);
08:47:38:314;08:47:38:293;1448480852.87;(0.3609177589416504, 0.5330958472357856);58.4136352539;1.0;08:47:38:314;0;5;-1.5;2.61636828644501;2.1505376344086;0;0;0;1;1;1;1;0;0;0;0;0;0;0;0;0;();(-2000.0, -2000.0);
08:47:38:330;08:47:38:293;1448480852.87;(0.3609177589416504, 0.5330958472357856);58.4136352539;1.0;08:47:38:330;0;0;-1.5;1.85662431941924;1.17302052785924;0;0;0;1;1;1;1;0;0;0;0;0;0;0;0;0;();(-2000.0, -2000.0);
08:47:38:347;08:47:38:293;1448480852.87;(0.3609177589416504, 0.5330958472357856);58.4136352539;1.0;08:47:38:347;0;5;-1.5;1.83333333333333;1.17302052785924;0;0;0;1;1;1;1;0;0;0;0;0;0;0;0;0;();(-2000.0, -2000.0);
08:47:38:364;08:47:38:353;1448480852.94;(0.36068623065948485, 0.5335634443495009);58.5897293091;1.0;08:47:38:364;0;10;-1.5;1.73096446700508;1.17302052785924;0;0;0;1;1;1;1;0;0;0;0;0;0;0;0;0;();(-2000.0, -2000.0);
08:47:38:397;08:47:38:353;1448480852.94;(0.36068623065948485, 0.5335634443495009);58.5897293091;1.0;08:47:38:397;0;9;-1.5;2.77989130434783;2.34604105571848;0;0;0;1;1;1;1;0;0;0;0;0;0;0;0;0;();(-2000.0, -2000.0);
08:47:38:415;08:47:38:410;1448480853.0;(0.3610567092895508, 0.531523937649197);58.7624816895;1.0;08:47:38:415;0;15;-1.5;2.61636828644501;2.1505376344086;0;0;0;1;1;1;1;0;0;0;0;0;0;0;0;0;();(-2000.0, -2000.0);
08:47:38:431;08:47:38:410;1448480853.0;(0.3610567092895508, 0.531523937649197);58.7624816895;1.0;08:47:38:431;0;10;-1.5;2.05835010060362;1.46627565982405;0;0;0;1;1;1;1;0;0;0;0;0;0;0;0;0;();(-2000.0, -2000.0);
08:47:38:448;08:47:38:410;1448480853.0;(0.3610567092895508, 0.531523937649197);58.7624816895;1.0;08:47:38:448;0;15;-1.5;1.79789103690685;1.17302052785924;0;0;0;1;1;1;1;0;0;0;0;0;0;0;0;0;();(-2000.0, -2000.0);
08:47:38:464;08:47:38:410;1448480853.0;(0.3610567092895508, 0.531523937649197);58.7624816895;1.0;08:47:38:464;0;10;-1.5;1.95229007633588;1.36852394916911;0;0;0;1;1;1;1;0;0;0;0;0;0;0;0;0;();(-2000.0, -2000.0);
08:47:38:498;08:47:38:469;1448480853.04;(0.47443137168884275, 0.7761370340983073);32.0852546692;0.666506528959;08:47:38:498;0;10;-1.5;2.6640625;2.34604105571848;0;0;0;1;1;1;1;0;0;0;0;0;0;0;0;0;();(-2000.0, -2000.0);
08:47:38:515;08:47:38:469;1448480853.04;(0.47443137168884275, 0.7761370340983073);32.0852546692;0.666506528959;08:47:38:515;0;0;-1.5;3.05373134328358;2.34604105571848;0;0;0;1;1;1;1;0;0;0;0;0;0;0;0;0;();(-2000.0, -2000.0);
08:47:38:532;08:47:38:525;1448480853.07;(0.45073857307434084, 0.4913217332628038);56.5664710999;1.0;08:47:38:532;0;10;-1.5;1.71932773109244;0.879765395894428;0;0;0;1;1;1;1;0;0;0;0;0;0;0;0;0;();(-2000.0, -2000.0);
08:47:38:549;08:47:38:525;1448480853.07;(0.45073857307434084, 0.4913217332628038);56.5664710999;1.0;08:47:38:549;0;15;-1.5;1.80105633802817;1.17302052785924;0;0;0;1;1;1;1;0;0;0;0;0;0;0;0;0;();(-2000.0, -2000.0);
08:47:38:565;08:47:38:525;1448480853.07;(0.45073857307434084, 0.4913217332628038);56.5664710999;1.0;08:47:38:565;0;5;-1.5;1.93383742911153;1.17302052785924;0;0;0;1;1;1;1;0;0;0;0;0;0;0;0;0;();(-2000.0, -2000.0);
08:47:38:600;08:47:38:585;1448480853.17;(0.4511899948120117, 0.49657427469889326);56.6528091431;1.0;08:47:38:600;0;15;-1.5;2.36805555555556;1.95503421309873;0;0;0;1;1;1;1;0;0;0;0;0;0;0;0;0;();(-2000.0, -2000.0);
08:47:38:615;08:47:38:585;1448480853.17;(0.4511899948120117, 0.49657427469889326);56.6528091431;1.0;08:47:38:615;0;15;-1.5;1.998046875;1.85728250244379;0;0;0;1;1;1;1;0;0;0;0;0;0;0;0;0;();(-2000.0, -2000.0);
08:47:38:632;08:47:38:585;1448480853.17;(0.4511899948120117, 0.49657427469889326);56.6528091431;1.0;08:47:38:632;0;4;-1.5;2.325;1.66177908113392;0;0;0;1;1;1;1;0;0;0;0;0;0;0;0;0;();(-2000.0, -2000.0);
08:47:38:649;08:47:38:641;1448480853.24;(0.4508837699890137, 0.4971730126274957);56.658290863;1.0;08:47:38:649;0;10;-1.5;2.84958217270195;2.73704789833822;0;0;0;1;1;1;1;0;0;0;0;0;0;0;0;0;();(-2000.0, -2000.0);
08:47:38:666;08:47:38:641;1448480853.24;(0.4508837699890137, 0.4971730126274957);56.658290863;1.0;08:47:38:666;0;5;-1.5;1.77913043478261;1.17302052785924;0;0;0;1;1;1;1;0;0;0;0;0;0;0;0;0;();(-2000.0, -2000.0);
08:47:38:700;08:47:38:641;1448480853.24;(0.4508837699890137, 0.4971730126274957);56.658290863;1.0;08:47:38:700;0;4;-1.5;2.89801699716714;2.73704789833822;0;0;0;1;1;1;1;0;0;0;0;0;0;0;0;0;();(-2000.0, -2000.0);
08:47:38:716;08:47:38:701;1448480853.27;(0.45015664100646974, 0.49679010179307725);56.6196975708;1.0;08:47:38:716;0;9;-1.5;3.12844036697248;2.44379276637341;0;0;0;1;1;1;1;0;0;0;0;0;0;0;0;0;();(-2000.0, -2000.0);
08:47:38:733;08:47:38:701;1448480853.27;(0.45015664100646974, 0.49679010179307725);56.6196975708;1.0;08:47:38:733;0;5;-1.5;2.1006160164271;1.46627565982405;0;0;0;1;1;1;1;0;0;0;0;0;0;0;0;0;();(-2000.0, -2000.0);
08:47:38:751;08:47:38:701;1448480853.27;(0.45015664100646974, 0.49679010179307725);56.6196975708;1.0;08:47:38:751;0;10;-1.5;1.90502793296089;1.46627565982405;0;0;0;1;1;1;1;0;0;0;0;0;0;0;0;0;();(-2000.0, -2000.0);
08:47:38:767;08:47:38:757;1448480853.3;(0.44969978332519533, 0.5037271711561415);56.3622550964;1.0;08:47:38:767;0;4;-1.5;2.6640625;2.34604105571848;0;0;0;1;1;1;1;0;0;0;0;0;0;0;0;0;();(-2000.0, -2000.0);
08:47:38:783;08:47:38:757;1448480853.3;(0.44969978332519533, 0.5037271711561415);56.3622550964;1.0;08:47:38:783;0;10;-1.5;2.11801242236025;1.66177908113392;0;0;0;1;1;1;1;0;0;0;0;0;0;0;0;0;();(-2000.0, -2000.0);
08:47:38:817;08:47:38:757;1448480853.3;(0.44969978332519533, 0.5037271711561415);56.3622550964;1.0;08:47:38:817;0;10;-1.5;2.73529411764706;2.34604105571848;0;0;0;1;1;1;1;0;0;0;0;0;0;0;0;0;();(-2000.0, -2000.0);
08:47:38:833;08:47:38:818;1448480853.4;(0.5009947776794433, 0.8570066028171115);28.6319026947;0.863328805394;08:47:38:833;0;15;-1.5;2.21428571428571;1.46627565982405;0;0;0;1;1;1;1;0;0;0;0;0;0;0;0;0;();(-2000.0, -2000.0);
08:47:38:850;08:47:38:818;1448480853.4;(0.5009947776794433, 0.8570066028171115);28.6319026947;0.863328805394;08:47:38:850;0;10;-1.5;1.56422018348624;0.879765395894428;0;0;0;1;1;1;1;0;0;0;0;0;0;0;0;0;();(-2000.0, -2000.0);
08:47:38:867;08:47:38:818;1448480853.4;(0.5009947776794433, 0.8570066028171115);28.6319026947;0.863328805394;08:47:38:867;0;15;-1.5;1.63157894736842;0.684261974584555;0;0;0;1;1;1;1;0;0;0;0;0;0;0;0;0;();(-2000.0, -2000.0);
08:47:38:884;08:47:38:873;1448480853.44;(0.4480737686157227, 0.5039283328586155);55.9123573303;1.0;08:47:38:884;0;9;-1.5;2.28348214285714;1.46627565982405;0;0;0;1;1;1;1;0;0;0;0;0;0;0;0;0;();(-2000.0, -2000.0);
08:47:38:917;08:47:38:873;1448480853.44;(0.4480737686157227, 0.5039283328586155);55.9123573303;1.0;08:47:38:917;0;4;-1.5;2.30405405405405;1.46627565982405;0;0;0;1;1;1;1;0;0;0;0;0;0;0;0;0;();(-2000.0, -2000.0);
08:47:38:934;08:47:38:933;1448480853.5;(0.4492763042449951, 0.5042764875623915);55.999584198;1.0;08:47:38:934;0;15;-1.5;2.12681912681913;1.46627565982405;0;0;0;1;1;1;1;0;0;0;0;0;0;0;0;0;();(-2000.0, -2000.0);
08:47:38:951;08:47:38:933;1448480853.5;(0.4492763042449951, 0.5042764875623915);55.999584198;1.0;08:47:38:951;0;4;-1.5;2.35172413793103;1.66177908113392;0;0;0;1;1;1;1;0;0;0;0;0;0;0;0;0;();(-2000.0, -2000.0);
08:47:38:968;08:47:38:933;1448480853.5;(0.4492763042449951, 0.5042764875623915);55.999584198;1.0;08:47:38:968;0;15;-1.5;1.77913043478261;0.684261974584555;0;0;0;1;1;1;1;0;0;0;0;0;0;0;0;0;();(-2000.0, -2000.0);
08:47:38:984;08:47:38:933;1448480853.5;(0.4492763042449951, 0.5042764875623915);55.999584198;1.0;08:47:38:984;0;4;-1.5;1.74871794871795;1.17302052785924;0;0;0;1;1;1;1;0;0;0;0;0;0;0;0;0;();(-2000.0, -2000.0);
08:47:39:018;08:47:38:989;1448480853.54;(0.4688981533050537, 0.48187802632649734);54.6871376038;1.0;08:47:39:018;0;4;-1.5;2.61636828644501;2.1505376344086;0;0;0;1;1;1;1;0;0;0;0;0;0;0;0;0;();(-2000.0, -2000.0);
08:47:39:034;08:47:38:989;1448480853.54;(0.4688981533050537, 0.48187802632649734);54.6871376038;1.0;08:47:39:034;0;9;-1.5;2.62307692307692;2.73704789833822;0;0;0;1;1;1;1;0;0;0;0;0;0;0;0;0;();(-2000.0, -2000.0);
08:47:39:051;08:47:39:050;1448480853.64;(0.4675295352935791, 0.482947752210829);54.6742172241;1.0;08:47:39:051;0;15;-1.5;2.44152744630072;1.85728250244379;0;0;0;1;1;1;1;0;0;0;0;0;0;0;0;0;();(-2000.0, -2000.0);
08:47:39:068;08:47:39:050;1448480853.64;(0.4675295352935791, 0.482947752210829);54.6742172241;1.0;08:47:39:068;0;10;-1.5;1.92655367231638;1.36852394916911;0;0;0;1;1;1;1;0;0;0;0;0;0;0;0;0;();(-2000.0, -2000.0);
08:47:39:085;08:47:39:050;1448480853.64;(0.4675295352935791, 0.482947752210829);54.6742172241;1.0;08:47:39:085;0;4;-1.5;2.30405405405405;2.34604105571848;0;0;0;1;1;1;1;0;0;0;0;0;0;0;0;0;();(-2000.0, -2000.0);
08:47:39:119;08:47:39:105;1448480853.7;(0.46720685958862307, 0.4831743452284071);54.6847305298;1.0;08:47:39:119;0;0;-1.5;1.75773195876289;1.36852394916911;0;0;0;1;1;1;1;0;0;0;0;0;0;0;0;0;();(-2000.0, -2000.0);
08:47:39:135;08:47:39:105;1448480853.7;(0.46720685958862307, 0.4831743452284071);54.6847305298;1.0;08:47:39:135;0;10;-1.5;2.62307692307692;2.1505376344086;0;0;0;1;1;1;1;0;0;0;0;0;0;0;0;0;();(-2000.0, -2000.0);
08:47:39:153;08:47:39:105;1448480853.7;(0.46720685958862307, 0.4831743452284071);54.6847305298;1.0;08:47:39:153;0;4;-1.5;1.66612377850163;0.879765395894428;0;0;0;1;1;1;1;0;0;0;0;0;0;0;0;0;();(-2000.0, -2000.0);
08:47:39:169;08:47:39:166;1448480853.74;(0.4671452045440674, 0.48312916225857205);54.7884674072;1.0;08:47:39:169;0;4;-1.5;2.81043956043956;2.34604105571848;0;0;0;1;1;1;1;0;0;0;0;0;0;0;0;0;();(-2000.0, -2000.0);
08:47:39:186;08:47:39:166;1448480853.74;(0.4671452045440674, 0.48312916225857205);54.7884674072;1.0;08:47:39:186;0;15;-1.5;1.55707762557078;0.879765395894428;0;0;0;1;1;1;1;0;0;0;0;0;0;0;0;0;();(-2000.0, -2000.0);
08:47:39:219;08:47:39:166;1448480853.74;(0.4671452045440674, 0.48312916225857205);54.7884674072;1.0;08:47:39:219;0;0;-1.5;2.24835164835165;1.85728250244379;0;0;0;1;1;1;1;0;0;0;0;0;0;0;0;0;();(-2000.0, -2000.0);
08:47:39:237;08:47:39:221;1448480853.8;(0.24892406463623046, 0.5486849466959636);19.1723613739;0.77448860725;08:47:39:237;0;4;-1.5;2.36805555555556;2.34604105571848;0;0;0;1;1;1;1;0;0;0;0;0;0;0;0;0;();(-2000.0, -2000.0);
08:47:39:253;08:47:39:221;1448480853.8;(0.24892406463623046, 0.5486849466959636);19.1723613739;0.77448860725;08:47:39:253;0;15;-1.5;1.91573033707865;1.36852394916911;0;0;0;1;1;1;1;0;0;0;0;0;0;0;0;0;();(-2000.0, -2000.0);
08:47:39:269;08:47:39:221;1448480853.8;(0.24892406463623046, 0.5486849466959636);19.1723613739;0.77448860725;08:47:39:269;0;9;-1.5;2.12681912681913;1.66177908113392;0;0;0;1;1;1;1;0;0;0;0;0;0;0;0;0;();(-2000.0, -2000.0);
08:47:39:287;08:47:39:281;1448480853.87;(0.440627384185791, 0.550084940592448);55.496006012;1.0;08:47:39:287;0;0;-1.5;1.68811881188119;1.17302052785924;0;0;0;1;1;1;1;0;0;0;0;0;0;0;0;0;();(-2000.0, -2000.0);
08:47:39:304;08:47:39:281;1448480853.87;(0.440627384185791, 0.550084940592448);55.496006012;1.0;08:47:39:304;0;4;-1.5;1.73096446700508;1.17302052785924;0;0;0;1;1;1;1;0;0;0;0;0;0;0;0;0;();(-2000.0, -2000.0);
08:47:39:336;08:47:39:281;1448480853.87;(0.440627384185791, 0.550084940592448);55.496006012;1.0;08:47:39:336;0;4;-1.5;2.88169014084507;2.73704789833822;0;0;0;1;1;1;1;0;0;0;0;0;0;0;0;0;();(-2000.0, -2000.0);
08:47:39:353;08:47:39:337;1448480853.9;(0.44071178436279296, 0.5512581295437283);55.930721283;1.0;08:47:39:353;0;15;-1.5;1.705;0.879765395894428;0;0;0;1;1;1;1;0;0;0;0;0;0;0;0;0;();(-2000.0, -2000.0);
08:47:39:370;08:47:39:337;1448480853.9;(0.44071178436279296, 0.5512581295437283);55.930721283;1.0;08:47:39:370;0;5;-1.5;1.85662431941924;1.17302052785924;0;0;0;1;1;1;1;0;0;0;0;0;0;0;0;0;();(-2000.0, -2000.0);
08:47:39:388;08:47:39:337;1448480853.9;(0.44071178436279296, 0.5512581295437283);55.930721283;1.0;08:47:39:388;0;9;-1.5;1.74871794871795;1.17302052785924;0;0;0;1;1;1;1;0;0;0;0;0;0;0;0;0;();(-2000.0, -2000.0);
08:47:39:404;08:47:39:397;1448480853.97;(0.44068341255187987, 0.5536900414360895);55.8581619263;1.0;08:47:39:404;0;15;-1.5;1.92655367231638;1.36852394916911;0;0;0;1;1;1;1;0;0;0;0;0;0;0;0;0;();(-2000.0, -2000.0);
08:47:39:437;08:47:39:397;1448480853.97;(0.44068341255187987, 0.5536900414360895);55.8581619263;1.0;08:47:39:437;0;0;-1.5;1.7427597955707;1.36852394916911;0;0;0;1;1;1;1;0;0;0;0;0;0;0;0;0;();(-2000.0, -2000.0);
08:47:39:454;08:47:39:397;1448480853.97;(0.44068341255187987, 0.5536900414360895);55.8581619263;1.0;08:47:39:454;0;10;-1.5;3.01769911504425;2.34604105571848;0;0;0;1;1;1;1;0;0;0;0;0;0;0;0;0;();(-2000.0, -2000.0);
