%Timestamp,timestamp_write;timestamp_gotpupil;eyeTrackerTime;normPos;diameter;confidence;timestamp_gotbitdata;CRC;SEQ;AnalogOutp1;AnalogOutp2;AnalogOutp3;AnalogOutp4;AnalogOutp5;AnalogOutp6;DigitalOutp1;DigitalOutp2;DigitalOutp3;DigitalOutp4;nplanes;listofAirplanesonScreen;lastAction;lastActionDetails;lastActionAirplaneNumber;calculatedScore;positiveScore;negativeScore;collidedAirplaneNumbers;targetPositions;collisionPoint
12:10:17:692;12:10:17:677;1448407576.26;(0.5031549453735351, 0.3839639875623915);50.1898040771;0.715405787753;;;;;;;;;;;;;;0;0;0;0;0;0;0;0;0;();(-2000.0, -2000.0);
12:10:17:705;12:10:17:677;1448407576.26;(0.5031549453735351, 0.3839639875623915);50.1898040771;0.715405787753;;;;;;;;;;;;;;0;0;0;0;0;0;0;0;0;();(-2000.0, -2000.0);
12:10:17:712;12:10:17:677;1448407576.26;(0.5031549453735351, 0.3839639875623915);50.1898040771;0.715405787753;;;;;;;;;;;;;;0;0;0;0;0;0;0;0;0;();(-2000.0, -2000.0);
12:10:17:717;12:10:17:677;1448407576.26;(0.5031549453735351, 0.3839639875623915);50.1898040771;0.715405787753;;;;;;;;;;;;;;0;0;0;0;0;0;0;0;0;();(-2000.0, -2000.0);
12:10:17:720;12:10:17:677;1448407576.26;(0.5031549453735351, 0.3839639875623915);50.1898040771;0.715405787753;;;;;;;;;;;;;;0;0;0;0;0;0;0;0;0;();(-2000.0, -2000.0);
12:10:17:724;12:10:17:677;1448407576.26;(0.5031549453735351, 0.3839639875623915);50.1898040771;0.715405787753;;;;;;;;;;;;;;0;0;0;0;0;0;0;0;0;();(-2000.0, -2000.0);
12:10:17:728;12:10:17:677;1448407576.26;(0.5031549453735351, 0.3839639875623915);50.1898040771;0.715405787753;;;;;;;;;;;;;;0;0;0;0;0;0;0;0;0;();(-2000.0, -2000.0);
12:10:17:731;12:10:17:677;1448407576.26;(0.5031549453735351, 0.3839639875623915);50.1898040771;0.715405787753;;;;;;;;;;;;;;0;0;0;0;0;0;0;0;0;();(-2000.0, -2000.0);
12:10:17:735;12:10:17:677;1448407576.26;(0.5031549453735351, 0.3839639875623915);50.1898040771;0.715405787753;;;;;;;;;;;;;;0;0;0;0;0;0;0;0;0;();(-2000.0, -2000.0);
12:10:17:739;12:10:17:677;1448407576.26;(0.5031549453735351, 0.3839639875623915);50.1898040771;0.715405787753;;;;;;;;;;;;;;0;0;0;0;0;0;0;0;0;();(-2000.0, -2000.0);
12:10:17:743;12:10:17:677;1448407576.26;(0.5031549453735351, 0.3839639875623915);50.1898040771;0.715405787753;;;;;;;;;;;;;;0;0;0;0;0;0;0;0;0;();(-2000.0, -2000.0);
12:10:17:748;12:10:17:746;1448407576.29;(0.4977245330810547, 0.39446885850694446);57.3904762268;0.72911914833;;;;;;;;;;;;;;0;0;0;0;0;0;0;0;0;();(-2000.0, -2000.0);
12:10:17:752;12:10:17:747;1448407576.32;(0.5022385597229004, 0.38488188849555116);50.1267204285;0.761474672114;;;;;;;;;;;;;;0;0;0;0;0;0;0;0;0;();(-2000.0, -2000.0);
12:10:17:756;12:10:17:747;1448407576.32;(0.5022385597229004, 0.38488188849555116);50.1267204285;0.761474672114;;;;;;;;;;;;;;0;0;0;0;0;0;0;0;0;();(-2000.0, -2000.0);
12:10:17:759;12:10:17:747;1448407576.32;(0.5022385597229004, 0.38488188849555116);50.1267204285;0.761474672114;;;;;;;;;;;;;;0;0;0;0;0;0;0;0;0;();(-2000.0, -2000.0);
12:10:17:763;12:10:17:747;1448407576.32;(0.5022385597229004, 0.38488188849555116);50.1267204285;0.761474672114;;;;;;;;;;;;;;0;0;0;0;0;0;0;0;0;();(-2000.0, -2000.0);
12:10:17:767;12:10:17:747;1448407576.32;(0.5022385597229004, 0.38488188849555116);50.1267204285;0.761474672114;;;;;;;;;;;;;;0;0;0;0;0;0;0;0;0;();(-2000.0, -2000.0);
12:10:17:771;12:10:17:747;1448407576.32;(0.5022385597229004, 0.38488188849555116);50.1267204285;0.761474672114;;;;;;;;;;;;;;0;0;0;0;0;0;0;0;0;();(-2000.0, -2000.0);
12:10:17:774;12:10:17:747;1448407576.32;(0.5022385597229004, 0.38488188849555116);50.1267204285;0.761474672114;;;;;;;;;;;;;;0;0;0;0;0;0;0;0;0;();(-2000.0, -2000.0);
12:10:17:778;12:10:17:747;1448407576.32;(0.5022385597229004, 0.38488188849555116);50.1267204285;0.761474672114;;;;;;;;;;;;;;0;0;0;0;0;0;0;0;0;();(-2000.0, -2000.0);
12:10:17:782;12:10:17:747;1448407576.32;(0.5022385597229004, 0.38488188849555116);50.1267204285;0.761474672114;;;;;;;;;;;;;;0;0;0;0;0;0;0;0;0;();(-2000.0, -2000.0);
12:10:17:787;12:10:17:747;1448407576.32;(0.5022385597229004, 0.38488188849555116);50.1267204285;0.761474672114;;;;;;;;;;;;;;0;0;0;0;0;0;0;0;0;();(-2000.0, -2000.0);
12:10:17:809;12:10:17:747;1448407576.32;(0.5022385597229004, 0.38488188849555116);50.1267204285;0.761474672114;;;;;;;;;;;;;;0;0;0;0;0;0;0;0;0;();(-2000.0, -2000.0);
12:10:17:826;12:10:17:813;1448407576.39;(0.5081873416900635, 0.3902653588189019);46.0064697266;0.707571888745;;;;;;;;;;;;;;0;0;0;0;0;0;0;0;0;();(-2000.0, -2000.0);
12:10:17:859;12:10:17:813;1448407576.39;(0.5081873416900635, 0.3902653588189019);46.0064697266;0.707571888745;;;;;;;;;;;;;;0;0;0;0;0;0;0;0;0;();(-2000.0, -2000.0);
12:10:17:876;12:10:17:813;1448407576.39;(0.5081873416900635, 0.3902653588189019);46.0064697266;0.707571888745;;;;;;;;;;;;;;0;0;0;0;0;0;0;0;0;();(-2000.0, -2000.0);
12:10:17:893;12:10:17:880;1448407576.46;(0.5054178237915039, 0.3870718214246962);49.8936767578;0.687119325576;;;;;;;;;;;;;;0;0;0;0;0;0;0;0;0;();(-2000.0, -2000.0);
12:10:17:909;12:10:17:880;1448407576.46;(0.5054178237915039, 0.3870718214246962);49.8936767578;0.687119325576;;;;;;;;;;;;;;0;0;0;0;0;0;0;0;0;();(-2000.0, -2000.0);
12:10:17:926;12:10:17:880;1448407576.46;(0.5054178237915039, 0.3870718214246962);49.8936767578;0.687119325576;;;;;;;;;;;;;;0;0;0;0;0;0;0;0;0;();(-2000.0, -2000.0);
12:10:17:959;12:10:17:946;1448407576.52;(0.5045640945434571, 0.38720618353949654);50.2050361633;0.793459888712;;;;;;;;;;;;;;0;0;0;0;0;0;0;0;0;();(-2000.0, -2000.0);
12:10:17:975;12:10:17:946;1448407576.52;(0.5045640945434571, 0.38720618353949654);50.2050361633;0.793459888712;;;;;;;;;;;;;;0;0;0;0;0;0;0;0;0;();(-2000.0, -2000.0);
12:10:17:994;12:10:17:946;1448407576.52;(0.5045640945434571, 0.38720618353949654);50.2050361633;0.793459888712;;;;;;;;;;;;;;0;0;0;0;0;0;0;0;0;();(-2000.0, -2000.0);
12:10:18:010;12:10:18:008;1448407576.56;(0.49789156913757326, 0.399773915608724);58.7044906616;0.771583050226;;;;;;;;;;;;;;0;0;0;0;0;0;0;0;0;();(-2000.0, -2000.0);
12:10:18:026;12:10:18:010;1448407576.59;(0.49776177406311034, 0.3991742028130425);58.1999511719;0.70442055262;;;;;;;;;;;;;;0;0;0;0;0;0;0;0;0;();(-2000.0, -2000.0);
12:10:18:059;12:10:18:010;1448407576.59;(0.49776177406311034, 0.3991742028130425);58.1999511719;0.70442055262;;;;;;;;;;;;;;0;0;0;0;0;0;0;0;0;();(-2000.0, -2000.0);
12:10:18:076;12:10:18:010;1448407576.59;(0.49776177406311034, 0.3991742028130425);58.1999511719;0.70442055262;;;;;;;;;;;;;;0;0;0;0;0;0;0;0;0;();(-2000.0, -2000.0);
12:10:18:093;12:10:18:081;1448407576.66;(0, 0);0;0;;;;;;;;;;;;;;0;0;0;0;0;0;0;0;0;();(-2000.0, -2000.0);
12:10:18:109;12:10:18:081;1448407576.66;(0, 0);0;0;;;;;;;;;;;;;;0;0;0;0;0;0;0;0;0;();(-2000.0, -2000.0);
12:10:18:126;12:10:18:081;1448407576.66;(0, 0);0;0;;;;;;;;;;;;;;0;0;0;0;0;0;0;0;0;();(-2000.0, -2000.0);
12:10:18:159;12:10:18:141;1448407576.69;(0.497043514251709, 0.39989496866861984);58.4696731567;0.833077416652;;;;;;;;;;;;;;0;0;0;0;0;0;0;0;0;();(-2000.0, -2000.0);
12:10:18:176;12:10:18:141;1448407576.69;(0.497043514251709, 0.39989496866861984);58.4696731567;0.833077416652;;;;;;;;;;;;;;0;0;0;0;0;0;0;0;0;();(-2000.0, -2000.0);
12:10:18:193;12:10:18:141;1448407576.69;(0.497043514251709, 0.39989496866861984);58.4696731567;0.833077416652;;;;;;;;;;;;;;0;0;0;0;0;0;0;0;0;();(-2000.0, -2000.0);
12:10:18:212;12:10:18:210;1448407576.76;(0.49647951126098633, 0.3760898166232639);55.0012550354;0.886222880473;;;;;;;;;;;;;;0;0;0;0;0;0;0;0;0;();(-2000.0, -2000.0);
12:10:18:227;12:10:18:212;1448407576.79;(0.4932281970977783, 0.3824532826741537);58.8045310974;0.853154862545;;;;;;;;;;;;;;0;0;0;0;0;0;0;0;0;();(-2000.0, -2000.0);
12:10:18:260;12:10:18:212;1448407576.79;(0.4932281970977783, 0.3824532826741537);58.8045310974;0.853154862545;;;;;;;;;;;;;;0;0;0;0;0;0;0;0;0;();(-2000.0, -2000.0);
12:10:18:276;12:10:18:212;1448407576.79;(0.4932281970977783, 0.3824532826741537);58.8045310974;0.853154862545;;;;;;;;;;;;;;0;0;0;0;0;0;0;0;0;();(-2000.0, -2000.0);
12:10:18:293;12:10:18:280;1448407576.86;(0.49170770645141604, 0.38410881890190973);58.3630561829;0.916037985468;;;;;;;;;;;;;;0;0;0;0;0;0;0;0;0;();(-2000.0, -2000.0);
12:10:18:309;12:10:18:280;1448407576.86;(0.49170770645141604, 0.38410881890190973);58.3630561829;0.916037985468;;;;;;;;;;;;;;0;0;0;0;0;0;0;0;0;();(-2000.0, -2000.0);
12:10:18:327;12:10:18:280;1448407576.86;(0.49170770645141604, 0.38410881890190973);58.3630561829;0.916037985468;;;;;;;;;;;;;;0;0;0;0;0;0;0;0;0;();(-2000.0, -2000.0);
12:10:18:360;12:10:18:341;1448407576.92;(0.4909968376159668, 0.3850487603081597);58.8823204041;0.905109042684;;;;;;;;;;;;;;0;0;0;0;0;0;0;0;0;();(-2000.0, -2000.0);
12:10:18:377;12:10:18:341;1448407576.92;(0.4909968376159668, 0.3850487603081597);58.8823204041;0.905109042684;;;;;;;;;;;;;;0;0;0;0;0;0;0;0;0;();(-2000.0, -2000.0);
12:10:18:393;12:10:18:341;1448407576.92;(0.4909968376159668, 0.3850487603081597);58.8823204041;0.905109042684;;;;;;;;;;;;;;0;0;0;0;0;0;0;0;0;();(-2000.0, -2000.0);
12:10:18:410;12:10:18:341;1448407576.92;(0.4909968376159668, 0.3850487603081597);58.8823204041;0.905109042684;;;;;;;;;;;;;;0;0;0;0;0;0;0;0;0;();(-2000.0, -2000.0);
12:10:18:426;12:10:18:415;1448407576.99;(0.490813684463501, 0.38467979431152344);58.424747467;0.952808904052;;;;;;;;;;;;;;0;0;0;0;0;0;0;0;0;();(-2000.0, -2000.0);
12:10:18:459;12:10:18:415;1448407576.99;(0.490813684463501, 0.38467979431152344);58.424747467;0.952808904052;;;;;;;;;;;;;;0;0;0;0;0;0;0;0;0;();(-2000.0, -2000.0);
12:10:18:476;12:10:18:474;1448407577.06;(0.4971578121185303, 0.37014609442816837);58.1557159424;0.850221996327;;;;;;;;;;;;;;0;0;0;0;0;0;0;0;0;();(-2000.0, -2000.0);
12:10:18:493;12:10:18:474;1448407577.06;(0.4971578121185303, 0.37014609442816837);58.1557159424;0.850221996327;;;;;;;;;;;;;;0;0;0;0;0;0;0;0;0;();(-2000.0, -2000.0);
12:10:18:510;12:10:18:474;1448407577.06;(0.4971578121185303, 0.37014609442816837);58.1557159424;0.850221996327;;;;;;;;;;;;;;0;0;0;0;0;0;0;0;0;();(-2000.0, -2000.0);
12:10:18:527;12:10:18:474;1448407577.06;(0.4971578121185303, 0.37014609442816837);58.1557159424;0.850221996327;;;;;;;;;;;;;;0;0;0;0;0;0;0;0;0;();(-2000.0, -2000.0);
12:10:18:560;12:10:18:542;1448407577.12;(0.49613561630249026, 0.37089229159884984);56.9742088318;1.0;;;;;;;;;;;;;;0;0;0;0;0;0;0;0;0;();(-2000.0, -2000.0);
12:10:18:578;12:10:18:542;1448407577.12;(0.49613561630249026, 0.37089229159884984);56.9742088318;1.0;;;;;;;;;;;;;;0;0;0;0;0;0;0;0;0;();(-2000.0, -2000.0);
12:10:18:593;12:10:18:542;1448407577.12;(0.49613561630249026, 0.37089229159884984);56.9742088318;1.0;;;;;;;;;;;;;;0;0;0;0;0;0;0;0;0;();(-2000.0, -2000.0);
12:10:18:612;12:10:18:611;1448407577.19;(0.49016895294189455, 0.36856837802463105);56.9246864319;0.623288933899;;;;;;;;;;;;;;0;0;0;0;0;0;0;0;0;();(-2000.0, -2000.0);
12:10:18:627;12:10:18:611;1448407577.19;(0.49016895294189455, 0.36856837802463105);56.9246864319;0.623288933899;;;;;;;;;;;;;;0;0;0;0;0;0;0;0;0;();(-2000.0, -2000.0);
12:10:18:660;12:10:18:611;1448407577.19;(0.49016895294189455, 0.36856837802463105);56.9246864319;0.623288933899;;;;;;;;;;;;;;0;0;0;0;0;0;0;0;0;();(-2000.0, -2000.0);
12:10:18:676;12:10:18:673;1448407577.26;(0.4851695537567139, 0.35185962253146696);40.6927337646;0.608145271424;;;;;;;;;;;;;;0;0;0;0;0;0;0;0;0;();(-2000.0, -2000.0);
12:10:18:694;12:10:18:673;1448407577.26;(0.4851695537567139, 0.35185962253146696);40.6927337646;0.608145271424;;;;;;;;;;;;;;0;0;0;0;0;0;0;0;0;();(-2000.0, -2000.0);
12:10:18:709;12:10:18:673;1448407577.26;(0.4851695537567139, 0.35185962253146696);40.6927337646;0.608145271424;;;;;;;;;;;;;;0;0;0;0;0;0;0;0;0;();(-2000.0, -2000.0);
12:10:18:727;12:10:18:673;1448407577.26;(0.4851695537567139, 0.35185962253146696);40.6927337646;0.608145271424;;;;;;;;;;;;;;0;0;0;0;0;0;0;0;0;();(-2000.0, -2000.0);
12:10:18:760;12:10:18:743;1448407577.32;(0.4849411964416504, 0.3730007171630859);54.5681419373;0.817803622294;;;;;;;;;;;;;;0;0;0;0;0;0;0;0;0;();(-2000.0, -2000.0);
12:10:18:777;12:10:18:743;1448407577.32;(0.4849411964416504, 0.3730007171630859);54.5681419373;0.817803622294;;;;;;;;;;;;;;0;0;0;0;0;0;0;0;0;();(-2000.0, -2000.0);
12:10:18:794;12:10:18:743;1448407577.32;(0.4849411964416504, 0.3730007171630859);54.5681419373;0.817803622294;;;;;;;;;;;;;;0;0;0;0;0;0;0;0;0;();(-2000.0, -2000.0);
12:10:18:810;12:10:18:806;1448407577.39;(0.4839802265167236, 0.37790675693088105);56.9623413086;0.884613582049;;;;;;;;;;;;;;0;0;0;0;0;0;0;0;0;();(-2000.0, -2000.0);
12:10:18:827;12:10:18:806;1448407577.39;(0.4839802265167236, 0.37790675693088105);56.9623413086;0.884613582049;;;;;;;;;;;;;;0;0;0;0;0;0;0;0;0;();(-2000.0, -2000.0);
12:10:18:860;12:10:18:806;1448407577.39;(0.4839802265167236, 0.37790675693088105);56.9623413086;0.884613582049;;;;;;;;;;;;;;0;0;0;0;0;0;0;0;0;();(-2000.0, -2000.0);
12:10:18:877;12:10:18:874;1448407577.46;(0.4842975616455078, 0.37916221618652346);57.9325828552;0.998796954073;;;;;;;;;;;;;;0;0;0;0;0;0;0;0;0;();(-2000.0, -2000.0);
12:10:18:894;12:10:18:874;1448407577.46;(0.4842975616455078, 0.37916221618652346);57.9325828552;0.998796954073;;;;;;;;;;;;;;0;0;0;0;0;0;0;0;0;();(-2000.0, -2000.0);
12:10:18:910;12:10:18:874;1448407577.46;(0.4842975616455078, 0.37916221618652346);57.9325828552;0.998796954073;;;;;;;;;;;;;;0;0;0;0;0;0;0;0;0;();(-2000.0, -2000.0);
12:10:18:927;12:10:18:874;1448407577.46;(0.4842975616455078, 0.37916221618652346);57.9325828552;0.998796954073;;;;;;;;;;;;;;0;0;0;0;0;0;0;0;0;();(-2000.0, -2000.0);
12:10:18:960;12:10:18:943;1448407577.52;(0.48381757736206055, 0.37968563503689234);57.847568512;0.977312209765;;;;;;;;;;;;;;0;0;0;0;0;0;0;0;0;();(-2000.0, -2000.0);
12:10:18:977;12:10:18:943;1448407577.52;(0.48381757736206055, 0.37968563503689234);57.847568512;0.977312209765;;;;;;;;;;;;;;0;0;0;0;0;0;0;0;0;();(-2000.0, -2000.0);
12:10:18:994;12:10:18:943;1448407577.52;(0.48381757736206055, 0.37968563503689234);57.847568512;0.977312209765;;;;;;;;;;;;;;0;0;0;0;0;0;0;0;0;();(-2000.0, -2000.0);
12:10:19:011;12:10:19:006;1448407577.59;(0.48381929397583007, 0.379450692070855);58.3603744507;1.0;;;;;;;;;;;;;;0;0;0;0;0;0;0;0;0;();(-2000.0, -2000.0);
12:10:19:027;12:10:19:006;1448407577.59;(0.48381929397583007, 0.379450692070855);58.3603744507;1.0;;;;;;;;;;;;;;0;0;0;0;0;0;0;0;0;();(-2000.0, -2000.0);
12:10:19:060;12:10:19:006;1448407577.59;(0.48381929397583007, 0.379450692070855);58.3603744507;1.0;;;;;;;;;;;;;;0;0;0;0;0;0;0;0;0;();(-2000.0, -2000.0);
12:10:19:079;12:10:19:074;1448407577.62;(0.4838245391845703, 0.37948464287651906);58.6212272644;0.973201027729;;;;;;;;;;;;;;0;0;0;0;0;0;0;0;0;();(-2000.0, -2000.0);
12:10:19:095;12:10:19:076;1448407577.66;(0.4838552474975586, 0.3800834655761719);58.7078094482;0.970977108913;;;;;;;;;;;;;;0;0;0;0;0;0;0;0;0;();(-2000.0, -2000.0);
12:10:19:111;12:10:19:076;1448407577.66;(0.4838552474975586, 0.3800834655761719);58.7078094482;0.970977108913;;;;;;;;;;;;;;0;0;0;0;0;0;0;0;0;();(-2000.0, -2000.0);
12:10:19:128;12:10:19:076;1448407577.66;(0.4838552474975586, 0.3800834655761719);58.7078094482;0.970977108913;;;;;;;;;;;;;;0;0;0;0;0;0;0;0;0;();(-2000.0, -2000.0);
12:10:19:161;12:10:19:139;1448407577.69;(0.4843501091003418, 0.3793721940782335);59.7049064636;0.93457415442;;;;;;;;;;;;;;0;0;0;0;0;0;0;0;0;();(-2000.0, -2000.0);
12:10:19:179;12:10:19:139;1448407577.69;(0.4843501091003418, 0.3793721940782335);59.7049064636;0.93457415442;;;;;;;;;;;;;;0;0;0;0;0;0;0;0;0;();(-2000.0, -2000.0);
12:10:19:193;12:10:19:139;1448407577.69;(0.4843501091003418, 0.3793721940782335);59.7049064636;0.93457415442;;;;;;;;;;;;;;0;0;0;0;0;0;0;0;0;();(-2000.0, -2000.0);
12:10:19:211;12:10:19:207;1448407577.79;(0.48981361389160155, 0.365406968858507);58.7677612305;1.0;;;;;;;;;;;;;;0;0;0;0;0;0;0;0;0;();(-2000.0, -2000.0);
12:10:19:227;12:10:19:207;1448407577.79;(0.48981361389160155, 0.365406968858507);58.7677612305;1.0;;;;;;;;;;;;;;0;0;0;0;0;0;0;0;0;();(-2000.0, -2000.0);
12:10:19:260;12:10:19:207;1448407577.79;(0.48981361389160155, 0.365406968858507);58.7677612305;1.0;;;;;;;;;;;;;;0;0;0;0;0;0;0;0;0;();(-2000.0, -2000.0);
12:10:19:278;12:10:19:274;1448407577.86;(0.49013485908508303, 0.3658448537190755);58.874584198;1.0;;;;;;;;;;;;;;0;0;0;0;0;0;0;0;0;();(-2000.0, -2000.0);
12:10:19:295;12:10:19:274;1448407577.86;(0.49013485908508303, 0.3658448537190755);58.874584198;1.0;;;;;;;;;;;;;;0;0;0;0;0;0;0;0;0;();(-2000.0, -2000.0);
12:10:19:312;12:10:19:274;1448407577.86;(0.49013485908508303, 0.3658448537190755);58.874584198;1.0;;;;;;;;;;;;;;0;0;0;0;0;0;0;0;0;();(-2000.0, -2000.0);
12:10:19:328;12:10:19:274;1448407577.86;(0.49013485908508303, 0.3658448537190755);58.874584198;1.0;;;;;;;;;;;;;;0;0;0;0;0;0;0;0;0;();(-2000.0, -2000.0);
12:10:19:360;12:10:19:338;1448407577.92;(0.49062385559082033, 0.366141594780816);58.9528465271;1.0;;;;;;;;;;;;;;0;0;0;0;0;0;0;0;0;();(-2000.0, -2000.0);
12:10:19:377;12:10:19:338;1448407577.92;(0.49062385559082033, 0.366141594780816);58.9528465271;1.0;;;;;;;;;;;;;;0;0;0;0;0;0;0;0;0;();(-2000.0, -2000.0);
12:10:19:394;12:10:19:338;1448407577.92;(0.49062385559082033, 0.366141594780816);58.9528465271;1.0;;;;;;;;;;;;;;0;0;0;0;0;0;0;0;0;();(-2000.0, -2000.0);
12:10:19:410;12:10:19:408;1448407577.99;(0.490830135345459, 0.36643015543619795);58.8683547974;1.0;;;;;;;;;;;;;;0;0;0;0;0;0;0;0;0;();(-2000.0, -2000.0);
12:10:19:427;12:10:19:408;1448407577.99;(0.490830135345459, 0.36643015543619795);58.8683547974;1.0;;;;;;;;;;;;;;0;0;0;0;0;0;0;0;0;();(-2000.0, -2000.0);
12:10:19:461;12:10:19:408;1448407577.99;(0.490830135345459, 0.36643015543619795);58.8683547974;1.0;;;;;;;;;;;;;;0;0;0;0;0;0;0;0;0;();(-2000.0, -2000.0);
12:10:19:477;12:10:19:470;1448407578.02;(0.4911039352416992, 0.3659927368164062);58.999710083;1.0;;;;;;;;;;;;;;0;0;0;0;0;0;0;0;0;();(-2000.0, -2000.0);
12:10:19:494;12:10:19:470;1448407578.02;(0.4911039352416992, 0.3659927368164062);58.999710083;1.0;;;;;;;;;;;;;;0;0;0;0;0;0;0;0;0;();(-2000.0, -2000.0);
12:10:19:511;12:10:19:470;1448407578.02;(0.4911039352416992, 0.3659927368164062);58.999710083;1.0;;;;;;;;;;;;;;0;0;0;0;0;0;0;0;0;();(-2000.0, -2000.0);
12:10:19:527;12:10:19:470;1448407578.02;(0.4911039352416992, 0.3659927368164062);58.999710083;1.0;;;;;;;;;;;;;;0;0;0;0;0;0;0;0;0;();(-2000.0, -2000.0);
12:10:19:561;12:10:19:540;1448407578.12;(0.49179959297180176, 0.36547080145941835);59.1419715881;1.0;;;;;;;;;;;;;;0;0;0;0;0;0;0;0;0;();(-2000.0, -2000.0);
12:10:19:578;12:10:19:540;1448407578.12;(0.49179959297180176, 0.36547080145941835);59.1419715881;1.0;;;;;;;;;;;;;;0;0;0;0;0;0;0;0;0;();(-2000.0, -2000.0);
12:10:19:594;12:10:19:540;1448407578.12;(0.49179959297180176, 0.36547080145941835);59.1419715881;1.0;;;;;;;;;;;;;;0;0;0;0;0;0;0;0;0;();(-2000.0, -2000.0);
12:10:19:611;12:10:19:605;1448407578.19;(0.46002888679504395, 0.3829079945882161);56.5017585754;0.758751865793;;;;;;;;;;;;;;0;0;0;0;0;0;0;0;0;();(-2000.0, -2000.0);
12:10:19:628;12:10:19:605;1448407578.19;(0.46002888679504395, 0.3829079945882161);56.5017585754;0.758751865793;;;;;;;;;;;;;;0;0;0;0;0;0;0;0;0;();(-2000.0, -2000.0);
12:10:19:661;12:10:19:605;1448407578.19;(0.46002888679504395, 0.3829079945882161);56.5017585754;0.758751865793;;;;;;;;;;;;;;0;0;0;0;0;0;0;0;0;();(-2000.0, -2000.0);
12:10:19:678;12:10:19:670;1448407578.26;(0.4272953510284424, 0.3780430263943142);61.6684036255;0.673614178979;;;;;;;;;;;;;;0;0;0;0;0;0;0;0;0;();(-2000.0, -2000.0);
12:10:19:694;12:10:19:670;1448407578.26;(0.4272953510284424, 0.3780430263943142);61.6684036255;0.673614178979;;;;;;;;;;;;;;0;0;0;0;0;0;0;0;0;();(-2000.0, -2000.0);
12:10:19:711;12:10:19:670;1448407578.26;(0.4272953510284424, 0.3780430263943142);61.6684036255;0.673614178979;;;;;;;;;;;;;;0;0;0;0;0;0;0;0;0;();(-2000.0, -2000.0);
12:10:19:728;12:10:19:670;1448407578.26;(0.4272953510284424, 0.3780430263943142);61.6684036255;0.673614178979;;;;;;;;;;;;;;0;0;0;0;0;0;0;0;0;();(-2000.0, -2000.0);
12:10:19:761;12:10:19:736;1448407578.29;(0, 0);0;0;;;;;;;;;;;;;;0;0;0;0;0;0;0;0;0;();(-2000.0, -2000.0);
12:10:19:778;12:10:19:736;1448407578.29;(0, 0);0;0;;;;;;;;;;;;;;0;0;0;0;0;0;0;0;0;();(-2000.0, -2000.0);
12:10:19:795;12:10:19:736;1448407578.29;(0, 0);0;0;;;;;;;;;;;;;;0;0;0;0;0;0;0;0;0;();(-2000.0, -2000.0);
12:10:19:812;12:10:19:804;1448407578.39;(0.42711696624755857, 0.38154966566297743);64.2013931274;0.764040649758;;;;;;;;;;;;;;0;0;0;0;0;0;0;0;0;();(-2000.0, -2000.0);
12:10:19:828;12:10:19:804;1448407578.39;(0.42711696624755857, 0.38154966566297743);64.2013931274;0.764040649758;;;;;;;;;;;;;;0;0;0;0;0;0;0;0;0;();(-2000.0, -2000.0);
12:10:19:861;12:10:19:804;1448407578.39;(0.42711696624755857, 0.38154966566297743);64.2013931274;0.764040649758;;;;;;;;;;;;;;0;0;0;0;0;0;0;0;0;();(-2000.0, -2000.0);
12:10:19:878;12:10:19:871;1448407578.46;(0, 0);0;0;;;;;;;;;;;;;;0;0;0;0;0;0;0;0;0;();(-2000.0, -2000.0);
12:10:19:894;12:10:19:871;1448407578.46;(0, 0);0;0;;;;;;;;;;;;;;0;0;0;0;0;0;0;0;0;();(-2000.0, -2000.0);
12:10:19:911;12:10:19:871;1448407578.46;(0, 0);0;0;;;;;;;;;;;;;;0;0;0;0;0;0;0;0;0;();(-2000.0, -2000.0);
12:10:19:928;12:10:19:871;1448407578.46;(0, 0);0;0;;;;;;;;;;;;;;0;0;0;0;0;0;0;0;0;();(-2000.0, -2000.0);
12:10:19:961;12:10:19:934;1448407578.49;(0.42515528202056885, 0.3958961062961155);60.3781967163;0.621302333292;;;;;;;;;;;;;;0;0;0;0;0;0;0;0;0;();(-2000.0, -2000.0);
12:10:19:978;12:10:19:934;1448407578.49;(0.42515528202056885, 0.3958961062961155);60.3781967163;0.621302333292;;;;;;;;;;;;;;0;0;0;0;0;0;0;0;0;();(-2000.0, -2000.0);
12:10:19:995;12:10:19:934;1448407578.49;(0.42515528202056885, 0.3958961062961155);60.3781967163;0.621302333292;;;;;;;;;;;;;;0;0;0;0;0;0;0;0;0;();(-2000.0, -2000.0);
12:10:20:012;12:10:20:002;1448407578.56;(0, 0);0;0;;;;;;;;;;;;;;0;0;0;0;0;0;0;0;0;();(-2000.0, -2000.0);
12:10:20:028;12:10:20:002;1448407578.56;(0, 0);0;0;;;;;;;;;;;;;;0;0;0;0;0;0;0;0;0;();(-2000.0, -2000.0);
12:10:20:061;12:10:20:002;1448407578.56;(0, 0);0;0;;;;;;;;;;;;;;0;0;0;0;0;0;0;0;0;();(-2000.0, -2000.0);
12:10:20:077;12:10:20:074;1448407578.62;(0.40198681354522703, 0.3903879801432292);59.9593544006;0.615344512395;;;;;;;;;;;;;;0;0;0;0;0;0;0;0;0;();(-2000.0, -2000.0);
12:10:20:094;12:10:20:074;1448407578.62;(0.40198681354522703, 0.3903879801432292);59.9593544006;0.615344512395;;;;;;;;;;;;;;0;0;0;0;0;0;0;0;0;();(-2000.0, -2000.0);
12:10:20:111;12:10:20:074;1448407578.62;(0.40198681354522703, 0.3903879801432292);59.9593544006;0.615344512395;;;;;;;;;;;;;;0;0;0;0;0;0;0;0;0;();(-2000.0, -2000.0);
12:10:20:128;12:10:20:074;1448407578.62;(0.40198681354522703, 0.3903879801432292);59.9593544006;0.615344512395;;;;;;;;;;;;;;0;0;0;0;0;0;0;0;0;();(-2000.0, -2000.0);
12:10:20:161;12:10:20:134;1448407578.69;(0.4035463333129883, 0.39181632995605464);60.0757446289;0.704374974725;;;;;;;;;;;;;;0;0;0;0;0;0;0;0;0;();(-2000.0, -2000.0);
12:10:20:178;12:10:20:134;1448407578.69;(0.4035463333129883, 0.39181632995605464);60.0757446289;0.704374974725;;;;;;;;;;;;;;0;0;0;0;0;0;0;0;0;();(-2000.0, -2000.0);
12:10:20:195;12:10:20:134;1448407578.69;(0.4035463333129883, 0.39181632995605464);60.0757446289;0.704374974725;;;;;;;;;;;;;;0;0;0;0;0;0;0;0;0;();(-2000.0, -2000.0);
12:10:20:212;12:10:20:203;1448407578.76;(0.40597760677337646, 0.3790498521592882);64.3799514771;0.737558441469;;;;;;;;;;;;;;0;0;0;0;0;0;0;0;0;();(-2000.0, -2000.0);
12:10:20:228;12:10:20:203;1448407578.76;(0.40597760677337646, 0.3790498521592882);64.3799514771;0.737558441469;;;;;;;;;;;;;;0;0;0;0;0;0;0;0;0;();(-2000.0, -2000.0);
12:10:20:261;12:10:20:203;1448407578.76;(0.40597760677337646, 0.3790498521592882);64.3799514771;0.737558441469;;;;;;;;;;;;;;0;0;0;0;0;0;0;0;0;();(-2000.0, -2000.0);
12:10:20:278;12:10:20:266;1448407578.82;(0.3963528871536255, 0.3914466434054904);59.448802948;0.74951073527;;;;;;;;;;;;;;0;0;0;0;0;0;0;0;0;();(-2000.0, -2000.0);
12:10:20:295;12:10:20:266;1448407578.82;(0.3963528871536255, 0.3914466434054904);59.448802948;0.74951073527;;;;;;;;;;;;;;0;0;0;0;0;0;0;0;0;();(-2000.0, -2000.0);
12:10:20:311;12:10:20:266;1448407578.82;(0.3963528871536255, 0.3914466434054904);59.448802948;0.74951073527;;;;;;;;;;;;;;0;0;0;0;0;0;0;0;0;();(-2000.0, -2000.0);
12:10:20:328;12:10:20:266;1448407578.82;(0.3963528871536255, 0.3914466434054904);59.448802948;0.74951073527;;;;;;;;;;;;;;0;0;0;0;0;0;0;0;0;();(-2000.0, -2000.0);
12:10:20:363;12:10:20:335;1448407578.89;(0.39730181694030764, 0.3927548302544488);59.1741065979;0.705324875673;;;;;;;;;;;;;;0;0;0;0;0;0;0;0;0;();(-2000.0, -2000.0);
12:10:20:378;12:10:20:335;1448407578.89;(0.39730181694030764, 0.3927548302544488);59.1741065979;0.705324875673;;;;;;;;;;;;;;0;0;0;0;0;0;0;0;0;();(-2000.0, -2000.0);
12:10:20:395;12:10:20:335;1448407578.89;(0.39730181694030764, 0.3927548302544488);59.1741065979;0.705324875673;;;;;;;;;;;;;;0;0;0;0;0;0;0;0;0;();(-2000.0, -2000.0);
12:10:20:411;12:10:20:402;1448407578.96;(0.39802982807159426, 0.39438671535915804);59.3457336426;0.700689583099;;;;;;;;;;;;;;0;0;0;0;0;0;0;0;0;();(-2000.0, -2000.0);
12:10:20:428;12:10:20:402;1448407578.96;(0.39802982807159426, 0.39438671535915804);59.3457336426;0.700689583099;;;;;;;;;;;;;;0;0;0;0;0;0;0;0;0;();(-2000.0, -2000.0);
12:10:20:463;12:10:20:402;1448407578.96;(0.39802982807159426, 0.39438671535915804);59.3457336426;0.700689583099;;;;;;;;;;;;;;0;0;0;0;0;0;0;0;0;();(-2000.0, -2000.0);
12:10:20:478;12:10:20:467;1448407579.02;(0.3994160175323486, 0.39270159403483074);58.8660697937;0.705291710009;;;;;;;;;;;;;;0;0;0;0;0;0;0;0;0;();(-2000.0, -2000.0);
12:10:20:495;12:10:20:467;1448407579.02;(0.3994160175323486, 0.39270159403483074);58.8660697937;0.705291710009;;;;;;;;;;;;;;0;0;0;0;0;0;0;0;0;();(-2000.0, -2000.0);
12:10:20:512;12:10:20:467;1448407579.02;(0.3994160175323486, 0.39270159403483074);58.8660697937;0.705291710009;;;;;;;;;;;;;;0;0;0;0;0;0;0;0;0;();(-2000.0, -2000.0);
12:10:20:528;12:10:20:467;1448407579.02;(0.3994160175323486, 0.39270159403483074);58.8660697937;0.705291710009;;;;;;;;;;;;;;0;0;0;0;0;0;0;0;0;();(-2000.0, -2000.0);
12:10:20:561;12:10:20:535;1448407579.09;(0.40068085193634034, 0.3942911359998915);59.1489982605;0.744697743844;;;;;;;;;;;;;;0;0;0;0;0;0;0;0;0;();(-2000.0, -2000.0);
12:10:20:578;12:10:20:535;1448407579.09;(0.40068085193634034, 0.3942911359998915);59.1489982605;0.744697743844;;;;;;;;;;;;;;0;0;0;0;0;0;0;0;0;();(-2000.0, -2000.0);
12:10:20:595;12:10:20:535;1448407579.09;(0.40068085193634034, 0.3942911359998915);59.1489982605;0.744697743844;;;;;;;;;;;;;;0;0;0;0;0;0;0;0;0;();(-2000.0, -2000.0);
12:10:20:611;12:10:20:599;1448407579.16;(0.4023258686065674, 0.39483523898654516);59.2112846375;0.757225825002;;;;;;;;;;;;;;0;0;0;0;0;0;0;0;0;();(-2000.0, -2000.0);
12:10:20:628;12:10:20:599;1448407579.16;(0.4023258686065674, 0.39483523898654516);59.2112846375;0.757225825002;;;;;;;;;;;;;;0;0;0;0;0;0;0;0;0;();(-2000.0, -2000.0);
12:10:20:662;12:10:20:599;1448407579.16;(0.4023258686065674, 0.39483523898654516);59.2112846375;0.757225825002;;;;;;;;;;;;;;0;0;0;0;0;0;0;0;0;();(-2000.0, -2000.0);
12:10:20:678;12:10:20:667;1448407579.22;(0.4042922019958496, 0.39465925428602433);59.9009933472;0.709738094436;;;;;;;;;;;;;;0;0;0;0;0;0;0;0;0;();(-2000.0, -2000.0);
12:10:20:695;12:10:20:667;1448407579.22;(0.4042922019958496, 0.39465925428602433);59.9009933472;0.709738094436;;;;;;;;;;;;;;0;0;0;0;0;0;0;0;0;();(-2000.0, -2000.0);
12:10:20:713;12:10:20:667;1448407579.22;(0.4042922019958496, 0.39465925428602433);59.9009933472;0.709738094436;;;;;;;;;;;;;;0;0;0;0;0;0;0;0;0;();(-2000.0, -2000.0);
12:10:20:729;12:10:20:667;1448407579.22;(0.4042922019958496, 0.39465925428602433);59.9009933472;0.709738094436;;;;;;;;;;;;;;0;0;0;0;0;0;0;0;0;();(-2000.0, -2000.0);
12:10:20:762;12:10:20:737;1448407579.29;(0, 0);0;0;;;;;;;;;;;;;;0;0;0;0;0;0;0;0;0;();(-2000.0, -2000.0);
12:10:20:779;12:10:20:737;1448407579.29;(0, 0);0;0;;;;;;;;;;;;;;0;0;0;0;0;0;0;0;0;();(-2000.0, -2000.0);
12:10:20:795;12:10:20:737;1448407579.29;(0, 0);0;0;;;;;;;;;;;;;;0;0;0;0;0;0;0;0;0;();(-2000.0, -2000.0);
12:10:20:811;12:10:20:800;1448407579.36;(0.3531347751617432, 0.3785618252224392);59.842010498;0.828021517205;;;;;;;;;;;;;;0;0;0;0;0;0;0;0;0;();(-2000.0, -2000.0);
12:10:20:829;12:10:20:800;1448407579.36;(0.3531347751617432, 0.3785618252224392);59.842010498;0.828021517205;;;;;;;;;;;;;;0;0;0;0;0;0;0;0;0;();(-2000.0, -2000.0);
12:10:20:862;12:10:20:800;1448407579.36;(0.3531347751617432, 0.3785618252224392);59.842010498;0.828021517205;;;;;;;;;;;;;;0;0;0;0;0;0;0;0;0;();(-2000.0, -2000.0);
12:10:20:880;12:10:20:867;1448407579.42;(0.3576761484146118, 0.38094325595431855);60.0874404907;0.706060033293;;;;;;;;;;;;;;0;0;0;0;0;0;0;0;0;();(-2000.0, -2000.0);
12:10:20:895;12:10:20:867;1448407579.42;(0.3576761484146118, 0.38094325595431855);60.0874404907;0.706060033293;;;;;;;;;;;;;;0;0;0;0;0;0;0;0;0;();(-2000.0, -2000.0);
12:10:20:911;12:10:20:867;1448407579.42;(0.3576761484146118, 0.38094325595431855);60.0874404907;0.706060033293;;;;;;;;;;;;;;0;0;0;0;0;0;0;0;0;();(-2000.0, -2000.0);
12:10:20:929;12:10:20:867;1448407579.42;(0.3576761484146118, 0.38094325595431855);60.0874404907;0.706060033293;;;;;;;;;;;;;;0;0;0;0;0;0;0;0;0;();(-2000.0, -2000.0);
12:10:20:962;12:10:20:946;1448407579.49;(0.36468777656555174, 0.3881948682996962);62.0956192017;0.790127393326;;;;;;;;;;;;;;0;0;0;0;0;0;0;0;0;();(-2000.0, -2000.0);
12:10:20:980;12:10:20:946;1448407579.49;(0.36468777656555174, 0.3881948682996962);62.0956192017;0.790127393326;;;;;;;;;;;;;;0;0;0;0;0;0;0;0;0;();(-2000.0, -2000.0);
12:10:20:996;12:10:20:946;1448407579.49;(0.36468777656555174, 0.3881948682996962);62.0956192017;0.790127393326;;;;;;;;;;;;;;0;0;0;0;0;0;0;0;0;();(-2000.0, -2000.0);
12:10:21:012;12:10:21:000;1448407579.56;(0.35613083839416504, 0.38407329983181426);60.2523345947;0.786720273446;;;;;;;;;;;;;;0;0;0;0;0;0;0;0;0;();(-2000.0, -2000.0);
12:10:21:029;12:10:21:000;1448407579.56;(0.35613083839416504, 0.38407329983181426);60.2523345947;0.786720273446;;;;;;;;;;;;;;0;0;0;0;0;0;0;0;0;();(-2000.0, -2000.0);
12:10:21:062;12:10:21:000;1448407579.56;(0.35613083839416504, 0.38407329983181426);60.2523345947;0.786720273446;;;;;;;;;;;;;;0;0;0;0;0;0;0;0;0;();(-2000.0, -2000.0);
12:10:21:079;12:10:21:067;1448407579.62;(0.36087708473205565, 0.38760935465494795);59.9879684448;0.795531805014;;;;;;;;;;;;;;0;0;0;0;0;0;0;0;0;();(-2000.0, -2000.0);
12:10:21:095;12:10:21:067;1448407579.62;(0.36087708473205565, 0.38760935465494795);59.9879684448;0.795531805014;;;;;;;;;;;;;;0;0;0;0;0;0;0;0;0;();(-2000.0, -2000.0);
12:10:21:113;12:10:21:067;1448407579.62;(0.36087708473205565, 0.38760935465494795);59.9879684448;0.795531805014;;;;;;;;;;;;;;0;0;0;0;0;0;0;0;0;();(-2000.0, -2000.0);
12:10:21:129;12:10:21:067;1448407579.62;(0.36087708473205565, 0.38760935465494795);59.9879684448;0.795531805014;;;;;;;;;;;;;;0;0;0;0;0;0;0;0;0;();(-2000.0, -2000.0);
12:10:21:162;12:10:21:135;1448407579.72;(0, 0);0;0;;;;;;;;;;;;;;0;0;0;0;0;0;0;0;0;();(-2000.0, -2000.0);
12:10:21:179;12:10:21:135;1448407579.72;(0, 0);0;0;;;;;;;;;;;;;;0;0;0;0;0;0;0;0;0;();(-2000.0, -2000.0);
12:10:21:195;12:10:21:135;1448407579.72;(0, 0);0;0;;;;;;;;;;;;;;0;0;0;0;0;0;0;0;0;();(-2000.0, -2000.0);
12:10:21:213;12:10:21:203;1448407579.76;(0.3685536623001099, 0.3890228271484375);58.1920928955;0.763495075182;;;;;;;;;;;;;;0;0;0;0;0;0;0;0;0;();(-2000.0, -2000.0);
12:10:21:229;12:10:21:203;1448407579.76;(0.3685536623001099, 0.3890228271484375);58.1920928955;0.763495075182;;;;;;;;;;;;;;0;0;0;0;0;0;0;0;0;();(-2000.0, -2000.0);
12:10:21:263;12:10:21:261;1448407579.79;(0.3702677011489868, 0.3896522098117404);57.9295349121;0.844202625835;;;;;;;;;;;;;;0;0;0;0;0;0;0;0;0;();(-2000.0, -2000.0);
12:10:21:280;12:10:21:262;1448407579.82;(0.3724225044250488, 0.3905942281087239);58.2985076904;0.744376073071;;;;;;;;;;;;;;0;0;0;0;0;0;0;0;0;();(-2000.0, -2000.0);
12:10:21:295;12:10:21:262;1448407579.82;(0.3724225044250488, 0.3905942281087239);58.2985076904;0.744376073071;;;;;;;;;;;;;;0;0;0;0;0;0;0;0;0;();(-2000.0, -2000.0);
12:10:21:312;12:10:21:262;1448407579.82;(0.3724225044250488, 0.3905942281087239);58.2985076904;0.744376073071;;;;;;;;;;;;;;0;0;0;0;0;0;0;0;0;();(-2000.0, -2000.0);
12:10:21:329;12:10:21:262;1448407579.82;(0.3724225044250488, 0.3905942281087239);58.2985076904;0.744376073071;;;;;;;;;;;;;;0;0;0;0;0;0;0;0;0;();(-2000.0, -2000.0);
12:10:21:362;12:10:21:334;1448407579.89;(0.37682766914367677, 0.3940692477756076);58.1102676392;0.721708774632;;;;;;;;;;;;;;0;0;0;0;0;0;0;0;0;();(-2000.0, -2000.0);
12:10:21:378;12:10:21:334;1448407579.89;(0.37682766914367677, 0.3940692477756076);58.1102676392;0.721708774632;;;;;;;;;;;;;;0;0;0;0;0;0;0;0;0;();(-2000.0, -2000.0);
12:10:21:395;12:10:21:334;1448407579.89;(0.37682766914367677, 0.3940692477756076);58.1102676392;0.721708774632;;;;;;;;;;;;;;0;0;0;0;0;0;0;0;0;();(-2000.0, -2000.0);
12:10:21:413;12:10:21:398;1448407579.96;(0.3798104524612427, 0.3937068091498481);58.1955795288;0.689523667933;;;;;;;;;;;;;;0;0;0;0;0;0;0;0;0;();(-2000.0, -2000.0);
12:10:21:429;12:10:21:398;1448407579.96;(0.3798104524612427, 0.3937068091498481);58.1955795288;0.689523667933;;;;;;;;;;;;;;0;0;0;0;0;0;0;0;0;();(-2000.0, -2000.0);
12:10:21:464;12:10:21:462;1448407580.02;(0.38307716846466067, 0.39324798583984377);58.6140670776;0.71610124053;;;;;;;;;;;;;;0;0;0;0;0;0;0;0;0;();(-2000.0, -2000.0);
12:10:21:478;12:10:21:462;1448407580.02;(0.38307716846466067, 0.39324798583984377);58.6140670776;0.71610124053;;;;;;;;;;;;;;0;0;0;0;0;0;0;0;0;();(-2000.0, -2000.0);
12:10:21:495;12:10:21:462;1448407580.02;(0.38307716846466067, 0.39324798583984377);58.6140670776;0.71610124053;;;;;;;;;;;;;;0;0;0;0;0;0;0;0;0;();(-2000.0, -2000.0);
12:10:21:513;12:10:21:462;1448407580.02;(0.38307716846466067, 0.39324798583984377);58.6140670776;0.71610124053;;;;;;;;;;;;;;0;0;0;0;0;0;0;0;0;();(-2000.0, -2000.0);
12:10:21:529;12:10:21:462;1448407580.02;(0.38307716846466067, 0.39324798583984377);58.6140670776;0.71610124053;;;;;;;;;;;;;;0;0;0;0;0;0;0;0;0;();(-2000.0, -2000.0);
12:10:21:547;12:10:21:534;1448407580.09;(0.38549466133117677, 0.3920685662163629);58.5040893555;0.721806089082;;;;;;;;;;;;;;0;0;0;0;0;0;0;0;0;();(-2000.0, -2000.0);
12:10:21:579;12:10:21:534;1448407580.09;(0.38549466133117677, 0.3920685662163629);58.5040893555;0.721806089082;;;;;;;;;;;;;;0;0;0;0;0;0;0;0;0;();(-2000.0, -2000.0);
12:10:21:596;12:10:21:594;1448407580.16;(0.3846899509429932, 0.38950568305121525);59.1954498291;0.70945001342;;;;;;;;;;;;;;0;0;0;0;0;0;0;0;0;();(-2000.0, -2000.0);
12:10:21:613;12:10:21:594;1448407580.16;(0.3846899509429932, 0.38950568305121525);59.1954498291;0.70945001342;;;;;;;;;;;;;;0;0;0;0;0;0;0;0;0;();(-2000.0, -2000.0);
12:10:21:629;12:10:21:594;1448407580.16;(0.3846899509429932, 0.38950568305121525);59.1954498291;0.70945001342;;;;;;;;;;;;;;0;0;0;0;0;0;0;0;0;();(-2000.0, -2000.0);
12:10:21:665;12:10:21:663;1448407580.22;(0.38651487827301023, 0.3916663275824652);59.7180671692;0.689550627858;;;;;;;;;;;;;;0;0;0;0;0;0;0;0;0;();(-2000.0, -2000.0);
12:10:21:679;12:10:21:663;1448407580.22;(0.38651487827301023, 0.3916663275824652);59.7180671692;0.689550627858;;;;;;;;;;;;;;0;0;0;0;0;0;0;0;0;();(-2000.0, -2000.0);
12:10:21:695;12:10:21:663;1448407580.22;(0.38651487827301023, 0.3916663275824652);59.7180671692;0.689550627858;;;;;;;;;;;;;;0;0;0;0;0;0;0;0;0;();(-2000.0, -2000.0);
12:10:21:714;12:10:21:663;1448407580.22;(0.38651487827301023, 0.3916663275824652);59.7180671692;0.689550627858;;;;;;;;;;;;;;0;0;0;0;0;0;0;0;0;();(-2000.0, -2000.0);
12:10:21:731;12:10:21:729;1448407580.26;(0.3883306264877319, 0.39320441351996527);60.1374511719;0.658756854716;;;;;;;;;;;;;;0;0;0;0;0;0;0;0;0;();(-2000.0, -2000.0);
12:10:21:763;12:10:21:730;1448407580.29;(0.389183497428894, 0.3920158386230469);59.6536827087;0.707297222533;;;;;;;;;;;;;;0;0;0;0;0;0;0;0;0;();(-2000.0, -2000.0);
12:10:21:779;12:10:21:730;1448407580.29;(0.389183497428894, 0.3920158386230469);59.6536827087;0.707297222533;;;;;;;;;;;;;;0;0;0;0;0;0;0;0;0;();(-2000.0, -2000.0);
12:10:21:797;12:10:21:795;1448407580.36;(0.8166224002838135, 0.6311645295884873);18.3822250366;0.747280950871;;;;;;;;;;;;;;0;0;0;0;0;0;0;0;0;();(-2000.0, -2000.0);
12:10:21:812;12:10:21:795;1448407580.36;(0.8166224002838135, 0.6311645295884873);18.3822250366;0.747280950871;;;;;;;;;;;;;;0;0;0;0;0;0;0;0;0;();(-2000.0, -2000.0);
12:10:21:830;12:10:21:795;1448407580.36;(0.8166224002838135, 0.6311645295884873);18.3822250366;0.747280950871;;;;;;;;;;;;;;0;0;0;0;0;0;0;0;0;();(-2000.0, -2000.0);
12:10:21:864;12:10:21:862;1448407580.42;(0.7932984828948975, 0.592308086819119);23.7486209869;0.668709771024;;;;;;;;;;;;;;0;0;0;0;0;0;0;0;0;();(-2000.0, -2000.0);
12:10:21:880;12:10:21:862;1448407580.42;(0.7932984828948975, 0.592308086819119);23.7486209869;0.668709771024;;;;;;;;;;;;;;0;0;0;0;0;0;0;0;0;();(-2000.0, -2000.0);
12:10:21:896;12:10:21:862;1448407580.42;(0.7932984828948975, 0.592308086819119);23.7486209869;0.668709771024;;;;;;;;;;;;;;0;0;0;0;0;0;0;0;0;();(-2000.0, -2000.0);
12:10:21:913;12:10:21:862;1448407580.42;(0.7932984828948975, 0.592308086819119);23.7486209869;0.668709771024;;;;;;;;;;;;;;0;0;0;0;0;0;0;0;0;();(-2000.0, -2000.0);
12:10:21:929;12:10:21:926;1448407580.49;(0.418293833732605, 0.3981318155924479);58.4775161743;0.6180776151;;;;;;;;;;;;;;0;0;0;0;0;0;0;0;0;();(-2000.0, -2000.0);
12:10:21:946;12:10:21:926;1448407580.49;(0.418293833732605, 0.3981318155924479);58.4775161743;0.6180776151;;;;;;;;;;;;;;0;0;0;0;0;0;0;0;0;();(-2000.0, -2000.0);
12:10:21:979;12:10:21:926;1448407580.49;(0.418293833732605, 0.3981318155924479);58.4775161743;0.6180776151;;;;;;;;;;;;;;0;0;0;0;0;0;0;0;0;();(-2000.0, -2000.0);
12:10:21:996;12:10:21:994;1448407580.56;(0.419973087310791, 0.3983738369411892);58.5796279907;0.689188251616;;;;;;;;;;;;;;0;0;0;0;0;0;0;0;0;();(-2000.0, -2000.0);
12:10:22:013;12:10:21:994;1448407580.56;(0.419973087310791, 0.3983738369411892);58.5796279907;0.689188251616;;;;;;;;;;;;;;0;0;0;0;0;0;0;0;0;();(-2000.0, -2000.0);
12:10:22:030;12:10:21:994;1448407580.56;(0.419973087310791, 0.3983738369411892);58.5796279907;0.689188251616;;;;;;;;;;;;;;0;0;0;0;0;0;0;0;0;();(-2000.0, -2000.0);
12:10:22:047;12:10:21:994;1448407580.56;(0.419973087310791, 0.3983738369411892);58.5796279907;0.689188251616;;;;;;;;;;;;;;0;0;0;0;0;0;0;0;0;();(-2000.0, -2000.0);
12:10:22:080;12:10:22:062;1448407580.62;(0.4233633279800415, 0.38259548611111116);61.8094863892;0.692974894187;;;;;;;;;;;;;;0;0;0;0;0;0;0;0;0;();(-2000.0, -2000.0);
12:10:22:096;12:10:22:062;1448407580.62;(0.4233633279800415, 0.38259548611111116);61.8094863892;0.692974894187;;;;;;;;;;;;;;0;0;0;0;0;0;0;0;0;();(-2000.0, -2000.0);
12:10:22:114;12:10:22:062;1448407580.62;(0.4233633279800415, 0.38259548611111116);61.8094863892;0.692974894187;;;;;;;;;;;;;;0;0;0;0;0;0;0;0;0;();(-2000.0, -2000.0);
12:10:22:130;12:10:22:127;1448407580.69;(0.42088685035705564, 0.39932785034179685);58.4184875488;0.665343041454;;;;;;;;;;;;;;0;0;0;0;0;0;0;0;0;();(-2000.0, -2000.0);
12:10:22:163;12:10:22:127;1448407580.69;(0.42088685035705564, 0.39932785034179685);58.4184875488;0.665343041454;;;;;;;;;;;;;;0;0;0;0;0;0;0;0;0;();(-2000.0, -2000.0);
12:10:22:179;12:10:22:127;1448407580.69;(0.42088685035705564, 0.39932785034179685);58.4184875488;0.665343041454;;;;;;;;;;;;;;0;0;0;0;0;0;0;0;0;();(-2000.0, -2000.0);
12:10:22:196;12:10:22:194;1448407580.76;(0.42206573486328125, 0.3979581197102865);57.8921737671;0.732645773642;;;;;;;;;;;;;;0;0;0;0;0;0;0;0;0;();(-2000.0, -2000.0);
12:10:22:214;12:10:22:194;1448407580.76;(0.42206573486328125, 0.3979581197102865);57.8921737671;0.732645773642;;;;;;;;;;;;;;0;0;0;0;0;0;0;0;0;();(-2000.0, -2000.0);
12:10:22:230;12:10:22:194;1448407580.76;(0.42206573486328125, 0.3979581197102865);57.8921737671;0.732645773642;;;;;;;;;;;;;;0;0;0;0;0;0;0;0;0;();(-2000.0, -2000.0);
12:10:22:247;12:10:22:194;1448407580.76;(0.42206573486328125, 0.3979581197102865);57.8921737671;0.732645773642;;;;;;;;;;;;;;0;0;0;0;0;0;0;0;0;();(-2000.0, -2000.0);
12:10:22:281;12:10:22:258;1448407580.82;(0, 0);0;0;;;;;;;;;;;;;;0;0;0;0;0;0;0;0;0;();(-2000.0, -2000.0);
12:10:22:296;12:10:22:258;1448407580.82;(0, 0);0;0;;;;;;;;;;;;;;0;0;0;0;0;0;0;0;0;();(-2000.0, -2000.0);
12:10:22:313;12:10:22:258;1448407580.82;(0, 0);0;0;;;;;;;;;;;;;;0;0;0;0;0;0;0;0;0;();(-2000.0, -2000.0);
12:10:22:331;12:10:22:329;1448407580.86;(0.369968056678772, 0.40598297119140625);58.9241828918;0.646562207236;;;;;;;;;;;;;;0;0;0;0;0;0;0;0;0;();(-2000.0, -2000.0);
12:10:22:347;12:10:22:331;1448407580.89;(0.3706101417541504, 0.3842529296875);61.9865379333;0.640827004173;;;;;;;;;;;;;;0;0;0;0;0;0;0;0;0;();(-2000.0, -2000.0);
12:10:22:380;12:10:22:331;1448407580.89;(0.3706101417541504, 0.3842529296875);61.9865379333;0.640827004173;;;;;;;;;;;;;;0;0;0;0;0;0;0;0;0;();(-2000.0, -2000.0);
12:10:22:397;12:10:22:391;1448407580.96;(0.37727062702178954, 0.4076603783501519);58.6221923828;0.6733413486;;;;;;;;;;;;;;0;0;0;0;0;0;0;0;0;();(-2000.0, -2000.0);
12:10:22:413;12:10:22:391;1448407580.96;(0.37727062702178954, 0.4076603783501519);58.6221923828;0.6733413486;;;;;;;;;;;;;;0;0;0;0;0;0;0;0;0;();(-2000.0, -2000.0);
12:10:22:430;12:10:22:391;1448407580.96;(0.37727062702178954, 0.4076603783501519);58.6221923828;0.6733413486;;;;;;;;;;;;;;0;0;0;0;0;0;0;0;0;();(-2000.0, -2000.0);
12:10:22:447;12:10:22:391;1448407580.96;(0.37727062702178954, 0.4076603783501519);58.6221923828;0.6733413486;;;;;;;;;;;;;;0;0;0;0;0;0;0;0;0;();(-2000.0, -2000.0);
12:10:22:480;12:10:22:458;1448407581.02;(0, 0);0;0;;;;;;;;;;;;;;0;0;0;0;0;0;0;0;0;();(-2000.0, -2000.0);
12:10:22:497;12:10:22:458;1448407581.02;(0, 0);0;0;;;;;;;;;;;;;;0;0;0;0;0;0;0;0;0;();(-2000.0, -2000.0);
12:10:22:513;12:10:22:458;1448407581.02;(0, 0);0;0;;;;;;;;;;;;;;0;0;0;0;0;0;0;0;0;();(-2000.0, -2000.0);
12:10:22:530;12:10:22:526;1448407581.09;(0, 0);0;0;;;;;;;;;;;;;;0;0;0;0;0;0;0;0;0;();(-2000.0, -2000.0);
12:10:22:547;12:10:22:526;1448407581.09;(0, 0);0;0;;;;;;;;;;;;;;0;0;0;0;0;0;0;0;0;();(-2000.0, -2000.0);
12:10:22:580;12:10:22:526;1448407581.09;(0, 0);0;0;;;;;;;;;;;;;;0;0;0;0;0;0;0;0;0;();(-2000.0, -2000.0);
12:10:22:597;12:10:22:590;1448407581.16;(0, 0);0;0;;;;;;;;;;;;;;0;0;0;0;0;0;0;0;0;();(-2000.0, -2000.0);
12:10:22:613;12:10:22:590;1448407581.16;(0, 0);0;0;;;;;;;;;;;;;;0;0;0;0;0;0;0;0;0;();(-2000.0, -2000.0);
12:10:22:630;12:10:22:590;1448407581.16;(0, 0);0;0;;;;;;;;;;;;;;0;0;0;0;0;0;0;0;0;();(-2000.0, -2000.0);
12:10:22:647;12:10:22:590;1448407581.16;(0, 0);0;0;;;;;;;;;;;;;;0;0;0;0;0;0;0;0;0;();(-2000.0, -2000.0);
12:10:22:681;12:10:22:658;1448407581.22;(0, 0);0;0;;;;;;;;;;;;;;0;0;0;0;0;0;0;0;0;();(-2000.0, -2000.0);
12:10:22:696;12:10:22:658;1448407581.22;(0, 0);0;0;;;;;;;;;;;;;;0;0;0;0;0;0;0;0;0;();(-2000.0, -2000.0);
12:10:22:715;12:10:22:658;1448407581.22;(0, 0);0;0;;;;;;;;;;;;;;0;0;0;0;0;0;0;0;0;();(-2000.0, -2000.0);
12:10:22:730;12:10:22:721;1448407581.29;(0, 0);0;0;;;;;;;;;;;;;;0;0;0;0;0;0;0;0;0;();(-2000.0, -2000.0);
12:10:22:747;12:10:22:721;1448407581.29;(0, 0);0;0;;;;;;;;;;;;;;0;0;0;0;0;0;0;0;0;();(-2000.0, -2000.0);
12:10:22:780;12:10:22:721;1448407581.29;(0, 0);0;0;;;;;;;;;;;;;;0;0;0;0;0;0;0;0;0;();(-2000.0, -2000.0);
12:10:22:797;12:10:22:789;1448407581.36;(0, 0);0;0;;;;;;;;;;;;;;0;0;0;0;0;0;0;0;0;();(-2000.0, -2000.0);
12:10:22:815;12:10:22:789;1448407581.36;(0, 0);0;0;;;;;;;;;;;;;;0;0;0;0;0;0;0;0;0;();(-2000.0, -2000.0);
12:10:22:830;12:10:22:789;1448407581.36;(0, 0);0;0;;;;;;;;;;;;;;0;0;0;0;0;0;0;0;0;();(-2000.0, -2000.0);
12:10:22:846;12:10:22:789;1448407581.36;(0, 0);0;0;;;;;;;;;;;;;;0;0;0;0;0;0;0;0;0;();(-2000.0, -2000.0);
12:10:22:880;12:10:22:857;1448407581.42;(0, 0);0;0;;;;;;;;;;;;;;0;0;0;0;0;0;0;0;0;();(-2000.0, -2000.0);
12:10:22:897;12:10:22:857;1448407581.42;(0, 0);0;0;;;;;;;;;;;;;;0;0;0;0;0;0;0;0;0;();(-2000.0, -2000.0);
12:10:22:913;12:10:22:857;1448407581.42;(0, 0);0;0;;;;;;;;;;;;;;0;0;0;0;0;0;0;0;0;();(-2000.0, -2000.0);
12:10:22:930;12:10:22:922;1448407581.49;(0, 0);0;0;;;;;;;;;;;;;;0;0;0;0;0;0;0;0;0;();(-2000.0, -2000.0);
12:10:22:947;12:10:22:922;1448407581.49;(0, 0);0;0;;;;;;;;;;;;;;0;0;0;0;0;0;0;0;0;();(-2000.0, -2000.0);
12:10:22:980;12:10:22:922;1448407581.49;(0, 0);0;0;;;;;;;;;;;;;;0;0;0;0;0;0;0;0;0;();(-2000.0, -2000.0);
12:10:22:998;12:10:22:990;1448407581.56;(0.44869341850280764, 0.389192157321506);59.1864471436;0.752202174864;;;;;;;;;;;;;;0;0;0;0;0;0;0;0;0;();(-2000.0, -2000.0);
12:10:23:015;12:10:22:990;1448407581.56;(0.44869341850280764, 0.389192157321506);59.1864471436;0.752202174864;;;;;;;;;;;;;;0;0;0;0;0;0;0;0;0;();(-2000.0, -2000.0);
12:10:23:031;12:10:22:990;1448407581.56;(0.44869341850280764, 0.389192157321506);59.1864471436;0.752202174864;;;;;;;;;;;;;;0;0;0;0;0;0;0;0;0;();(-2000.0, -2000.0);
12:10:23:047;12:10:22:990;1448407581.56;(0.44869341850280764, 0.389192157321506);59.1864471436;0.752202174864;;;;;;;;;;;;;;0;0;0;0;0;0;0;0;0;();(-2000.0, -2000.0);
12:10:23:081;12:10:23:054;1448407581.62;(0, 0);0;0;;;;;;;;;;;;;;0;0;0;0;0;0;0;0;0;();(-2000.0, -2000.0);
12:10:23:098;12:10:23:054;1448407581.62;(0, 0);0;0;;;;;;;;;;;;;;0;0;0;0;0;0;0;0;0;();(-2000.0, -2000.0);
12:10:23:115;12:10:23:054;1448407581.62;(0, 0);0;0;;;;;;;;;;;;;;0;0;0;0;0;0;0;0;0;();(-2000.0, -2000.0);
12:10:23:131;12:10:23:122;1448407581.69;(0.44744281768798827, 0.38871171739366317);58.2799987793;0.797307514548;;;;;;;;;;;;;;0;0;0;0;0;0;0;0;0;();(-2000.0, -2000.0);
12:10:23:147;12:10:23:122;1448407581.69;(0.44744281768798827, 0.38871171739366317);58.2799987793;0.797307514548;;;;;;;;;;;;;;0;0;0;0;0;0;0;0;0;();(-2000.0, -2000.0);
12:10:23:180;12:10:23:122;1448407581.69;(0.44744281768798827, 0.38871171739366317);58.2799987793;0.797307514548;;;;;;;;;;;;;;0;0;0;0;0;0;0;0;0;();(-2000.0, -2000.0);
12:10:23:198;12:10:23:190;1448407581.76;(0.4459548473358154, 0.39114456176757817);59.7419090271;0.737413207972;;;;;;;;;;;;;;0;0;0;0;0;0;0;0;0;();(-2000.0, -2000.0);
12:10:23:214;12:10:23:190;1448407581.76;(0.4459548473358154, 0.39114456176757817);59.7419090271;0.737413207972;;;;;;;;;;;;;;0;0;0;0;0;0;0;0;0;();(-2000.0, -2000.0);
12:10:23:231;12:10:23:190;1448407581.76;(0.4459548473358154, 0.39114456176757817);59.7419090271;0.737413207972;;;;;;;;;;;;;;0;0;0;0;0;0;0;0;0;();(-2000.0, -2000.0);
12:10:23:247;12:10:23:190;1448407581.76;(0.4459548473358154, 0.39114456176757817);59.7419090271;0.737413207972;;;;;;;;;;;;;;0;0;0;0;0;0;0;0;0;();(-2000.0, -2000.0);
12:10:23:282;12:10:23:254;1448407581.82;(0.44875435829162597, 0.3797388712565104);61.2305183411;0.749245699065;;;;;;;;;;;;;;0;0;0;0;0;0;0;0;0;();(-2000.0, -2000.0);
12:10:23:297;12:10:23:254;1448407581.82;(0.44875435829162597, 0.3797388712565104);61.2305183411;0.749245699065;;;;;;;;;;;;;;0;0;0;0;0;0;0;0;0;();(-2000.0, -2000.0);
12:10:23:314;12:10:23:254;1448407581.82;(0.44875435829162597, 0.3797388712565104);61.2305183411;0.749245699065;;;;;;;;;;;;;;0;0;0;0;0;0;0;0;0;();(-2000.0, -2000.0);
12:10:23:330;12:10:23:322;1448407581.89;(0.4812816619873047, 0.37401754591200087);65.2734298706;0.655145045862;;;;;;;;;;;;;;0;0;0;0;0;0;0;0;0;();(-2000.0, -2000.0);
12:10:23:348;12:10:23:322;1448407581.89;(0.4812816619873047, 0.37401754591200087);65.2734298706;0.655145045862;;;;;;;;;;;;;;0;0;0;0;0;0;0;0;0;();(-2000.0, -2000.0);
12:10:23:381;12:10:23:322;1448407581.89;(0.4812816619873047, 0.37401754591200087);65.2734298706;0.655145045862;;;;;;;;;;;;;;0;0;0;0;0;0;0;0;0;();(-2000.0, -2000.0);
12:10:23:397;12:10:23:386;1448407581.96;(0.4871048927307129, 0.3734152052137587);58.622051239;0.870197576838;;;;;;;;;;;;;;0;0;0;0;0;0;0;0;0;();(-2000.0, -2000.0);
12:10:23:414;12:10:23:386;1448407581.96;(0.4871048927307129, 0.3734152052137587);58.622051239;0.870197576838;;;;;;;;;;;;;;0;0;0;0;0;0;0;0;0;();(-2000.0, -2000.0);
12:10:23:431;12:10:23:386;1448407581.96;(0.4871048927307129, 0.3734152052137587);58.622051239;0.870197576838;;;;;;;;;;;;;;0;0;0;0;0;0;0;0;0;();(-2000.0, -2000.0);
12:10:23:447;12:10:23:386;1448407581.96;(0.4871048927307129, 0.3734152052137587);58.622051239;0.870197576838;;;;;;;;;;;;;;0;0;0;0;0;0;0;0;0;();(-2000.0, -2000.0);
12:10:23:481;12:10:23:456;1448407582.02;(0.48521714210510253, 0.3760022481282552);58.4870414734;0.890847208258;;;;;;;;;;;;;;0;0;0;0;0;0;0;0;0;();(-2000.0, -2000.0);
12:10:23:498;12:10:23:456;1448407582.02;(0.48521714210510253, 0.3760022481282552);58.4870414734;0.890847208258;;;;;;;;;;;;;;0;0;0;0;0;0;0;0;0;();(-2000.0, -2000.0);
12:10:23:515;12:10:23:456;1448407582.02;(0.48521714210510253, 0.3760022481282552);58.4870414734;0.890847208258;;;;;;;;;;;;;;0;0;0;0;0;0;0;0;0;();(-2000.0, -2000.0);
12:10:23:531;12:10:23:522;1448407582.09;(0.48400416374206545, 0.3774960411919488);58.7049636841;0.962598334282;;;;;;;;;;;;;;0;0;0;0;0;0;0;0;0;();(-2000.0, -2000.0);
12:10:23:548;12:10:23:522;1448407582.09;(0.48400416374206545, 0.3774960411919488);58.7049636841;0.962598334282;;;;;;;;;;;;;;0;0;0;0;0;0;0;0;0;();(-2000.0, -2000.0);
12:10:23:581;12:10:23:522;1448407582.09;(0.48400416374206545, 0.3774960411919488);58.7049636841;0.962598334282;;;;;;;;;;;;;;0;0;0;0;0;0;0;0;0;();(-2000.0, -2000.0);
12:10:23:599;12:10:23:586;1448407582.16;(0.48245415687561033, 0.37912483215332027);58.8603553772;0.946972837784;;;;;;;;;;;;;;0;0;0;0;0;0;0;0;0;();(-2000.0, -2000.0);
12:10:23:614;12:10:23:586;1448407582.16;(0.48245415687561033, 0.37912483215332027);58.8603553772;0.946972837784;;;;;;;;;;;;;;0;0;0;0;0;0;0;0;0;();(-2000.0, -2000.0);
12:10:23:630;12:10:23:586;1448407582.16;(0.48245415687561033, 0.37912483215332027);58.8603553772;0.946972837784;;;;;;;;;;;;;;0;0;0;0;0;0;0;0;0;();(-2000.0, -2000.0);
12:10:23:648;12:10:23:586;1448407582.16;(0.48245415687561033, 0.37912483215332027);58.8603553772;0.946972837784;;;;;;;;;;;;;;0;0;0;0;0;0;0;0;0;();(-2000.0, -2000.0);
12:10:23:681;12:10:23:654;1448407582.22;(0.4812819004058838, 0.3786423153347439);58.4991416931;0.866219355606;;;;;;;;;;;;;;0;0;0;0;0;0;0;0;0;();(-2000.0, -2000.0);
12:10:23:697;12:10:23:654;1448407582.22;(0.4812819004058838, 0.3786423153347439);58.4991416931;0.866219355606;;;;;;;;;;;;;;0;0;0;0;0;0;0;0;0;();(-2000.0, -2000.0);
12:10:23:714;12:10:23:654;1448407582.22;(0.4812819004058838, 0.3786423153347439);58.4991416931;0.866219355606;;;;;;;;;;;;;;0;0;0;0;0;0;0;0;0;();(-2000.0, -2000.0);
12:10:23:730;12:10:23:719;1448407582.29;(0.4977429866790771, 0.36371633741590714);58.0966796875;1.0;;;;;;;;;;;;;;0;0;0;0;0;0;0;0;0;();(-2000.0, -2000.0);
12:10:23:748;12:10:23:719;1448407582.29;(0.4977429866790771, 0.36371633741590714);58.0966796875;1.0;;;;;;;;;;;;;;0;0;0;0;0;0;0;0;0;();(-2000.0, -2000.0);
12:10:23:781;12:10:23:719;1448407582.29;(0.4977429866790771, 0.36371633741590714);58.0966796875;1.0;;;;;;;;;;;;;;0;0;0;0;0;0;0;0;0;();(-2000.0, -2000.0);
12:10:23:798;12:10:23:786;1448407582.36;(0.4963139533996582, 0.365319569905599);58.6477279663;1.0;;;;;;;;;;;;;;0;0;0;0;0;0;0;0;0;();(-2000.0, -2000.0);
12:10:23:814;12:10:23:786;1448407582.36;(0.4963139533996582, 0.365319569905599);58.6477279663;1.0;;;;;;;;;;;;;;0;0;0;0;0;0;0;0;0;();(-2000.0, -2000.0);
12:10:23:831;12:10:23:786;1448407582.36;(0.4963139533996582, 0.365319569905599);58.6477279663;1.0;;;;;;;;;;;;;;0;0;0;0;0;0;0;0;0;();(-2000.0, -2000.0);
12:10:23:848;12:10:23:786;1448407582.36;(0.4963139533996582, 0.365319569905599);58.6477279663;1.0;;;;;;;;;;;;;;0;0;0;0;0;0;0;0;0;();(-2000.0, -2000.0);
12:10:23:882;12:10:23:854;1448407582.42;(0.4949760913848877, 0.36668264600965716);58.6776542664;1.0;;;;;;;;;;;;;;0;0;0;0;0;0;0;0;0;();(-2000.0, -2000.0);
12:10:23:898;12:10:23:854;1448407582.42;(0.4949760913848877, 0.36668264600965716);58.6776542664;1.0;;;;;;;;;;;;;;0;0;0;0;0;0;0;0;0;();(-2000.0, -2000.0);
12:10:23:914;12:10:23:854;1448407582.42;(0.4949760913848877, 0.36668264600965716);58.6776542664;1.0;;;;;;;;;;;;;;0;0;0;0;0;0;0;0;0;();(-2000.0, -2000.0);
12:10:23:931;12:10:23:920;1448407582.49;(0.4940666198730469, 0.367281723022461);58.9198608398;1.0;;;;;;;;;;;;;;0;0;0;0;0;0;0;0;0;();(-2000.0, -2000.0);
12:10:23:948;12:10:23:920;1448407582.49;(0.4940666198730469, 0.367281723022461);58.9198608398;1.0;;;;;;;;;;;;;;0;0;0;0;0;0;0;0;0;();(-2000.0, -2000.0);
12:10:23:982;12:10:23:920;1448407582.49;(0.4940666198730469, 0.367281723022461);58.9198608398;1.0;;;;;;;;;;;;;;0;0;0;0;0;0;0;0;0;();(-2000.0, -2000.0);
12:10:23:999;12:10:23:986;1448407582.56;(0.4931205749511719, 0.3672414991590712);58.746055603;1.0;;;;;;;;;;;;;;0;0;0;0;0;0;0;0;0;();(-2000.0, -2000.0);
12:10:24:016;12:10:23:986;1448407582.56;(0.4931205749511719, 0.3672414991590712);58.746055603;1.0;;;;;;;;;;;;;;0;0;0;0;0;0;0;0;0;();(-2000.0, -2000.0);
12:10:24:031;12:10:23:986;1448407582.56;(0.4931205749511719, 0.3672414991590712);58.746055603;1.0;;;;;;;;;;;;;;0;0;0;0;0;0;0;0;0;();(-2000.0, -2000.0);
12:10:24:048;12:10:23:986;1448407582.56;(0.4931205749511719, 0.3672414991590712);58.746055603;1.0;;;;;;;;;;;;;;0;0;0;0;0;0;0;0;0;();(-2000.0, -2000.0);
12:10:24:081;12:10:24:053;1448407582.62;(0.49190669059753417, 0.36772261725531685);59.0986251831;1.0;;;;;;;;;;;;;;0;0;0;0;0;0;0;0;0;();(-2000.0, -2000.0);
12:10:24:098;12:10:24:053;1448407582.62;(0.49190669059753417, 0.36772261725531685);59.0986251831;1.0;;;;;;;;;;;;;;0;0;0;0;0;0;0;0;0;();(-2000.0, -2000.0);
12:10:24:115;12:10:24:053;1448407582.62;(0.49190669059753417, 0.36772261725531685);59.0986251831;1.0;;;;;;;;;;;;;;0;0;0;0;0;0;0;0;0;();(-2000.0, -2000.0);
12:10:24:132;12:10:24:119;1448407582.69;(0.49090423583984377, 0.36844846937391496);58.9498519897;1.0;;;;;;;;;;;;;;0;0;0;0;0;0;0;0;0;();(-2000.0, -2000.0);
12:10:24:148;12:10:24:119;1448407582.69;(0.49090423583984377, 0.36844846937391496);58.9498519897;1.0;;;;;;;;;;;;;;0;0;0;0;0;0;0;0;0;();(-2000.0, -2000.0);
12:10:24:181;12:10:24:119;1448407582.69;(0.49090423583984377, 0.36844846937391496);58.9498519897;1.0;;;;;;;;;;;;;;0;0;0;0;0;0;0;0;0;();(-2000.0, -2000.0);
12:10:24:198;12:10:24:188;1448407582.76;(0.48771114349365235, 0.3659014383951823);57.6182289124;0.866742202626;;;;;;;;;;;;;;0;0;0;0;0;0;0;0;0;();(-2000.0, -2000.0);
12:10:24:216;12:10:24:188;1448407582.76;(0.48771114349365235, 0.3659014383951823);57.6182289124;0.866742202626;;;;;;;;;;;;;;0;0;0;0;0;0;0;0;0;();(-2000.0, -2000.0);
12:10:24:233;12:10:24:188;1448407582.76;(0.48771114349365235, 0.3659014383951823);57.6182289124;0.866742202626;;;;;;;;;;;;;;0;0;0;0;0;0;0;0;0;();(-2000.0, -2000.0);
12:10:24:248;12:10:24:188;1448407582.76;(0.48771114349365235, 0.3659014383951823);57.6182289124;0.866742202626;;;;;;;;;;;;;;0;0;0;0;0;0;0;0;0;();(-2000.0, -2000.0);
12:10:24:281;12:10:24:253;1448407582.82;(0, 0);0;0;;;;;;;;;;;;;;0;0;0;0;0;0;0;0;0;();(-2000.0, -2000.0);
12:10:24:298;12:10:24:253;1448407582.82;(0, 0);0;0;;;;;;;;;;;;;;0;0;0;0;0;0;0;0;0;();(-2000.0, -2000.0);
12:10:24:315;12:10:24:253;1448407582.82;(0, 0);0;0;;;;;;;;;;;;;;0;0;0;0;0;0;0;0;0;();(-2000.0, -2000.0);
12:10:24:331;12:10:24:319;1448407582.89;(0.5017998695373536, 0.3754640367296007);54.1783638;0.880863759518;;;;;;;;;;;;;;0;0;0;0;0;0;0;0;0;();(-2000.0, -2000.0);
12:10:24:348;12:10:24:319;1448407582.89;(0.5017998695373536, 0.3754640367296007);54.1783638;0.880863759518;;;;;;;;;;;;;;0;0;0;0;0;0;0;0;0;();(-2000.0, -2000.0);
12:10:24:383;12:10:24:381;1448407582.92;(0.499206018447876, 0.38080338372124567);58.1979598999;0.880863759518;;;;;;;;;;;;;;0;0;0;0;0;0;0;0;0;();(-2000.0, -2000.0);
12:10:24:399;12:10:24:382;1448407582.96;(0.49831581115722656, 0.3826932271321615);58.1438598633;0.806322157223;;;;;;;;;;;;;;0;0;0;0;0;0;0;0;0;();(-2000.0, -2000.0);
12:10:24:414;12:10:24:382;1448407582.96;(0.49831581115722656, 0.3826932271321615);58.1438598633;0.806322157223;;;;;;;;;;;;;;0;0;0;0;0;0;0;0;0;();(-2000.0, -2000.0);
12:10:24:431;12:10:24:382;1448407582.96;(0.49831581115722656, 0.3826932271321615);58.1438598633;0.806322157223;;;;;;;;;;;;;;0;0;0;0;0;0;0;0;0;();(-2000.0, -2000.0);
12:10:24:448;12:10:24:382;1448407582.96;(0.49831581115722656, 0.3826932271321615);58.1438598633;0.806322157223;;;;;;;;;;;;;;0;0;0;0;0;0;0;0;0;();(-2000.0, -2000.0);
12:10:24:482;12:10:24:453;1448407583.02;(0.4953026294708252, 0.3851321750217014);59.9867401123;0.821034654197;;;;;;;;;;;;;;0;0;0;0;0;0;0;0;0;();(-2000.0, -2000.0);
12:10:24:498;12:10:24:453;1448407583.02;(0.4953026294708252, 0.3851321750217014);59.9867401123;0.821034654197;;;;;;;;;;;;;;0;0;0;0;0;0;0;0;0;();(-2000.0, -2000.0);
12:10:24:516;12:10:24:453;1448407583.02;(0.4953026294708252, 0.3851321750217014);59.9867401123;0.821034654197;;;;;;;;;;;;;;0;0;0;0;0;0;0;0;0;();(-2000.0, -2000.0);
12:10:24:532;12:10:24:520;1448407583.09;(0.49582409858703613, 0.37811402214898004);54.6181793213;0.820195655673;;;;;;;;;;;;;;0;0;0;0;0;0;0;0;0;();(-2000.0, -2000.0);
12:10:24:549;12:10:24:520;1448407583.09;(0.49582409858703613, 0.37811402214898004);54.6181793213;0.820195655673;;;;;;;;;;;;;;0;0;0;0;0;0;0;0;0;();(-2000.0, -2000.0);
12:10:24:582;12:10:24:520;1448407583.09;(0.49582409858703613, 0.37811402214898004);54.6181793213;0.820195655673;;;;;;;;;;;;;;0;0;0;0;0;0;0;0;0;();(-2000.0, -2000.0);
12:10:24:598;12:10:24:586;1448407583.16;(0.4937633514404297, 0.3791327158610026);55.3993034363;0.835772236398;;;;;;;;;;;;;;0;0;0;0;0;0;0;0;0;();(-2000.0, -2000.0);
12:10:24:615;12:10:24:586;1448407583.16;(0.4937633514404297, 0.3791327158610026);55.3993034363;0.835772236398;;;;;;;;;;;;;;0;0;0;0;0;0;0;0;0;();(-2000.0, -2000.0);
12:10:24:633;12:10:24:586;1448407583.16;(0.4937633514404297, 0.3791327158610026);55.3993034363;0.835772236398;;;;;;;;;;;;;;0;0;0;0;0;0;0;0;0;();(-2000.0, -2000.0);
12:10:24:649;12:10:24:586;1448407583.16;(0.4937633514404297, 0.3791327158610026);55.3993034363;0.835772236398;;;;;;;;;;;;;;0;0;0;0;0;0;0;0;0;();(-2000.0, -2000.0);
12:10:24:682;12:10:24:653;1448407583.22;(0.4891983985900879, 0.38816274007161455);59.8434143066;0.858709935891;;;;;;;;;;;;;;0;0;0;0;0;0;0;0;0;();(-2000.0, -2000.0);
12:10:24:698;12:10:24:653;1448407583.22;(0.4891983985900879, 0.38816274007161455);59.8434143066;0.858709935891;;;;;;;;;;;;;;0;0;0;0;0;0;0;0;0;();(-2000.0, -2000.0);
12:10:24:716;12:10:24:714;1448407583.29;(0.4878985404968262, 0.39011425442165804);60.0679893494;0.840996730243;;;;;;;;;;;;;;0;0;0;0;0;0;0;0;0;();(-2000.0, -2000.0);
12:10:24:731;12:10:24:714;1448407583.29;(0.4878985404968262, 0.39011425442165804);60.0679893494;0.840996730243;;;;;;;;;;;;;;0;0;0;0;0;0;0;0;0;();(-2000.0, -2000.0);
12:10:24:749;12:10:24:714;1448407583.29;(0.4878985404968262, 0.39011425442165804);60.0679893494;0.840996730243;;;;;;;;;;;;;;0;0;0;0;0;0;0;0;0;();(-2000.0, -2000.0);
12:10:24:782;12:10:24:714;1448407583.29;(0.4878985404968262, 0.39011425442165804);60.0679893494;0.840996730243;;;;;;;;;;;;;;0;0;0;0;0;0;0;0;0;();(-2000.0, -2000.0);
12:10:24:801;12:10:24:787;1448407583.36;(0.4867863655090332, 0.38915282355414493);59.0953216553;0.82872434501;;;;;;;;;;;;;;0;0;0;0;0;0;0;0;0;();(-2000.0, -2000.0);
12:10:24:817;12:10:24:787;1448407583.36;(0.4867863655090332, 0.38915282355414493);59.0953216553;0.82872434501;;;;;;;;;;;;;;0;0;0;0;0;0;0;0;0;();(-2000.0, -2000.0);
12:10:24:832;12:10:24:787;1448407583.36;(0.4867863655090332, 0.38915282355414493);59.0953216553;0.82872434501;;;;;;;;;;;;;;0;0;0;0;0;0;0;0;0;();(-2000.0, -2000.0);
12:10:24:849;12:10:24:787;1448407583.36;(0.4867863655090332, 0.38915282355414493);59.0953216553;0.82872434501;;;;;;;;;;;;;;0;0;0;0;0;0;0;0;0;();(-2000.0, -2000.0);
12:10:24:883;12:10:24:854;1448407583.42;(0.47275419235229493, 0.3776184929741754);59.6568450928;0.855999002169;;;;;;;;;;;;;;0;0;0;0;0;0;0;0;0;();(-2000.0, -2000.0);
12:10:24:898;12:10:24:854;1448407583.42;(0.47275419235229493, 0.3776184929741754);59.6568450928;0.855999002169;;;;;;;;;;;;;;0;0;0;0;0;0;0;0;0;();(-2000.0, -2000.0);
12:10:24:916;12:10:24:914;1448407583.49;(0.47099575996398924, 0.3782782236735026);59.1108322144;0.919956871274;;;;;;;;;;;;;;0;0;0;0;0;0;0;0;0;();(-2000.0, -2000.0);
12:10:24:932;12:10:24:914;1448407583.49;(0.47099575996398924, 0.3782782236735026);59.1108322144;0.919956871274;;;;;;;;;;;;;;0;0;0;0;0;0;0;0;0;();(-2000.0, -2000.0);
12:10:24:949;12:10:24:914;1448407583.49;(0.47099575996398924, 0.3782782236735026);59.1108322144;0.919956871274;;;;;;;;;;;;;;0;0;0;0;0;0;0;0;0;();(-2000.0, -2000.0);
12:10:24:983;12:10:24:981;1448407583.52;(0.4704401969909668, 0.3781887478298611);58.9049110413;0.882377831584;;;;;;;;;;;;;;0;0;0;0;0;0;0;0;0;();(-2000.0, -2000.0);
12:10:24:998;12:10:24:982;1448407583.56;(0.4697139263153076, 0.3792590247260199);59.7129516602;0.865907764841;;;;;;;;;;;;;;0;0;0;0;0;0;0;0;0;();(-2000.0, -2000.0);
12:10:25:016;12:10:24:982;1448407583.56;(0.4697139263153076, 0.3792590247260199);59.7129516602;0.865907764841;;;;;;;;;;;;;;0;0;0;0;0;0;0;0;0;();(-2000.0, -2000.0);
12:10:25:033;12:10:24:982;1448407583.56;(0.4697139263153076, 0.3792590247260199);59.7129516602;0.865907764841;;;;;;;;;;;;;;0;0;0;0;0;0;0;0;0;();(-2000.0, -2000.0);
12:10:25:049;12:10:25:046;1448407583.62;(0.46872549057006835, 0.38043729994032116);59.9599266052;0.886040940271;;;;;;;;;;;;;;0;0;0;0;0;0;0;0;0;();(-2000.0, -2000.0);
12:10:25:082;12:10:25:046;1448407583.62;(0.46872549057006835, 0.38043729994032116);59.9599266052;0.886040940271;;;;;;;;;;;;;;0;0;0;0;0;0;0;0;0;();(-2000.0, -2000.0);
12:10:25:099;12:10:25:046;1448407583.62;(0.46872549057006835, 0.38043729994032116);59.9599266052;0.886040940271;;;;;;;;;;;;;;0;0;0;0;0;0;0;0;0;();(-2000.0, -2000.0);
12:10:25:116;12:10:25:114;1448407583.69;(0.4684577941894531, 0.38078219095865884);59.7504882812;0.941915932169;;;;;;;;;;;;;;0;0;0;0;0;0;0;0;0;();(-2000.0, -2000.0);
12:10:25:131;12:10:25:114;1448407583.69;(0.4684577941894531, 0.38078219095865884);59.7504882812;0.941915932169;;;;;;;;;;;;;;0;0;0;0;0;0;0;0;0;();(-2000.0, -2000.0);
12:10:25:149;12:10:25:114;1448407583.69;(0.4684577941894531, 0.38078219095865884);59.7504882812;0.941915932169;;;;;;;;;;;;;;0;0;0;0;0;0;0;0;0;();(-2000.0, -2000.0);
12:10:25:184;12:10:25:182;1448407583.76;(0.4654654026031494, 0.368928951687283);59.3603973389;0.928127706955;;;;;;;;;;;;;;0;0;0;0;0;0;0;0;0;();(-2000.0, -2000.0);
12:10:25:200;12:10:25:182;1448407583.76;(0.4654654026031494, 0.368928951687283);59.3603973389;0.928127706955;;;;;;;;;;;;;;0;0;0;0;0;0;0;0;0;();(-2000.0, -2000.0);
12:10:25:216;12:10:25:182;1448407583.76;(0.4654654026031494, 0.368928951687283);59.3603973389;0.928127706955;;;;;;;;;;;;;;0;0;0;0;0;0;0;0;0;();(-2000.0, -2000.0);
12:10:25:232;12:10:25:182;1448407583.76;(0.4654654026031494, 0.368928951687283);59.3603973389;0.928127706955;;;;;;;;;;;;;;0;0;0;0;0;0;0;0;0;();(-2000.0, -2000.0);
12:10:25:248;12:10:25:246;1448407583.82;(0.4628143787384033, 0.37408565945095484);59.8894538879;0.886083829388;;;;;;;;;;;;;;0;0;0;0;0;0;0;0;0;();(-2000.0, -2000.0);
12:10:25:282;12:10:25:246;1448407583.82;(0.4628143787384033, 0.37408565945095484);59.8894538879;0.886083829388;;;;;;;;;;;;;;0;0;0;0;0;0;0;0;0;();(-2000.0, -2000.0);
12:10:25:299;12:10:25:246;1448407583.82;(0.4628143787384033, 0.37408565945095484);59.8894538879;0.886083829388;;;;;;;;;;;;;;0;0;0;0;0;0;0;0;0;();(-2000.0, -2000.0);
12:10:25:316;12:10:25:314;1448407583.89;(0.46129307746887205, 0.37553320990668404);59.7582206726;0.874330755456;;;;;;;;;;;;;;0;0;0;0;0;0;0;0;0;();(-2000.0, -2000.0);
12:10:25:332;12:10:25:314;1448407583.89;(0.46129307746887205, 0.37553320990668404);59.7582206726;0.874330755456;;;;;;;;;;;;;;0;0;0;0;0;0;0;0;0;();(-2000.0, -2000.0);
12:10:25:349;12:10:25:314;1448407583.89;(0.46129307746887205, 0.37553320990668404);59.7582206726;0.874330755456;;;;;;;;;;;;;;0;0;0;0;0;0;0;0;0;();(-2000.0, -2000.0);
12:10:25:382;12:10:25:378;1448407583.96;(0.46007428169250486, 0.37624397277832033);59.9035682678;0.939146285799;;;;;;;;;;;;;;0;0;0;0;0;0;0;0;0;();(-2000.0, -2000.0);
12:10:25:399;12:10:25:378;1448407583.96;(0.46007428169250486, 0.37624397277832033);59.9035682678;0.939146285799;;;;;;;;;;;;;;0;0;0;0;0;0;0;0;0;();(-2000.0, -2000.0);
12:10:25:416;12:10:25:378;1448407583.96;(0.46007428169250486, 0.37624397277832033);59.9035682678;0.939146285799;;;;;;;;;;;;;;0;0;0;0;0;0;0;0;0;();(-2000.0, -2000.0);
12:10:25:434;12:10:25:378;1448407583.96;(0.46007428169250486, 0.37624397277832033);59.9035682678;0.939146285799;;;;;;;;;;;;;;0;0;0;0;0;0;0;0;0;();(-2000.0, -2000.0);
12:10:25:449;12:10:25:446;1448407584.02;(0.4591243743896484, 0.3757090674506294);59.8805465698;0.947331480733;;;;;;;;;;;;;;0;0;0;0;0;0;0;0;0;();(-2000.0, -2000.0);
12:10:25:466;12:10:25:446;1448407584.02;(0.4591243743896484, 0.3757090674506294);59.8805465698;0.947331480733;;;;;;;;;;;;;;0;0;0;0;0;0;0;0;0;();(-2000.0, -2000.0);
12:10:25:499;12:10:25:446;1448407584.02;(0.4591243743896484, 0.3757090674506294);59.8805465698;0.947331480733;;;;;;;;;;;;;;0;0;0;0;0;0;0;0;0;();(-2000.0, -2000.0);
12:10:25:515;12:10:25:510;1448407584.09;(0, 0);0;0;;;;;;;;;;;;;;0;0;0;0;0;0;0;0;0;();(-2000.0, -2000.0);
12:10:25:532;12:10:25:510;1448407584.09;(0, 0);0;0;;;;;;;;;;;;;;0;0;0;0;0;0;0;0;0;();(-2000.0, -2000.0);
12:10:25:550;12:10:25:510;1448407584.09;(0, 0);0;0;;;;;;;;;;;;;;0;0;0;0;0;0;0;0;0;();(-2000.0, -2000.0);
12:10:25:584;12:10:25:578;1448407584.16;(0.4707151412963867, 0.3898200988769531);59.4977760315;0.793426985933;;;;;;;;;;;;;;0;0;0;0;0;0;0;0;0;();(-2000.0, -2000.0);
12:10:25:599;12:10:25:578;1448407584.16;(0.4707151412963867, 0.3898200988769531);59.4977760315;0.793426985933;;;;;;;;;;;;;;0;0;0;0;0;0;0;0;0;();(-2000.0, -2000.0);
12:10:25:616;12:10:25:578;1448407584.16;(0.4707151412963867, 0.3898200988769531);59.4977760315;0.793426985933;;;;;;;;;;;;;;0;0;0;0;0;0;0;0;0;();(-2000.0, -2000.0);
12:10:25:633;12:10:25:578;1448407584.16;(0.4707151412963867, 0.3898200988769531);59.4977760315;0.793426985933;;;;;;;;;;;;;;0;0;0;0;0;0;0;0;0;();(-2000.0, -2000.0);
12:10:25:649;12:10:25:646;1448407584.22;(0.472332763671875, 0.38113941616482205);58.1221504211;0.835554862556;;;;;;;;;;;;;;0;0;0;0;0;0;0;0;0;();(-2000.0, -2000.0);
12:10:25:683;12:10:25:646;1448407584.22;(0.472332763671875, 0.38113941616482205);58.1221504211;0.835554862556;;;;;;;;;;;;;;0;0;0;0;0;0;0;0;0;();(-2000.0, -2000.0);
12:10:25:699;12:10:25:646;1448407584.22;(0.472332763671875, 0.38113941616482205);58.1221504211;0.835554862556;;;;;;;;;;;;;;0;0;0;0;0;0;0;0;0;();(-2000.0, -2000.0);
12:10:25:716;12:10:25:710;1448407584.29;(0.07971226572990417, 0.5949058956570096);20.1070671082;0.693682178258;;;;;;;;;;;;;;0;0;0;0;0;0;0;0;0;();(-2000.0, -2000.0);
12:10:25:733;12:10:25:710;1448407584.29;(0.07971226572990417, 0.5949058956570096);20.1070671082;0.693682178258;;;;;;;;;;;;;;0;0;0;0;0;0;0;0;0;();(-2000.0, -2000.0);
12:10:25:749;12:10:25:710;1448407584.29;(0.07971226572990417, 0.5949058956570096);20.1070671082;0.693682178258;;;;;;;;;;;;;;0;0;0;0;0;0;0;0;0;();(-2000.0, -2000.0);
12:10:25:766;12:10:25:710;1448407584.29;(0.07971226572990417, 0.5949058956570096);20.1070671082;0.693682178258;;;;;;;;;;;;;;0;0;0;0;0;0;0;0;0;();(-2000.0, -2000.0);
12:10:25:799;12:10:25:778;1448407584.36;(0.8197941303253173, 0.6291543536716038);18.8648853302;0.735366272857;;;;;;;;;;;;;;0;0;0;0;0;0;0;0;0;();(-2000.0, -2000.0);
12:10:25:816;12:10:25:778;1448407584.36;(0.8197941303253173, 0.6291543536716038);18.8648853302;0.735366272857;;;;;;;;;;;;;;0;0;0;0;0;0;0;0;0;();(-2000.0, -2000.0);
12:10:25:833;12:10:25:778;1448407584.36;(0.8197941303253173, 0.6291543536716038);18.8648853302;0.735366272857;;;;;;;;;;;;;;0;0;0;0;0;0;0;0;0;();(-2000.0, -2000.0);
12:10:25:850;12:10:25:842;1448407584.42;(0.4734039783477783, 0.3954974280463325);59.8636245728;0.691241203552;;;;;;;;;;;;;;0;0;0;0;0;0;0;0;0;();(-2000.0, -2000.0);
12:10:25:866;12:10:25:842;1448407584.42;(0.4734039783477783, 0.3954974280463325);59.8636245728;0.691241203552;;;;;;;;;;;;;;0;0;0;0;0;0;0;0;0;();(-2000.0, -2000.0);
12:10:25:899;12:10:25:842;1448407584.42;(0.4734039783477783, 0.3954974280463325);59.8636245728;0.691241203552;;;;;;;;;;;;;;0;0;0;0;0;0;0;0;0;();(-2000.0, -2000.0);
12:10:25:915;12:10:25:910;1448407584.49;(0.3933159112930298, 0.5670784420437283);28.0751266479;0.824129595297;;;;;;;;;;;;;;0;0;0;0;0;0;0;0;0;();(-2000.0, -2000.0);
12:10:25:933;12:10:25:910;1448407584.49;(0.3933159112930298, 0.5670784420437283);28.0751266479;0.824129595297;;;;;;;;;;;;;;0;0;0;0;0;0;0;0;0;();(-2000.0, -2000.0);
12:10:25:951;12:10:25:910;1448407584.49;(0.3933159112930298, 0.5670784420437283);28.0751266479;0.824129595297;;;;;;;;;;;;;;0;0;0;0;0;0;0;0;0;();(-2000.0, -2000.0);
12:10:25:967;12:10:25:910;1448407584.49;(0.3933159112930298, 0.5670784420437283);28.0751266479;0.824129595297;;;;;;;;;;;;;;0;0;0;0;0;0;0;0;0;();(-2000.0, -2000.0);
12:10:26:000;12:10:25:978;1448407584.56;(0.4693020820617676, 0.3953154669867621);58.4352264404;0.718207211246;;;;;;;;;;;;;;0;0;0;0;0;0;0;0;0;();(-2000.0, -2000.0);
12:10:26:016;12:10:25:978;1448407584.56;(0.4693020820617676, 0.3953154669867621);58.4352264404;0.718207211246;;;;;;;;;;;;;;0;0;0;0;0;0;0;0;0;();(-2000.0, -2000.0);
12:10:26:033;12:10:25:978;1448407584.56;(0.4693020820617676, 0.3953154669867621);58.4352264404;0.718207211246;;;;;;;;;;;;;;0;0;0;0;0;0;0;0;0;();(-2000.0, -2000.0);
12:10:26:050;12:10:26:042;1448407584.62;(0, 0);0;0;;;;;;;;;;;;;;0;0;0;0;0;0;0;0;0;();(-2000.0, -2000.0);
12:10:26:066;12:10:26:042;1448407584.62;(0, 0);0;0;;;;;;;;;;;;;;0;0;0;0;0;0;0;0;0;();(-2000.0, -2000.0);
12:10:26:099;12:10:26:042;1448407584.62;(0, 0);0;0;;;;;;;;;;;;;;0;0;0;0;0;0;0;0;0;();(-2000.0, -2000.0);
12:10:26:117;12:10:26:110;1448407584.69;(0.4619403839111328, 0.39614783393012154);59.8780059814;0.7373985788;;;;;;;;;;;;;;0;0;0;0;0;0;0;0;0;();(-2000.0, -2000.0);
12:10:26:133;12:10:26:110;1448407584.69;(0.4619403839111328, 0.39614783393012154);59.8780059814;0.7373985788;;;;;;;;;;;;;;0;0;0;0;0;0;0;0;0;();(-2000.0, -2000.0);
12:10:26:150;12:10:26:110;1448407584.69;(0.4619403839111328, 0.39614783393012154);59.8780059814;0.7373985788;;;;;;;;;;;;;;0;0;0;0;0;0;0;0;0;();(-2000.0, -2000.0);
12:10:26:166;12:10:26:110;1448407584.69;(0.4619403839111328, 0.39614783393012154);59.8780059814;0.7373985788;;;;;;;;;;;;;;0;0;0;0;0;0;0;0;0;();(-2000.0, -2000.0);
12:10:26:200;12:10:26:174;1448407584.76;(0, 0);0;0;;;;;;;;;;;;;;0;0;0;0;0;0;0;0;0;();(-2000.0, -2000.0);
12:10:26:217;12:10:26:174;1448407584.76;(0, 0);0;0;;;;;;;;;;;;;;0;0;0;0;0;0;0;0;0;();(-2000.0, -2000.0);
12:10:26:233;12:10:26:174;1448407584.76;(0, 0);0;0;;;;;;;;;;;;;;0;0;0;0;0;0;0;0;0;();(-2000.0, -2000.0);
12:10:26:250;12:10:26:242;1448407584.82;(0.45805768966674804, 0.39589008755154076);58.676651001;0.665434737853;;;;;;;;;;;;;;0;0;0;0;0;0;0;0;0;();(-2000.0, -2000.0);
12:10:26:267;12:10:26:242;1448407584.82;(0.45805768966674804, 0.39589008755154076);58.676651001;0.665434737853;;;;;;;;;;;;;;0;0;0;0;0;0;0;0;0;();(-2000.0, -2000.0);
12:10:26:300;12:10:26:242;1448407584.82;(0.45805768966674804, 0.39589008755154076);58.676651001;0.665434737853;;;;;;;;;;;;;;0;0;0;0;0;0;0;0;0;();(-2000.0, -2000.0);
12:10:26:317;12:10:26:310;1448407584.86;(0.4612520694732666, 0.38367292616102433);58.5591773987;0.634253198453;;;;;;;;;;;;;;0;0;0;0;0;0;0;0;0;();(-2000.0, -2000.0);
12:10:26:333;12:10:26:310;1448407584.86;(0.4612520694732666, 0.38367292616102433);58.5591773987;0.634253198453;;;;;;;;;;;;;;0;0;0;0;0;0;0;0;0;();(-2000.0, -2000.0);
12:10:26:351;12:10:26:310;1448407584.86;(0.4612520694732666, 0.38367292616102433);58.5591773987;0.634253198453;;;;;;;;;;;;;;0;0;0;0;0;0;0;0;0;();(-2000.0, -2000.0);
12:10:26:367;12:10:26:310;1448407584.86;(0.4612520694732666, 0.38367292616102433);58.5591773987;0.634253198453;;;;;;;;;;;;;;0;0;0;0;0;0;0;0;0;();(-2000.0, -2000.0);
12:10:26:400;12:10:26:375;1448407584.96;(0.4532536506652832, 0.39879209730360243);59.4057502747;0.663814271735;;;;;;;;;;;;;;0;0;0;0;0;0;0;0;0;();(-2000.0, -2000.0);
12:10:26:417;12:10:26:375;1448407584.96;(0.4532536506652832, 0.39879209730360243);59.4057502747;0.663814271735;;;;;;;;;;;;;;0;0;0;0;0;0;0;0;0;();(-2000.0, -2000.0);
12:10:26:433;12:10:26:375;1448407584.96;(0.4532536506652832, 0.39879209730360243);59.4057502747;0.663814271735;;;;;;;;;;;;;;0;0;0;0;0;0;0;0;0;();(-2000.0, -2000.0);
12:10:26:450;12:10:26:442;1448407585.02;(0.4519184112548828, 0.3985861036512587);59.640914917;0.626229415875;;;;;;;;;;;;;;0;0;0;0;0;0;0;0;0;();(-2000.0, -2000.0);
12:10:26:466;12:10:26:442;1448407585.02;(0.4519184112548828, 0.3985861036512587);59.640914917;0.626229415875;;;;;;;;;;;;;;0;0;0;0;0;0;0;0;0;();(-2000.0, -2000.0);
12:10:26:500;12:10:26:442;1448407585.02;(0.4519184112548828, 0.3985861036512587);59.640914917;0.626229415875;;;;;;;;;;;;;;0;0;0;0;0;0;0;0;0;();(-2000.0, -2000.0);
12:10:26:517;12:10:26:505;1448407585.06;(0.45118227005004885, 0.39844021267361107);59.2408409119;0.702518627869;;;;;;;;;;;;;;0;0;0;0;0;0;0;0;0;();(-2000.0, -2000.0);
12:10:26:533;12:10:26:505;1448407585.06;(0.45118227005004885, 0.39844021267361107);59.2408409119;0.702518627869;;;;;;;;;;;;;;0;0;0;0;0;0;0;0;0;();(-2000.0, -2000.0);
12:10:26:550;12:10:26:505;1448407585.06;(0.45118227005004885, 0.39844021267361107);59.2408409119;0.702518627869;;;;;;;;;;;;;;0;0;0;0;0;0;0;0;0;();(-2000.0, -2000.0);
12:10:26:567;12:10:26:505;1448407585.06;(0.45118227005004885, 0.39844021267361107);59.2408409119;0.702518627869;;;;;;;;;;;;;;0;0;0;0;0;0;0;0;0;();(-2000.0, -2000.0);
12:10:26:600;12:10:26:575;1448407585.12;(0.45546584129333495, 0.3850449032253689);60.9525566101;0.679709990436;;;;;;;;;;;;;;0;0;0;0;0;0;0;0;0;();(-2000.0, -2000.0);
12:10:26:617;12:10:26:575;1448407585.12;(0.45546584129333495, 0.3850449032253689);60.9525566101;0.679709990436;;;;;;;;;;;;;;0;0;0;0;0;0;0;0;0;();(-2000.0, -2000.0);
12:10:26:634;12:10:26:575;1448407585.12;(0.45546584129333495, 0.3850449032253689);60.9525566101;0.679709990436;;;;;;;;;;;;;;0;0;0;0;0;0;0;0;0;();(-2000.0, -2000.0);
12:10:26:650;12:10:26:643;1448407585.22;(0.47717843055725095, 0.3855389912923177);58.5491828918;0.763766429409;;;;;;;;;;;;;;0;0;0;0;0;0;0;0;0;();(-2000.0, -2000.0);
12:10:26:666;12:10:26:643;1448407585.22;(0.47717843055725095, 0.3855389912923177);58.5491828918;0.763766429409;;;;;;;;;;;;;;0;0;0;0;0;0;0;0;0;();(-2000.0, -2000.0);
12:10:26:700;12:10:26:643;1448407585.22;(0.47717843055725095, 0.3855389912923177);58.5491828918;0.763766429409;;;;;;;;;;;;;;0;0;0;0;0;0;0;0;0;();(-2000.0, -2000.0);
12:10:26:717;12:10:26:706;1448407585.29;(0.48016986846923826, 0.37756415473090277);56.1787948608;0.7337744306;;;;;;;;;;;;;;0;0;0;0;0;0;0;0;0;();(-2000.0, -2000.0);
12:10:26:733;12:10:26:706;1448407585.29;(0.48016986846923826, 0.37756415473090277);56.1787948608;0.7337744306;;;;;;;;;;;;;;0;0;0;0;0;0;0;0;0;();(-2000.0, -2000.0);
12:10:26:750;12:10:26:706;1448407585.29;(0.48016986846923826, 0.37756415473090277);56.1787948608;0.7337744306;;;;;;;;;;;;;;0;0;0;0;0;0;0;0;0;();(-2000.0, -2000.0);
12:10:26:766;12:10:26:706;1448407585.29;(0.48016986846923826, 0.37756415473090277);56.1787948608;0.7337744306;;;;;;;;;;;;;;0;0;0;0;0;0;0;0;0;();(-2000.0, -2000.0);
12:10:26:800;12:10:26:774;1448407585.36;(0.3924147844314575, 0.566318851047092);26.9157867432;0.959258766264;;;;;;;;;;;;;;0;0;0;0;0;0;0;0;0;();(-2000.0, -2000.0);
12:10:26:817;12:10:26:774;1448407585.36;(0.3924147844314575, 0.566318851047092);26.9157867432;0.959258766264;;;;;;;;;;;;;;0;0;0;0;0;0;0;0;0;();(-2000.0, -2000.0);
12:10:26:833;12:10:26:774;1448407585.36;(0.3924147844314575, 0.566318851047092);26.9157867432;0.959258766264;;;;;;;;;;;;;;0;0;0;0;0;0;0;0;0;();(-2000.0, -2000.0);
12:10:26:850;12:10:26:838;1448407585.42;(0.39241979122161863, 0.5664031558566623);26.8785057068;0.908454557577;;;;;;;;;;;;;;0;0;0;0;0;0;0;0;0;();(-2000.0, -2000.0);
12:10:26:867;12:10:26:838;1448407585.42;(0.39241979122161863, 0.5664031558566623);26.8785057068;0.908454557577;;;;;;;;;;;;;;0;0;0;0;0;0;0;0;0;();(-2000.0, -2000.0);
12:10:26:900;12:10:26:838;1448407585.42;(0.39241979122161863, 0.5664031558566623);26.8785057068;0.908454557577;;;;;;;;;;;;;;0;0;0;0;0;0;0;0;0;();(-2000.0, -2000.0);
12:10:26:917;12:10:26:906;1448407585.49;(0.39258341789245604, 0.5670294019911024);25.9069652557;0.862748019824;;;;;;;;;;;;;;0;0;0;0;0;0;0;0;0;();(-2000.0, -2000.0);
12:10:26:933;12:10:26:906;1448407585.49;(0.39258341789245604, 0.5670294019911024);25.9069652557;0.862748019824;;;;;;;;;;;;;;0;0;0;0;0;0;0;0;0;();(-2000.0, -2000.0);
12:10:26:950;12:10:26:906;1448407585.49;(0.39258341789245604, 0.5670294019911024);25.9069652557;0.862748019824;;;;;;;;;;;;;;0;0;0;0;0;0;0;0;0;();(-2000.0, -2000.0);
12:10:26:967;12:10:26:906;1448407585.49;(0.39258341789245604, 0.5670294019911024);25.9069652557;0.862748019824;;;;;;;;;;;;;;0;0;0;0;0;0;0;0;0;();(-2000.0, -2000.0);
12:10:27:001;12:10:26:975;1448407585.56;(0.39214215278625486, 0.5667631361219618);25.2480201721;0.826145236739;;;;;;;;;;;;;;0;0;0;0;0;0;0;0;0;();(-2000.0, -2000.0);
12:10:27:017;12:10:26:975;1448407585.56;(0.39214215278625486, 0.5667631361219618);25.2480201721;0.826145236739;;;;;;;;;;;;;;0;0;0;0;0;0;0;0;0;();(-2000.0, -2000.0);
12:10:27:034;12:10:26:975;1448407585.56;(0.39214215278625486, 0.5667631361219618);25.2480201721;0.826145236739;;;;;;;;;;;;;;0;0;0;0;0;0;0;0;0;();(-2000.0, -2000.0);
12:10:27:052;12:10:27:039;1448407585.62;(0.3917893409729004, 0.5672913445366754);25.6877384186;0.834626954657;;;;;;;;;;;;;;0;0;0;0;0;0;0;0;0;();(-2000.0, -2000.0);
12:10:27:067;12:10:27:039;1448407585.62;(0.3917893409729004, 0.5672913445366754);25.6877384186;0.834626954657;;;;;;;;;;;;;;0;0;0;0;0;0;0;0;0;();(-2000.0, -2000.0);
12:10:27:101;12:10:27:039;1448407585.62;(0.3917893409729004, 0.5672913445366754);25.6877384186;0.834626954657;;;;;;;;;;;;;;0;0;0;0;0;0;0;0;0;();(-2000.0, -2000.0);
12:10:27:117;12:10:27:106;1448407585.69;(0.39159588813781737, 0.5670304616292318);26.5573215485;0.916526338586;;;;;;;;;;;;;;0;0;0;0;0;0;0;0;0;();(-2000.0, -2000.0);
12:10:27:134;12:10:27:106;1448407585.69;(0.39159588813781737, 0.5670304616292318);26.5573215485;0.916526338586;;;;;;;;;;;;;;0;0;0;0;0;0;0;0;0;();(-2000.0, -2000.0);
12:10:27:151;12:10:27:106;1448407585.69;(0.39159588813781737, 0.5670304616292318);26.5573215485;0.916526338586;;;;;;;;;;;;;;0;0;0;0;0;0;0;0;0;();(-2000.0, -2000.0);
12:10:27:168;12:10:27:106;1448407585.69;(0.39159588813781737, 0.5670304616292318);26.5573215485;0.916526338586;;;;;;;;;;;;;;0;0;0;0;0;0;0;0;0;();(-2000.0, -2000.0);
12:10:27:201;12:10:27:173;1448407585.76;(0.3909694910049438, 0.5683987935384114);26.7697715759;0.869465227101;;;;;;;;;;;;;;0;0;0;0;0;0;0;0;0;();(-2000.0, -2000.0);
12:10:27:218;12:10:27:173;1448407585.76;(0.3909694910049438, 0.5683987935384114);26.7697715759;0.869465227101;;;;;;;;;;;;;;0;0;0;0;0;0;0;0;0;();(-2000.0, -2000.0);
12:10:27:234;12:10:27:173;1448407585.76;(0.3909694910049438, 0.5683987935384114);26.7697715759;0.869465227101;;;;;;;;;;;;;;0;0;0;0;0;0;0;0;0;();(-2000.0, -2000.0);
12:10:27:251;12:10:27:238;1448407585.79;(0.3909469127655029, 0.5681848737928603);26.9259624481;0.866428802913;;;;;;;;;;;;;;0;0;0;0;0;0;0;0;0;();(-2000.0, -2000.0);
12:10:27:269;12:10:27:238;1448407585.79;(0.3909469127655029, 0.5681848737928603);26.9259624481;0.866428802913;;;;;;;;;;;;;;0;0;0;0;0;0;0;0;0;();(-2000.0, -2000.0);
12:10:27:301;12:10:27:238;1448407585.79;(0.3909469127655029, 0.5681848737928603);26.9259624481;0.866428802913;;;;;;;;;;;;;;0;0;0;0;0;0;0;0;0;();(-2000.0, -2000.0);
12:10:27:318;12:10:27:308;1448407585.89;(0.49445171356201173, 0.3737231784396702);52.3219833374;1.0;;;;;;;;;;;;;;0;0;0;0;0;0;0;0;0;();(-2000.0, -2000.0);
12:10:27:334;12:10:27:308;1448407585.89;(0.49445171356201173, 0.3737231784396702);52.3219833374;1.0;;;;;;;;;;;;;;0;0;0;0;0;0;0;0;0;();(-2000.0, -2000.0);
12:10:27:351;12:10:27:308;1448407585.89;(0.49445171356201173, 0.3737231784396702);52.3219833374;1.0;;;;;;;;;;;;;;0;0;0;0;0;0;0;0;0;();(-2000.0, -2000.0);
12:10:27:368;12:10:27:308;1448407585.89;(0.49445171356201173, 0.3737231784396702);52.3219833374;1.0;;;;;;;;;;;;;;0;0;0;0;0;0;0;0;0;();(-2000.0, -2000.0);
12:10:27:402;12:10:27:372;1448407585.96;(0.4941560745239258, 0.3748557620578342);51.1653404236;1.0;;;;;;;;;;;;;;0;0;0;0;0;0;0;0;0;();(-2000.0, -2000.0);
12:10:27:417;12:10:27:372;1448407585.96;(0.4941560745239258, 0.3748557620578342);51.1653404236;1.0;;;;;;;;;;;;;;0;0;0;0;0;0;0;0;0;();(-2000.0, -2000.0);
12:10:27:434;12:10:27:372;1448407585.96;(0.4941560745239258, 0.3748557620578342);51.1653404236;1.0;;;;;;;;;;;;;;0;0;0;0;0;0;0;0;0;();(-2000.0, -2000.0);
12:10:27:451;12:10:27:439;1448407586.02;(0.4938809871673584, 0.3762888590494792);50.9938926697;1.0;;;;;;;;;;;;;;0;0;0;0;0;0;0;0;0;();(-2000.0, -2000.0);
12:10:27:468;12:10:27:439;1448407586.02;(0.4938809871673584, 0.3762888590494792);50.9938926697;1.0;;;;;;;;;;;;;;0;0;0;0;0;0;0;0;0;();(-2000.0, -2000.0);
12:10:27:501;12:10:27:439;1448407586.02;(0.4938809871673584, 0.3762888590494792);50.9938926697;1.0;;;;;;;;;;;;;;0;0;0;0;0;0;0;0;0;();(-2000.0, -2000.0);
12:10:27:518;12:10:27:506;1448407586.09;(0.4930099010467529, 0.37656567891438797);50.9897079468;1.0;;;;;;;;;;;;;;0;0;0;0;0;0;0;0;0;();(-2000.0, -2000.0);
12:10:27:535;12:10:27:506;1448407586.09;(0.4930099010467529, 0.37656567891438797);50.9897079468;1.0;;;;;;;;;;;;;;0;0;0;0;0;0;0;0;0;();(-2000.0, -2000.0);
12:10:27:551;12:10:27:506;1448407586.09;(0.4930099010467529, 0.37656567891438797);50.9897079468;1.0;;;;;;;;;;;;;;0;0;0;0;0;0;0;0;0;();(-2000.0, -2000.0);
12:10:27:568;12:10:27:506;1448407586.09;(0.4930099010467529, 0.37656567891438797);50.9897079468;1.0;;;;;;;;;;;;;;0;0;0;0;0;0;0;0;0;();(-2000.0, -2000.0);
12:10:27:601;12:10:27:572;1448407586.16;(0.49246902465820314, 0.37675637139214413);50.7919921875;1.0;;;;;;;;;;;;;;0;0;0;0;0;0;0;0;0;();(-2000.0, -2000.0);
12:10:27:620;12:10:27:572;1448407586.16;(0.49246902465820314, 0.37675637139214413);50.7919921875;1.0;;;;;;;;;;;;;;0;0;0;0;0;0;0;0;0;();(-2000.0, -2000.0);
12:10:27:636;12:10:27:572;1448407586.16;(0.49246902465820314, 0.37675637139214413);50.7919921875;1.0;;;;;;;;;;;;;;0;0;0;0;0;0;0;0;0;();(-2000.0, -2000.0);
12:10:27:652;12:10:27:645;1448407586.22;(0.4918206691741943, 0.3772086249457465);50.7725257874;1.0;;;;;;;;;;;;;;0;0;0;0;0;0;0;0;0;();(-2000.0, -2000.0);
12:10:27:669;12:10:27:645;1448407586.22;(0.4918206691741943, 0.3772086249457465);50.7725257874;1.0;;;;;;;;;;;;;;0;0;0;0;0;0;0;0;0;();(-2000.0, -2000.0);
12:10:27:704;12:10:27:702;1448407586.29;(0, 0);0;0;;;;;;;;;;;;;;0;0;0;0;0;0;0;0;0;();(-2000.0, -2000.0);
12:10:27:717;12:10:27:702;1448407586.29;(0, 0);0;0;;;;;;;;;;;;;;0;0;0;0;0;0;0;0;0;();(-2000.0, -2000.0);
12:10:27:734;12:10:27:702;1448407586.29;(0, 0);0;0;;;;;;;;;;;;;;0;0;0;0;0;0;0;0;0;();(-2000.0, -2000.0);
12:10:27:751;12:10:27:702;1448407586.29;(0, 0);0;0;;;;;;;;;;;;;;0;0;0;0;0;0;0;0;0;();(-2000.0, -2000.0);
12:10:27:767;12:10:27:702;1448407586.29;(0, 0);0;0;;;;;;;;;;;;;;0;0;0;0;0;0;0;0;0;();(-2000.0, -2000.0);
12:10:27:801;12:10:27:769;1448407586.32;(0.49851675033569337, 0.3932886335584852);50.5581665039;0.936767993935;;;;;;;;;;;;;;0;0;0;0;0;0;0;0;0;();(-2000.0, -2000.0);
12:10:27:817;12:10:27:769;1448407586.32;(0.49851675033569337, 0.3932886335584852);50.5581665039;0.936767993935;;;;;;;;;;;;;;0;0;0;0;0;0;0;0;0;();(-2000.0, -2000.0);
12:10:27:836;12:10:27:834;1448407586.36;(0.4991605758666992, 0.39376025729709196);50.0006408691;0.85017753042;;;;;;;;;;;;;;0;0;0;0;0;0;0;0;0;();(-2000.0, -2000.0);
12:10:27:851;12:10:27:835;1448407586.39;(0.49851350784301757, 0.3954530504014757);51.0710906982;0.842448643779;;;;;;;;;;;;;;0;0;0;0;0;0;0;0;0;();(-2000.0, -2000.0);
12:10:27:868;12:10:27:835;1448407586.39;(0.49851350784301757, 0.3954530504014757);51.0710906982;0.842448643779;;;;;;;;;;;;;;0;0;0;0;0;0;0;0;0;();(-2000.0, -2000.0);
12:10:27:905;12:10:27:903;1448407586.49;(0.5114274978637695, 0.3861431545681424);45.5745658875;0.955776235496;;;;;;;;;;;;;;0;0;0;0;0;0;0;0;0;();(-2000.0, -2000.0);
12:10:27:919;12:10:27:903;1448407586.49;(0.5114274978637695, 0.3861431545681424);45.5745658875;0.955776235496;;;;;;;;;;;;;;0;0;0;0;0;0;0;0;0;();(-2000.0, -2000.0);
12:10:27:934;12:10:27:903;1448407586.49;(0.5114274978637695, 0.3861431545681424);45.5745658875;0.955776235496;;;;;;;;;;;;;;0;0;0;0;0;0;0;0;0;();(-2000.0, -2000.0);
12:10:27:951;12:10:27:903;1448407586.49;(0.5114274978637695, 0.3861431545681424);45.5745658875;0.955776235496;;;;;;;;;;;;;;0;0;0;0;0;0;0;0;0;();(-2000.0, -2000.0);
12:10:27:968;12:10:27:903;1448407586.49;(0.5114274978637695, 0.3861431545681424);45.5745658875;0.955776235496;;;;;;;;;;;;;;0;0;0;0;0;0;0;0;0;();(-2000.0, -2000.0);
12:10:28:002;12:10:27:973;1448407586.56;(0.5092058658599854, 0.3912217881944444);48.1626396179;0.907292853056;;;;;;;;;;;;;;0;0;0;0;0;0;0;0;0;();(-2000.0, -2000.0);
12:10:28:018;12:10:27:973;1448407586.56;(0.5092058658599854, 0.3912217881944444);48.1626396179;0.907292853056;;;;;;;;;;;;;;0;0;0;0;0;0;0;0;0;();(-2000.0, -2000.0);
12:10:28:036;12:10:28:034;1448407586.62;(0.5080097198486329, 0.3937095642089844);49.6575889587;0.952582775728;;;;;;;;;;;;;;0;0;0;0;0;0;0;0;0;();(-2000.0, -2000.0);
12:10:28:051;12:10:28:034;1448407586.62;(0.5080097198486329, 0.3937095642089844);49.6575889587;0.952582775728;;;;;;;;;;;;;;0;0;0;0;0;0;0;0;0;();(-2000.0, -2000.0);
12:10:28:068;12:10:28:034;1448407586.62;(0.5080097198486329, 0.3937095642089844);49.6575889587;0.952582775728;;;;;;;;;;;;;;0;0;0;0;0;0;0;0;0;();(-2000.0, -2000.0);
12:10:28:102;12:10:28:101;1448407586.66;(0.5076759815216064, 0.39339489407009554);49.1614608765;0.944139428002;;;;;;;;;;;;;;0;0;0;0;0;0;0;0;0;();(-2000.0, -2000.0);
12:10:28:118;12:10:28:102;1448407586.69;(0.5080080986022949, 0.3931096818712022);48.7038269043;0.960592716761;;;;;;;;;;;;;;0;0;0;0;0;0;0;0;0;();(-2000.0, -2000.0);
12:10:28:135;12:10:28:102;1448407586.69;(0.5080080986022949, 0.3931096818712022);48.7038269043;0.960592716761;;;;;;;;;;;;;;0;0;0;0;0;0;0;0;0;();(-2000.0, -2000.0);
12:10:28:152;12:10:28:102;1448407586.69;(0.5080080986022949, 0.3931096818712022);48.7038269043;0.960592716761;;;;;;;;;;;;;;0;0;0;0;0;0;0;0;0;();(-2000.0, -2000.0);
12:10:28:168;12:10:28:166;1448407586.72;(0.5078966617584229, 0.3934217664930556);49.4364280701;0.988020530086;;;;;;;;;;;;;;0;0;0;0;0;0;0;0;0;();(-2000.0, -2000.0);
12:10:28:203;12:10:28:166;1448407586.72;(0.5078966617584229, 0.3934217664930556);49.4364280701;0.988020530086;;;;;;;;;;;;;;0;0;0;0;0;0;0;0;0;();(-2000.0, -2000.0);
12:10:28:219;12:10:28:166;1448407586.72;(0.5078966617584229, 0.3934217664930556);49.4364280701;0.988020530086;;;;;;;;;;;;;;0;0;0;0;0;0;0;0;0;();(-2000.0, -2000.0);
12:10:28:237;12:10:28:236;1448407586.82;(0.5093569755554199, 0.3912838829888238);50.0694084167;0.918222300783;;;;;;;;;;;;;;0;0;0;0;0;0;0;0;0;();(-2000.0, -2000.0);
12:10:28:252;12:10:28:236;1448407586.82;(0.5093569755554199, 0.3912838829888238);50.0694084167;0.918222300783;;;;;;;;;;;;;;0;0;0;0;0;0;0;0;0;();(-2000.0, -2000.0);
12:10:28:268;12:10:28:236;1448407586.82;(0.5093569755554199, 0.3912838829888238);50.0694084167;0.918222300783;;;;;;;;;;;;;;0;0;0;0;0;0;0;0;0;();(-2000.0, -2000.0);
12:10:28:302;12:10:28:298;1448407586.86;(0.508843994140625, 0.39158541361490884);49.3259239197;0.936742933567;;;;;;;;;;;;;;0;0;0;0;0;0;0;0;0;();(-2000.0, -2000.0);
12:10:28:318;12:10:28:298;1448407586.86;(0.508843994140625, 0.39158541361490884);49.3259239197;0.936742933567;;;;;;;;;;;;;;0;0;0;0;0;0;0;0;0;();(-2000.0, -2000.0);
12:10:28:335;12:10:28:298;1448407586.86;(0.508843994140625, 0.39158541361490884);49.3259239197;0.936742933567;;;;;;;;;;;;;;0;0;0;0;0;0;0;0;0;();(-2000.0, -2000.0);
12:10:28:352;12:10:28:298;1448407586.86;(0.508843994140625, 0.39158541361490884);49.3259239197;0.936742933567;;;;;;;;;;;;;;0;0;0;0;0;0;0;0;0;();(-2000.0, -2000.0);
12:10:28:368;12:10:28:298;1448407586.86;(0.508843994140625, 0.39158541361490884);49.3259239197;0.936742933567;;;;;;;;;;;;;;0;0;0;0;0;0;0;0;0;();(-2000.0, -2000.0);
12:10:28:402;12:10:28:375;1448407586.96;(0.5068567752838135, 0.39072265625);48.5712394714;0.858543799988;;;;;;;;;;;;;;0;0;0;0;0;0;0;0;0;();(-2000.0, -2000.0);
12:10:28:418;12:10:28:375;1448407586.96;(0.5068567752838135, 0.39072265625);48.5712394714;0.858543799988;;;;;;;;;;;;;;0;0;0;0;0;0;0;0;0;();(-2000.0, -2000.0);
12:10:28:435;12:10:28:433;1448407586.99;(0.5062754154205322, 0.3907054053412543);48.4751205444;0.870628756017;;;;;;;;;;;;;;0;0;0;0;0;0;0;0;0;();(-2000.0, -2000.0);
12:10:28:452;12:10:28:433;1448407586.99;(0.5062754154205322, 0.3907054053412543);48.4751205444;0.870628756017;;;;;;;;;;;;;;0;0;0;0;0;0;0;0;0;();(-2000.0, -2000.0);
12:10:28:468;12:10:28:433;1448407586.99;(0.5062754154205322, 0.3907054053412543);48.4751205444;0.870628756017;;;;;;;;;;;;;;0;0;0;0;0;0;0;0;0;();(-2000.0, -2000.0);
12:10:28:501;12:10:28:498;1448407587.06;(0.5018978118896484, 0.38408902486165364);45.7026786804;0.861860092682;;;;;;;;;;;;;;0;0;0;0;0;0;0;0;0;();(-2000.0, -2000.0);
12:10:28:518;12:10:28:498;1448407587.06;(0.5018978118896484, 0.38408902486165364);45.7026786804;0.861860092682;;;;;;;;;;;;;;0;0;0;0;0;0;0;0;0;();(-2000.0, -2000.0);
12:10:28:535;12:10:28:498;1448407587.06;(0.5018978118896484, 0.38408902486165364);45.7026786804;0.861860092682;;;;;;;;;;;;;;0;0;0;0;0;0;0;0;0;();(-2000.0, -2000.0);
12:10:28:553;12:10:28:498;1448407587.06;(0.5018978118896484, 0.38408902486165364);45.7026786804;0.861860092682;;;;;;;;;;;;;;0;0;0;0;0;0;0;0;0;();(-2000.0, -2000.0);
12:10:28:568;12:10:28:566;1448407587.12;(0.6070265769958496, 0.3925602806939019);33.6959838867;0.623708894628;;;;;;;;;;;;;;0;0;0;0;0;0;0;0;0;();(-2000.0, -2000.0);
12:10:28:602;12:10:28:566;1448407587.12;(0.6070265769958496, 0.3925602806939019);33.6959838867;0.623708894628;;;;;;;;;;;;;;0;0;0;0;0;0;0;0;0;();(-2000.0, -2000.0);
12:10:28:619;12:10:28:566;1448407587.12;(0.6070265769958496, 0.3925602806939019);33.6959838867;0.623708894628;;;;;;;;;;;;;;0;0;0;0;0;0;0;0;0;();(-2000.0, -2000.0);
12:10:28:635;12:10:28:630;1448407587.19;(0.49904694557189944, 0.38014979892306855);45.4282722473;0.641689655028;;;;;;;;;;;;;;0;0;0;0;0;0;0;0;0;();(-2000.0, -2000.0);
12:10:28:652;12:10:28:630;1448407587.19;(0.49904694557189944, 0.38014979892306855);45.4282722473;0.641689655028;;;;;;;;;;;;;;0;0;0;0;0;0;0;0;0;();(-2000.0, -2000.0);
12:10:28:668;12:10:28:630;1448407587.19;(0.49904694557189944, 0.38014979892306855);45.4282722473;0.641689655028;;;;;;;;;;;;;;0;0;0;0;0;0;0;0;0;();(-2000.0, -2000.0);
12:10:28:702;12:10:28:699;1448407587.26;(0.497210693359375, 0.38569556342230904);50.6412315369;0.864437706758;;;;;;;;;;;;;;0;0;0;0;0;0;0;0;0;();(-2000.0, -2000.0);
12:10:28:718;12:10:28:699;1448407587.26;(0.497210693359375, 0.38569556342230904);50.6412315369;0.864437706758;;;;;;;;;;;;;;0;0;0;0;0;0;0;0;0;();(-2000.0, -2000.0);
12:10:28:735;12:10:28:699;1448407587.26;(0.497210693359375, 0.38569556342230904);50.6412315369;0.864437706758;;;;;;;;;;;;;;0;0;0;0;0;0;0;0;0;();(-2000.0, -2000.0);
12:10:28:752;12:10:28:699;1448407587.26;(0.497210693359375, 0.38569556342230904);50.6412315369;0.864437706758;;;;;;;;;;;;;;0;0;0;0;0;0;0;0;0;();(-2000.0, -2000.0);
12:10:28:769;12:10:28:767;1448407587.32;(0.4997708320617676, 0.38331273396809895);47.5294723511;0.874648904631;;;;;;;;;;;;;;0;0;0;0;0;0;0;0;0;();(-2000.0, -2000.0);
12:10:28:802;12:10:28:767;1448407587.32;(0.4997708320617676, 0.38331273396809895);47.5294723511;0.874648904631;;;;;;;;;;;;;;0;0;0;0;0;0;0;0;0;();(-2000.0, -2000.0);
12:10:28:819;12:10:28:767;1448407587.32;(0.4997708320617676, 0.38331273396809895);47.5294723511;0.874648904631;;;;;;;;;;;;;;0;0;0;0;0;0;0;0;0;();(-2000.0, -2000.0);
12:10:28:836;12:10:28:831;1448407587.39;(0.49760913848876953, 0.3895984225802951);51.1131286621;0.869689257225;;;;;;;;;;;;;;0;0;0;0;0;0;0;0;0;();(-2000.0, -2000.0);
12:10:28:851;12:10:28:831;1448407587.39;(0.49760913848876953, 0.3895984225802951);51.1131286621;0.869689257225;;;;;;;;;;;;;;0;0;0;0;0;0;0;0;0;();(-2000.0, -2000.0);
12:10:28:869;12:10:28:831;1448407587.39;(0.49760913848876953, 0.3895984225802951);51.1131286621;0.869689257225;;;;;;;;;;;;;;0;0;0;0;0;0;0;0;0;();(-2000.0, -2000.0);
12:10:28:902;12:10:28:831;1448407587.39;(0.49760913848876953, 0.3895984225802951);51.1131286621;0.869689257225;;;;;;;;;;;;;;0;0;0;0;0;0;0;0;0;();(-2000.0, -2000.0);
12:10:28:918;12:10:28:908;1448407587.46;(0.49127888679504395, 0.3723225487603081);49.8373641968;0.962958907615;;;;;;;;;;;;;;0;0;0;0;0;0;0;0;0;();(-2000.0, -2000.0);
12:10:28:936;12:10:28:908;1448407587.46;(0.49127888679504395, 0.3723225487603081);49.8373641968;0.962958907615;;;;;;;;;;;;;;0;0;0;0;0;0;0;0;0;();(-2000.0, -2000.0);
12:10:28:952;12:10:28:908;1448407587.46;(0.49127888679504395, 0.3723225487603081);49.8373641968;0.962958907615;;;;;;;;;;;;;;0;0;0;0;0;0;0;0;0;();(-2000.0, -2000.0);
12:10:28:972;12:10:28:968;1448407587.52;(0.4900491714477539, 0.3638111114501953);50.5796394348;1.0;;;;;;;;;;;;;;0;0;0;0;0;0;0;0;0;();(-2000.0, -2000.0);
12:10:29:004;12:10:28:968;1448407587.52;(0.4900491714477539, 0.3638111114501953);50.5796394348;1.0;;;;;;;;;;;;;;0;0;0;0;0;0;0;0;0;();(-2000.0, -2000.0);
12:10:29:020;12:10:28:968;1448407587.52;(0.4900491714477539, 0.3638111114501953);50.5796394348;1.0;;;;;;;;;;;;;;0;0;0;0;0;0;0;0;0;();(-2000.0, -2000.0);
12:10:29:038;12:10:29:034;1448407587.62;(0.48877921104431155, 0.3658050537109375);51.3133506775;1.0;;;;;;;;;;;;;;0;0;0;0;0;0;0;0;0;();(-2000.0, -2000.0);
12:10:29:054;12:10:29:034;1448407587.62;(0.48877921104431155, 0.3658050537109375);51.3133506775;1.0;;;;;;;;;;;;;;0;0;0;0;0;0;0;0;0;();(-2000.0, -2000.0);
12:10:29:071;12:10:29:034;1448407587.62;(0.48877921104431155, 0.3658050537109375);51.3133506775;1.0;;;;;;;;;;;;;;0;0;0;0;0;0;0;0;0;();(-2000.0, -2000.0);
12:10:29:102;12:10:29:098;1448407587.69;(0.4885842323303223, 0.36548194885253904);51.363697052;1.0;;;;;;;;;;;;;;0;0;0;0;0;0;0;0;0;();(-2000.0, -2000.0);
12:10:29:120;12:10:29:098;1448407587.69;(0.4885842323303223, 0.36548194885253904);51.363697052;1.0;;;;;;;;;;;;;;0;0;0;0;0;0;0;0;0;();(-2000.0, -2000.0);
12:10:29:135;12:10:29:098;1448407587.69;(0.4885842323303223, 0.36548194885253904);51.363697052;1.0;;;;;;;;;;;;;;0;0;0;0;0;0;0;0;0;();(-2000.0, -2000.0);
12:10:29:153;12:10:29:098;1448407587.69;(0.4885842323303223, 0.36548194885253904);51.363697052;1.0;;;;;;;;;;;;;;0;0;0;0;0;0;0;0;0;();(-2000.0, -2000.0);
12:10:29:170;12:10:29:161;1448407587.72;(0.4885845184326172, 0.36575253804524743);51.4870262146;1.0;;;;;;;;;;;;;;0;0;0;0;0;0;0;0;0;();(-2000.0, -2000.0);
12:10:29:202;12:10:29:161;1448407587.72;(0.4885845184326172, 0.36575253804524743);51.4870262146;1.0;;;;;;;;;;;;;;0;0;0;0;0;0;0;0;0;();(-2000.0, -2000.0);
12:10:29:220;12:10:29:161;1448407587.72;(0.4885845184326172, 0.36575253804524743);51.4870262146;1.0;;;;;;;;;;;;;;0;0;0;0;0;0;0;0;0;();(-2000.0, -2000.0);
12:10:29:237;12:10:29:231;1448407587.82;(0, 0);0;0;;;;;;;;;;;;;;0;0;0;0;0;0;0;0;0;();(-2000.0, -2000.0);
12:10:29:252;12:10:29:231;1448407587.82;(0, 0);0;0;;;;;;;;;;;;;;0;0;0;0;0;0;0;0;0;();(-2000.0, -2000.0);
12:10:29:269;12:10:29:231;1448407587.82;(0, 0);0;0;;;;;;;;;;;;;;0;0;0;0;0;0;0;0;0;();(-2000.0, -2000.0);
12:10:29:302;12:10:29:293;1448407587.86;(0.45381603240966795, 0.3829515245225694);48.5979576111;0.917967438562;;;;;;;;;;;;;;0;0;0;0;0;0;0;0;0;();(-2000.0, -2000.0);
12:10:29:319;12:10:29:293;1448407587.86;(0.45381603240966795, 0.3829515245225694);48.5979576111;0.917967438562;;;;;;;;;;;;;;0;0;0;0;0;0;0;0;0;();(-2000.0, -2000.0);
12:10:29:336;12:10:29:293;1448407587.86;(0.45381603240966795, 0.3829515245225694);48.5979576111;0.917967438562;;;;;;;;;;;;;;0;0;0;0;0;0;0;0;0;();(-2000.0, -2000.0);
12:10:29:353;12:10:29:293;1448407587.86;(0.45381603240966795, 0.3829515245225694);48.5979576111;0.917967438562;;;;;;;;;;;;;;0;0;0;0;0;0;0;0;0;();(-2000.0, -2000.0);
12:10:29:369;12:10:29:363;1448407587.92;(0.4466579437255859, 0.37926940917968754);51.9927940369;0.79462169273;;;;;;;;;;;;;;0;0;0;0;0;0;0;0;0;();(-2000.0, -2000.0);
12:10:29:403;12:10:29:363;1448407587.92;(0.4466579437255859, 0.37926940917968754);51.9927940369;0.79462169273;;;;;;;;;;;;;;0;0;0;0;0;0;0;0;0;();(-2000.0, -2000.0);
12:10:29:419;12:10:29:363;1448407587.92;(0.4466579437255859, 0.37926940917968754);51.9927940369;0.79462169273;;;;;;;;;;;;;;0;0;0;0;0;0;0;0;0;();(-2000.0, -2000.0);
12:10:29:436;12:10:29:432;1448407588.02;(0.44599552154541017, 0.3871610853407118);50.6242904663;0.908818548406;;;;;;;;;;;;;;0;0;0;0;0;0;0;0;0;();(-2000.0, -2000.0);
12:10:29:452;12:10:29:432;1448407588.02;(0.44599552154541017, 0.3871610853407118);50.6242904663;0.908818548406;;;;;;;;;;;;;;0;0;0;0;0;0;0;0;0;();(-2000.0, -2000.0);
12:10:29:470;12:10:29:432;1448407588.02;(0.44599552154541017, 0.3871610853407118);50.6242904663;0.908818548406;;;;;;;;;;;;;;0;0;0;0;0;0;0;0;0;();(-2000.0, -2000.0);
12:10:29:486;12:10:29:432;1448407588.02;(0.44599552154541017, 0.3871610853407118);50.6242904663;0.908818548406;;;;;;;;;;;;;;0;0;0;0;0;0;0;0;0;();(-2000.0, -2000.0);
12:10:29:519;12:10:29:496;1448407588.06;(0.44622254371643066, 0.38831956651475696);50.6625289917;0.890964601111;;;;;;;;;;;;;;0;0;0;0;0;0;0;0;0;();(-2000.0, -2000.0);
12:10:29:536;12:10:29:496;1448407588.06;(0.44622254371643066, 0.38831956651475696);50.6625289917;0.890964601111;;;;;;;;;;;;;;0;0;0;0;0;0;0;0;0;();(-2000.0, -2000.0);
12:10:29:553;12:10:29:496;1448407588.06;(0.44622254371643066, 0.38831956651475696);50.6625289917;0.890964601111;;;;;;;;;;;;;;0;0;0;0;0;0;0;0;0;();(-2000.0, -2000.0);
12:10:29:569;12:10:29:562;1448407588.12;(0.4104752540588379, 0.3802234225802952);50.7973632812;0.829717412725;;;;;;;;;;;;;;0;0;0;0;0;0;0;0;0;();(-2000.0, -2000.0);
12:10:29:603;12:10:29:562;1448407588.12;(0.4104752540588379, 0.3802234225802952);50.7973632812;0.829717412725;;;;;;;;;;;;;;0;0;0;0;0;0;0;0;0;();(-2000.0, -2000.0);
12:10:29:619;12:10:29:562;1448407588.12;(0.4104752540588379, 0.3802234225802952);50.7973632812;0.829717412725;;;;;;;;;;;;;;0;0;0;0;0;0;0;0;0;();(-2000.0, -2000.0);
12:10:29:637;12:10:29:627;1448407588.19;(0.4083863735198975, 0.38157323201497395);52.1253395081;0.8507853157;;;;;;;;;;;;;;0;0;0;0;0;0;0;0;0;();(-2000.0, -2000.0);
12:10:29:653;12:10:29:627;1448407588.19;(0.4083863735198975, 0.38157323201497395);52.1253395081;0.8507853157;;;;;;;;;;;;;;0;0;0;0;0;0;0;0;0;();(-2000.0, -2000.0);
12:10:29:669;12:10:29:627;1448407588.19;(0.4083863735198975, 0.38157323201497395);52.1253395081;0.8507853157;;;;;;;;;;;;;;0;0;0;0;0;0;0;0;0;();(-2000.0, -2000.0);
12:10:29:702;12:10:29:694;1448407588.26;(0.4084211826324463, 0.3825425465901693);52.7204322815;0.885522529099;;;;;;;;;;;;;;0;0;0;0;0;0;0;0;0;();(-2000.0, -2000.0);
12:10:29:719;12:10:29:694;1448407588.26;(0.4084211826324463, 0.3825425465901693);52.7204322815;0.885522529099;;;;;;;;;;;;;;0;0;0;0;0;0;0;0;0;();(-2000.0, -2000.0);
12:10:29:736;12:10:29:694;1448407588.26;(0.4084211826324463, 0.3825425465901693);52.7204322815;0.885522529099;;;;;;;;;;;;;;0;0;0;0;0;0;0;0;0;();(-2000.0, -2000.0);
12:10:29:754;12:10:29:694;1448407588.26;(0.4084211826324463, 0.3825425465901693);52.7204322815;0.885522529099;;;;;;;;;;;;;;0;0;0;0;0;0;0;0;0;();(-2000.0, -2000.0);
12:10:29:770;12:10:29:762;1448407588.32;(0.40881640911102296, 0.38290566338433163);53.1305465698;0.831166304746;;;;;;;;;;;;;;0;0;0;0;0;0;0;0;0;();(-2000.0, -2000.0);
12:10:29:786;12:10:29:762;1448407588.32;(0.40881640911102296, 0.38290566338433163);53.1305465698;0.831166304746;;;;;;;;;;;;;;0;0;0;0;0;0;0;0;0;();(-2000.0, -2000.0);
12:10:29:819;12:10:29:762;1448407588.32;(0.40881640911102296, 0.38290566338433163);53.1305465698;0.831166304746;;;;;;;;;;;;;;0;0;0;0;0;0;0;0;0;();(-2000.0, -2000.0);
12:10:29:836;12:10:29:827;1448407588.39;(0.40805873870849607, 0.382670889960395);53.3025512695;0.876109885412;;;;;;;;;;;;;;0;0;0;0;0;0;0;0;0;();(-2000.0, -2000.0);
12:10:29:853;12:10:29:827;1448407588.39;(0.40805873870849607, 0.382670889960395);53.3025512695;0.876109885412;;;;;;;;;;;;;;0;0;0;0;0;0;0;0;0;();(-2000.0, -2000.0);
12:10:29:869;12:10:29:827;1448407588.39;(0.40805873870849607, 0.382670889960395);53.3025512695;0.876109885412;;;;;;;;;;;;;;0;0;0;0;0;0;0;0;0;();(-2000.0, -2000.0);
12:10:29:887;12:10:29:827;1448407588.39;(0.40805873870849607, 0.382670889960395);53.3025512695;0.876109885412;;;;;;;;;;;;;;0;0;0;0;0;0;0;0;0;();(-2000.0, -2000.0);
12:10:29:920;12:10:29:894;1448407588.46;(0.3946485757827759, 0.3794857449001736);54.0678634644;0.824278013783;;;;;;;;;;;;;;0;0;0;0;0;0;0;0;0;();(-2000.0, -2000.0);
12:10:29:936;12:10:29:894;1448407588.46;(0.3946485757827759, 0.3794857449001736);54.0678634644;0.824278013783;;;;;;;;;;;;;;0;0;0;0;0;0;0;0;0;();(-2000.0, -2000.0);
12:10:29:953;12:10:29:894;1448407588.46;(0.3946485757827759, 0.3794857449001736);54.0678634644;0.824278013783;;;;;;;;;;;;;;0;0;0;0;0;0;0;0;0;();(-2000.0, -2000.0);
12:10:29:970;12:10:29:958;1448407588.52;(0.39484372138977053, 0.37970076666937935);55.2321548462;0.836303907222;;;;;;;;;;;;;;0;0;0;0;0;0;0;0;0;();(-2000.0, -2000.0);
12:10:29:988;12:10:29:958;1448407588.52;(0.39484372138977053, 0.37970076666937935);55.2321548462;0.836303907222;;;;;;;;;;;;;;0;0;0;0;0;0;0;0;0;();(-2000.0, -2000.0);
12:10:30:021;12:10:29:958;1448407588.52;(0.39484372138977053, 0.37970076666937935);55.2321548462;0.836303907222;;;;;;;;;;;;;;0;0;0;0;0;0;0;0;0;();(-2000.0, -2000.0);
12:10:30:037;12:10:30:026;1448407588.59;(0.39504256248474123, 0.3803468492296007);55.1248664856;0.842183692407;;;;;;;;;;;;;;0;0;0;0;0;0;0;0;0;();(-2000.0, -2000.0);
12:10:30:053;12:10:30:026;1448407588.59;(0.39504256248474123, 0.3803468492296007);55.1248664856;0.842183692407;;;;;;;;;;;;;;0;0;0;0;0;0;0;0;0;();(-2000.0, -2000.0);
12:10:30:070;12:10:30:026;1448407588.59;(0.39504256248474123, 0.3803468492296007);55.1248664856;0.842183692407;;;;;;;;;;;;;;0;0;0;0;0;0;0;0;0;();(-2000.0, -2000.0);
12:10:30:087;12:10:30:026;1448407588.59;(0.39504256248474123, 0.3803468492296007);55.1248664856;0.842183692407;;;;;;;;;;;;;;0;0;0;0;0;0;0;0;0;();(-2000.0, -2000.0);
12:10:30:120;12:10:30:094;1448407588.66;(0.39504711627960204, 0.38016471862792967);55.7742500305;0.852945125669;;;;;;;;;;;;;;0;0;0;0;0;0;0;0;0;();(-2000.0, -2000.0);
12:10:30:137;12:10:30:094;1448407588.66;(0.39504711627960204, 0.38016471862792967);55.7742500305;0.852945125669;;;;;;;;;;;;;;0;0;0;0;0;0;0;0;0;();(-2000.0, -2000.0);
12:10:30:154;12:10:30:094;1448407588.66;(0.39504711627960204, 0.38016471862792967);55.7742500305;0.852945125669;;;;;;;;;;;;;;0;0;0;0;0;0;0;0;0;();(-2000.0, -2000.0);
12:10:30:170;12:10:30:167;1448407588.72;(0.40034339427947996, 0.38220282660590277);55.1301078796;0.818658303623;;;;;;;;;;;;;;0;0;0;0;0;0;0;0;0;();(-2000.0, -2000.0);
12:10:30:186;12:10:30:167;1448407588.72;(0.40034339427947996, 0.38220282660590277);55.1301078796;0.818658303623;;;;;;;;;;;;;;0;0;0;0;0;0;0;0;0;();(-2000.0, -2000.0);
12:10:30:220;12:10:30:167;1448407588.72;(0.40034339427947996, 0.38220282660590277);55.1301078796;0.818658303623;;;;;;;;;;;;;;0;0;0;0;0;0;0;0;0;();(-2000.0, -2000.0);
12:10:30:237;12:10:30:226;1448407588.79;(0.4022074222564697, 0.3832052866617839);54.7082901001;0.820216524839;;;;;;;;;;;;;;0;0;0;0;0;0;0;0;0;();(-2000.0, -2000.0);
12:10:30:253;12:10:30:226;1448407588.79;(0.4022074222564697, 0.3832052866617839);54.7082901001;0.820216524839;;;;;;;;;;;;;;0;0;0;0;0;0;0;0;0;();(-2000.0, -2000.0);
12:10:30:270;12:10:30:226;1448407588.79;(0.4022074222564697, 0.3832052866617839);54.7082901001;0.820216524839;;;;;;;;;;;;;;0;0;0;0;0;0;0;0;0;();(-2000.0, -2000.0);
12:10:30:286;12:10:30:226;1448407588.79;(0.4022074222564697, 0.3832052866617839);54.7082901001;0.820216524839;;;;;;;;;;;;;;0;0;0;0;0;0;0;0;0;();(-2000.0, -2000.0);
12:10:30:320;12:10:30:291;1448407588.86;(0, 0);0;0;;;;;;;;;;;;;;0;0;0;0;0;0;0;0;0;();(-2000.0, -2000.0);
12:10:30:337;12:10:30:291;1448407588.86;(0, 0);0;0;;;;;;;;;;;;;;0;0;0;0;0;0;0;0;0;();(-2000.0, -2000.0);
12:10:30:353;12:10:30:291;1448407588.86;(0, 0);0;0;;;;;;;;;;;;;;0;0;0;0;0;0;0;0;0;();(-2000.0, -2000.0);
12:10:30:370;12:10:30:358;1448407588.92;(0.40334627628326414, 0.3832855648464627);53.2815475464;0.656142549584;;;;;;;;;;;;;;0;0;0;0;0;0;0;0;0;();(-2000.0, -2000.0);
12:10:30:386;12:10:30:358;1448407588.92;(0.40334627628326414, 0.3832855648464627);53.2815475464;0.656142549584;;;;;;;;;;;;;;0;0;0;0;0;0;0;0;0;();(-2000.0, -2000.0);
12:10:30:420;12:10:30:358;1448407588.92;(0.40334627628326414, 0.3832855648464627);53.2815475464;0.656142549584;;;;;;;;;;;;;;0;0;0;0;0;0;0;0;0;();(-2000.0, -2000.0);
12:10:30:436;12:10:30:426;1448407588.99;(0, 0);0;0;;;;;;;;;;;;;;0;0;0;0;0;0;0;0;0;();(-2000.0, -2000.0);
12:10:30:453;12:10:30:426;1448407588.99;(0, 0);0;0;;;;;;;;;;;;;;0;0;0;0;0;0;0;0;0;();(-2000.0, -2000.0);
12:10:30:470;12:10:30:426;1448407588.99;(0, 0);0;0;;;;;;;;;;;;;;0;0;0;0;0;0;0;0;0;();(-2000.0, -2000.0);
12:10:30:486;12:10:30:426;1448407588.99;(0, 0);0;0;;;;;;;;;;;;;;0;0;0;0;0;0;0;0;0;();(-2000.0, -2000.0);
12:10:30:520;12:10:30:491;1448407589.06;(0.4040245294570923, 0.38679860432942703);52.2798728943;0.829344513639;;;;;;;;;;;;;;0;0;0;0;0;0;0;0;0;();(-2000.0, -2000.0);
12:10:30:537;12:10:30:491;1448407589.06;(0.4040245294570923, 0.38679860432942703);52.2798728943;0.829344513639;;;;;;;;;;;;;;0;0;0;0;0;0;0;0;0;();(-2000.0, -2000.0);
12:10:30:554;12:10:30:491;1448407589.06;(0.4040245294570923, 0.38679860432942703);52.2798728943;0.829344513639;;;;;;;;;;;;;;0;0;0;0;0;0;0;0;0;();(-2000.0, -2000.0);
12:10:30:570;12:10:30:558;1448407589.12;(0.40516390800476076, 0.3822391933865017);51.7052307129;0.823332077063;;;;;;;;;;;;;;0;0;0;0;0;0;0;0;0;();(-2000.0, -2000.0);
12:10:30:587;12:10:30:558;1448407589.12;(0.40516390800476076, 0.3822391933865017);51.7052307129;0.823332077063;;;;;;;;;;;;;;0;0;0;0;0;0;0;0;0;();(-2000.0, -2000.0);
12:10:30:620;12:10:30:558;1448407589.12;(0.40516390800476076, 0.3822391933865017);51.7052307129;0.823332077063;;;;;;;;;;;;;;0;0;0;0;0;0;0;0;0;();(-2000.0, -2000.0);
12:10:30:637;12:10:30:627;1448407589.19;(0, 0);0;0;;;;;;;;;;;;;;0;0;0;0;0;0;0;0;0;();(-2000.0, -2000.0);
12:10:30:654;12:10:30:627;1448407589.19;(0, 0);0;0;;;;;;;;;;;;;;0;0;0;0;0;0;0;0;0;();(-2000.0, -2000.0);
12:10:30:670;12:10:30:627;1448407589.19;(0, 0);0;0;;;;;;;;;;;;;;0;0;0;0;0;0;0;0;0;();(-2000.0, -2000.0);
12:10:30:686;12:10:30:627;1448407589.19;(0, 0);0;0;;;;;;;;;;;;;;0;0;0;0;0;0;0;0;0;();(-2000.0, -2000.0);
12:10:30:720;12:10:30:690;1448407589.26;(0, 0);0;0;;;;;;;;;;;;;;0;0;0;0;0;0;0;0;0;();(-2000.0, -2000.0);
12:10:30:737;12:10:30:690;1448407589.26;(0, 0);0;0;;;;;;;;;;;;;;0;0;0;0;0;0;0;0;0;();(-2000.0, -2000.0);
12:10:30:754;12:10:30:690;1448407589.26;(0, 0);0;0;;;;;;;;;;;;;;0;0;0;0;0;0;0;0;0;();(-2000.0, -2000.0);
12:10:30:770;12:10:30:759;1448407589.32;(0.413240909576416, 0.39077839321560326);52.0684509277;0.796317030881;;;;;;;;;;;;;;0;0;0;0;0;0;0;0;0;();(-2000.0, -2000.0);
12:10:30:788;12:10:30:759;1448407589.32;(0.413240909576416, 0.39077839321560326);52.0684509277;0.796317030881;;;;;;;;;;;;;;0;0;0;0;0;0;0;0;0;();(-2000.0, -2000.0);
12:10:30:820;12:10:30:759;1448407589.32;(0.413240909576416, 0.39077839321560326);52.0684509277;0.796317030881;;;;;;;;;;;;;;0;0;0;0;0;0;0;0;0;();(-2000.0, -2000.0);
12:10:30:837;12:10:30:825;1448407589.39;(0.4144315719604492, 0.39206271701388884);52.7091445923;0.709490522851;;;;;;;;;;;;;;0;0;0;0;0;0;0;0;0;();(-2000.0, -2000.0);
12:10:30:853;12:10:30:825;1448407589.39;(0.4144315719604492, 0.39206271701388884);52.7091445923;0.709490522851;;;;;;;;;;;;;;0;0;0;0;0;0;0;0;0;();(-2000.0, -2000.0);
12:10:30:870;12:10:30:825;1448407589.39;(0.4144315719604492, 0.39206271701388884);52.7091445923;0.709490522851;;;;;;;;;;;;;;0;0;0;0;0;0;0;0;0;();(-2000.0, -2000.0);
12:10:30:888;12:10:30:825;1448407589.39;(0.4144315719604492, 0.39206271701388884);52.7091445923;0.709490522851;;;;;;;;;;;;;;0;0;0;0;0;0;0;0;0;();(-2000.0, -2000.0);
12:10:30:920;12:10:30:892;1448407589.46;(0.4150723457336426, 0.3918126000298394);53.3633384705;0.739348396642;;;;;;;;;;;;;;0;0;0;0;0;0;0;0;0;();(-2000.0, -2000.0);
12:10:30:937;12:10:30:892;1448407589.46;(0.4150723457336426, 0.3918126000298394);53.3633384705;0.739348396642;;;;;;;;;;;;;;0;0;0;0;0;0;0;0;0;();(-2000.0, -2000.0);
12:10:30:955;12:10:30:953;1448407589.49;(0.41559343338012694, 0.39394387139214415);53.9281616211;0.671499901833;;;;;;;;;;;;;;0;0;0;0;0;0;0;0;0;();(-2000.0, -2000.0);
12:10:30:971;12:10:30:954;1448407589.52;(0.4161141633987427, 0.39277801513671873);54.2591705322;0.721193988928;;;;;;;;;;;;;;0;0;0;0;0;0;0;0;0;();(-2000.0, -2000.0);
12:10:30:987;12:10:30:954;1448407589.52;(0.4161141633987427, 0.39277801513671873);54.2591705322;0.721193988928;;;;;;;;;;;;;;0;0;0;0;0;0;0;0;0;();(-2000.0, -2000.0);
12:10:31:020;12:10:30:954;1448407589.52;(0.4161141633987427, 0.39277801513671873);54.2591705322;0.721193988928;;;;;;;;;;;;;;0;0;0;0;0;0;0;0;0;();(-2000.0, -2000.0);
12:10:31:037;12:10:31:025;1448407589.59;(0.41648154258728026, 0.393228022257487);54.8184700012;0.727283006123;;;;;;;;;;;;;;0;0;0;0;0;0;0;0;0;();(-2000.0, -2000.0);
12:10:31:054;12:10:31:025;1448407589.59;(0.41648154258728026, 0.393228022257487);54.8184700012;0.727283006123;;;;;;;;;;;;;;0;0;0;0;0;0;0;0;0;();(-2000.0, -2000.0);
12:10:31:072;12:10:31:025;1448407589.59;(0.41648154258728026, 0.393228022257487);54.8184700012;0.727283006123;;;;;;;;;;;;;;0;0;0;0;0;0;0;0;0;();(-2000.0, -2000.0);
12:10:31:088;12:10:31:085;1448407589.62;(0.41669411659240724, 0.39370812310112846);54.7894439697;0.729300894081;;;;;;;;;;;;;;0;0;0;0;0;0;0;0;0;();(-2000.0, -2000.0);
12:10:31:121;12:10:31:087;1448407589.66;(0.41675376892089844, 0.3928741031222873);55.1609573364;0.704690137903;;;;;;;;;;;;;;0;0;0;0;0;0;0;0;0;();(-2000.0, -2000.0);
12:10:31:137;12:10:31:087;1448407589.66;(0.41675376892089844, 0.3928741031222873);55.1609573364;0.704690137903;;;;;;;;;;;;;;0;0;0;0;0;0;0;0;0;();(-2000.0, -2000.0);
12:10:31:155;12:10:31:153;1448407589.69;(0.416507625579834, 0.39185108608669705);55.8627166748;0.759119112775;;;;;;;;;;;;;;0;0;0;0;0;0;0;0;0;();(-2000.0, -2000.0);
12:10:31:171;12:10:31:154;1448407589.72;(0.417467737197876, 0.3888067457411024);55.9457893372;0.832526172271;;;;;;;;;;;;;;0;0;0;0;0;0;0;0;0;();(-2000.0, -2000.0);
12:10:31:188;12:10:31:154;1448407589.72;(0.417467737197876, 0.3888067457411024);55.9457893372;0.832526172271;;;;;;;;;;;;;;0;0;0;0;0;0;0;0;0;();(-2000.0, -2000.0);
12:10:31:222;12:10:31:154;1448407589.72;(0.417467737197876, 0.3888067457411024);55.9457893372;0.832526172271;;;;;;;;;;;;;;0;0;0;0;0;0;0;0;0;();(-2000.0, -2000.0);
12:10:31:238;12:10:31:224;1448407589.79;(0.41782779693603517, 0.38880127800835507);56.7266197205;0.837181618706;;;;;;;;;;;;;;0;0;0;0;0;0;0;0;0;();(-2000.0, -2000.0);
12:10:31:254;12:10:31:224;1448407589.79;(0.41782779693603517, 0.38880127800835507);56.7266197205;0.837181618706;;;;;;;;;;;;;;0;0;0;0;0;0;0;0;0;();(-2000.0, -2000.0);
12:10:31:271;12:10:31:224;1448407589.79;(0.41782779693603517, 0.38880127800835507);56.7266197205;0.837181618706;;;;;;;;;;;;;;0;0;0;0;0;0;0;0;0;();(-2000.0, -2000.0);
12:10:31:288;12:10:31:286;1448407589.86;(0.41802072525024414, 0.39002460903591585);56.7402801514;0.811910460295;;;;;;;;;;;;;;0;0;0;0;0;0;0;0;0;();(-2000.0, -2000.0);
12:10:31:320;12:10:31:286;1448407589.86;(0.41802072525024414, 0.39002460903591585);56.7402801514;0.811910460295;;;;;;;;;;;;;;0;0;0;0;0;0;0;0;0;();(-2000.0, -2000.0);
12:10:31:338;12:10:31:286;1448407589.86;(0.41802072525024414, 0.39002460903591585);56.7402801514;0.811910460295;;;;;;;;;;;;;;0;0;0;0;0;0;0;0;0;();(-2000.0, -2000.0);
12:10:31:354;12:10:31:286;1448407589.86;(0.41802072525024414, 0.39002460903591585);56.7402801514;0.811910460295;;;;;;;;;;;;;;0;0;0;0;0;0;0;0;0;();(-2000.0, -2000.0);
12:10:31:371;12:10:31:359;1448407589.92;(0.4180564880371094, 0.3894829644097222);57.0873947144;0.850318929341;;;;;;;;;;;;;;0;0;0;0;0;0;0;0;0;();(-2000.0, -2000.0);
12:10:31:387;12:10:31:359;1448407589.92;(0.4180564880371094, 0.3894829644097222);57.0873947144;0.850318929341;;;;;;;;;;;;;;0;0;0;0;0;0;0;0;0;();(-2000.0, -2000.0);
12:10:31:421;12:10:31:419;1448407589.99;(0.41848700046539306, 0.38880589803059895);57.5121574402;0.848436352314;;;;;;;;;;;;;;0;0;0;0;0;0;0;0;0;();(-2000.0, -2000.0);
12:10:31:438;12:10:31:419;1448407589.99;(0.41848700046539306, 0.38880589803059895);57.5121574402;0.848436352314;;;;;;;;;;;;;;0;0;0;0;0;0;0;0;0;();(-2000.0, -2000.0);
12:10:31:454;12:10:31:419;1448407589.99;(0.41848700046539306, 0.38880589803059895);57.5121574402;0.848436352314;;;;;;;;;;;;;;0;0;0;0;0;0;0;0;0;();(-2000.0, -2000.0);
12:10:31:472;12:10:31:419;1448407589.99;(0.41848700046539306, 0.38880589803059895);57.5121574402;0.848436352314;;;;;;;;;;;;;;0;0;0;0;0;0;0;0;0;();(-2000.0, -2000.0);
12:10:31:488;12:10:31:487;1448407590.06;(0.42854335308074953, 0.40046984354654946);56.8949050903;0.681473031489;;;;;;;;;;;;;;0;0;0;0;0;0;0;0;0;();(-2000.0, -2000.0);
12:10:31:521;12:10:31:487;1448407590.06;(0.42854335308074953, 0.40046984354654946);56.8949050903;0.681473031489;;;;;;;;;;;;;;0;0;0;0;0;0;0;0;0;();(-2000.0, -2000.0);
12:10:31:538;12:10:31:487;1448407590.06;(0.42854335308074953, 0.40046984354654946);56.8949050903;0.681473031489;;;;;;;;;;;;;;0;0;0;0;0;0;0;0;0;();(-2000.0, -2000.0);
12:10:31:556;12:10:31:554;1448407590.12;(0.4326364278793335, 0.4072786119249132);57.3104858398;0.665091724106;;;;;;;;;;;;;;0;0;0;0;0;0;0;0;0;();(-2000.0, -2000.0);
12:10:31:571;12:10:31:554;1448407590.12;(0.4326364278793335, 0.4072786119249132);57.3104858398;0.665091724106;;;;;;;;;;;;;;0;0;0;0;0;0;0;0;0;();(-2000.0, -2000.0);
12:10:31:589;12:10:31:554;1448407590.12;(0.4326364278793335, 0.4072786119249132);57.3104858398;0.665091724106;;;;;;;;;;;;;;0;0;0;0;0;0;0;0;0;();(-2000.0, -2000.0);
12:10:31:621;12:10:31:619;1448407590.19;(0.4330019235610962, 0.4064588758680555);56.931476593;0.643187370733;;;;;;;;;;;;;;0;0;0;0;0;0;0;0;0;();(-2000.0, -2000.0);
12:10:31:639;12:10:31:619;1448407590.19;(0.4330019235610962, 0.4064588758680555);56.931476593;0.643187370733;;;;;;;;;;;;;;0;0;0;0;0;0;0;0;0;();(-2000.0, -2000.0);
12:10:31:655;12:10:31:619;1448407590.19;(0.4330019235610962, 0.4064588758680555);56.931476593;0.643187370733;;;;;;;;;;;;;;0;0;0;0;0;0;0;0;0;();(-2000.0, -2000.0);
12:10:31:671;12:10:31:619;1448407590.19;(0.4330019235610962, 0.4064588758680555);56.931476593;0.643187370733;;;;;;;;;;;;;;0;0;0;0;0;0;0;0;0;();(-2000.0, -2000.0);
12:10:31:688;12:10:31:686;1448407590.26;(0.784386682510376, 0.5968109554714627);18.6758956909;0.707165458899;;;;;;;;;;;;;;0;0;0;0;0;0;0;0;0;();(-2000.0, -2000.0);
12:10:31:721;12:10:31:686;1448407590.26;(0.784386682510376, 0.5968109554714627);18.6758956909;0.707165458899;;;;;;;;;;;;;;0;0;0;0;0;0;0;0;0;();(-2000.0, -2000.0);
12:10:31:738;12:10:31:686;1448407590.26;(0.784386682510376, 0.5968109554714627);18.6758956909;0.707165458899;;;;;;;;;;;;;;0;0;0;0;0;0;0;0;0;();(-2000.0, -2000.0);
12:10:31:754;12:10:31:750;1448407590.32;(0.07475752532482147, 0.5933196173773871);37.6503868103;0.617062411929;;;;;;;;;;;;;;0;0;0;0;0;0;0;0;0;();(-2000.0, -2000.0);
12:10:31:771;12:10:31:750;1448407590.32;(0.07475752532482147, 0.5933196173773871);37.6503868103;0.617062411929;;;;;;;;;;;;;;0;0;0;0;0;0;0;0;0;();(-2000.0, -2000.0);
12:10:31:788;12:10:31:750;1448407590.32;(0.07475752532482147, 0.5933196173773871);37.6503868103;0.617062411929;;;;;;;;;;;;;;0;0;0;0;0;0;0;0;0;();(-2000.0, -2000.0);
12:10:31:821;12:10:31:819;1448407590.39;(0.43593730926513674, 0.41074358622233076);57.8619270325;0.61053734037;;;;;;;;;;;;;;0;0;0;0;0;0;0;0;0;();(-2000.0, -2000.0);
12:10:31:838;12:10:31:819;1448407590.39;(0.43593730926513674, 0.41074358622233076);57.8619270325;0.61053734037;;;;;;;;;;;;;;0;0;0;0;0;0;0;0;0;();(-2000.0, -2000.0);
12:10:31:855;12:10:31:819;1448407590.39;(0.43593730926513674, 0.41074358622233076);57.8619270325;0.61053734037;;;;;;;;;;;;;;0;0;0;0;0;0;0;0;0;();(-2000.0, -2000.0);
12:10:31:871;12:10:31:819;1448407590.39;(0.43593730926513674, 0.41074358622233076);57.8619270325;0.61053734037;;;;;;;;;;;;;;0;0;0;0;0;0;0;0;0;();(-2000.0, -2000.0);
12:10:31:889;12:10:31:887;1448407590.46;(0.4390390872955322, 0.4074231889512804);56.6034965515;0.667011757681;;;;;;;;;;;;;;0;0;0;0;0;0;0;0;0;();(-2000.0, -2000.0);
12:10:31:921;12:10:31:887;1448407590.46;(0.4390390872955322, 0.4074231889512804);56.6034965515;0.667011757681;;;;;;;;;;;;;;0;0;0;0;0;0;0;0;0;();(-2000.0, -2000.0);
12:10:31:938;12:10:31:887;1448407590.46;(0.4390390872955322, 0.4074231889512804);56.6034965515;0.667011757681;;;;;;;;;;;;;;0;0;0;0;0;0;0;0;0;();(-2000.0, -2000.0);
12:10:31:954;12:10:31:887;1448407590.46;(0.4390390872955322, 0.4074231889512804);56.6034965515;0.667011757681;;;;;;;;;;;;;;0;0;0;0;0;0;0;0;0;();(-2000.0, -2000.0);
12:10:31:971;12:10:31:959;1448407590.52;(0.43852825164794923, 0.40908749898274743);57.6748695374;0.615768004406;;;;;;;;;;;;;;0;0;0;0;0;0;0;0;0;();(-2000.0, -2000.0);
12:10:31:988;12:10:31:959;1448407590.52;(0.43852825164794923, 0.40908749898274743);57.6748695374;0.615768004406;;;;;;;;;;;;;;0;0;0;0;0;0;0;0;0;();(-2000.0, -2000.0);
12:10:32:021;12:10:32:018;1448407590.59;(0.440978479385376, 0.4034798940022787);55.5818252563;0.603646651637;;;;;;;;;;;;;;0;0;0;0;0;0;0;0;0;();(-2000.0, -2000.0);
12:10:32:038;12:10:32:018;1448407590.59;(0.440978479385376, 0.4034798940022787);55.5818252563;0.603646651637;;;;;;;;;;;;;;0;0;0;0;0;0;0;0;0;();(-2000.0, -2000.0);
12:10:32:054;12:10:32:018;1448407590.59;(0.440978479385376, 0.4034798940022787);55.5818252563;0.603646651637;;;;;;;;;;;;;;0;0;0;0;0;0;0;0;0;();(-2000.0, -2000.0);
12:10:32:072;12:10:32:018;1448407590.59;(0.440978479385376, 0.4034798940022787);55.5818252563;0.603646651637;;;;;;;;;;;;;;0;0;0;0;0;0;0;0;0;();(-2000.0, -2000.0);
12:10:32:088;12:10:32:082;1448407590.66;(0, 0);0;0;;;;;;;;;;;;;;0;0;0;0;0;0;0;0;0;();(-2000.0, -2000.0);
12:10:32:122;12:10:32:082;1448407590.66;(0, 0);0;0;;;;;;;;;;;;;;0;0;0;0;0;0;0;0;0;();(-2000.0, -2000.0);
12:10:32:138;12:10:32:082;1448407590.66;(0, 0);0;0;;;;;;;;;;;;;;0;0;0;0;0;0;0;0;0;();(-2000.0, -2000.0);
12:10:32:155;12:10:32:151;1448407590.72;(0.44672255516052245, 0.4049923366970486);56.830821991;0.689692276194;;;;;;;;;;;;;;0;0;0;0;0;0;0;0;0;();(-2000.0, -2000.0);
12:10:32:172;12:10:32:151;1448407590.72;(0.44672255516052245, 0.4049923366970486);56.830821991;0.689692276194;;;;;;;;;;;;;;0;0;0;0;0;0;0;0;0;();(-2000.0, -2000.0);
12:10:32:188;12:10:32:151;1448407590.72;(0.44672255516052245, 0.4049923366970486);56.830821991;0.689692276194;;;;;;;;;;;;;;0;0;0;0;0;0;0;0;0;();(-2000.0, -2000.0);
12:10:32:222;12:10:32:218;1448407590.79;(0.44679746627807615, 0.4078525967068143);57.5867118835;0.610764648009;;;;;;;;;;;;;;0;0;0;0;0;0;0;0;0;();(-2000.0, -2000.0);
12:10:32:238;12:10:32:218;1448407590.79;(0.44679746627807615, 0.4078525967068143);57.5867118835;0.610764648009;;;;;;;;;;;;;;0;0;0;0;0;0;0;0;0;();(-2000.0, -2000.0);
12:10:32:255;12:10:32:218;1448407590.79;(0.44679746627807615, 0.4078525967068143);57.5867118835;0.610764648009;;;;;;;;;;;;;;0;0;0;0;0;0;0;0;0;();(-2000.0, -2000.0);
12:10:32:271;12:10:32:218;1448407590.79;(0.44679746627807615, 0.4078525967068143);57.5867118835;0.610764648009;;;;;;;;;;;;;;0;0;0;0;0;0;0;0;0;();(-2000.0, -2000.0);
12:10:32:288;12:10:32:282;1448407590.86;(0, 0);0;0;;;;;;;;;;;;;;0;0;0;0;0;0;0;0;0;();(-2000.0, -2000.0);
12:10:32:322;12:10:32:282;1448407590.86;(0, 0);0;0;;;;;;;;;;;;;;0;0;0;0;0;0;0;0;0;();(-2000.0, -2000.0);
12:10:32:340;12:10:32:282;1448407590.86;(0, 0);0;0;;;;;;;;;;;;;;0;0;0;0;0;0;0;0;0;();(-2000.0, -2000.0);
12:10:32:357;12:10:32:351;1448407590.92;(0, 0);0;0;;;;;;;;;;;;;;0;0;0;0;0;0;0;0;0;();(-2000.0, -2000.0);
12:10:32:373;12:10:32:351;1448407590.92;(0, 0);0;0;;;;;;;;;;;;;;0;0;0;0;0;0;0;0;0;();(-2000.0, -2000.0);
12:10:32:389;12:10:32:351;1448407590.92;(0, 0);0;0;;;;;;;;;;;;;;0;0;0;0;0;0;0;0;0;();(-2000.0, -2000.0);
12:10:32:423;12:10:32:414;1448407590.99;(0, 0);0;0;;;;;;;;;;;;;;0;0;0;0;0;0;0;0;0;();(-2000.0, -2000.0);
12:10:32:438;12:10:32:414;1448407590.99;(0, 0);0;0;;;;;;;;;;;;;;0;0;0;0;0;0;0;0;0;();(-2000.0, -2000.0);
12:10:32:456;12:10:32:414;1448407590.99;(0, 0);0;0;;;;;;;;;;;;;;0;0;0;0;0;0;0;0;0;();(-2000.0, -2000.0);
12:10:32:472;12:10:32:414;1448407590.99;(0, 0);0;0;;;;;;;;;;;;;;0;0;0;0;0;0;0;0;0;();(-2000.0, -2000.0);
12:10:32:490;12:10:32:483;1448407591.06;(0.3863433122634888, 0.5722347683376736);19.4487819672;0.805819906645;;;;;;;;;;;;;;0;0;0;0;0;0;0;0;0;();(-2000.0, -2000.0);
12:10:32:522;12:10:32:483;1448407591.06;(0.3863433122634888, 0.5722347683376736);19.4487819672;0.805819906645;;;;;;;;;;;;;;0;0;0;0;0;0;0;0;0;();(-2000.0, -2000.0);
12:10:32:539;12:10:32:483;1448407591.06;(0.3863433122634888, 0.5722347683376736);19.4487819672;0.805819906645;;;;;;;;;;;;;;0;0;0;0;0;0;0;0;0;();(-2000.0, -2000.0);
12:10:32:555;12:10:32:550;1448407591.12;(0, 0);0;0;;;;;;;;;;;;;;0;0;0;0;0;0;0;0;0;();(-2000.0, -2000.0);
12:10:32:572;12:10:32:550;1448407591.12;(0, 0);0;0;;;;;;;;;;;;;;0;0;0;0;0;0;0;0;0;();(-2000.0, -2000.0);
12:10:32:590;12:10:32:550;1448407591.12;(0, 0);0;0;;;;;;;;;;;;;;0;0;0;0;0;0;0;0;0;();(-2000.0, -2000.0);
12:10:32:623;12:10:32:614;1448407591.19;(0.44747185707092285, 0.408515379163954);58.3725776672;0.607747671278;;;;;;;;;;;;;;0;0;0;0;0;0;0;0;0;();(-2000.0, -2000.0);
12:10:32:640;12:10:32:614;1448407591.19;(0.44747185707092285, 0.408515379163954);58.3725776672;0.607747671278;;;;;;;;;;;;;;0;0;0;0;0;0;0;0;0;();(-2000.0, -2000.0);
12:10:32:656;12:10:32:614;1448407591.19;(0.44747185707092285, 0.408515379163954);58.3725776672;0.607747671278;;;;;;;;;;;;;;0;0;0;0;0;0;0;0;0;();(-2000.0, -2000.0);
12:10:32:672;12:10:32:614;1448407591.19;(0.44747185707092285, 0.408515379163954);58.3725776672;0.607747671278;;;;;;;;;;;;;;0;0;0;0;0;0;0;0;0;();(-2000.0, -2000.0);
12:10:32:688;12:10:32:682;1448407591.26;(0, 0);0;0;;;;;;;;;;;;;;0;0;0;0;0;0;0;0;0;();(-2000.0, -2000.0);
12:10:32:723;12:10:32:682;1448407591.26;(0, 0);0;0;;;;;;;;;;;;;;0;0;0;0;0;0;0;0;0;();(-2000.0, -2000.0);
12:10:32:739;12:10:32:682;1448407591.26;(0, 0);0;0;;;;;;;;;;;;;;0;0;0;0;0;0;0;0;0;();(-2000.0, -2000.0);
12:10:32:755;12:10:32:746;1448407591.32;(0, 0);0;0;;;;;;;;;;;;;;0;0;0;0;0;0;0;0;0;();(-2000.0, -2000.0);
