%Timestamp,timestamp_write;timestamp_gotpupil;eyeTrackerTime;normPos;diameter;confidence;timestamp_gotbitdata;CRC;SEQ;AnalogOutp1;AnalogOutp2;AnalogOutp3;AnalogOutp4;AnalogOutp5;AnalogOutp6;DigitalOutp1;DigitalOutp2;DigitalOutp3;DigitalOutp4;nplanes;listofAirplanesonScreen;lastAction;lastActionDetails;lastActionAirplaneNumber;calculatedScore;positiveScore;negativeScore;collidedAirplaneNumbers;targetPositions;collisionPoint
06:47:49:343;06:47:49:280;1448647439.16;(0, 0);0;0;;;;;;;;;;;;;;0;0;0;0;0;0;0;0;0;();(0.0, 0.0);
06:47:49:349;06:47:49:280;1448647439.16;(0, 0);0;0;;;;;;;;;;;;;;0;0;0;0;0;0;0;0;0;();(-2000.0, -2000.0);
06:47:49:353;06:47:49:349;1448647439.23;(0, 0);0;0;;;;;;;;;;;;;;0;0;0;0;0;0;0;0;0;();(-2000.0, -2000.0);
06:47:49:356;06:47:49:349;1448647439.23;(0, 0);0;0;;;;;;;;;;;;;;0;0;0;0;0;0;0;0;0;();(-2000.0, -2000.0);
06:47:49:360;06:47:49:349;1448647439.23;(0, 0);0;0;;;;;;;;;;;;;;0;0;0;0;0;0;0;0;0;();(-2000.0, -2000.0);
06:47:49:363;06:47:49:349;1448647439.23;(0, 0);0;0;;;;;;;;;;;;;;0;0;0;0;0;0;0;0;0;();(-2000.0, -2000.0);
06:47:49:367;06:47:49:349;1448647439.23;(0, 0);0;0;;;;;;;;;;;;;;0;0;0;0;0;0;0;0;0;();(-2000.0, -2000.0);
06:47:49:371;06:47:49:349;1448647439.23;(0, 0);0;0;;;;;;;;;;;;;;0;0;0;0;0;0;0;0;0;();(-2000.0, -2000.0);
06:47:49:374;06:47:49:349;1448647439.23;(0, 0);0;0;;;;;;;;;;;;;;0;0;0;0;0;0;0;0;0;();(-2000.0, -2000.0);
06:47:49:378;06:47:49:349;1448647439.23;(0, 0);0;0;;;;;;;;;;;;;;0;0;0;0;0;0;0;0;0;();(-2000.0, -2000.0);
06:47:49:381;06:47:49:349;1448647439.23;(0, 0);0;0;;;;;;;;;;;;;;0;0;0;0;0;0;0;0;0;();(-2000.0, -2000.0);
06:47:49:384;06:47:49:349;1448647439.23;(0, 0);0;0;;;;;;;;;;;;;;0;0;0;0;0;0;0;0;0;();(-2000.0, -2000.0);
06:47:49:387;06:47:49:349;1448647439.23;(0, 0);0;0;;;;;;;;;;;;;;0;0;0;0;0;0;0;0;0;();(-2000.0, -2000.0);
06:47:49:391;06:47:49:349;1448647439.23;(0, 0);0;0;;;;;;;;;;;;;;0;0;0;0;0;0;0;0;0;();(-2000.0, -2000.0);
06:47:49:394;06:47:49:349;1448647439.23;(0, 0);0;0;;;;;;;;;;;;;;0;0;0;0;0;0;0;0;0;();(-2000.0, -2000.0);
06:47:49:397;06:47:49:349;1448647439.23;(0, 0);0;0;;;;;;;;;;;;;;0;0;0;0;0;0;0;0;0;();(-2000.0, -2000.0);
06:47:49:403;06:47:49:349;1448647439.23;(0, 0);0;0;;;;;;;;;;;;;;0;0;0;0;0;0;0;0;0;();(-2000.0, -2000.0);
06:47:49:406;06:47:49:349;1448647439.23;(0, 0);0;0;;;;;;;;;;;;;;0;0;0;0;0;0;0;0;0;();(-2000.0, -2000.0);
06:47:49:410;06:47:49:349;1448647439.23;(0, 0);0;0;;;;;;;;;;;;;;0;0;0;0;0;0;0;0;0;();(-2000.0, -2000.0);
06:47:49:420;06:47:49:415;1448647439.29;(0, 0);0;0;;;;;;;;;;;;;;0;0;0;0;0;0;0;0;0;();(-2000.0, -2000.0);
06:47:49:436;06:47:49:415;1448647439.29;(0, 0);0;0;;;;;;;;;;;;;;0;0;0;0;0;0;0;0;0;();(-2000.0, -2000.0);
06:47:49:455;06:47:49:415;1448647439.29;(0, 0);0;0;;;;;;;;;;;;;;0;0;0;0;0;0;0;0;0;();(-2000.0, -2000.0);
06:47:49:472;06:47:49:415;1448647439.29;(0, 0);0;0;;;;;;;;;;;;;;0;0;0;0;0;0;0;0;0;();(-2000.0, -2000.0);
06:47:49:504;06:47:49:481;1448647439.36;(0, 0);0;0;;;;;;;;;;;;;;0;0;0;0;0;0;0;0;0;();(-2000.0, -2000.0);
06:47:49:525;06:47:49:481;1448647439.36;(0, 0);0;0;;;;;;;;;;;;;;0;0;0;0;0;0;0;0;0;();(-2000.0, -2000.0);
06:47:49:541;06:47:49:481;1448647439.36;(0, 0);0;0;;;;;;;;;;;;;;0;0;0;0;0;0;0;0;0;();(-2000.0, -2000.0);
06:47:49:558;06:47:49:552;1448647439.43;(0, 0);0;0;;;;;;;;;;;;;;0;0;0;0;0;0;0;0;0;();(-2000.0, -2000.0);
06:47:49:574;06:47:49:552;1448647439.43;(0, 0);0;0;;;;;;;;;;;;;;0;0;0;0;0;0;0;0;0;();(-2000.0, -2000.0);
06:47:49:591;06:47:49:552;1448647439.43;(0, 0);0;0;;;;;;;;;;;;;;0;0;0;0;0;0;0;0;0;();(-2000.0, -2000.0);
06:47:49:625;06:47:49:611;1448647439.49;(0, 0);0;0;;;;;;;;;;;;;;0;0;0;0;0;0;0;0;0;();(-2000.0, -2000.0);
06:47:49:641;06:47:49:611;1448647439.49;(0, 0);0;0;;;;;;;;;;;;;;0;0;0;0;0;0;0;0;0;();(-2000.0, -2000.0);
06:47:49:658;06:47:49:611;1448647439.49;(0, 0);0;0;;;;;;;;;;;;;;0;0;0;0;0;0;0;0;0;();(-2000.0, -2000.0);
06:47:49:673;06:47:49:611;1448647439.49;(0, 0);0;0;;;;;;;;;;;;;;0;0;0;0;0;0;0;0;0;();(-2000.0, -2000.0);
06:47:49:691;06:47:49:682;1448647439.56;(0, 0);0;0;;;;;;;;;;;;;;0;0;0;0;0;0;0;0;0;();(-2000.0, -2000.0);
06:47:49:723;06:47:49:682;1448647439.56;(0, 0);0;0;;;;;;;;;;;;;;0;0;0;0;0;0;0;0;0;();(-2000.0, -2000.0);
06:47:49:741;06:47:49:682;1448647439.56;(0, 0);0;0;;;;;;;;;;;;;;0;0;0;0;0;0;0;0;0;();(-2000.0, -2000.0);
06:47:49:756;06:47:49:747;1448647439.63;(0, 0);0;0;;;;;;;;;;;;;;0;0;0;0;0;0;0;0;0;();(-2000.0, -2000.0);
06:47:49:773;06:47:49:747;1448647439.63;(0, 0);0;0;;;;;;;;;;;;;;0;0;0;0;0;0;0;0;0;();(-2000.0, -2000.0);
06:47:49:789;06:47:49:747;1448647439.63;(0, 0);0;0;;;;;;;;;;;;;;0;0;0;0;0;0;0;0;0;();(-2000.0, -2000.0);
06:47:49:823;06:47:49:811;1448647439.69;(0, 0);0;0;;;;;;;;;;;;;;0;0;0;0;0;0;0;0;0;();(-2000.0, -2000.0);
06:47:49:839;06:47:49:811;1448647439.69;(0, 0);0;0;;;;;;;;;;;;;;0;0;0;0;0;0;0;0;0;();(-2000.0, -2000.0);
06:47:49:857;06:47:49:811;1448647439.69;(0, 0);0;0;;;;;;;;;;;;;;0;0;0;0;0;0;0;0;0;();(-2000.0, -2000.0);
06:47:49:873;06:47:49:811;1448647439.69;(0, 0);0;0;;;;;;;;;;;;;;0;0;0;0;0;0;0;0;0;();(-2000.0, -2000.0);
06:47:49:906;06:47:49:879;1448647439.76;(0, 0);0;0;;;;;;;;;;;;;;0;0;0;0;0;0;0;0;0;();(-2000.0, -2000.0);
06:47:49:922;06:47:49:879;1448647439.76;(0, 0);0;0;;;;;;;;;;;;;;0;0;0;0;0;0;0;0;0;();(-2000.0, -2000.0);
06:47:49:939;06:47:49:879;1448647439.76;(0, 0);0;0;;;;;;;;;;;;;;0;0;0;0;0;0;0;0;0;();(-2000.0, -2000.0);
06:47:49:955;06:47:49:943;1448647439.83;(0, 0);0;0;;;;;;;;;;;;;;0;0;0;0;0;0;0;0;0;();(-2000.0, -2000.0);
06:47:49:973;06:47:49:943;1448647439.83;(0, 0);0;0;;;;;;;;;;;;;;0;0;0;0;0;0;0;0;0;();(-2000.0, -2000.0);
06:47:50:005;06:47:49:943;1448647439.83;(0, 0);0;0;;;;;;;;;;;;;;0;0;0;0;0;0;0;0;0;();(-2000.0, -2000.0);
06:47:50:022;06:47:50:012;1448647439.89;(0, 0);0;0;;;;;;;;;;;;;;0;0;0;0;0;0;0;0;0;();(-2000.0, -2000.0);
06:47:50:038;06:47:50:012;1448647439.89;(0, 0);0;0;;;;;;;;;;;;;;0;0;0;0;0;0;0;0;0;();(-2000.0, -2000.0);
06:47:50:055;06:47:50:012;1448647439.89;(0, 0);0;0;;;;;;;;;;;;;;0;0;0;0;0;0;0;0;0;();(-2000.0, -2000.0);
06:47:50:071;06:47:50:012;1448647439.89;(0, 0);0;0;;;;;;;;;;;;;;0;0;0;0;0;0;0;0;0;();(-2000.0, -2000.0);
06:47:50:104;06:47:50:079;1448647439.96;(0, 0);0;0;;;;;;;;;;;;;;0;0;0;0;0;0;0;0;0;();(-2000.0, -2000.0);
06:47:50:121;06:47:50:079;1448647439.96;(0, 0);0;0;;;;;;;;;;;;;;0;0;0;0;0;0;0;0;0;();(-2000.0, -2000.0);
06:47:50:137;06:47:50:079;1448647439.96;(0, 0);0;0;;;;;;;;;;;;;;0;0;0;0;0;0;0;0;0;();(-2000.0, -2000.0);
06:47:50:153;06:47:50:143;1448647440.03;(0, 0);0;0;;;;;;;;;;;;;;0;0;0;0;0;0;0;0;0;();(-2000.0, -2000.0);
06:47:50:171;06:47:50:143;1448647440.03;(0, 0);0;0;;;;;;;;;;;;;;0;0;0;0;0;0;0;0;0;();(-2000.0, -2000.0);
06:47:50:204;06:47:50:143;1448647440.03;(0, 0);0;0;;;;;;;;;;;;;;0;0;0;0;0;0;0;0;0;();(-2000.0, -2000.0);
06:47:50:220;06:47:50:211;1448647440.09;(0, 0);0;0;;;;;;;;;;;;;;0;0;0;0;0;0;0;0;0;();(-2000.0, -2000.0);
06:47:50:237;06:47:50:211;1448647440.09;(0, 0);0;0;;;;;;;;;;;;;;0;0;0;0;0;0;0;0;0;();(-2000.0, -2000.0);
06:47:50:253;06:47:50:211;1448647440.09;(0, 0);0;0;;;;;;;;;;;;;;0;0;0;0;0;0;0;0;0;();(-2000.0, -2000.0);
06:47:50:271;06:47:50:211;1448647440.09;(0, 0);0;0;;;;;;;;;;;;;;0;0;0;0;0;0;0;0;0;();(-2000.0, -2000.0);
06:47:50:303;06:47:50:275;1448647440.16;(0, 0);0;0;;;;;;;;;;;;;;0;0;0;0;0;0;0;0;0;();(-2000.0, -2000.0);
06:47:50:319;06:47:50:275;1448647440.16;(0, 0);0;0;;;;;;;;;;;;;;0;0;0;0;0;0;0;0;0;();(-2000.0, -2000.0);
06:47:50:337;06:47:50:275;1448647440.16;(0, 0);0;0;;;;;;;;;;;;;;0;0;0;0;0;0;0;0;0;();(-2000.0, -2000.0);
06:47:50:353;06:47:50:343;1448647440.23;(0, 0);0;0;;;;;;;;;;;;;;0;0;0;0;0;0;0;0;0;();(-2000.0, -2000.0);
06:47:50:369;06:47:50:343;1448647440.23;(0, 0);0;0;;;;;;;;;;;;;;0;0;0;0;0;0;0;0;0;();(-2000.0, -2000.0);
06:47:50:403;06:47:50:343;1448647440.23;(0, 0);0;0;;;;;;;;;;;;;;0;0;0;0;0;0;0;0;0;();(-2000.0, -2000.0);
06:47:50:419;06:47:50:408;1448647440.29;(0, 0);0;0;;;;;;;;;;;;;;0;0;0;0;0;0;0;0;0;();(-2000.0, -2000.0);
06:47:50:436;06:47:50:408;1448647440.29;(0, 0);0;0;;;;;;;;;;;;;;0;0;0;0;0;0;0;0;0;();(-2000.0, -2000.0);
06:47:50:452;06:47:50:408;1448647440.29;(0, 0);0;0;;;;;;;;;;;;;;0;0;0;0;0;0;0;0;0;();(-2000.0, -2000.0);
06:47:50:486;06:47:50:476;1448647440.36;(0, 0);0;0;;;;;;;;;;;;;;0;0;0;0;0;0;0;0;0;();(-2000.0, -2000.0);
06:47:50:502;06:47:50:476;1448647440.36;(0, 0);0;0;;;;;;;;;;;;;;0;0;0;0;0;0;0;0;0;();(-2000.0, -2000.0);
06:47:50:518;06:47:50:476;1448647440.36;(0, 0);0;0;;;;;;;;;;;;;;0;0;0;0;0;0;0;0;0;();(-2000.0, -2000.0);
06:47:50:535;06:47:50:476;1448647440.36;(0, 0);0;0;;;;;;;;;;;;;;0;0;0;0;0;0;0;0;0;();(-2000.0, -2000.0);
06:47:50:552;06:47:50:544;1448647440.43;(0, 0);0;0;;;;;;;;;;;;;;0;0;0;0;0;0;0;0;0;();(-2000.0, -2000.0);
06:47:50:585;06:47:50:544;1448647440.43;(0, 0);0;0;;;;;;;;;;;;;;0;0;0;0;0;0;0;0;0;();(-2000.0, -2000.0);
06:47:50:601;06:47:50:544;1448647440.43;(0, 0);0;0;;;;;;;;;;;;;;0;0;0;0;0;0;0;0;0;();(-2000.0, -2000.0);
06:47:50:618;06:47:50:608;1448647440.49;(0, 0);0;0;;;;;;;;;;;;;;0;0;0;0;0;0;0;0;0;();(-2000.0, -2000.0);
06:47:50:635;06:47:50:608;1448647440.49;(0, 0);0;0;;;;;;;;;;;;;;0;0;0;0;0;0;0;0;0;();(-2000.0, -2000.0);
06:47:50:651;06:47:50:608;1448647440.49;(0, 0);0;0;;;;;;;;;;;;;;0;0;0;0;0;0;0;0;0;();(-2000.0, -2000.0);
06:47:50:685;06:47:50:679;1448647440.56;(0, 0);0;0;;;;;;;;;;;;;;0;0;0;0;0;0;0;0;0;();(-2000.0, -2000.0);
06:47:50:701;06:47:50:679;1448647440.56;(0, 0);0;0;;;;;;;;;;;;;;0;0;0;0;0;0;0;0;0;();(-2000.0, -2000.0);
06:47:50:718;06:47:50:679;1448647440.56;(0, 0);0;0;;;;;;;;;;;;;;0;0;0;0;0;0;0;0;0;();(-2000.0, -2000.0);
06:47:50:734;06:47:50:679;1448647440.56;(0, 0);0;0;;;;;;;;;;;;;;0;0;0;0;0;0;0;0;0;();(-2000.0, -2000.0);
06:47:50:751;06:47:50:739;1448647440.63;(0, 0);0;0;;;;;;;;;;;;;;0;0;0;0;0;0;0;0;0;();(-2000.0, -2000.0);
06:47:50:784;06:47:50:739;1448647440.63;(0, 0);0;0;;;;;;;;;;;;;;0;0;0;0;0;0;0;0;0;();(-2000.0, -2000.0);
06:47:50:799;06:47:50:739;1448647440.63;(0, 0);0;0;;;;;;;;;;;;;;0;0;0;0;0;0;0;0;0;();(-2000.0, -2000.0);
06:47:50:817;06:47:50:809;1448647440.69;(0, 0);0;0;;;;;;;;;;;;;;0;0;0;0;0;0;0;0;0;();(-2000.0, -2000.0);
06:47:50:833;06:47:50:809;1448647440.69;(0, 0);0;0;;;;;;;;;;;;;;0;0;0;0;0;0;0;0;0;();(-2000.0, -2000.0);
06:47:50:850;06:47:50:809;1448647440.69;(0, 0);0;0;;;;;;;;;;;;;;0;0;0;0;0;0;0;0;0;();(-2000.0, -2000.0);
06:47:50:883;06:47:50:876;1448647440.76;(0, 0);0;0;;;;;;;;;;;;;;0;0;0;0;0;0;0;0;0;();(-2000.0, -2000.0);
06:47:50:901;06:47:50:876;1448647440.76;(0, 0);0;0;;;;;;;;;;;;;;0;0;0;0;0;0;0;0;0;();(-2000.0, -2000.0);
06:47:50:916;06:47:50:876;1448647440.76;(0, 0);0;0;;;;;;;;;;;;;;0;0;0;0;0;0;0;0;0;();(-2000.0, -2000.0);
06:47:50:933;06:47:50:876;1448647440.76;(0, 0);0;0;;;;;;;;;;;;;;0;0;0;0;0;0;0;0;0;();(-2000.0, -2000.0);
06:47:50:966;06:47:50:939;1448647440.83;(0, 0);0;0;;;;;;;;;;;;;;0;0;0;0;0;0;0;0;0;();(-2000.0, -2000.0);
06:47:50:982;06:47:50:939;1448647440.83;(0, 0);0;0;;;;;;;;;;;;;;0;0;0;0;0;0;0;0;0;();(-2000.0, -2000.0);
06:47:50:998;06:47:50:939;1448647440.83;(0, 0);0;0;;;;;;;;;;;;;;0;0;0;0;0;0;0;0;0;();(-2000.0, -2000.0);
06:47:51:016;06:47:51:011;1448647440.89;(0, 0);0;0;;;;;;;;;;;;;;0;0;0;0;0;0;0;0;0;();(-2000.0, -2000.0);
06:47:51:032;06:47:51:011;1448647440.89;(0, 0);0;0;;;;;;;;;;;;;;0;0;0;0;0;0;0;0;0;();(-2000.0, -2000.0);
06:47:51:050;06:47:51:011;1448647440.89;(0, 0);0;0;;;;;;;;;;;;;;0;0;0;0;0;0;0;0;0;();(-2000.0, -2000.0);
06:47:51:083;06:47:51:071;1448647440.96;(0, 0);0;0;;;;;;;;;;;;;;0;0;0;0;0;0;0;0;0;();(-2000.0, -2000.0);
06:47:51:098;06:47:51:071;1448647440.96;(0, 0);0;0;;;;;;;;;;;;;;0;0;0;0;0;0;0;0;0;();(-2000.0, -2000.0);
06:47:51:116;06:47:51:071;1448647440.96;(0, 0);0;0;;;;;;;;;;;;;;0;0;0;0;0;0;0;0;0;();(-2000.0, -2000.0);
06:47:51:132;06:47:51:071;1448647440.96;(0, 0);0;0;;;;;;;;;;;;;;0;0;0;0;0;0;0;0;0;();(-2000.0, -2000.0);
06:47:51:165;06:47:51:139;1448647441.03;(0, 0);0;0;;;;;;;;;;;;;;0;0;0;0;0;0;0;0;0;();(-2000.0, -2000.0);
06:47:51:181;06:47:51:139;1448647441.03;(0, 0);0;0;;;;;;;;;;;;;;0;0;0;0;0;0;0;0;0;();(-2000.0, -2000.0);
06:47:51:197;06:47:51:139;1448647441.03;(0, 0);0;0;;;;;;;;;;;;;;0;0;0;0;0;0;0;0;0;();(-2000.0, -2000.0);
06:47:51:214;06:47:51:207;1448647441.09;(0, 0);0;0;;;;;;;;;;;;;;0;0;0;0;0;0;0;0;0;();(-2000.0, -2000.0);
06:47:51:231;06:47:51:207;1448647441.09;(0, 0);0;0;;;;;;;;;;;;;;0;0;0;0;0;0;0;0;0;();(-2000.0, -2000.0);
06:47:51:264;06:47:51:207;1448647441.09;(0, 0);0;0;;;;;;;;;;;;;;0;0;0;0;0;0;0;0;0;();(-2000.0, -2000.0);
06:47:51:280;06:47:51:273;1448647441.16;(0, 0);0;0;;;;;;;;;;;;;;0;0;0;0;0;0;0;0;0;();(-2000.0, -2000.0);
06:47:51:297;06:47:51:273;1448647441.16;(0, 0);0;0;;;;;;;;;;;;;;0;0;0;0;0;0;0;0;0;();(-2000.0, -2000.0);
06:47:51:313;06:47:51:273;1448647441.16;(0, 0);0;0;;;;;;;;;;;;;;0;0;0;0;0;0;0;0;0;();(-2000.0, -2000.0);
06:47:51:330;06:47:51:273;1448647441.16;(0, 0);0;0;;;;;;;;;;;;;;0;0;0;0;0;0;0;0;0;();(-2000.0, -2000.0);
06:47:51:363;06:47:51:344;1448647441.23;(0, 0);0;0;;;;;;;;;;;;;;0;0;0;0;0;0;0;0;0;();(-2000.0, -2000.0);
06:47:51:380;06:47:51:344;1448647441.23;(0, 0);0;0;;;;;;;;;;;;;;0;0;0;0;0;0;0;0;0;();(-2000.0, -2000.0);
06:47:51:396;06:47:51:344;1448647441.23;(0, 0);0;0;;;;;;;;;;;;;;0;0;0;0;0;0;0;0;0;();(-2000.0, -2000.0);
06:47:51:413;06:47:51:403;1448647441.29;(0, 0);0;0;;;;;;;;;;;;;;0;0;0;0;0;0;0;0;0;();(-2000.0, -2000.0);
06:47:51:430;06:47:51:403;1448647441.29;(0, 0);0;0;;;;;;;;;;;;;;0;0;0;0;0;0;0;0;0;();(-2000.0, -2000.0);
06:47:51:463;06:47:51:403;1448647441.29;(0, 0);0;0;;;;;;;;;;;;;;0;0;0;0;0;0;0;0;0;();(-2000.0, -2000.0);
06:47:51:479;06:47:51:472;1448647441.36;(0, 0);0;0;;;;;;;;;;;;;;0;0;0;0;0;0;0;0;0;();(-2000.0, -2000.0);
06:47:51:496;06:47:51:472;1448647441.36;(0, 0);0;0;;;;;;;;;;;;;;0;0;0;0;0;0;0;0;0;();(-2000.0, -2000.0);
06:47:51:513;06:47:51:472;1448647441.36;(0, 0);0;0;;;;;;;;;;;;;;0;0;0;0;0;0;0;0;0;();(-2000.0, -2000.0);
06:47:51:546;06:47:51:540;1448647441.43;(0, 0);0;0;;;;;;;;;;;;;;0;0;0;0;0;0;0;0;0;();(-2000.0, -2000.0);
06:47:51:562;06:47:51:540;1448647441.43;(0, 0);0;0;;;;;;;;;;;;;;0;0;0;0;0;0;0;0;0;();(-2000.0, -2000.0);
06:47:51:579;06:47:51:540;1448647441.43;(0, 0);0;0;;;;;;;;;;;;;;0;0;0;0;0;0;0;0;0;();(-2000.0, -2000.0);
06:47:51:596;06:47:51:540;1448647441.43;(0, 0);0;0;;;;;;;;;;;;;;0;0;0;0;0;0;0;0;0;();(-2000.0, -2000.0);
06:47:51:612;06:47:51:603;1448647441.49;(0, 0);0;0;;;;;;;;;;;;;;0;0;0;0;0;0;0;0;0;();(-2000.0, -2000.0);
06:47:51:645;06:47:51:603;1448647441.49;(0, 0);0;0;;;;;;;;;;;;;;0;0;0;0;0;0;0;0;0;();(-2000.0, -2000.0);
06:47:51:662;06:47:51:603;1448647441.49;(0, 0);0;0;;;;;;;;;;;;;;0;0;0;0;0;0;0;0;0;();(-2000.0, -2000.0);
06:47:51:678;06:47:51:671;1448647441.56;(0, 0);0;0;;;;;;;;;;;;;;0;0;0;0;0;0;0;0;0;();(-2000.0, -2000.0);
06:47:51:695;06:47:51:671;1448647441.56;(0, 0);0;0;;;;;;;;;;;;;;0;0;0;0;0;0;0;0;0;();(-2000.0, -2000.0);
06:47:51:711;06:47:51:671;1448647441.56;(0, 0);0;0;;;;;;;;;;;;;;0;0;0;0;0;0;0;0;0;();(-2000.0, -2000.0);
06:47:51:744;06:47:51:735;1448647441.63;(0, 0);0;0;;;;;;;;;;;;;;0;0;0;0;0;0;0;0;0;();(-2000.0, -2000.0);
06:47:51:761;06:47:51:735;1448647441.63;(0, 0);0;0;;;;;;;;;;;;;;0;0;0;0;0;0;0;0;0;();(-2000.0, -2000.0);
06:47:51:777;06:47:51:735;1448647441.63;(0, 0);0;0;;;;;;;;;;;;;;0;0;0;0;0;0;0;0;0;();(-2000.0, -2000.0);
06:47:51:794;06:47:51:735;1448647441.63;(0, 0);0;0;;;;;;;;;;;;;;0;0;0;0;0;0;0;0;0;();(-2000.0, -2000.0);
06:47:51:810;06:47:51:805;1448647441.69;(0, 0);0;0;;;;;;;;;;;;;;0;0;0;0;0;0;0;0;0;();(-2000.0, -2000.0);
06:47:51:843;06:47:51:805;1448647441.69;(0, 0);0;0;;;;;;;;;;;;;;0;0;0;0;0;0;0;0;0;();(-2000.0, -2000.0);
06:47:51:861;06:47:51:805;1448647441.69;(0, 0);0;0;;;;;;;;;;;;;;0;0;0;0;0;0;0;0;0;();(-2000.0, -2000.0);
06:47:51:876;06:47:51:872;1448647441.76;(0, 0);0;0;;;;;;;;;;;;;;0;0;0;0;0;0;0;0;0;();(-2000.0, -2000.0);
06:47:51:893;06:47:51:872;1448647441.76;(0, 0);0;0;;;;;;;;;;;;;;0;0;0;0;0;0;0;0;0;();(-2000.0, -2000.0);
06:47:51:910;06:47:51:872;1448647441.76;(0, 0);0;0;;;;;;;;;;;;;;0;0;0;0;0;0;0;0;0;();(-2000.0, -2000.0);
06:47:51:945;06:47:51:935;1448647441.83;(0, 0);0;0;;;;;;;;;;;;;;0;0;0;0;0;0;0;0;0;();(-2000.0, -2000.0);
06:47:51:960;06:47:51:935;1448647441.83;(0, 0);0;0;;;;;;;;;;;;;;0;0;0;0;0;0;0;0;0;();(-2000.0, -2000.0);
06:47:51:977;06:47:51:935;1448647441.83;(0, 0);0;0;;;;;;;;;;;;;;0;0;0;0;0;0;0;0;0;();(-2000.0, -2000.0);
06:47:51:993;06:47:51:935;1448647441.83;(0, 0);0;0;;;;;;;;;;;;;;0;0;0;0;0;0;0;0;0;();(-2000.0, -2000.0);
06:47:52:010;06:47:52:003;1448647441.89;(0, 0);0;0;;;;;;;;;;;;;;0;0;0;0;0;0;0;0;0;();(-2000.0, -2000.0);
06:47:52:043;06:47:52:003;1448647441.89;(0, 0);0;0;;;;;;;;;;;;;;0;0;0;0;0;0;0;0;0;();(-2000.0, -2000.0);
06:47:52:059;06:47:52:003;1448647441.89;(0, 0);0;0;;;;;;;;;;;;;;0;0;0;0;0;0;0;0;0;();(-2000.0, -2000.0);
06:47:52:075;06:47:52:067;1448647441.96;(0, 0);0;0;;;;;;;;;;;;;;0;0;0;0;0;0;0;0;0;();(-2000.0, -2000.0);
06:47:52:092;06:47:52:067;1448647441.96;(0, 0);0;0;;;;;;;;;;;;;;0;0;0;0;0;0;0;0;0;();(-2000.0, -2000.0);
06:47:52:125;06:47:52:067;1448647441.96;(0, 0);0;0;;;;;;;;;;;;;;0;0;0;0;0;0;0;0;0;();(-2000.0, -2000.0);
06:47:52:142;06:47:52:141;1448647442.03;(0, 0);0;0;;;;;;;;;;;;;;0;0;0;0;0;0;0;0;0;();(-2000.0, -2000.0);
06:47:52:160;06:47:52:141;1448647442.03;(0, 0);0;0;;;;;;;;;;;;;;0;0;0;0;0;0;0;0;0;();(-2000.0, -2000.0);
06:47:52:176;06:47:52:141;1448647442.03;(0, 0);0;0;;;;;;;;;;;;;;0;0;0;0;0;0;0;0;0;();(-2000.0, -2000.0);
06:47:52:192;06:47:52:141;1448647442.03;(0, 0);0;0;;;;;;;;;;;;;;0;0;0;0;0;0;0;0;0;();(-2000.0, -2000.0);
06:47:52:226;06:47:52:203;1448647442.09;(0.8370141983032227, 0.6583843231201172);23.0994739532;0.622008500661;;;;;;;;;;;;;;0;0;0;0;0;0;0;0;0;();(-2000.0, -2000.0);
06:47:52:242;06:47:52:203;1448647442.09;(0.8370141983032227, 0.6583843231201172);23.0994739532;0.622008500661;;;;;;;;;;;;;;0;0;0;0;0;0;0;0;0;();(-2000.0, -2000.0);
06:47:52:258;06:47:52:203;1448647442.09;(0.8370141983032227, 0.6583843231201172);23.0994739532;0.622008500661;;;;;;;;;;;;;;0;0;0;0;0;0;0;0;0;();(-2000.0, -2000.0);
06:47:52:275;06:47:52:270;1448647442.16;(0, 0);0;0;;;;;;;;;;;;;;0;0;0;0;0;0;0;0;0;();(-2000.0, -2000.0);
06:47:52:291;06:47:52:270;1448647442.16;(0, 0);0;0;;;;;;;;;;;;;;0;0;0;0;0;0;0;0;0;();(-2000.0, -2000.0);
06:47:52:324;06:47:52:270;1448647442.16;(0, 0);0;0;;;;;;;;;;;;;;0;0;0;0;0;0;0;0;0;();(-2000.0, -2000.0);
06:47:52:341;06:47:52:335;1448647442.23;(0, 0);0;0;;;;;;;;;;;;;;0;0;0;0;0;0;0;0;0;();(-2000.0, -2000.0);
06:47:52:358;06:47:52:335;1448647442.23;(0, 0);0;0;;;;;;;;;;;;;;0;0;0;0;0;0;0;0;0;();(-2000.0, -2000.0);
06:47:52:375;06:47:52:335;1448647442.23;(0, 0);0;0;;;;;;;;;;;;;;0;0;0;0;0;0;0;0;0;();(-2000.0, -2000.0);
06:47:52:391;06:47:52:335;1448647442.23;(0, 0);0;0;;;;;;;;;;;;;;0;0;0;0;0;0;0;0;0;();(-2000.0, -2000.0);
06:47:52:424;06:47:52:400;1448647442.29;(0, 0);0;0;;;;;;;;;;;;;;0;0;0;0;0;0;0;0;0;();(-2000.0, -2000.0);
06:47:52:440;06:47:52:400;1448647442.29;(0, 0);0;0;;;;;;;;;;;;;;0;0;0;0;0;0;0;0;0;();(-2000.0, -2000.0);
06:47:52:458;06:47:52:400;1448647442.29;(0, 0);0;0;;;;;;;;;;;;;;0;0;0;0;0;0;0;0;0;();(-2000.0, -2000.0);
06:47:52:474;06:47:52:467;1448647442.36;(0, 0);0;0;;;;;;;;;;;;;;0;0;0;0;0;0;0;0;0;();(-2000.0, -2000.0);
06:47:52:491;06:47:52:467;1448647442.36;(0, 0);0;0;;;;;;;;;;;;;;0;0;0;0;0;0;0;0;0;();(-2000.0, -2000.0);
06:47:52:523;06:47:52:467;1448647442.36;(0, 0);0;0;;;;;;;;;;;;;;0;0;0;0;0;0;0;0;0;();(-2000.0, -2000.0);
06:47:52:541;06:47:52:535;1448647442.43;(0, 0);0;0;;;;;;;;;;;;;;0;0;0;0;0;0;0;0;0;();(-2000.0, -2000.0);
06:47:52:557;06:47:52:535;1448647442.43;(0, 0);0;0;;;;;;;;;;;;;;0;0;0;0;0;0;0;0;0;();(-2000.0, -2000.0);
06:47:52:573;06:47:52:535;1448647442.43;(0, 0);0;0;;;;;;;;;;;;;;0;0;0;0;0;0;0;0;0;();(-2000.0, -2000.0);
06:47:52:589;06:47:52:535;1448647442.43;(0, 0);0;0;;;;;;;;;;;;;;0;0;0;0;0;0;0;0;0;();(-2000.0, -2000.0);
06:47:52:622;06:47:52:599;1448647442.49;(0, 0);0;0;;;;;;;;;;;;;;0;0;0;0;0;0;0;0;0;();(-2000.0, -2000.0);
06:47:52:639;06:47:52:599;1448647442.49;(0, 0);0;0;;;;;;;;;;;;;;0;0;0;0;0;0;0;0;0;();(-2000.0, -2000.0);
06:47:52:656;06:47:52:599;1448647442.49;(0, 0);0;0;;;;;;;;;;;;;;0;0;0;0;0;0;0;0;0;();(-2000.0, -2000.0);
06:47:52:672;06:47:52:668;1448647442.56;(0, 0);0;0;;;;;;;;;;;;;;0;0;0;0;0;0;0;0;0;();(-2000.0, -2000.0);
06:47:52:705;06:47:52:668;1448647442.56;(0, 0);0;0;;;;;;;;;;;;;;0;0;0;0;0;0;0;0;0;();(-2000.0, -2000.0);
06:47:52:722;06:47:52:668;1448647442.56;(0, 0);0;0;;;;;;;;;;;;;;0;0;0;0;0;0;0;0;0;();(-2000.0, -2000.0);
06:47:52:738;06:47:52:731;1448647442.63;(0, 0);0;0;;;;;;;;;;;;;;0;0;0;0;0;0;0;0;0;();(-2000.0, -2000.0);
06:47:52:755;06:47:52:731;1448647442.63;(0, 0);0;0;;;;;;;;;;;;;;0;0;0;0;0;0;0;0;0;();(-2000.0, -2000.0);
06:47:52:772;06:47:52:731;1448647442.63;(0, 0);0;0;;;;;;;;;;;;;;0;0;0;0;0;0;0;0;0;();(-2000.0, -2000.0);
06:47:52:804;06:47:52:800;1448647442.69;(0, 0);0;0;;;;;;;;;;;;;;0;0;0;0;0;0;0;0;0;();(-2000.0, -2000.0);
06:47:52:822;06:47:52:800;1448647442.69;(0, 0);0;0;;;;;;;;;;;;;;0;0;0;0;0;0;0;0;0;();(-2000.0, -2000.0);
06:47:52:838;06:47:52:800;1448647442.69;(0, 0);0;0;;;;;;;;;;;;;;0;0;0;0;0;0;0;0;0;();(-2000.0, -2000.0);
06:47:52:854;06:47:52:800;1448647442.69;(0, 0);0;0;;;;;;;;;;;;;;0;0;0;0;0;0;0;0;0;();(-2000.0, -2000.0);
06:47:52:872;06:47:52:867;1448647442.76;(0, 0);0;0;;;;;;;;;;;;;;0;0;0;0;0;0;0;0;0;();(-2000.0, -2000.0);
06:47:52:904;06:47:52:867;1448647442.76;(0, 0);0;0;;;;;;;;;;;;;;0;0;0;0;0;0;0;0;0;();(-2000.0, -2000.0);
06:47:52:921;06:47:52:867;1448647442.76;(0, 0);0;0;;;;;;;;;;;;;;0;0;0;0;0;0;0;0;0;();(-2000.0, -2000.0);
06:47:52:937;06:47:52:931;1448647442.83;(0, 0);0;0;;;;;;;;;;;;;;0;0;0;0;0;0;0;0;0;();(-2000.0, -2000.0);
06:47:52:955;06:47:52:931;1448647442.83;(0, 0);0;0;;;;;;;;;;;;;;0;0;0;0;0;0;0;0;0;();(-2000.0, -2000.0);
06:47:52:970;06:47:52:931;1448647442.83;(0, 0);0;0;;;;;;;;;;;;;;0;0;0;0;0;0;0;0;0;();(-2000.0, -2000.0);
06:47:53:004;06:47:52:999;1448647442.89;(0, 0);0;0;;;;;;;;;;;;;;0;0;0;0;0;0;0;0;0;();(-2000.0, -2000.0);
06:47:53:021;06:47:52:999;1448647442.89;(0, 0);0;0;;;;;;;;;;;;;;0;0;0;0;0;0;0;0;0;();(-2000.0, -2000.0);
06:47:53:037;06:47:52:999;1448647442.89;(0, 0);0;0;;;;;;;;;;;;;;0;0;0;0;0;0;0;0;0;();(-2000.0, -2000.0);
06:47:53:054;06:47:52:999;1448647442.89;(0, 0);0;0;;;;;;;;;;;;;;0;0;0;0;0;0;0;0;0;();(-2000.0, -2000.0);
06:47:53:070;06:47:53:063;1448647442.96;(0, 0);0;0;;;;;;;;;;;;;;0;0;0;0;0;0;0;0;0;();(-2000.0, -2000.0);
06:47:53:103;06:47:53:063;1448647442.96;(0, 0);0;0;;;;;;;;;;;;;;0;0;0;0;0;0;0;0;0;();(-2000.0, -2000.0);
06:47:53:120;06:47:53:063;1448647442.96;(0, 0);0;0;;;;;;;;;;;;;;0;0;0;0;0;0;0;0;0;();(-2000.0, -2000.0);
06:47:53:136;06:47:53:063;1448647442.96;(0, 0);0;0;;;;;;;;;;;;;;0;0;0;0;0;0;0;0;0;();(-2000.0, -2000.0);
06:47:53:153;06:47:53:140;1448647442.99;(0, 0);0;0;;;;;;;;;;;;;;0;0;0;0;0;0;0;0;0;();(-2000.0, -2000.0);
06:47:53:185;06:47:53:140;1448647442.99;(0, 0);0;0;;;;;;;;;;;;;;0;0;0;0;0;0;0;0;0;();(-2000.0, -2000.0);
06:47:53:203;06:47:53:195;1448647443.09;(0, 0);0;0;;;;;;;;;;;;;;0;0;0;0;0;0;0;0;0;();(-2000.0, -2000.0);
06:47:53:219;06:47:53:195;1448647443.09;(0, 0);0;0;;;;;;;;;;;;;;0;0;0;0;0;0;0;0;0;();(-2000.0, -2000.0);
06:47:53:235;06:47:53:195;1448647443.09;(0, 0);0;0;;;;;;;;;;;;;;0;0;0;0;0;0;0;0;0;();(-2000.0, -2000.0);
06:47:53:252;06:47:53:195;1448647443.09;(0, 0);0;0;;;;;;;;;;;;;;0;0;0;0;0;0;0;0;0;();(-2000.0, -2000.0);
06:47:53:285;06:47:53:263;1448647443.13;(0, 0);0;0;;;;;;;;;;;;;;0;0;0;0;0;0;0;0;0;();(-2000.0, -2000.0);
06:47:53:301;06:47:53:263;1448647443.13;(0, 0);0;0;;;;;;;;;;;;;;0;0;0;0;0;0;0;0;0;();(-2000.0, -2000.0);
06:47:53:318;06:47:53:263;1448647443.13;(0, 0);0;0;;;;;;;;;;;;;;0;0;0;0;0;0;0;0;0;();(-2000.0, -2000.0);
06:47:53:335;06:47:53:331;1448647443.23;(0, 0);0;0;;;;;;;;;;;;;;0;0;0;0;0;0;0;0;0;();(-2000.0, -2000.0);
06:47:53:351;06:47:53:331;1448647443.23;(0, 0);0;0;;;;;;;;;;;;;;0;0;0;0;0;0;0;0;0;();(-2000.0, -2000.0);
06:47:53:385;06:47:53:331;1448647443.23;(0, 0);0;0;;;;;;;;;;;;;;0;0;0;0;0;0;0;0;0;();(-2000.0, -2000.0);
06:47:53:401;06:47:53:395;1448647443.26;(0, 0);0;0;;;;;;;;;;;;;;0;0;0;0;0;0;0;0;0;();(-2000.0, -2000.0);
06:47:53:417;06:47:53:395;1448647443.26;(0, 0);0;0;;;;;;;;;;;;;;0;0;0;0;0;0;0;0;0;();(-2000.0, -2000.0);
06:47:53:434;06:47:53:395;1448647443.26;(0, 0);0;0;;;;;;;;;;;;;;0;0;0;0;0;0;0;0;0;();(-2000.0, -2000.0);
06:47:53:451;06:47:53:395;1448647443.26;(0, 0);0;0;;;;;;;;;;;;;;0;0;0;0;0;0;0;0;0;();(-2000.0, -2000.0);
06:47:53:484;06:47:53:463;1448647443.36;(0, 0);0;0;;;;;;;;;;;;;;0;0;0;0;0;0;0;0;0;();(-2000.0, -2000.0);
06:47:53:501;06:47:53:463;1448647443.36;(0, 0);0;0;;;;;;;;;;;;;;0;0;0;0;0;0;0;0;0;();(-2000.0, -2000.0);
06:47:53:517;06:47:53:463;1448647443.36;(0, 0);0;0;;;;;;;;;;;;;;0;0;0;0;0;0;0;0;0;();(-2000.0, -2000.0);
06:47:53:535;06:47:53:528;1448647443.39;(0, 0);0;0;;;;;;;;;;;;;;0;0;0;0;0;0;0;0;0;();(-2000.0, -2000.0);
06:47:53:550;06:47:53:528;1448647443.39;(0, 0);0;0;;;;;;;;;;;;;;0;0;0;0;0;0;0;0;0;();(-2000.0, -2000.0);
06:47:53:583;06:47:53:528;1448647443.39;(0, 0);0;0;;;;;;;;;;;;;;0;0;0;0;0;0;0;0;0;();(-2000.0, -2000.0);
06:47:53:601;06:47:53:595;1448647443.49;(0, 0);0;0;;;;;;;;;;;;;;0;0;0;0;0;0;0;0;0;();(-2000.0, -2000.0);
06:47:53:617;06:47:53:595;1448647443.49;(0, 0);0;0;;;;;;;;;;;;;;0;0;0;0;0;0;0;0;0;();(-2000.0, -2000.0);
06:47:53:632;06:47:53:595;1448647443.49;(0, 0);0;0;;;;;;;;;;;;;;0;0;0;0;0;0;0;0;0;();(-2000.0, -2000.0);
06:47:53:650;06:47:53:595;1448647443.49;(0, 0);0;0;;;;;;;;;;;;;;0;0;0;0;0;0;0;0;0;();(-2000.0, -2000.0);
06:47:53:683;06:47:53:663;1448647443.56;(0, 0);0;0;;;;;;;;;;;;;;0;0;0;0;0;0;0;0;0;();(-2000.0, -2000.0);
06:47:53:700;06:47:53:663;1448647443.56;(0, 0);0;0;;;;;;;;;;;;;;0;0;0;0;0;0;0;0;0;();(-2000.0, -2000.0);
06:47:53:716;06:47:53:663;1448647443.56;(0, 0);0;0;;;;;;;;;;;;;;0;0;0;0;0;0;0;0;0;();(-2000.0, -2000.0);
06:47:53:733;06:47:53:728;1448647443.59;(0, 0);0;0;;;;;;;;;;;;;;0;0;0;0;0;0;0;0;0;();(-2000.0, -2000.0);
06:47:53:766;06:47:53:728;1448647443.59;(0, 0);0;0;;;;;;;;;;;;;;0;0;0;0;0;0;0;0;0;();(-2000.0, -2000.0);
06:47:53:783;06:47:53:728;1448647443.59;(0, 0);0;0;;;;;;;;;;;;;;0;0;0;0;0;0;0;0;0;();(-2000.0, -2000.0);
06:47:53:798;06:47:53:796;1448647443.69;(0, 0);0;0;;;;;;;;;;;;;;0;0;0;0;0;0;0;0;0;();(-2000.0, -2000.0);
06:47:53:816;06:47:53:796;1448647443.69;(0, 0);0;0;;;;;;;;;;;;;;0;0;0;0;0;0;0;0;0;();(-2000.0, -2000.0);
06:47:53:832;06:47:53:796;1448647443.69;(0, 0);0;0;;;;;;;;;;;;;;0;0;0;0;0;0;0;0;0;();(-2000.0, -2000.0);
06:47:53:864;06:47:53:860;1448647443.73;(0, 0);0;0;;;;;;;;;;;;;;0;0;0;0;0;0;0;0;0;();(-2000.0, -2000.0);
06:47:53:882;06:47:53:860;1448647443.73;(0, 0);0;0;;;;;;;;;;;;;;0;0;0;0;0;0;0;0;0;();(-2000.0, -2000.0);
06:47:53:899;06:47:53:860;1448647443.73;(0, 0);0;0;;;;;;;;;;;;;;0;0;0;0;0;0;0;0;0;();(-2000.0, -2000.0);
06:47:53:915;06:47:53:860;1448647443.73;(0, 0);0;0;;;;;;;;;;;;;;0;0;0;0;0;0;0;0;0;();(-2000.0, -2000.0);
06:47:53:932;06:47:53:932;1448647443.83;(0, 0);0;0;;;;;;;;;;;;;;0;0;0;0;0;0;0;0;0;();(-2000.0, -2000.0);
06:47:53:964;06:47:53:932;1448647443.83;(0, 0);0;0;;;;;;;;;;;;;;0;0;0;0;0;0;0;0;0;();(-2000.0, -2000.0);
06:47:53:981;06:47:53:932;1448647443.83;(0, 0);0;0;;;;;;;;;;;;;;0;0;0;0;0;0;0;0;0;();(-2000.0, -2000.0);
06:47:53:998;06:47:53:995;1448647443.86;(0, 0);0;0;;;;;;;;;;;;;;0;0;0;0;0;0;0;0;0;();(-2000.0, -2000.0);
06:47:54:014;06:47:53:995;1448647443.86;(0, 0);0;0;;;;;;;;;;;;;;0;0;0;0;0;0;0;0;0;();(-2000.0, -2000.0);
06:47:54:031;06:47:53:995;1448647443.86;(0, 0);0;0;;;;;;;;;;;;;;0;0;0;0;0;0;0;0;0;();(-2000.0, -2000.0);
06:47:54:064;06:47:54:059;1448647443.96;(0, 0);0;0;;;;;;;;;;;;;;0;0;0;0;0;0;0;0;0;();(-2000.0, -2000.0);
06:47:54:080;06:47:54:059;1448647443.96;(0, 0);0;0;;;;;;;;;;;;;;0;0;0;0;0;0;0;0;0;();(-2000.0, -2000.0);
06:47:54:097;06:47:54:059;1448647443.96;(0, 0);0;0;;;;;;;;;;;;;;0;0;0;0;0;0;0;0;0;();(-2000.0, -2000.0);
06:47:54:114;06:47:54:059;1448647443.96;(0, 0);0;0;;;;;;;;;;;;;;0;0;0;0;0;0;0;0;0;();(-2000.0, -2000.0);
06:47:54:131;06:47:54:127;1448647443.99;(0, 0);0;0;;;;;;;;;;;;;;0;0;0;0;0;0;0;0;0;();(-2000.0, -2000.0);
06:47:54:163;06:47:54:127;1448647443.99;(0, 0);0;0;;;;;;;;;;;;;;0;0;0;0;0;0;0;0;0;();(-2000.0, -2000.0);
06:47:54:180;06:47:54:127;1448647443.99;(0, 0);0;0;;;;;;;;;;;;;;0;0;0;0;0;0;0;0;0;();(-2000.0, -2000.0);
06:47:54:197;06:47:54:192;1448647444.09;(0, 0);0;0;;;;;;;;;;;;;;0;0;0;0;0;0;0;0;0;();(-2000.0, -2000.0);
06:47:54:213;06:47:54:192;1448647444.09;(0, 0);0;0;;;;;;;;;;;;;;0;0;0;0;0;0;0;0;0;();(-2000.0, -2000.0);
06:47:54:229;06:47:54:192;1448647444.09;(0, 0);0;0;;;;;;;;;;;;;;0;0;0;0;0;0;0;0;0;();(-2000.0, -2000.0);
06:47:54:263;06:47:54:192;1448647444.09;(0, 0);0;0;;;;;;;;;;;;;;0;0;0;0;0;0;0;0;0;();(-2000.0, -2000.0);
06:47:54:279;06:47:54:265;1448647444.13;(0, 0);0;0;;;;;;;;;;;;;;0;0;0;0;0;0;0;0;0;();(-2000.0, -2000.0);
06:47:54:296;06:47:54:265;1448647444.13;(0, 0);0;0;;;;;;;;;;;;;;0;0;0;0;0;0;0;0;0;();(-2000.0, -2000.0);
06:47:54:312;06:47:54:265;1448647444.13;(0, 0);0;0;;;;;;;;;;;;;;0;0;0;0;0;0;0;0;0;();(-2000.0, -2000.0);
06:47:54:345;06:47:54:331;1448647444.19;(0, 0);0;0;;;;;;;;;;;;;;0;0;0;0;0;0;0;0;0;();(-2000.0, -2000.0);
06:47:54:362;06:47:54:331;1448647444.19;(0, 0);0;0;;;;;;;;;;;;;;0;0;0;0;0;0;0;0;0;();(-2000.0, -2000.0);
06:47:54:379;06:47:54:331;1448647444.19;(0, 0);0;0;;;;;;;;;;;;;;0;0;0;0;0;0;0;0;0;();(-2000.0, -2000.0);
06:47:54:395;06:47:54:391;1448647444.26;(0, 0);0;0;;;;;;;;;;;;;;0;0;0;0;0;0;0;0;0;();(-2000.0, -2000.0);
06:47:54:412;06:47:54:391;1448647444.26;(0, 0);0;0;;;;;;;;;;;;;;0;0;0;0;0;0;0;0;0;();(-2000.0, -2000.0);
06:47:54:445;06:47:54:391;1448647444.26;(0, 0);0;0;;;;;;;;;;;;;;0;0;0;0;0;0;0;0;0;();(-2000.0, -2000.0);
06:47:54:462;06:47:54:460;1448647444.33;(0, 0);0;0;;;;;;;;;;;;;;0;0;0;0;0;0;0;0;0;();(-2000.0, -2000.0);
06:47:54:478;06:47:54:460;1448647444.33;(0, 0);0;0;;;;;;;;;;;;;;0;0;0;0;0;0;0;0;0;();(-2000.0, -2000.0);
06:47:54:494;06:47:54:460;1448647444.33;(0, 0);0;0;;;;;;;;;;;;;;0;0;0;0;0;0;0;0;0;();(-2000.0, -2000.0);
06:47:54:511;06:47:54:460;1448647444.33;(0, 0);0;0;;;;;;;;;;;;;;0;0;0;0;0;0;0;0;0;();(-2000.0, -2000.0);
06:47:54:544;06:47:54:523;1448647444.39;(0, 0);0;0;;;;;;;;;;;;;;0;0;0;0;0;0;0;0;0;();(-2000.0, -2000.0);
06:47:54:561;06:47:54:523;1448647444.39;(0, 0);0;0;;;;;;;;;;;;;;0;0;0;0;0;0;0;0;0;();(-2000.0, -2000.0);
06:47:54:577;06:47:54:523;1448647444.39;(0, 0);0;0;;;;;;;;;;;;;;0;0;0;0;0;0;0;0;0;();(-2000.0, -2000.0);
06:47:54:594;06:47:54:593;1448647444.43;(0, 0);0;0;;;;;;;;;;;;;;0;0;0;0;0;0;0;0;0;();(-2000.0, -2000.0);
06:47:54:610;06:47:54:597;1448647444.46;(0, 0);0;0;;;;;;;;;;;;;;0;0;0;0;0;0;0;0;0;();(-2000.0, -2000.0);
06:47:54:644;06:47:54:597;1448647444.46;(0, 0);0;0;;;;;;;;;;;;;;0;0;0;0;0;0;0;0;0;();(-2000.0, -2000.0);
06:47:54:661;06:47:54:659;1448647444.56;(0, 0);0;0;;;;;;;;;;;;;;0;0;0;0;0;0;0;0;0;();(-2000.0, -2000.0);
06:47:54:676;06:47:54:659;1448647444.56;(0, 0);0;0;;;;;;;;;;;;;;0;0;0;0;0;0;0;0;0;();(-2000.0, -2000.0);
06:47:54:694;06:47:54:659;1448647444.56;(0, 0);0;0;;;;;;;;;;;;;;0;0;0;0;0;0;0;0;0;();(-2000.0, -2000.0);
06:47:54:710;06:47:54:659;1448647444.56;(0, 0);0;0;;;;;;;;;;;;;;0;0;0;0;0;0;0;0;0;();(-2000.0, -2000.0);
06:47:54:743;06:47:54:723;1448647444.59;(0, 0);0;0;;;;;;;;;;;;;;0;0;0;0;0;0;0;0;0;();(-2000.0, -2000.0);
06:47:54:760;06:47:54:723;1448647444.59;(0, 0);0;0;;;;;;;;;;;;;;0;0;0;0;0;0;0;0;0;();(-2000.0, -2000.0);
06:47:54:776;06:47:54:723;1448647444.59;(0, 0);0;0;;;;;;;;;;;;;;0;0;0;0;0;0;0;0;0;();(-2000.0, -2000.0);
06:47:54:799;06:47:54:791;1448647444.69;(0, 0);0;0;;;;;;;;;;;;;;2;15,30;0;0;0;0;0;0;0;();(-2000.0, -2000.0);
06:47:54:809;06:47:54:791;1448647444.69;(0, 0);0;0;;;;;;;;;;;;;;2;15,30;0;0;0;0;0;0;0;();(-2000.0, -2000.0);
06:47:54:843;06:47:54:791;1448647444.69;(0, 0);0;0;;;;;;;;;;;;;;2;15,30;0;0;0;0;0;0;0;();(-2000.0, -2000.0);
06:47:54:859;06:47:54:855;1448647444.76;(0, 0);0;0;;;;;;;;;;;;;;2;15,30;0;0;0;0;0;0;0;();(-2000.0, -2000.0);
06:47:54:877;06:47:54:855;1448647444.76;(0, 0);0;0;;;;;;;;;;;;;;2;15,30;0;0;0;0;0;0;0;();(-2000.0, -2000.0);
06:47:54:893;06:47:54:855;1448647444.76;(0, 0);0;0;;;;;;;;;;;;;;2;15,30;0;0;0;0;0;0;0;();(-2000.0, -2000.0);
06:47:54:925;06:47:54:923;1448647444.83;(0, 0);0;0;;;;;;;;;;;;;;2;15,30;0;0;0;0;0;0;0;();(-2000.0, -2000.0);
06:47:54:942;06:47:54:923;1448647444.83;(0, 0);0;0;;;;;;;;;;;;;;2;15,30;0;0;0;0;0;0;0;();(-2000.0, -2000.0);
06:47:54:958;06:47:54:923;1448647444.83;(0, 0);0;0;;;;;;;;;;;;;;2;15,30;0;0;0;0;0;0;0;();(-2000.0, -2000.0);
06:47:54:974;06:47:54:923;1448647444.83;(0, 0);0;0;;;;;;;;;;;;;;2;15,30;0;0;0;0;0;0;0;();(-2000.0, -2000.0);
06:47:54:992;06:47:54:991;1448647444.89;(0, 0);0;0;;;;;;;;;;;;;;2;15,30;0;0;0;0;0;0;0;();(-2000.0, -2000.0);
06:47:55:024;06:47:54:991;1448647444.89;(0, 0);0;0;;;;;;;;;;;;;;2;15,30;0;0;0;0;0;0;0;();(-2000.0, -2000.0);
06:47:55:041;06:47:54:991;1448647444.89;(0, 0);0;0;;;;;;;;;;;;;;2;15,30;0;0;0;0;0;0;0;();(-2000.0, -2000.0);
06:47:55:057;06:47:55:055;1448647444.96;(0, 0);0;0;;;;;;;;;;;;;;2;15,30;0;0;0;0;0;0;0;();(-2000.0, -2000.0);
06:47:55:075;06:47:55:055;1448647444.96;(0, 0);0;0;;;;;;;;;;;;;;2;15,30;0;0;0;0;0;0;0;();(-2000.0, -2000.0);
06:47:55:090;06:47:55:055;1448647444.96;(0, 0);0;0;;;;;;;;;;;;;;2;15,30;0;0;0;0;0;0;0;();(-2000.0, -2000.0);
06:47:55:124;06:47:55:123;1448647445.03;(0, 0);0;0;;;;;;;;;;;;;;2;15,30;0;0;0;0;0;0;0;();(-2000.0, -2000.0);
06:47:55:140;06:47:55:123;1448647445.03;(0, 0);0;0;;;;;;;;;;;;;;2;15,30;0;0;0;0;0;0;0;();(-2000.0, -2000.0);
06:47:55:157;06:47:55:123;1448647445.03;(0, 0);0;0;;;;;;;;;;;;;;2;15,30;0;0;0;0;0;0;0;();(-2000.0, -2000.0);
06:47:55:174;06:47:55:123;1448647445.03;(0, 0);0;0;;;;;;;;;;;;;;2;15,30;0;0;0;0;0;0;0;();(-2000.0, -2000.0);
06:47:55:191;06:47:55:187;1448647445.06;(0, 0);0;0;;;;;;;;;;;;;;2;15,30;0;0;0;0;0;0;0;();(-2000.0, -2000.0);
06:47:55:224;06:47:55:187;1448647445.06;(0, 0);0;0;;;;;;;;;;;;;;2;15,30;0;0;0;0;0;0;0;();(-2000.0, -2000.0);
06:47:55:240;06:47:55:187;1448647445.06;(0, 0);0;0;;;;;;;;;;;;;;2;15,30;0;0;0;0;0;0;0;();(-2000.0, -2000.0);
06:47:55:256;06:47:55:255;1448647445.13;(0, 0);0;0;;;;;;;;;;;;;;2;15,30;0;0;0;0;0;0;0;();(-2000.0, -2000.0);
06:47:55:273;06:47:55:258;1448647445.16;(0, 0);0;0;;;;;;;;;;;;;;2;15,30;0;0;0;0;0;0;0;();(-2000.0, -2000.0);
06:47:55:290;06:47:55:258;1448647445.16;(0, 0);0;0;;;;;;;;;;;;;;2;15,30;0;0;0;0;0;0;0;();(-2000.0, -2000.0);
06:47:55:322;06:47:55:258;1448647445.16;(0, 0);0;0;;;;;;;;;;;;;;2;15,30;0;0;0;0;0;0;0;();(-2000.0, -2000.0);
06:47:55:339;06:47:55:326;1448647445.19;(0, 0);0;0;;;;;;;;;;;;;;2;15,30;0;0;0;0;0;0;0;();(-2000.0, -2000.0);
06:47:55:355;06:47:55:326;1448647445.19;(0, 0);0;0;;;;;;;;;;;;;;2;15,30;0;0;0;0;0;0;0;();(-2000.0, -2000.0);
06:47:55:372;06:47:55:326;1448647445.19;(0, 0);0;0;;;;;;;;;;;;;;2;15,30;0;0;0;0;0;0;0;();(-2000.0, -2000.0);
06:47:55:406;06:47:55:389;1448647445.26;(0.8405316352844239, 0.6573796802096896);22.6878318787;0.717595667255;;;;;;;;;;;;;;2;15,30;0;0;0;0;0;0;0;();(-2000.0, -2000.0);
06:47:55:422;06:47:55:389;1448647445.26;(0.8405316352844239, 0.6573796802096896);22.6878318787;0.717595667255;;;;;;;;;;;;;;2;15,30;0;0;0;0;0;0;0;();(-2000.0, -2000.0);
06:47:55:439;06:47:55:389;1448647445.26;(0.8405316352844239, 0.6573796802096896);22.6878318787;0.717595667255;;;;;;;;;;;;;;2;15,30;0;0;0;0;0;0;0;();(-2000.0, -2000.0);
06:47:55:455;06:47:55:389;1448647445.26;(0.8405316352844239, 0.6573796802096896);22.6878318787;0.717595667255;;;;;;;;;;;;;;2;15,30;0;0;0;0;0;0;0;();(-2000.0, -2000.0);
06:47:55:472;06:47:55:460;1448647445.33;(0, 0);0;0;;;;;;;;;;;;;;2;15,30;0;0;0;0;0;0;0;();(-2000.0, -2000.0);
06:47:55:505;06:47:55:460;1448647445.33;(0, 0);0;0;;;;;;;;;;;;;;2;15,30;0;0;0;0;0;0;0;();(-2000.0, -2000.0);
06:47:55:522;06:47:55:520;1448647445.39;(0, 0);0;0;;;;;;;;;;;;;;2;15,30;0;0;0;0;0;0;0;();(-2000.0, -2000.0);
06:47:55:538;06:47:55:520;1448647445.39;(0, 0);0;0;;;;;;;;;;;;;;2;15,30;0;0;0;0;0;0;0;();(-2000.0, -2000.0);
06:47:55:555;06:47:55:520;1448647445.39;(0, 0);0;0;;;;;;;;;;;;;;2;15,30;0;0;0;0;0;0;0;();(-2000.0, -2000.0);
06:47:55:571;06:47:55:520;1448647445.39;(0, 0);0;0;;;;;;;;;;;;;;2;15,30;0;0;0;0;0;0;0;();(-2000.0, -2000.0);
06:47:55:604;06:47:55:588;1448647445.49;(0, 0);0;0;;;;;;;;;;;;;;2;15,30;0;0;0;0;0;0;0;();(-2000.0, -2000.0);
06:47:55:621;06:47:55:588;1448647445.49;(0, 0);0;0;;;;;;;;;;;;;;2;15,30;0;0;0;0;0;0;0;();(-2000.0, -2000.0);
06:47:55:637;06:47:55:588;1448647445.49;(0, 0);0;0;;;;;;;;;;;;;;2;15,30;0;0;0;0;0;0;0;();(-2000.0, -2000.0);
06:47:55:654;06:47:55:588;1448647445.49;(0, 0);0;0;;;;;;;;;;;;;;2;15,30;0;0;0;0;0;0;0;();(-2000.0, -2000.0);
06:47:55:670;06:47:55:659;1448647445.56;(0, 0);0;0;;;;;;;;;;;;;;2;15,30;0;0;0;0;0;0;0;();(-2000.0, -2000.0);
06:47:55:704;06:47:55:659;1448647445.56;(0, 0);0;0;;;;;;;;;;;;;;2;15,30;0;0;0;0;0;0;0;();(-2000.0, -2000.0);
06:47:55:720;06:47:55:659;1448647445.56;(0, 0);0;0;;;;;;;;;;;;;;2;15,30;0;0;0;0;0;0;0;();(-2000.0, -2000.0);
06:47:55:737;06:47:55:723;1448647445.59;(0, 0);0;0;;;;;;;;;;;;;;2;15,30;0;0;0;0;0;0;0;();(-2000.0, -2000.0);
06:47:55:754;06:47:55:723;1448647445.59;(0, 0);0;0;;;;;;;;;;;;;;2;15,30;0;0;0;0;0;0;0;();(-2000.0, -2000.0);
06:47:55:770;06:47:55:723;1448647445.59;(0, 0);0;0;;;;;;;;;;;;;;2;15,30;0;0;0;0;0;0;0;();(-2000.0, -2000.0);
06:47:55:803;06:47:55:788;1448647445.66;(0, 0);0;0;;;;;;;;;;;;;;2;15,30;0;0;0;0;0;0;0;();(-2000.0, -2000.0);
06:47:55:820;06:47:55:788;1448647445.66;(0, 0);0;0;;;;;;;;;;;;;;2;15,30;0;0;0;0;0;0;0;();(-2000.0, -2000.0);
06:47:55:837;06:47:55:788;1448647445.66;(0, 0);0;0;;;;;;;;;;;;;;2;15,30;0;0;0;0;0;0;0;();(-2000.0, -2000.0);
06:47:55:853;06:47:55:851;1448647445.73;(0, 0);0;0;;;;;;;;;;;;;;2;15,30;0;0;0;0;0;0;0;();(-2000.0, -2000.0);
06:47:55:869;06:47:55:851;1448647445.73;(0, 0);0;0;;;;;;;;;;;;;;2;15,30;0;0;0;0;0;0;0;();(-2000.0, -2000.0);
06:47:55:902;06:47:55:851;1448647445.73;(0, 0);0;0;;;;;;;;;;;;;;2;15,30;0;0;0;0;0;0;0;();(-2000.0, -2000.0);
06:47:55:919;06:47:55:851;1448647445.73;(0, 0);0;0;;;;;;;;;;;;;;2;15,30;0;0;0;0;0;0;0;();(-2000.0, -2000.0);
06:47:55:936;06:47:55:920;1448647445.79;(0, 0);0;0;;;;;;;;;;;;;;2;15,30;0;0;0;0;0;0;0;();(-2000.0, -2000.0);
06:47:55:953;06:47:55:920;1448647445.79;(0, 0);0;0;;;;;;;;;;;;;;2;15,30;0;0;0;0;0;0;0;();(-2000.0, -2000.0);
06:47:55:986;06:47:55:920;1448647445.79;(0, 0);0;0;;;;;;;;;;;;;;2;15,30;0;0;0;0;0;0;0;();(-2000.0, -2000.0);
06:47:56:002;06:47:55:988;1448647445.89;(0, 0);0;0;;;;;;;;;;;;;;2;15,30;0;0;0;0;0;0;0;();(-2000.0, -2000.0);
06:47:56:019;06:47:55:988;1448647445.89;(0, 0);0;0;;;;;;;;;;;;;;2;15,30;0;0;0;0;0;0;0;();(-2000.0, -2000.0);
06:47:56:035;06:47:55:988;1448647445.89;(0, 0);0;0;;;;;;;;;;;;;;2;15,30;0;0;0;0;0;0;0;();(-2000.0, -2000.0);
06:47:56:053;06:47:56:052;1448647445.93;(0, 0);0;0;;;;;;;;;;;;;;2;15,30;0;0;0;0;0;0;0;();(-2000.0, -2000.0);
06:47:56:085;06:47:56:052;1448647445.93;(0, 0);0;0;;;;;;;;;;;;;;2;15,30;0;0;0;0;0;0;0;();(-2000.0, -2000.0);
06:47:56:102;06:47:56:052;1448647445.93;(0, 0);0;0;;;;;;;;;;;;;;2;15,30;0;0;0;0;0;0;0;();(-2000.0, -2000.0);
06:47:56:118;06:47:56:052;1448647445.93;(0, 0);0;0;;;;;;;;;;;;;;2;15,30;0;0;0;0;0;0;0;();(-2000.0, -2000.0);
06:47:56:134;06:47:56:120;1448647445.99;(0, 0);0;0;;;;;;;;;;;;;;2;15,30;0;0;0;0;0;0;0;();(-2000.0, -2000.0);
06:47:56:152;06:47:56:120;1448647445.99;(0, 0);0;0;;;;;;;;;;;;;;2;15,30;0;0;0;0;0;0;0;();(-2000.0, -2000.0);
06:47:56:185;06:47:56:183;1448647446.06;(0, 0);0;0;;;;;;;;;;;;;;2;15,30;0;0;0;0;0;0;0;();(-2000.0, -2000.0);
06:47:56:201;06:47:56:183;1448647446.06;(0, 0);0;0;;;;;;;;;;;;;;2;15,30;0;0;0;0;0;0;0;();(-2000.0, -2000.0);
06:47:56:218;06:47:56:183;1448647446.06;(0, 0);0;0;;;;;;;;;;;;;;2;15,30;0;0;0;0;0;0;0;();(-2000.0, -2000.0);
06:47:56:234;06:47:56:183;1448647446.06;(0, 0);0;0;;;;;;;;;;;;;;2;15,30;0;0;0;0;0;0;0;();(-2000.0, -2000.0);
06:47:56:250;06:47:56:183;1448647446.06;(0, 0);0;0;;;;;;;;;;;;;;2;15,30;0;0;0;0;0;0;0;();(-2000.0, -2000.0);
06:47:56:284;06:47:56:255;1448647446.13;(0, 0);0;0;;;;;;;;;;;;;;2;15,30;0;0;0;0;0;0;0;();(-2000.0, -2000.0);
06:47:56:300;06:47:56:255;1448647446.13;(0, 0);0;0;;;;;;;;;;;;;;2;15,30;0;0;0;0;0;0;0;();(-2000.0, -2000.0);
06:47:56:316;06:47:56:315;1448647446.19;(0, 0);0;0;;;;;;;;;;;;;;2;15,30;0;0;0;0;0;0;0;();(-2000.0, -2000.0);
06:47:56:333;06:47:56:315;1448647446.19;(0, 0);0;0;;;;;;;;;;;;;;2;15,30;0;0;0;0;0;0;0;();(-2000.0, -2000.0);
06:47:56:350;06:47:56:315;1448647446.19;(0, 0);0;0;;;;;;;;;;;;;;2;15,30;0;0;0;0;0;0;0;();(-2000.0, -2000.0);
06:47:56:383;06:47:56:315;1448647446.19;(0, 0);0;0;;;;;;;;;;;;;;2;15,30;0;0;0;0;0;0;0;();(-2000.0, -2000.0);
06:47:56:400;06:47:56:384;1448647446.26;(0, 0);0;0;;;;;;;;;;;;;;2;15,30;0;0;0;0;0;0;0;();(-2000.0, -2000.0);
06:47:56:416;06:47:56:384;1448647446.26;(0, 0);0;0;;;;;;;;;;;;;;2;15,30;0;0;0;0;0;0;0;();(-2000.0, -2000.0);
06:47:56:434;06:47:56:384;1448647446.26;(0, 0);0;0;;;;;;;;;;;;;;2;15,30;0;0;0;0;0;0;0;();(-2000.0, -2000.0);
06:47:56:449;06:47:56:384;1448647446.26;(0, 0);0;0;;;;;;;;;;;;;;2;15,30;0;0;0;0;0;0;0;();(-2000.0, -2000.0);
06:47:56:482;06:47:56:452;1448647446.33;(0, 0);0;0;;;;;;;;;;;;;;2;15,30;0;0;0;0;0;0;0;();(-2000.0, -2000.0);
06:47:56:903;06:47:56:848;1448647446.73;(0, 0);0;0;;;;;;;;;;;;;;2;15,30;0;0;0;0;0;0;0;();(-2000.0, -2000.0);
06:47:56:910;06:47:56:848;1448647446.73;(0, 0);0;0;;;;;;;;;;;;;;2;15,30;0;0;0;0;0;0;0;();(-2000.0, -2000.0);
06:47:56:918;06:47:56:918;1448647446.79;(0, 0);0;0;;;;;;;;;;;;;;2;15,30;0;0;0;0;0;0;0;();(-2000.0, -2000.0);
06:47:56:926;06:47:56:918;1448647446.79;(0, 0);0;0;;;;;;;;;;;;;;2;15,30;0;0;0;0;0;0;0;();(-2000.0, -2000.0);
06:47:56:934;06:47:56:918;1448647446.79;(0, 0);0;0;;;;;;;;;;;;;;2;15,30;0;0;0;0;0;0;0;();(-2000.0, -2000.0);
06:47:56:937;06:47:56:918;1448647446.79;(0, 0);0;0;;;;;;;;;;;;;;2;15,30;0;0;0;0;0;0;0;();(-2000.0, -2000.0);
06:47:56:940;06:47:56:918;1448647446.79;(0, 0);0;0;;;;;;;;;;;;;;2;15,30;0;0;0;0;0;0;0;();(-2000.0, -2000.0);
06:47:56:944;06:47:56:918;1448647446.79;(0, 0);0;0;;;;;;;;;;;;;;2;15,30;0;0;0;0;0;0;0;();(-2000.0, -2000.0);
06:47:56:947;06:47:56:918;1448647446.79;(0, 0);0;0;;;;;;;;;;;;;;2;15,30;0;0;0;0;0;0;0;();(-2000.0, -2000.0);
06:47:56:951;06:47:56:918;1448647446.79;(0, 0);0;0;;;;;;;;;;;;;;2;15,30;0;0;0;0;0;0;0;();(-2000.0, -2000.0);
06:47:56:954;06:47:56:918;1448647446.79;(0, 0);0;0;;;;;;;;;;;;;;2;15,30;0;0;0;0;0;0;0;();(-2000.0, -2000.0);
06:47:56:962;06:47:56:918;1448647446.79;(0, 0);0;0;;;;;;;;;;;;;;2;15,30;0;0;0;0;0;0;0;();(-2000.0, -2000.0);
06:47:56:966;06:47:56:918;1448647446.79;(0, 0);0;0;;;;;;;;;;;;;;2;15,30;0;0;0;0;0;0;0;();(-2000.0, -2000.0);
06:47:56:969;06:47:56:918;1448647446.79;(0, 0);0;0;;;;;;;;;;;;;;2;15,30;0;0;0;0;0;0;0;();(-2000.0, -2000.0);
06:47:56:972;06:47:56:918;1448647446.79;(0, 0);0;0;;;;;;;;;;;;;;2;15,30;0;0;0;0;0;0;0;();(-2000.0, -2000.0);
06:47:56:976;06:47:56:918;1448647446.79;(0, 0);0;0;;;;;;;;;;;;;;2;15,30;0;0;0;0;0;0;0;();(-2000.0, -2000.0);
06:47:56:979;06:47:56:918;1448647446.79;(0, 0);0;0;;;;;;;;;;;;;;2;15,30;0;0;0;0;0;0;0;();(-2000.0, -2000.0);
06:47:56:987;06:47:56:981;1448647446.86;(0, 0);0;0;;;;;;;;;;;;;;2;15,30;0;0;0;0;0;0;0;();(-2000.0, -2000.0);
06:47:56:990;06:47:56:981;1448647446.86;(0, 0);0;0;;;;;;;;;;;;;;2;15,30;0;0;0;0;0;0;0;();(-2000.0, -2000.0);
06:47:56:994;06:47:56:981;1448647446.86;(0, 0);0;0;;;;;;;;;;;;;;2;15,30;0;0;0;0;0;0;0;();(-2000.0, -2000.0);
06:47:56:997;06:47:56:981;1448647446.86;(0, 0);0;0;;;;;;;;;;;;;;2;15,30;0;0;0;0;0;0;0;();(-2000.0, -2000.0);
06:47:57:004;06:47:56:981;1448647446.86;(0, 0);0;0;;;;;;;;;;;;;;2;15,30;0;0;0;0;0;0;0;();(-2000.0, -2000.0);
06:47:57:020;06:47:56:981;1448647446.86;(0, 0);0;0;;;;;;;;;;;;;;2;15,30;0;0;0;0;0;0;0;();(-2000.0, -2000.0);
06:47:57:037;06:47:56:981;1448647446.86;(0, 0);0;0;;;;;;;;;;;;;;2;15,30;0;0;0;0;0;0;0;();(-2000.0, -2000.0);
06:47:57:070;06:47:57:047;1448647446.93;(0, 0);0;0;;;;;;;;;;;;;;2;15,30;0;0;0;0;0;0;0;();(-2000.0, -2000.0);
06:47:57:087;06:47:57:047;1448647446.93;(0, 0);0;0;;;;;;;;;;;;;;2;15,30;0;0;0;0;0;0;0;();(-2000.0, -2000.0);
06:47:57:104;06:47:57:047;1448647446.93;(0, 0);0;0;;;;;;;;;;;;;;2;15,30;0;0;0;0;0;0;0;();(-2000.0, -2000.0);
06:47:57:120;06:47:57:116;1448647446.99;(0, 0);0;0;;;;;;;;;;;;;;2;15,30;0;0;0;0;0;0;0;();(-2000.0, -2000.0);
06:47:57:137;06:47:57:116;1448647446.99;(0, 0);0;0;;;;;;;;;;;;;;2;15,30;0;0;0;0;0;0;0;();(-2000.0, -2000.0);
06:47:57:169;06:47:57:116;1448647446.99;(0, 0);0;0;;;;;;;;;;;;;;2;15,30;0;0;0;0;0;0;0;();(-2000.0, -2000.0);
06:47:57:186;06:47:57:179;1448647447.06;(0, 0);0;0;;;;;;;;;;;;;;2;15,30;0;0;0;0;0;0;0;();(-2000.0, -2000.0);
06:47:57:203;06:47:57:179;1448647447.06;(0, 0);0;0;;;;;;;;;;;;;;2;15,30;0;0;0;0;0;0;0;();(-2000.0, -2000.0);
06:47:57:219;06:47:57:179;1448647447.06;(0, 0);0;0;;;;;;;;;;;;;;2;15,30;0;0;0;0;0;0;0;();(-2000.0, -2000.0);
06:47:57:253;06:47:57:248;1448647447.13;(0, 0);0;0;;;;;;;;;;;;;;2;15,30;0;0;0;0;0;0;0;();(-2000.0, -2000.0);
06:47:57:269;06:47:57:248;1448647447.13;(0, 0);0;0;;;;;;;;;;;;;;2;15,30;0;0;0;0;0;0;0;();(-2000.0, -2000.0);
06:47:57:285;06:47:57:248;1448647447.13;(0, 0);0;0;;;;;;;;;;;;;;2;15,30;0;0;0;0;0;0;0;();(-2000.0, -2000.0);
06:47:57:303;06:47:57:248;1448647447.13;(0, 0);0;0;;;;;;;;;;;;;;2;15,30;0;0;0;0;0;0;0;();(-2000.0, -2000.0);
06:47:57:319;06:47:57:311;1448647447.19;(0, 0);0;0;;;;;;;;;;;;;;2;15,30;0;0;0;0;0;0;0;();(-2000.0, -2000.0);
06:47:57:351;06:47:57:311;1448647447.19;(0, 0);0;0;;;;;;;;;;;;;;2;15,30;0;0;0;0;0;0;0;();(-2000.0, -2000.0);
06:47:57:368;06:47:57:311;1448647447.19;(0, 0);0;0;;;;;;;;;;;;;;2;15,30;0;0;0;0;0;0;0;();(-2000.0, -2000.0);
06:47:57:385;06:47:57:379;1448647447.26;(0, 0);0;0;;;;;;;;;;;;;;2;15,30;0;0;0;0;0;0;0;();(-2000.0, -2000.0);
06:47:57:401;06:47:57:379;1448647447.26;(0, 0);0;0;;;;;;;;;;;;;;2;15,30;0;0;0;0;0;0;0;();(-2000.0, -2000.0);
06:47:57:418;06:47:57:379;1448647447.26;(0, 0);0;0;;;;;;;;;;;;;;2;15,30;0;0;0;0;0;0;0;();(-2000.0, -2000.0);
06:47:57:451;06:47:57:379;1448647447.26;(0, 0);0;0;;;;;;;;;;;;;;2;15,30;0;0;0;0;0;0;0;();(-2000.0, -2000.0);
06:47:57:467;06:47:57:464;1448647447.33;(0, 0);0;0;;;;;;;;;;;;;;2;15,30;0;0;0;0;0;0;0;();(-2000.0, -2000.0);
06:47:57:485;06:47:57:464;1448647447.33;(0, 0);0;0;;;;;;;;;;;;;;2;15,30;0;0;0;0;0;0;0;();(-2000.0, -2000.0);
06:47:57:502;06:47:57:464;1448647447.33;(0, 0);0;0;;;;;;;;;;;;;;2;15,30;0;0;0;0;0;0;0;();(-2000.0, -2000.0);
06:47:57:518;06:47:57:512;1448647447.39;(0, 0);0;0;;;;;;;;;;;;;;2;15,30;0;0;0;0;0;0;0;();(-2000.0, -2000.0);
06:47:57:550;06:47:57:512;1448647447.39;(0, 0);0;0;;;;;;;;;;;;;;2;15,30;0;0;0;0;0;0;0;();(-2000.0, -2000.0);
06:47:57:568;06:47:57:512;1448647447.39;(0, 0);0;0;;;;;;;;;;;;;;2;15,30;0;0;0;0;0;0;0;();(-2000.0, -2000.0);
06:47:57:584;06:47:57:579;1448647447.46;(0, 0);0;0;;;;;;;;;;;;;;2;15,30;0;0;0;0;0;0;0;();(-2000.0, -2000.0);
06:47:57:600;06:47:57:579;1448647447.46;(0, 0);0;0;;;;;;;;;;;;;;2;15,30;0;0;0;0;0;0;0;();(-2000.0, -2000.0);
06:47:57:617;06:47:57:579;1448647447.46;(0, 0);0;0;;;;;;;;;;;;;;2;15,30;0;0;0;0;0;0;0;();(-2000.0, -2000.0);
06:47:57:650;06:47:57:643;1448647447.53;(0, 0);0;0;;;;;;;;;;;;;;2;15,30;0;0;0;0;0;0;0;();(-2000.0, -2000.0);
06:47:57:667;06:47:57:643;1448647447.53;(0, 0);0;0;;;;;;;;;;;;;;2;15,30;0;0;0;0;0;0;0;();(-2000.0, -2000.0);
06:47:57:683;06:47:57:643;1448647447.53;(0, 0);0;0;;;;;;;;;;;;;;2;15,30;0;0;0;0;0;0;0;();(-2000.0, -2000.0);
06:47:57:700;06:47:57:643;1448647447.53;(0, 0);0;0;;;;;;;;;;;;;;2;15,30;0;0;0;0;0;0;0;();(-2000.0, -2000.0);
06:47:57:733;06:47:57:719;1448647447.59;(0, 0);0;0;;;;;;;;;;;;;;2;15,30;0;0;0;0;0;0;0;();(-2000.0, -2000.0);
06:47:57:749;06:47:57:719;1448647447.59;(0, 0);0;0;;;;;;;;;;;;;;2;15,30;0;0;0;0;0;0;0;();(-2000.0, -2000.0);
06:47:57:766;06:47:57:719;1448647447.59;(0, 0);0;0;;;;;;;;;;;;;;2;15,30;0;0;0;0;0;0;0;();(-2000.0, -2000.0);
06:47:57:783;06:47:57:779;1448647447.66;(0, 0);0;0;;;;;;;;;;;;;;2;15,30;0;0;0;0;0;0;0;();(-2000.0, -2000.0);
06:47:57:800;06:47:57:779;1448647447.66;(0, 0);0;0;;;;;;;;;;;;;;2;15,30;0;0;0;0;0;0;0;();(-2000.0, -2000.0);
06:47:57:833;06:47:57:779;1448647447.66;(0, 0);0;0;;;;;;;;;;;;;;2;15,30;0;0;0;0;0;0;0;();(-2000.0, -2000.0);
06:47:57:849;06:47:57:779;1448647447.66;(0, 0);0;0;;;;;;;;;;;;;;2;15,30;0;0;0;0;0;0;0;();(-2000.0, -2000.0);
06:47:57:865;06:47:57:851;1448647447.73;(0, 0);0;0;;;;;;;;;;;;;;2;15,30;0;0;0;0;0;0;0;();(-2000.0, -2000.0);
06:47:57:881;06:47:57:851;1448647447.73;(0, 0);0;0;;;;;;;;;;;;;;2;15,30;0;0;0;0;0;0;0;();(-2000.0, -2000.0);
06:47:57:898;06:47:57:851;1448647447.73;(0, 0);0;0;;;;;;;;;;;;;;2;15,30;0;0;0;0;0;0;0;();(-2000.0, -2000.0);
06:47:57:932;06:47:57:912;1448647447.79;(0, 0);0;0;;;;;;;;;;;;;;2;15,30;0;0;0;0;0;0;0;();(-2000.0, -2000.0);
06:47:57:949;06:47:57:912;1448647447.79;(0, 0);0;0;;;;;;;;;;;;;;2;15,30;0;0;0;0;0;0;0;();(-2000.0, -2000.0);
06:47:57:965;06:47:57:912;1448647447.79;(0, 0);0;0;;;;;;;;;;;;;;2;15,30;0;0;0;0;0;0;0;();(-2000.0, -2000.0);
06:47:57:982;06:47:57:975;1448647447.86;(0, 0);0;0;;;;;;;;;;;;;;2;15,30;0;0;0;0;0;0;0;();(-2000.0, -2000.0);
06:47:57:998;06:47:57:975;1448647447.86;(0, 0);0;0;;;;;;;;;;;;;;2;15,30;0;0;0;0;0;0;0;();(-2000.0, -2000.0);
06:47:58:031;06:47:57:975;1448647447.86;(0, 0);0;0;;;;;;;;;;;;;;2;15,30;0;0;0;0;0;0;0;();(-2000.0, -2000.0);
06:47:58:048;06:47:58:043;1448647447.93;(0, 0);0;0;;;;;;;;;;;;;;2;15,30;0;0;0;0;0;0;0;();(-2000.0, -2000.0);
06:47:58:064;06:47:58:043;1448647447.93;(0, 0);0;0;;;;;;;;;;;;;;2;15,30;0;0;0;0;0;0;0;();(-2000.0, -2000.0);
06:47:58:081;06:47:58:043;1448647447.93;(0, 0);0;0;;;;;;;;;;;;;;2;15,30;0;0;0;0;0;0;0;();(-2000.0, -2000.0);
06:47:58:098;06:47:58:043;1448647447.93;(0, 0);0;0;;;;;;;;;;;;;;2;15,30;0;0;0;0;0;0;0;();(-2000.0, -2000.0);
06:47:58:131;06:47:58:111;1448647447.99;(0, 0);0;0;;;;;;;;;;;;;;2;15,30;0;0;0;0;0;0;0;();(-2000.0, -2000.0);
06:47:58:147;06:47:58:111;1448647447.99;(0, 0);0;0;;;;;;;;;;;;;;2;15,30;0;0;0;0;0;0;0;();(-2000.0, -2000.0);
06:47:58:163;06:47:58:111;1448647447.99;(0, 0);0;0;;;;;;;;;;;;;;2;15,30;0;0;0;0;0;0;0;();(-2000.0, -2000.0);
06:47:58:180;06:47:58:176;1448647448.06;(0, 0);0;0;;;;;;;;;;;;;;2;15,30;0;0;0;0;0;0;0;();(-2000.0, -2000.0);
06:47:58:196;06:47:58:176;1448647448.06;(0, 0);0;0;;;;;;;;;;;;;;2;15,30;0;0;0;0;0;0;0;();(-2000.0, -2000.0);
06:47:58:230;06:47:58:176;1448647448.06;(0, 0);0;0;;;;;;;;;;;;;;2;15,30;0;0;0;0;0;0;0;();(-2000.0, -2000.0);
06:47:58:246;06:47:58:244;1448647448.13;(0, 0);0;0;;;;;;;;;;;;;;2;15,30;0;0;0;0;0;0;0;();(-2000.0, -2000.0);
06:47:58:263;06:47:58:244;1448647448.13;(0, 0);0;0;;;;;;;;;;;;;;2;15,30;0;0;0;0;0;0;0;();(-2000.0, -2000.0);
06:47:58:280;06:47:58:244;1448647448.13;(0, 0);0;0;;;;;;;;;;;;;;2;15,30;0;0;0;0;0;0;0;();(-2000.0, -2000.0);
06:47:58:297;06:47:58:244;1448647448.13;(0, 0);0;0;;;;;;;;;;;;;;2;15,30;0;0;0;0;0;0;0;();(-2000.0, -2000.0);
06:47:58:329;06:47:58:307;1448647448.19;(0, 0);0;0;;;;;;;;;;;;;;2;15,30;0;0;0;0;0;0;0;();(-2000.0, -2000.0);
06:47:58:350;06:47:58:307;1448647448.19;(0, 0);0;0;;;;;;;;;;;;;;2;15,30;0;0;0;0;0;0;0;();(-2000.0, -2000.0);
06:47:58:362;06:47:58:307;1448647448.19;(0, 0);0;0;;;;;;;;;;;;;;2;15,30;0;0;0;0;0;0;0;();(-2000.0, -2000.0);
06:47:58:380;06:47:58:375;1448647448.26;(0, 0);0;0;;;;;;;;;;;;;;2;15,30;0;0;0;0;0;0;0;();(-2000.0, -2000.0);
06:47:58:412;06:47:58:375;1448647448.26;(0, 0);0;0;;;;;;;;;;;;;;2;15,30;0;0;0;0;0;0;0;();(-2000.0, -2000.0);
06:47:58:428;06:47:58:375;1448647448.26;(0, 0);0;0;;;;;;;;;;;;;;2;15,30;0;0;0;0;0;0;0;();(-2000.0, -2000.0);
06:47:58:446;06:47:58:443;1448647448.33;(0, 0);0;0;;;;;;;;;;;;;;2;15,30;0;0;0;0;0;0;0;();(-2000.0, -2000.0);
06:47:58:461;06:47:58:443;1448647448.33;(0, 0);0;0;;;;;;;;;;;;;;2;15,30;0;0;0;0;0;0;0;();(-2000.0, -2000.0);
06:47:58:478;06:47:58:443;1448647448.33;(0, 0);0;0;;;;;;;;;;;;;;2;15,30;0;0;0;0;0;0;0;();(-2000.0, -2000.0);
06:47:58:511;06:47:58:507;1448647448.39;(0, 0);0;0;;;;;;;;;;;;;;2;15,30;0;0;0;0;0;0;0;();(-2000.0, -2000.0);
06:47:58:528;06:47:58:507;1448647448.39;(0, 0);0;0;;;;;;;;;;;;;;2;15,30;0;0;0;0;0;0;0;();(-2000.0, -2000.0);
06:47:58:545;06:47:58:507;1448647448.39;(0, 0);0;0;;;;;;;;;;;;;;2;15,30;0;0;0;0;0;0;0;();(-2000.0, -2000.0);
06:47:58:561;06:47:58:507;1448647448.39;(0, 0);0;0;;;;;;;;;;;;;;2;15,30;0;0;0;0;0;0;0;();(-2000.0, -2000.0);
06:47:58:578;06:47:58:576;1448647448.46;(0, 0);0;0;;;;;;;;;;;;;;2;15,30;0;0;0;0;0;0;0;();(-2000.0, -2000.0);
06:47:58:611;06:47:58:576;1448647448.46;(0, 0);0;0;;;;;;;;;;;;;;2;15,30;0;0;0;0;0;0;0;();(-2000.0, -2000.0);
06:47:58:628;06:47:58:576;1448647448.46;(0, 0);0;0;;;;;;;;;;;;;;2;15,30;0;0;0;0;0;0;0;();(-2000.0, -2000.0);
06:47:58:645;06:47:58:639;1448647448.53;(0, 0);0;0;;;;;;;;;;;;;;2;15,30;0;0;0;0;0;0;0;();(-2000.0, -2000.0);
06:47:58:661;06:47:58:639;1448647448.53;(0, 0);0;0;;;;;;;;;;;;;;2;15,30;0;0;0;0;0;0;0;();(-2000.0, -2000.0);
06:47:58:677;06:47:58:639;1448647448.53;(0, 0);0;0;;;;;;;;;;;;;;2;15,30;0;0;0;0;0;0;0;();(-2000.0, -2000.0);
06:47:58:711;06:47:58:708;1448647448.59;(0, 0);0;0;;;;;;;;;;;;;;2;15,30;0;0;0;0;0;0;0;();(-2000.0, -2000.0);
06:47:58:727;06:47:58:708;1448647448.59;(0, 0);0;0;;;;;;;;;;;;;;2;15,30;0;0;0;0;0;0;0;();(-2000.0, -2000.0);
06:47:58:744;06:47:58:708;1448647448.59;(0, 0);0;0;;;;;;;;;;;;;;2;15,30;0;0;0;0;0;0;0;();(-2000.0, -2000.0);
06:47:58:760;06:47:58:708;1448647448.59;(0, 0);0;0;;;;;;;;;;;;;;2;15,30;0;0;0;0;0;0;0;();(-2000.0, -2000.0);
06:47:58:776;06:47:58:775;1448647448.66;(0, 0);0;0;;;;;;;;;;;;;;2;15,30;0;0;0;0;0;0;0;();(-2000.0, -2000.0);
06:47:58:809;06:47:58:775;1448647448.66;(0, 0);0;0;;;;;;;;;;;;;;2;15,30;0;0;0;0;0;0;0;();(-2000.0, -2000.0);
06:47:58:826;06:47:58:775;1448647448.66;(0, 0);0;0;;;;;;;;;;;;;;2;15,30;0;0;0;0;0;0;0;();(-2000.0, -2000.0);
06:47:58:843;06:47:58:839;1448647448.73;(0, 0);0;0;;;;;;;;;;;;;;2;15,30;0;0;0;0;0;0;0;();(-2000.0, -2000.0);
06:47:58:860;06:47:58:839;1448647448.73;(0, 0);0;0;;;;;;;;;;;;;;2;15,30;0;0;0;0;0;0;0;();(-2000.0, -2000.0);
06:47:58:893;06:47:58:839;1448647448.73;(0, 0);0;0;;;;;;;;;;;;;;2;15,30;0;0;0;0;0;0;0;();(-2000.0, -2000.0);
06:47:58:910;06:47:58:908;1448647448.79;(0.7325178623199463, 0.7554319381713868);19.9456748962;0.629823764197;;;;;;;;;;;;;;2;15,30;0;0;0;0;0;0;0;();(-2000.0, -2000.0);
06:47:58:925;06:47:58:908;1448647448.79;(0.7325178623199463, 0.7554319381713868);19.9456748962;0.629823764197;;;;;;;;;;;;;;2;15,30;0;0;0;0;0;0;0;();(-2000.0, -2000.0);
06:47:58:942;06:47:58:908;1448647448.79;(0.7325178623199463, 0.7554319381713868);19.9456748962;0.629823764197;;;;;;;;;;;;;;2;15,30;0;0;0;0;0;0;0;();(-2000.0, -2000.0);
06:47:58:959;06:47:58:908;1448647448.79;(0.7325178623199463, 0.7554319381713868);19.9456748962;0.629823764197;;;;;;;;;;;;;;2;15,30;0;0;0;0;0;0;0;();(-2000.0, -2000.0);
06:47:58:992;06:47:58:974;1448647448.86;(0, 0);0;0;;;;;;;;;;;;;;2;15,30;0;0;0;0;0;0;0;();(-2000.0, -2000.0);
06:47:59:009;06:47:58:974;1448647448.86;(0, 0);0;0;;;;;;;;;;;;;;2;15,30;1;3;30;0;0;0;0;();(-2000.0, -2000.0);
06:47:59:025;06:47:58:974;1448647448.86;(0, 0);0;0;;;;;;;;;;;;;;2;15,30;0;0;0;0;0;0;0;();(-2000.0, -2000.0);
06:47:59:042;06:47:59:039;1448647448.93;(0, 0);0;0;;;;;;;;;;;;;;2;15,30;0;0;0;0;0;0;0;();(-2000.0, -2000.0);
06:47:59:059;06:47:59:039;1448647448.93;(0, 0);0;0;;;;;;;;;;;;;;2;15,30;0;0;0;0;0;0;0;();(-2000.0, -2000.0);
06:47:59:091;06:47:59:039;1448647448.93;(0, 0);0;0;;;;;;;;;;;;;;2;15,30;0;0;0;0;0;0;0;();(-2000.0, -2000.0);
06:47:59:108;06:47:59:103;1448647448.99;(0, 0);0;0;;;;;;;;;;;;;;2;15,30;0;0;0;0;0;0;0;();(-2000.0, -2000.0);
06:47:59:124;06:47:59:103;1448647448.99;(0, 0);0;0;;;;;;;;;;;;;;2;15,30;0;0;0;0;0;0;0;();(-2000.0, -2000.0);
06:47:59:141;06:47:59:103;1448647448.99;(0, 0);0;0;;;;;;;;;;;;;;2;15,30;0;0;0;0;0;0;0;();(-2000.0, -2000.0);
06:47:59:157;06:47:59:103;1448647448.99;(0, 0);0;0;;;;;;;;;;;;;;2;15,30;0;0;0;0;0;0;0;();(-2000.0, -2000.0);
06:47:59:191;06:47:59:172;1448647449.06;(0, 0);0;0;;;;;;;;;;;;;;2;15,30;0;0;0;0;0;0;0;();(-2000.0, -2000.0);
06:47:59:208;06:47:59:172;1448647449.06;(0, 0);0;0;;;;;;;;;;;;;;2;15,30;0;0;0;0;0;0;0;();(-2000.0, -2000.0);
06:47:59:225;06:47:59:172;1448647449.06;(0, 0);0;0;;;;;;;;;;;;;;2;15,30;0;0;0;0;0;0;0;();(-2000.0, -2000.0);
06:47:59:241;06:47:59:240;1448647449.13;(0, 0);0;0;;;;;;;;;;;;;;2;15,30;0;0;0;0;0;0;0;();(-2000.0, -2000.0);
06:47:59:258;06:47:59:240;1448647449.13;(0, 0);0;0;;;;;;;;;;;;;;2;15,30;0;0;0;0;0;0;0;();(-2000.0, -2000.0);
06:47:59:291;06:47:59:240;1448647449.13;(0, 0);0;0;;;;;;;;;;;;;;2;15,30;0;0;0;0;0;0;0;();(-2000.0, -2000.0);
06:47:59:307;06:47:59:304;1448647449.19;(0, 0);0;0;;;;;;;;;;;;;;2;15,30;0;0;0;0;0;0;0;();(-2000.0, -2000.0);
06:47:59:323;06:47:59:304;1448647449.19;(0, 0);0;0;;;;;;;;;;;;;;2;15,30;0;0;0;0;0;0;0;();(-2000.0, -2000.0);
06:47:59:340;06:47:59:304;1448647449.19;(0, 0);0;0;;;;;;;;;;;;;;2;15,30;0;0;0;0;0;0;0;();(-2000.0, -2000.0);
06:47:59:357;06:47:59:304;1448647449.19;(0, 0);0;0;;;;;;;;;;;;;;2;15,30;0;0;0;0;0;0;0;();(-2000.0, -2000.0);
06:47:59:390;06:47:59:371;1448647449.26;(0, 0);0;0;;;;;;;;;;;;;;2;15,30;0;0;0;0;0;0;0;();(-2000.0, -2000.0);
06:47:59:406;06:47:59:371;1448647449.26;(0, 0);0;0;;;;;;;;;;;;;;2;15,30;0;0;0;0;0;0;0;();(-2000.0, -2000.0);
06:47:59:423;06:47:59:371;1448647449.26;(0, 0);0;0;;;;;;;;;;;;;;2;15,30;0;0;0;0;0;0;0;();(-2000.0, -2000.0);
06:47:59:439;06:47:59:435;1448647449.33;(0, 0);0;0;;;;;;;;;;;;;;2;15,30;0;0;0;0;0;0;0;();(-2000.0, -2000.0);
06:47:59:472;06:47:59:435;1448647449.33;(0, 0);0;0;;;;;;;;;;;;;;2;15,30;0;0;0;0;0;0;0;();(-2000.0, -2000.0);
06:47:59:489;06:47:59:435;1448647449.33;(0, 0);0;0;;;;;;;;;;;;;;2;15,30;0;0;0;0;0;0;0;();(-2000.0, -2000.0);
06:47:59:506;06:47:59:504;1448647449.39;(0, 0);0;0;;;;;;;;;;;;;;2;15,30;0;0;0;0;0;0;0;();(-2000.0, -2000.0);
06:47:59:522;06:47:59:504;1448647449.39;(0, 0);0;0;;;;;;;;;;;;;;2;15,30;0;0;0;0;0;0;0;();(-2000.0, -2000.0);
06:47:59:539;06:47:59:504;1448647449.39;(0, 0);0;0;;;;;;;;;;;;;;2;15,30;0;0;0;0;0;0;0;();(-2000.0, -2000.0);
06:47:59:572;06:47:59:571;1448647449.43;(0, 0);0;0;;;;;;;;;;;;;;2;15,30;0;0;0;0;0;0;0;();(-2000.0, -2000.0);
06:47:59:589;06:47:59:573;1448647449.46;(0, 0);0;0;;;;;;;;;;;;;;2;15,30;0;0;0;0;0;0;0;();(-2000.0, -2000.0);
06:47:59:605;06:47:59:573;1448647449.46;(0, 0);0;0;;;;;;;;;;;;;;2;15,30;0;0;0;0;0;0;0;();(-2000.0, -2000.0);
06:47:59:621;06:47:59:573;1448647449.46;(0, 0);0;0;;;;;;;;;;;;;;2;15,30;0;0;0;0;0;0;0;();(-2000.0, -2000.0);
06:47:59:638;06:47:59:635;1448647449.53;(0, 0);0;0;;;;;;;;;;;;;;2;15,30;0;0;0;0;0;0;0;();(-2000.0, -2000.0);
06:47:59:672;06:47:59:635;1448647449.53;(0, 0);0;0;;;;;;;;;;;;;;2;15,30;0;0;0;0;0;0;0;();(-2000.0, -2000.0);
06:47:59:688;06:47:59:635;1448647449.53;(0, 0);0;0;;;;;;;;;;;;;;2;15,30;0;0;0;0;0;0;0;();(-2000.0, -2000.0);
06:47:59:704;06:47:59:703;1448647449.59;(0, 0);0;0;;;;;;;;;;;;;;2;15,30;0;0;0;0;0;0;0;();(-2000.0, -2000.0);
06:47:59:722;06:47:59:703;1448647449.59;(0, 0);0;0;;;;;;;;;;;;;;2;15,30;0;0;0;0;0;0;0;();(-2000.0, -2000.0);
06:47:59:738;06:47:59:703;1448647449.59;(0, 0);0;0;;;;;;;;;;;;;;2;15,30;0;0;0;0;0;0;0;();(-2000.0, -2000.0);
06:47:59:770;06:47:59:767;1448647449.66;(0, 0);0;0;;;;;;;;;;;;;;2;15,30;0;0;0;0;0;0;0;();(-2000.0, -2000.0);
06:47:59:787;06:47:59:767;1448647449.66;(0, 0);0;0;;;;;;;;;;;;;;2;15,30;0;0;0;0;0;0;0;();(-2000.0, -2000.0);
06:47:59:803;06:47:59:767;1448647449.66;(0, 0);0;0;;;;;;;;;;;;;;2;15,30;0;0;0;0;0;0;0;();(-2000.0, -2000.0);
06:47:59:820;06:47:59:767;1448647449.66;(0, 0);0;0;;;;;;;;;;;;;;2;15,30;0;0;0;0;0;0;0;();(-2000.0, -2000.0);
06:47:59:837;06:47:59:835;1448647449.73;(0, 0);0;0;;;;;;;;;;;;;;2;15,30;0;0;0;0;0;0;0;();(-2000.0, -2000.0);
06:47:59:870;06:47:59:835;1448647449.73;(0, 0);0;0;;;;;;;;;;;;;;2;15,30;0;0;0;0;0;0;0;();(-2000.0, -2000.0);
06:47:59:886;06:47:59:835;1448647449.73;(0, 0);0;0;;;;;;;;;;;;;;2;15,30;0;0;0;0;0;0;0;();(-2000.0, -2000.0);
06:47:59:904;06:47:59:904;1448647449.76;(0, 0);0;0;;;;;;;;;;;;;;2;15,30;0;0;0;0;0;0;0;();(-2000.0, -2000.0);
06:47:59:919;06:47:59:908;1448647449.79;(0, 0);0;0;;;;;;;;;;;;;;2;15,30;0;0;0;0;0;0;0;();(-2000.0, -2000.0);
06:47:59:953;06:47:59:908;1448647449.79;(0, 0);0;0;;;;;;;;;;;;;;2;15,30;0;0;0;0;0;0;0;();(-2000.0, -2000.0);
06:47:59:969;06:47:59:967;1448647449.86;(0.7925755500793457, 0.6968136469523112);22.7693424225;0.933593178082;;;;;;;;;;;;;;2;15,30;0;0;0;0;0;0;0;();(-2000.0, -2000.0);
06:47:59:986;06:47:59:967;1448647449.86;(0.7925755500793457, 0.6968136469523112);22.7693424225;0.933593178082;;;;;;;;;;;;;;2;15,30;0;0;0;0;0;0;0;();(-2000.0, -2000.0);
06:48:00:003;06:47:59:967;1448647449.86;(0.7925755500793457, 0.6968136469523112);22.7693424225;0.933593178082;;;;;;;;;;;;;;2;15,30;0;0;0;0;0;0;0;();(-2000.0, -2000.0);
06:48:00:020;06:47:59:967;1448647449.86;(0.7925755500793457, 0.6968136469523112);22.7693424225;0.933593178082;;;;;;;;;;;;;;2;15,30;0;0;0;0;0;0;0;();(-2000.0, -2000.0);
06:48:00:053;06:48:00:037;1448647449.93;(0.7641785144805908, 0.7218281851874457);18.1632080078;0.68460095643;;;;;;;;;;;;;;2;15,30;0;0;0;0;0;0;0;();(-2000.0, -2000.0);
06:48:00:069;06:48:00:037;1448647449.93;(0.7641785144805908, 0.7218281851874457);18.1632080078;0.68460095643;;;;;;;;;;;;;;2;15,30;0;0;0;0;0;0;0;();(-2000.0, -2000.0);
06:48:00:086;06:48:00:037;1448647449.93;(0.7641785144805908, 0.7218281851874457);18.1632080078;0.68460095643;;;;;;;;;;;;;;2;15,30;0;0;0;0;0;0;0;();(-2000.0, -2000.0);
06:48:00:102;06:48:00:100;1448647449.99;(0, 0);0;0;;;;;;;;;;;;;;2;15,30;0;0;0;0;0;0;0;();(-2000.0, -2000.0);
06:48:00:119;06:48:00:100;1448647449.99;(0, 0);0;0;;;;;;;;;;;;;;2;15,30;0;0;0;0;0;0;0;();(-2000.0, -2000.0);
06:48:00:152;06:48:00:100;1448647449.99;(0, 0);0;0;;;;;;;;;;;;;;2;15,30;0;0;0;0;0;0;0;();(-2000.0, -2000.0);
06:48:00:168;06:48:00:167;1448647450.06;(0, 0);0;0;;;;;;;;;;;;;;2;15,30;0;0;0;0;0;0;0;();(-2000.0, -2000.0);
06:48:00:185;06:48:00:167;1448647450.06;(0, 0);0;0;;;;;;;;;;;;;;2;15,30;0;0;0;0;0;0;0;();(-2000.0, -2000.0);
06:48:00:201;06:48:00:167;1448647450.06;(0, 0);0;0;;;;;;;;;;;;;;2;15,30;0;0;0;0;0;0;0;();(-2000.0, -2000.0);
06:48:00:219;06:48:00:167;1448647450.06;(0, 0);0;0;;;;;;;;;;;;;;2;15,30;0;0;0;0;0;0;0;();(-2000.0, -2000.0);
06:48:00:252;06:48:00:236;1448647450.13;(0, 0);0;0;;;;;;;;;;;;;;2;15,30;0;0;0;0;0;0;0;();(-2000.0, -2000.0);
06:48:00:268;06:48:00:236;1448647450.13;(0, 0);0;0;;;;;;;;;;;;;;2;15,30;0;0;0;0;0;0;0;();(-2000.0, -2000.0);
06:48:00:284;06:48:00:236;1448647450.13;(0, 0);0;0;;;;;;;;;;;;;;2;15,30;0;0;0;0;0;0;0;();(-2000.0, -2000.0);
06:48:00:300;06:48:00:236;1448647450.13;(0, 0);0;0;;;;;;;;;;;;;;2;15,30;0;0;0;0;0;0;0;();(-2000.0, -2000.0);
06:48:00:317;06:48:00:306;1448647450.19;(0, 0);0;0;;;;;;;;;;;;;;2;15,30;0;0;0;0;0;0;0;();(-2000.0, -2000.0);
06:48:00:351;06:48:00:306;1448647450.19;(0, 0);0;0;;;;;;;;;;;;;;2;15,30;0;0;0;0;0;0;0;();(-2000.0, -2000.0);
06:48:00:367;06:48:00:306;1448647450.19;(0, 0);0;0;;;;;;;;;;;;;;2;15,30;0;0;0;0;0;0;0;();(-2000.0, -2000.0);
06:48:00:383;06:48:00:369;1448647450.26;(0, 0);0;0;;;;;;;;;;;;;;2;15,30;0;0;0;0;0;0;0;();(-2000.0, -2000.0);
06:48:00:400;06:48:00:369;1448647450.26;(0, 0);0;0;;;;;;;;;;;;;;2;15,30;0;0;0;0;0;0;0;();(-2000.0, -2000.0);
06:48:00:416;06:48:00:369;1448647450.26;(0, 0);0;0;;;;;;;;;;;;;;2;15,30;0;0;0;0;0;0;0;();(-2000.0, -2000.0);
06:48:00:449;06:48:00:434;1448647450.33;(0, 0);0;0;;;;;;;;;;;;;;2;15,30;0;0;0;0;0;0;0;();(-2000.0, -2000.0);
06:48:00:466;06:48:00:434;1448647450.33;(0, 0);0;0;;;;;;;;;;;;;;2;15,30;0;0;0;0;0;0;0;();(-2000.0, -2000.0);
06:48:00:483;06:48:00:434;1448647450.33;(0, 0);0;0;;;;;;;;;;;;;;2;15,30;0;0;0;0;0;0;0;();(-2000.0, -2000.0);
06:48:00:500;06:48:00:499;1448647450.36;(0, 0);0;0;;;;;;;;;;;;;;2;15,30;0;0;0;0;0;0;0;();(-2000.0, -2000.0);
06:48:00:533;06:48:00:502;1448647450.39;(0, 0);0;0;;;;;;;;;;;;;;2;15,30;0;0;0;0;0;0;0;();(-2000.0, -2000.0);
06:48:00:549;06:48:00:502;1448647450.39;(0, 0);0;0;;;;;;;;;;;;;;2;15,30;0;0;0;0;0;0;0;();(-2000.0, -2000.0);
06:48:00:566;06:48:00:502;1448647450.39;(0, 0);0;0;;;;;;;;;;;;;;2;15,30;0;0;0;0;0;0;0;();(-2000.0, -2000.0);
06:48:00:582;06:48:00:571;1448647450.46;(0, 0);0;0;;;;;;;;;;;;;;2;15,30;0;0;0;0;0;0;0;();(-2000.0, -2000.0);
06:48:00:599;06:48:00:571;1448647450.46;(0, 0);0;0;;;;;;;;;;;;;;2;15,30;0;0;0;0;0;0;0;();(-2000.0, -2000.0);
06:48:00:633;06:48:00:631;1448647450.49;(0, 0);0;0;;;;;;;;;;;;;;2;15,30;0;0;0;0;0;0;0;();(-2000.0, -2000.0);
06:48:00:649;06:48:00:631;1448647450.49;(0, 0);0;0;;;;;;;;;;;;;;2;15,30;0;0;0;0;0;0;0;();(-2000.0, -2000.0);
06:48:00:665;06:48:00:631;1448647450.49;(0, 0);0;0;;;;;;;;;;;;;;2;15,30;0;0;0;0;0;0;0;();(-2000.0, -2000.0);
06:48:00:681;06:48:00:631;1448647450.49;(0, 0);0;0;;;;;;;;;;;;;;2;15,30;0;0;0;0;0;0;0;();(-2000.0, -2000.0);
06:48:00:698;06:48:00:631;1448647450.49;(0, 0);0;0;;;;;;;;;;;;;;2;15,30;0;0;0;0;0;0;0;();(-2000.0, -2000.0);
06:48:00:731;06:48:00:703;1448647450.59;(0, 0);0;0;;;;;;;;;;;;;;2;15,30;0;0;0;0;0;0;0;();(-2000.0, -2000.0);
06:48:00:748;06:48:00:703;1448647450.59;(0, 0);0;0;;;;;;;;;;;;;;2;15,30;0;0;0;0;0;0;0;();(-2000.0, -2000.0);
06:48:00:764;06:48:00:763;1448647450.63;(0, 0);0;0;;;;;;;;;;;;;;2;15,30;0;0;0;0;0;0;0;();(-2000.0, -2000.0);
06:48:00:782;06:48:00:763;1448647450.63;(0, 0);0;0;;;;;;;;;;;;;;2;15,30;0;0;0;0;0;0;0;();(-2000.0, -2000.0);
06:48:00:798;06:48:00:763;1448647450.63;(0, 0);0;0;;;;;;;;;;;;;;2;15,30;0;0;0;0;0;0;0;();(-2000.0, -2000.0);
06:48:00:831;06:48:00:763;1448647450.63;(0, 0);0;0;;;;;;;;;;;;;;2;15,30;0;0;0;0;0;0;0;();(-2000.0, -2000.0);
06:48:00:847;06:48:00:832;1448647450.73;(0, 0);0;0;;;;;;;;;;;;;;2;15,30;0;0;0;0;0;0;0;();(-2000.0, -2000.0);
06:48:00:864;06:48:00:832;1448647450.73;(0, 0);0;0;;;;;;;;;;;;;;2;15,30;0;0;0;0;0;0;0;();(-2000.0, -2000.0);
06:48:00:880;06:48:00:832;1448647450.73;(0, 0);0;0;;;;;;;;;;;;;;2;15,30;0;0;0;0;0;0;0;();(-2000.0, -2000.0);
06:48:00:897;06:48:00:832;1448647450.73;(0, 0);0;0;;;;;;;;;;;;;;2;15,30;0;0;0;0;0;0;0;();(-2000.0, -2000.0);
06:48:00:930;06:48:00:900;1448647450.79;(0, 0);0;0;;;;;;;;;;;;;;2;15,30;0;0;0;0;0;0;0;();(-2000.0, -2000.0);
06:48:00:948;06:48:00:900;1448647450.79;(0, 0);0;0;;;;;;;;;;;;;;2;15,30;0;0;0;0;0;0;0;();(-2000.0, -2000.0);
06:48:00:964;06:48:00:963;1448647450.86;(0, 0);0;0;;;;;;;;;;;;;;2;15,30;0;0;0;0;0;0;0;();(-2000.0, -2000.0);
06:48:00:980;06:48:00:963;1448647450.86;(0, 0);0;0;;;;;;;;;;;;;;2;15,30;0;0;0;0;0;0;0;();(-2000.0, -2000.0);
06:48:00:996;06:48:00:963;1448647450.86;(0, 0);0;0;;;;;;;;;;;;;;2;15,30;0;0;0;0;0;0;0;();(-2000.0, -2000.0);
06:48:01:030;06:48:00:963;1448647450.86;(0, 0);0;0;;;;;;;;;;;;;;2;15,30;0;0;0;0;0;0;0;();(-2000.0, -2000.0);
06:48:01:046;06:48:01:032;1448647450.93;(0, 0);0;0;;;;;;;;;;;;;;2;15,30;0;0;0;0;0;0;0;();(-2000.0, -2000.0);
06:48:01:063;06:48:01:032;1448647450.93;(0, 0);0;0;;;;;;;;;;;;;;2;15,30;0;0;0;0;0;0;0;();(-2000.0, -2000.0);
06:48:01:079;06:48:01:032;1448647450.93;(0, 0);0;0;;;;;;;;;;;;;;2;15,30;0;0;0;0;0;0;0;();(-2000.0, -2000.0);
06:48:01:113;06:48:01:096;1448647450.99;(0, 0);0;0;;;;;;;;;;;;;;2;15,30;0;0;0;0;0;0;0;();(-2000.0, -2000.0);
06:48:01:129;06:48:01:096;1448647450.99;(0, 0);0;0;;;;;;;;;;;;;;2;15,30;0;0;0;0;0;0;0;();(-2000.0, -2000.0);
06:48:01:146;06:48:01:096;1448647450.99;(0, 0);0;0;;;;;;;;;;;;;;2;15,30;0;0;0;0;0;0;0;();(-2000.0, -2000.0);
06:48:01:162;06:48:01:096;1448647450.99;(0, 0);0;0;;;;;;;;;;;;;;2;15,30;0;0;0;0;0;0;0;();(-2000.0, -2000.0);
06:48:01:179;06:48:01:164;1448647451.06;(0, 0);0;0;;;;;;;;;;;;;;2;15,30;0;0;0;0;0;0;0;();(-2000.0, -2000.0);
06:48:01:212;06:48:01:164;1448647451.06;(0, 0);0;0;;;;;;;;;;;;;;2;15,30;0;0;0;0;0;0;0;();(-2000.0, -2000.0);
06:48:01:228;06:48:01:164;1448647451.06;(0, 0);0;0;;;;;;;;;;;;;;2;15,30;0;0;0;0;0;0;0;();(-2000.0, -2000.0);
06:48:01:245;06:48:01:232;1448647451.13;(0, 0);0;0;;;;;;;;;;;;;;2;15,30;0;0;0;0;0;0;0;();(-2000.0, -2000.0);
06:48:01:261;06:48:01:232;1448647451.13;(0, 0);0;0;;;;;;;;;;;;;;2;15,30;0;0;0;0;0;0;0;();(-2000.0, -2000.0);
06:48:01:278;06:48:01:232;1448647451.13;(0, 0);0;0;;;;;;;;;;;;;;2;15,30;0;0;0;0;0;0;0;();(-2000.0, -2000.0);
06:48:01:311;06:48:01:296;1448647451.19;(0, 0);0;0;;;;;;;;;;;;;;2;15,30;0;0;0;0;0;0;0;();(-2000.0, -2000.0);
06:48:01:328;06:48:01:296;1448647451.19;(0, 0);0;0;;;;;;;;;;;;;;2;15,30;0;0;0;0;0;0;0;();(-2000.0, -2000.0);
06:48:01:344;06:48:01:296;1448647451.19;(0, 0);0;0;;;;;;;;;;;;;;2;15,30;0;0;0;0;0;0;0;();(-2000.0, -2000.0);
06:48:01:360;06:48:01:296;1448647451.19;(0, 0);0;0;;;;;;;;;;;;;;2;15,30;0;0;0;0;0;0;0;();(-2000.0, -2000.0);
06:48:01:378;06:48:01:365;1448647451.26;(0, 0);0;0;;;;;;;;;;;;;;2;15,30;0;0;0;0;0;0;0;();(-2000.0, -2000.0);
06:48:01:411;06:48:01:365;1448647451.26;(0, 0);0;0;;;;;;;;;;;;;;2;15,30;0;0;0;0;0;0;0;();(-2000.0, -2000.0);
06:48:01:427;06:48:01:365;1448647451.26;(0, 0);0;0;;;;;;;;;;;;;;2;15,30;0;0;0;0;0;0;0;();(-2000.0, -2000.0);
06:48:01:444;06:48:01:431;1448647451.33;(0, 0);0;0;;;;;;;;;;;;;;2;15,30;0;0;0;0;0;0;0;();(-2000.0, -2000.0);
06:48:01:460;06:48:01:431;1448647451.33;(0, 0);0;0;;;;;;;;;;;;;;2;15,30;0;0;0;0;0;0;0;();(-2000.0, -2000.0);
06:48:01:477;06:48:01:431;1448647451.33;(0, 0);0;0;;;;;;;;;;;;;;2;15,30;0;0;0;0;0;0;0;();(-2000.0, -2000.0);
06:48:01:510;06:48:01:495;1448647451.36;(0, 0);0;0;;;;;;;;;;;;;;2;15,30;0;0;0;0;0;0;0;();(-2000.0, -2000.0);
06:48:01:527;06:48:01:495;1448647451.36;(0, 0);0;0;;;;;;;;;;;;;;2;15,30;0;0;0;0;0;0;0;();(-2000.0, -2000.0);
06:48:01:543;06:48:01:495;1448647451.36;(0, 0);0;0;;;;;;;;;;;;;;2;15,30;0;0;0;0;0;0;0;();(-2000.0, -2000.0);
06:48:01:560;06:48:01:495;1448647451.36;(0, 0);0;0;;;;;;;;;;;;;;2;15,30;0;0;0;0;0;0;0;();(-2000.0, -2000.0);
06:48:01:593;06:48:01:564;1448647451.46;(0, 0);0;0;;;;;;;;;;;;;;2;15,30;0;0;0;0;0;0;0;();(-2000.0, -2000.0);
06:48:01:610;06:48:01:564;1448647451.46;(0, 0);0;0;;;;;;;;;;;;;;2;15,30;0;0;0;0;0;0;0;();(-2000.0, -2000.0);
06:48:01:625;06:48:01:564;1448647451.46;(0, 0);0;0;;;;;;;;;;;;;;2;15,30;0;0;0;0;0;0;0;();(-2000.0, -2000.0);
06:48:01:643;06:48:01:630;1448647451.53;(0, 0);0;0;;;;;;;;;;;;;;2;15,30;0;0;0;0;0;0;0;();(-2000.0, -2000.0);
06:48:01:659;06:48:01:630;1448647451.53;(0, 0);0;0;;;;;;;;;;;;;;2;15,30;0;0;0;0;0;0;0;();(-2000.0, -2000.0);
06:48:01:692;06:48:01:630;1448647451.53;(0, 0);0;0;;;;;;;;;;;;;;2;15,30;0;0;0;0;0;0;0;();(-2000.0, -2000.0);
06:48:01:709;06:48:01:697;1448647451.59;(0, 0);0;0;;;;;;;;;;;;;;2;15,30;0;0;0;0;0;0;0;();(-2000.0, -2000.0);
06:48:01:725;06:48:01:697;1448647451.59;(0, 0);0;0;;;;;;;;;;;;;;2;15,30;0;0;0;0;0;0;0;();(-2000.0, -2000.0);
06:48:01:743;06:48:01:697;1448647451.59;(0, 0);0;0;;;;;;;;;;;;;;2;15,30;0;0;0;0;0;0;0;();(-2000.0, -2000.0);
06:48:01:759;06:48:01:697;1448647451.59;(0, 0);0;0;;;;;;;;;;;;;;2;15,30;0;0;0;0;0;0;0;();(-2000.0, -2000.0);
06:48:01:791;06:48:01:760;1448647451.63;(0, 0);0;0;;;;;;;;;;;;;;2;15,30;0;0;0;0;0;0;0;();(-2000.0, -2000.0);
06:48:01:809;06:48:01:760;1448647451.63;(0, 0);0;0;;;;;;;;;;;;;;2;15,30;0;0;0;0;0;0;0;();(-2000.0, -2000.0);
06:48:01:825;06:48:01:760;1448647451.63;(0, 0);0;0;;;;;;;;;;;;;;2;15,30;0;0;0;0;0;0;0;();(-2000.0, -2000.0);
06:48:01:841;06:48:01:829;1448647451.69;(0, 0);0;0;;;;;;;;;;;;;;2;15,30;0;0;0;0;0;0;0;();(-2000.0, -2000.0);
06:48:01:858;06:48:01:829;1448647451.69;(0, 0);0;0;;;;;;;;;;;;;;2;15,30;0;0;0;0;0;0;0;();(-2000.0, -2000.0);
06:48:01:891;06:48:01:829;1448647451.69;(0, 0);0;0;;;;;;;;;;;;;;2;15,30;0;0;0;0;0;0;0;();(-2000.0, -2000.0);
06:48:01:907;06:48:01:894;1448647451.76;(0, 0);0;0;;;;;;;;;;;;;;2;15,30;0;0;0;0;0;0;0;();(-2000.0, -2000.0);
06:48:01:925;06:48:01:894;1448647451.76;(0, 0);0;0;;;;;;;;;;;;;;2;15,30;0;0;0;0;0;0;0;();(-2000.0, -2000.0);
06:48:01:941;06:48:01:894;1448647451.76;(0, 0);0;0;;;;;;;;;;;;;;2;15,30;0;0;0;0;0;0;0;();(-2000.0, -2000.0);
06:48:01:957;06:48:01:894;1448647451.76;(0, 0);0;0;;;;;;;;;;;;;;2;15,30;0;0;0;0;0;0;0;();(-2000.0, -2000.0);
06:48:01:991;06:48:01:960;1448647451.83;(0, 0);0;0;;;;;;;;;;;;;;2;15,30;0;0;0;0;0;0;0;();(-2000.0, -2000.0);
06:48:02:007;06:48:01:960;1448647451.83;(0, 0);0;0;;;;;;;;;;;;;;2;15,30;0;0;0;0;0;0;0;();(-2000.0, -2000.0);
06:48:02:024;06:48:01:960;1448647451.83;(0, 0);0;0;;;;;;;;;;;;;;2;15,30;0;0;0;0;0;0;0;();(-2000.0, -2000.0);
06:48:02:041;06:48:02:028;1448647451.89;(0, 0);0;0;;;;;;;;;;;;;;2;15,30;0;0;0;0;0;0;0;();(-2000.0, -2000.0);
06:48:02:057;06:48:02:028;1448647451.89;(0, 0);0;0;;;;;;;;;;;;;;2;15,30;0;0;0;0;0;0;0;();(-2000.0, -2000.0);
06:48:02:090;06:48:02:028;1448647451.89;(0, 0);0;0;;;;;;;;;;;;;;2;15,30;0;0;0;0;0;0;0;();(-2000.0, -2000.0);
06:48:02:106;06:48:02:094;1448647451.96;(0, 0);0;0;;;;;;;;;;;;;;2;15,30;0;0;0;0;0;0;0;();(-2000.0, -2000.0);
06:48:02:123;06:48:02:094;1448647451.96;(0, 0);0;0;;;;;;;;;;;;;;2;15,30;0;0;0;0;0;0;0;();(-2000.0, -2000.0);
06:48:02:140;06:48:02:094;1448647451.96;(0, 0);0;0;;;;;;;;;;;;;;2;15,30;0;0;0;0;0;0;0;();(-2000.0, -2000.0);
06:48:02:173;06:48:02:159;1448647452.06;(0, 0);0;0;;;;;;;;;;;;;;2;15,30;0;0;0;0;0;0;0;();(-2000.0, -2000.0);
06:48:02:189;06:48:02:159;1448647452.06;(0, 0);0;0;;;;;;;;;;;;;;2;15,30;0;0;0;0;0;0;0;();(-2000.0, -2000.0);
06:48:02:206;06:48:02:159;1448647452.06;(0, 0);0;0;;;;;;;;;;;;;;2;15,30;0;0;0;0;0;0;0;();(-2000.0, -2000.0);
06:48:02:223;06:48:02:159;1448647452.06;(0, 0);0;0;;;;;;;;;;;;;;2;15,30;0;0;0;0;0;0;0;();(-2000.0, -2000.0);
06:48:02:239;06:48:02:224;1448647452.13;(0, 0);0;0;;;;;;;;;;;;;;2;15,30;0;0;0;0;0;0;0;();(-2000.0, -2000.0);
06:48:02:272;06:48:02:224;1448647452.13;(0, 0);0;0;;;;;;;;;;;;;;2;15,30;0;0;0;0;0;0;0;();(-2000.0, -2000.0);
06:48:02:289;06:48:02:224;1448647452.13;(0, 0);0;0;;;;;;;;;;;;;;2;15,30;0;0;0;0;0;0;0;();(-2000.0, -2000.0);
06:48:02:305;06:48:02:294;1448647452.19;(0, 0);0;0;;;;;;;;;;;;;;2;15,30;0;0;0;0;0;0;0;();(-2000.0, -2000.0);
06:48:02:322;06:48:02:294;1448647452.19;(0, 0);0;0;;;;;;;;;;;;;;2;15,30;0;0;0;0;0;0;0;();(-2000.0, -2000.0);
06:48:02:339;06:48:02:294;1448647452.19;(0, 0);0;0;;;;;;;;;;;;;;2;15,30;0;0;0;0;0;0;0;();(-2000.0, -2000.0);
06:48:02:372;06:48:02:361;1448647452.26;(0.569438362121582, 0.8825174861484104);18.1397972107;0.628217484992;;;;;;;;;;;;;;2;15,30;0;0;0;0;0;0;0;();(-2000.0, -2000.0);
06:48:02:388;06:48:02:361;1448647452.26;(0.569438362121582, 0.8825174861484104);18.1397972107;0.628217484992;;;;;;;;;;;;;;2;15,30;0;0;0;0;0;0;0;();(-2000.0, -2000.0);
06:48:02:405;06:48:02:361;1448647452.26;(0.569438362121582, 0.8825174861484104);18.1397972107;0.628217484992;;;;;;;;;;;;;;2;15,30;0;0;0;0;0;0;0;();(-2000.0, -2000.0);
06:48:02:421;06:48:02:361;1448647452.26;(0.569438362121582, 0.8825174861484104);18.1397972107;0.628217484992;;;;;;;;;;;;;;2;15,30;0;0;0;0;0;0;0;();(-2000.0, -2000.0);
06:48:02:438;06:48:02:424;1448647452.32;(0, 0);0;0;;;;;;;;;;;;;;2;15,30;0;0;0;0;0;0;0;();(-2000.0, -2000.0);
06:48:02:471;06:48:02:424;1448647452.32;(0, 0);0;0;;;;;;;;;;;;;;2;15,30;0;0;0;0;0;0;0;();(-2000.0, -2000.0);
06:48:02:488;06:48:02:424;1448647452.32;(0, 0);0;0;;;;;;;;;;;;;;2;15,30;0;0;0;0;0;0;0;();(-2000.0, -2000.0);
06:48:02:504;06:48:02:492;1448647452.39;(0, 0);0;0;;;;;;;;;;;;;;2;15,30;0;0;0;0;0;0;0;();(-2000.0, -2000.0);
06:48:02:520;06:48:02:492;1448647452.39;(0, 0);0;0;;;;;;;;;;;;;;2;15,30;0;0;0;0;0;0;0;();(-2000.0, -2000.0);
06:48:02:537;06:48:02:492;1448647452.39;(0, 0);0;0;;;;;;;;;;;;;;2;15,30;0;0;0;0;0;0;0;();(-2000.0, -2000.0);
06:48:02:570;06:48:02:559;1448647452.46;(0, 0);0;0;;;;;;;;;;;;;;2;15,30;0;0;0;0;0;0;0;();(-2000.0, -2000.0);
06:48:02:587;06:48:02:559;1448647452.46;(0, 0);0;0;;;;;;;;;;;;;;2;15,30;0;0;0;0;0;0;0;();(-2000.0, -2000.0);
06:48:02:603;06:48:02:559;1448647452.46;(0, 0);0;0;;;;;;;;;;;;;;2;15,30;0;0;0;0;0;0;0;();(-2000.0, -2000.0);
06:48:02:620;06:48:02:559;1448647452.46;(0, 0);0;0;;;;;;;;;;;;;;2;15,30;0;0;0;0;0;0;0;();(-2000.0, -2000.0);
06:48:02:637;06:48:02:625;1448647452.49;(0, 0);0;0;;;;;;;;;;;;;;2;15,30;0;0;0;0;0;0;0;();(-2000.0, -2000.0);
06:48:02:669;06:48:02:625;1448647452.49;(0, 0);0;0;;;;;;;;;;;;;;2;15,30;0;0;0;0;0;0;0;();(-2000.0, -2000.0);
06:48:02:687;06:48:02:625;1448647452.49;(0, 0);0;0;;;;;;;;;;;;;;2;15,30;0;0;0;0;0;0;0;();(-2000.0, -2000.0);
06:48:02:704;06:48:02:692;1448647452.56;(0, 0);0;0;;;;;;;;;;;;;;2;15,30;0;0;0;0;0;0;0;();(-2000.0, -2000.0);
06:48:02:719;06:48:02:692;1448647452.56;(0, 0);0;0;;;;;;;;;;;;;;2;15,30;0;0;0;0;0;0;0;();(-2000.0, -2000.0);
06:48:02:753;06:48:02:692;1448647452.56;(0, 0);0;0;;;;;;;;;;;;;;2;15,30;0;0;0;0;0;0;0;();(-2000.0, -2000.0);
06:48:02:769;06:48:02:756;1448647452.62;(0.8117412567138672, 0.687230110168457);18.1309642792;0.8624211823;;;;;;;;;;;;;;2;15,30;0;0;0;0;0;0;0;();(-2000.0, -2000.0);
06:48:02:785;06:48:02:756;1448647452.62;(0.8117412567138672, 0.687230110168457);18.1309642792;0.8624211823;;;;;;;;;;;;;;2;15,30;0;0;0;0;0;0;0;();(-2000.0, -2000.0);
06:48:02:802;06:48:02:756;1448647452.62;(0.8117412567138672, 0.687230110168457);18.1309642792;0.8624211823;;;;;;;;;;;;;;2;15,30;0;0;0;0;0;0;0;();(-2000.0, -2000.0);
06:48:02:819;06:48:02:756;1448647452.62;(0.8117412567138672, 0.687230110168457);18.1309642792;0.8624211823;;;;;;;;;;;;;;2;15,30;0;0;0;0;0;0;0;();(-2000.0, -2000.0);
06:48:02:852;06:48:02:824;1448647452.69;(0, 0);0;0;;;;;;;;;;;;;;2;15,30;0;0;0;0;0;0;0;();(-2000.0, -2000.0);
06:48:02:868;06:48:02:824;1448647452.69;(0, 0);0;0;;;;;;;;;;;;;;2;15,30;0;0;0;0;0;0;0;();(-2000.0, -2000.0);
06:48:02:886;06:48:02:824;1448647452.69;(0, 0);0;0;;;;;;;;;;;;;;2;15,30;0;0;0;0;0;0;0;();(-2000.0, -2000.0);
06:48:02:902;06:48:02:890;1448647452.76;(0, 0);0;0;;;;;;;;;;;;;;2;15,30;0;0;0;0;0;0;0;();(-2000.0, -2000.0);
06:48:02:918;06:48:02:890;1448647452.76;(0, 0);0;0;;;;;;;;;;;;;;2;15,30;0;0;0;0;0;0;0;();(-2000.0, -2000.0);
06:48:02:952;06:48:02:890;1448647452.76;(0, 0);0;0;;;;;;;;;;;;;;2;15,30;0;0;0;0;0;0;0;();(-2000.0, -2000.0);
06:48:02:968;06:48:02:956;1448647452.82;(0, 0);0;0;;;;;;;;;;;;;;2;15,30;0;0;0;0;0;0;0;();(-2000.0, -2000.0);
06:48:02:986;06:48:02:956;1448647452.82;(0, 0);0;0;;;;;;;;;;;;;;2;15,30;0;0;0;0;0;0;0;();(-2000.0, -2000.0);
06:48:03:001;06:48:02:956;1448647452.82;(0, 0);0;0;;;;;;;;;;;;;;2;15,30;0;0;0;0;0;0;0;();(-2000.0, -2000.0);
06:48:03:019;06:48:02:956;1448647452.82;(0, 0);0;0;;;;;;;;;;;;;;2;15,30;0;0;0;0;0;0;0;();(-2000.0, -2000.0);
06:48:03:051;06:48:03:024;1448647452.92;(0, 0);0;0;;;;;;;;;;;;;;2;15,30;0;0;0;0;0;0;0;();(-2000.0, -2000.0);
06:48:03:067;06:48:03:024;1448647452.92;(0, 0);0;0;;;;;;;;;;;;;;2;15,30;0;0;0;0;0;0;0;();(-2000.0, -2000.0);
06:48:03:085;06:48:03:024;1448647452.92;(0, 0);0;0;;;;;;;;;;;;;;2;15,30;0;0;0;0;0;0;0;();(-2000.0, -2000.0);
06:48:03:101;06:48:03:089;1448647452.99;(0, 0);0;0;;;;;;;;;;;;;;2;15,30;0;0;0;0;0;0;0;();(-2000.0, -2000.0);
06:48:03:118;06:48:03:089;1448647452.99;(0, 0);0;0;;;;;;;;;;;;;;2;15,30;0;0;0;0;0;0;0;();(-2000.0, -2000.0);
06:48:03:150;06:48:03:089;1448647452.99;(0, 0);0;0;;;;;;;;;;;;;;2;15,30;0;0;0;0;0;0;0;();(-2000.0, -2000.0);
06:48:03:167;06:48:03:156;1448647453.02;(0, 0);0;0;;;;;;;;;;;;;;2;15,30;0;0;0;0;0;0;0;();(-2000.0, -2000.0);
06:48:03:183;06:48:03:156;1448647453.02;(0, 0);0;0;;;;;;;;;;;;;;2;15,30;0;0;0;0;0;0;0;();(-2000.0, -2000.0);
06:48:03:200;06:48:03:156;1448647453.02;(0, 0);0;0;;;;;;;;;;;;;;2;15,30;0;0;0;0;0;0;0;();(-2000.0, -2000.0);
06:48:03:217;06:48:03:156;1448647453.02;(0, 0);0;0;;;;;;;;;;;;;;2;15,30;0;0;0;0;0;0;0;();(-2000.0, -2000.0);
06:48:03:249;06:48:03:221;1448647453.12;(0, 0);0;0;;;;;;;;;;;;;;2;15,30;0;0;0;0;0;0;0;();(-2000.0, -2000.0);
06:48:03:266;06:48:03:221;1448647453.12;(0, 0);0;0;;;;;;;;;;;;;;2;15,30;0;0;0;0;0;0;0;();(-2000.0, -2000.0);
06:48:03:283;06:48:03:221;1448647453.12;(0, 0);0;0;;;;;;;;;;;;;;2;15,30;0;0;0;0;0;0;0;();(-2000.0, -2000.0);
06:48:03:300;06:48:03:288;1448647453.16;(0, 0);0;0;;;;;;;;;;;;;;2;15,30;0;0;0;0;0;0;0;();(-2000.0, -2000.0);
06:48:03:333;06:48:03:288;1448647453.16;(0, 0);0;0;;;;;;;;;;;;;;2;15,30;0;0;0;0;0;0;0;();(-2000.0, -2000.0);
06:48:03:350;06:48:03:288;1448647453.16;(0, 0);0;0;;;;;;;;;;;;;;2;15,30;0;0;0;0;0;0;0;();(-2000.0, -2000.0);
06:48:03:366;06:48:03:355;1448647453.22;(0, 0);0;0;;;;;;;;;;;;;;2;15,30;0;0;0;0;0;0;0;();(-2000.0, -2000.0);
06:48:03:382;06:48:03:355;1448647453.22;(0, 0);0;0;;;;;;;;;;;;;;2;15,30;0;0;0;0;0;0;0;();(-2000.0, -2000.0);
06:48:03:398;06:48:03:355;1448647453.22;(0, 0);0;0;;;;;;;;;;;;;;2;15,30;0;0;0;0;0;0;0;();(-2000.0, -2000.0);
06:48:03:432;06:48:03:420;1448647453.29;(0, 0);0;0;;;;;;;;;;;;;;2;15,30;0;0;0;0;0;0;0;();(-2000.0, -2000.0);
06:48:03:448;06:48:03:420;1448647453.29;(0, 0);0;0;;;;;;;;;;;;;;2;15,30;0;0;0;0;0;0;0;();(-2000.0, -2000.0);
06:48:03:465;06:48:03:420;1448647453.29;(0, 0);0;0;;;;;;;;;;;;;;2;15,30;0;0;0;0;0;0;0;();(-2000.0, -2000.0);
06:48:03:482;06:48:03:420;1448647453.29;(0, 0);0;0;;;;;;;;;;;;;;2;15,30;0;0;0;0;0;0;0;();(-2000.0, -2000.0);
06:48:03:498;06:48:03:488;1448647453.39;(0, 0);0;0;;;;;;;;;;;;;;2;15,30;0;0;0;0;0;0;0;();(-2000.0, -2000.0);
06:48:03:531;06:48:03:488;1448647453.39;(0, 0);0;0;;;;;;;;;;;;;;2;15,30;0;0;0;0;0;0;0;();(-2000.0, -2000.0);
06:48:03:547;06:48:03:488;1448647453.39;(0, 0);0;0;;;;;;;;;;;;;;2;15,30;0;0;0;0;0;0;0;();(-2000.0, -2000.0);
06:48:03:564;06:48:03:551;1448647453.42;(0, 0);0;0;;;;;;;;;;;;;;2;15,30;0;0;0;0;0;0;0;();(-2000.0, -2000.0);
06:48:03:581;06:48:03:551;1448647453.42;(0, 0);0;0;;;;;;;;;;;;;;2;15,30;0;0;0;0;0;0;0;();(-2000.0, -2000.0);
06:48:03:597;06:48:03:551;1448647453.42;(0, 0);0;0;;;;;;;;;;;;;;2;15,30;0;0;0;0;0;0;0;();(-2000.0, -2000.0);
06:48:03:630;06:48:03:619;1448647453.52;(0, 0);0;0;;;;;;;;;;;;;;2;15,30;0;0;0;0;0;0;0;();(-2000.0, -2000.0);
06:48:03:647;06:48:03:619;1448647453.52;(0, 0);0;0;;;;;;;;;;;;;;2;15,30;0;0;0;0;0;0;0;();(-2000.0, -2000.0);
06:48:03:664;06:48:03:619;1448647453.52;(0, 0);0;0;;;;;;;;;;;;;;2;15,30;0;0;0;0;0;0;0;();(-2000.0, -2000.0);
06:48:03:681;06:48:03:619;1448647453.52;(0, 0);0;0;;;;;;;;;;;;;;2;15,30;0;0;0;0;0;0;0;();(-2000.0, -2000.0);
06:48:03:696;06:48:03:688;1448647453.56;(0, 0);0;0;;;;;;;;;;;;;;2;15,30;0;0;0;0;0;0;0;();(-2000.0, -2000.0);
06:48:03:730;06:48:03:688;1448647453.56;(0, 0);0;0;;;;;;;;;;;;;;2;15,30;0;0;0;0;0;0;0;();(-2000.0, -2000.0);
06:48:03:746;06:48:03:688;1448647453.56;(0, 0);0;0;;;;;;;;;;;;;;2;15,30;0;0;0;0;0;0;0;();(-2000.0, -2000.0);
06:48:03:764;06:48:03:752;1448647453.62;(0, 0);0;0;;;;;;;;;;;;;;2;15,30;0;0;0;0;0;0;0;();(-2000.0, -2000.0);
06:48:03:781;06:48:03:752;1448647453.62;(0, 0);0;0;;;;;;;;;;;;;;2;15,30;0;0;0;0;0;0;0;();(-2000.0, -2000.0);
06:48:03:813;06:48:03:752;1448647453.62;(0, 0);0;0;;;;;;;;;;;;;;2;15,30;0;0;0;0;0;0;0;();(-2000.0, -2000.0);
06:48:03:830;06:48:03:820;1448647453.72;(0, 0);0;0;;;;;;;;;;;;;;2;15,30;0;0;0;0;0;0;0;();(-2000.0, -2000.0);
06:48:03:846;06:48:03:820;1448647453.72;(0, 0);0;0;;;;;;;;;;;;;;2;15,30;0;0;0;0;0;0;0;();(-2000.0, -2000.0);
06:48:03:862;06:48:03:820;1448647453.72;(0, 0);0;0;;;;;;;;;;;;;;2;15,30;0;0;0;0;0;0;0;();(-2000.0, -2000.0);
06:48:03:879;06:48:03:820;1448647453.72;(0, 0);0;0;;;;;;;;;;;;;;2;15,30;0;0;0;0;0;0;0;();(-2000.0, -2000.0);
06:48:03:912;06:48:03:888;1448647453.76;(0, 0);0;0;;;;;;;;;;;;;;2;15,30;0;0;0;0;0;0;0;();(-2000.0, -2000.0);
06:48:03:929;06:48:03:888;1448647453.76;(0, 0);0;0;;;;;;;;;;;;;;2;15,30;0;0;0;0;0;0;0;();(-2000.0, -2000.0);
06:48:03:945;06:48:03:888;1448647453.76;(0, 0);0;0;;;;;;;;;;;;;;2;15,30;0;0;0;0;0;0;0;();(-2000.0, -2000.0);
06:48:03:962;06:48:03:952;1448647453.82;(0, 0);0;0;;;;;;;;;;;;;;2;15,30;0;0;0;0;0;0;0;();(-2000.0, -2000.0);
06:48:03:978;06:48:03:952;1448647453.82;(0, 0);0;0;;;;;;;;;;;;;;2;15,30;0;0;0;0;0;0;0;();(-2000.0, -2000.0);
06:48:04:012;06:48:03:952;1448647453.82;(0, 0);0;0;;;;;;;;;;;;;;2;15,30;0;0;0;0;0;0;0;();(-2000.0, -2000.0);
06:48:04:029;06:48:04:020;1448647453.89;(0, 0);0;0;;;;;;;;;;;;;;2;15,30;0;0;0;0;0;0;0;();(-2000.0, -2000.0);
06:48:04:046;06:48:04:020;1448647453.89;(0, 0);0;0;;;;;;;;;;;;;;2;15,30;0;0;0;0;0;0;0;();(-2000.0, -2000.0);
06:48:04:062;06:48:04:020;1448647453.89;(0, 0);0;0;;;;;;;;;;;;;;2;15,30;0;0;0;0;0;0;0;();(-2000.0, -2000.0);
06:48:04:077;06:48:04:020;1448647453.89;(0, 0);0;0;;;;;;;;;;;;;;2;15,30;0;0;0;0;0;0;0;();(-2000.0, -2000.0);
06:48:04:111;06:48:04:083;1448647453.96;(0, 0);0;0;;;;;;;;;;;;;;2;15,30;0;0;0;0;0;0;0;();(-2000.0, -2000.0);
06:48:04:127;06:48:04:083;1448647453.96;(0, 0);0;0;;;;;;;;;;;;;;2;15,30;0;0;0;0;0;0;0;();(-2000.0, -2000.0);
06:48:04:144;06:48:04:083;1448647453.96;(0, 0);0;0;;;;;;;;;;;;;;2;15,30;0;0;0;0;0;0;0;();(-2000.0, -2000.0);
06:48:04:161;06:48:04:154;1448647454.02;(0, 0);0;0;;;;;;;;;;;;;;2;15,30;0;0;0;0;0;0;0;();(-2000.0, -2000.0);
06:48:04:177;06:48:04:154;1448647454.02;(0, 0);0;0;;;;;;;;;;;;;;2;15,30;0;0;0;0;0;0;0;();(-2000.0, -2000.0);
06:48:04:212;06:48:04:154;1448647454.02;(0, 0);0;0;;;;;;;;;;;;;;2;15,30;0;0;0;0;0;0;0;();(-2000.0, -2000.0);
06:48:04:228;06:48:04:216;1448647454.09;(0, 0);0;0;;;;;;;;;;;;;;2;15,30;0;0;0;0;0;0;0;();(-2000.0, -2000.0);
06:48:04:245;06:48:04:216;1448647454.09;(0, 0);0;0;;;;;;;;;;;;;;2;15,30;0;0;0;0;0;0;0;();(-2000.0, -2000.0);
06:48:04:260;06:48:04:216;1448647454.09;(0, 0);0;0;;;;;;;;;;;;;;2;15,30;0;0;0;0;0;0;0;();(-2000.0, -2000.0);
06:48:04:276;06:48:04:216;1448647454.09;(0, 0);0;0;;;;;;;;;;;;;;2;15,30;0;0;0;0;0;0;0;();(-2000.0, -2000.0);
06:48:04:310;06:48:04:283;1448647454.16;(0, 0);0;0;;;;;;;;;;;;;;2;15,30;0;0;0;0;0;0;0;();(-2000.0, -2000.0);
06:48:04:327;06:48:04:283;1448647454.16;(0, 0);0;0;;;;;;;;;;;;;;2;15,30;0;0;0;0;0;0;0;();(-2000.0, -2000.0);
06:48:04:344;06:48:04:283;1448647454.16;(0, 0);0;0;;;;;;;;;;;;;;2;15,30;0;0;0;0;0;0;0;();(-2000.0, -2000.0);
06:48:04:359;06:48:04:351;1448647454.22;(0, 0);0;0;;;;;;;;;;;;;;2;15,30;0;0;0;0;0;0;0;();(-2000.0, -2000.0);
06:48:04:393;06:48:04:351;1448647454.22;(0, 0);0;0;;;;;;;;;;;;;;2;15,30;0;0;0;0;0;0;0;();(-2000.0, -2000.0);
06:48:04:410;06:48:04:351;1448647454.22;(0, 0);0;0;;;;;;;;;;;;;;2;15,30;0;0;0;0;0;0;0;();(-2000.0, -2000.0);
06:48:04:426;06:48:04:415;1448647454.29;(0, 0);0;0;;;;;;;;;;;;;;2;15,30;0;0;0;0;0;0;0;();(-2000.0, -2000.0);
06:48:04:442;06:48:04:415;1448647454.29;(0, 0);0;0;;;;;;;;;;;;;;2;15,30;0;0;0;0;0;0;0;();(-2000.0, -2000.0);
06:48:04:459;06:48:04:415;1448647454.29;(0, 0);0;0;;;;;;;;;;;;;;2;15,30;0;0;0;0;0;0;0;();(-2000.0, -2000.0);
06:48:04:492;06:48:04:483;1448647454.36;(0, 0);0;0;;;;;;;;;;;;;;2;15,30;0;0;0;0;0;0;0;();(-2000.0, -2000.0);
06:48:04:509;06:48:04:483;1448647454.36;(0, 0);0;0;;;;;;;;;;;;;;2;15,30;0;0;0;0;0;0;0;();(-2000.0, -2000.0);
06:48:04:525;06:48:04:483;1448647454.36;(0, 0);0;0;;;;;;;;;;;;;;2;15,30;0;0;0;0;0;0;0;();(-2000.0, -2000.0);
06:48:04:541;06:48:04:483;1448647454.36;(0, 0);0;0;;;;;;;;;;;;;;2;15,30;0;0;0;0;0;0;0;();(-2000.0, -2000.0);
06:48:04:559;06:48:04:547;1448647454.42;(0, 0);0;0;;;;;;;;;;;;;;2;15,30;0;0;0;0;0;0;0;();(-2000.0, -2000.0);
06:48:04:591;06:48:04:547;1448647454.42;(0, 0);0;0;;;;;;;;;;;;;;2;15,30;0;0;0;0;0;0;0;();(-2000.0, -2000.0);
06:48:04:609;06:48:04:547;1448647454.42;(0, 0);0;0;;;;;;;;;;;;;;2;15,30;0;0;0;0;0;0;0;();(-2000.0, -2000.0);
06:48:04:625;06:48:04:616;1448647454.49;(0, 0);0;0;;;;;;;;;;;;;;2;15,30;0;0;0;0;0;0;0;();(-2000.0, -2000.0);
06:48:04:642;06:48:04:616;1448647454.49;(0, 0);0;0;;;;;;;;;;;;;;2;15,30;0;0;0;0;0;0;0;();(-2000.0, -2000.0);
06:48:04:657;06:48:04:616;1448647454.49;(0, 0);0;0;;;;;;;;;;;;;;2;15,30;0;0;0;0;0;0;0;();(-2000.0, -2000.0);
06:48:04:691;06:48:04:683;1448647454.56;(0, 0);0;0;;;;;;;;;;;;;;2;15,30;0;0;0;0;0;0;0;();(-2000.0, -2000.0);
06:48:04:708;06:48:04:683;1448647454.56;(0, 0);0;0;;;;;;;;;;;;;;2;15,30;0;0;0;0;0;0;0;();(-2000.0, -2000.0);
06:48:04:725;06:48:04:683;1448647454.56;(0, 0);0;0;;;;;;;;;;;;;;2;15,30;0;0;0;0;0;0;0;();(-2000.0, -2000.0);
06:48:04:741;06:48:04:683;1448647454.56;(0, 0);0;0;;;;;;;;;;;;;;2;15,30;0;0;0;0;0;0;0;();(-2000.0, -2000.0);
06:48:04:757;06:48:04:747;1448647454.62;(0, 0);0;0;;;;;;;;;;;;;;2;15,30;0;0;0;0;0;0;0;();(-2000.0, -2000.0);
06:48:04:791;06:48:04:747;1448647454.62;(0, 0);0;0;;;;;;;;;;;;;;2;15,30;0;0;0;0;0;0;0;();(-2000.0, -2000.0);
06:48:04:807;06:48:04:747;1448647454.62;(0, 0);0;0;;;;;;;;;;;;;;2;15,30;0;0;0;0;0;0;0;();(-2000.0, -2000.0);
06:48:04:823;06:48:04:815;1448647454.69;(0, 0);0;0;;;;;;;;;;;;;;2;15,30;0;0;0;0;0;0;0;();(-2000.0, -2000.0);
06:48:04:840;06:48:04:815;1448647454.69;(0, 0);0;0;;;;;;;;;;;;;;2;15,30;0;0;0;0;0;0;0;();(-2000.0, -2000.0);
06:48:04:856;06:48:04:815;1448647454.69;(0, 0);0;0;;;;;;;;;;;;;;2;15,30;0;0;0;0;0;0;0;();(-2000.0, -2000.0);
06:48:04:894;06:48:04:880;1448647454.76;(0, 0);0;0;;;;;;;;;;;;;;4;15,30,73,34;0;0;0;0;0;0;0;();(-2000.0, -2000.0);
06:48:04:906;06:48:04:880;1448647454.76;(0, 0);0;0;;;;;;;;;;;;;;4;15,30,73,34;0;0;0;0;0;0;0;();(-2000.0, -2000.0);
06:48:04:923;06:48:04:880;1448647454.76;(0, 0);0;0;;;;;;;;;;;;;;4;15,30,73,34;0;0;0;0;0;0;0;();(-2000.0, -2000.0);
06:48:04:940;06:48:04:880;1448647454.76;(0, 0);0;0;;;;;;;;;;;;;;4;15,30,73,34;0;0;0;0;0;0;0;();(-2000.0, -2000.0);
06:48:04:973;06:48:04:947;1448647454.82;(0, 0);0;0;;;;;;;;;;;;;;4;15,30,73,34;0;0;0;0;0;0;0;();(-2000.0, -2000.0);
06:48:04:989;06:48:04:947;1448647454.82;(0, 0);0;0;;;;;;;;;;;;;;4;15,30,73,34;0;0;0;0;0;0;0;();(-2000.0, -2000.0);
06:48:05:006;06:48:04:947;1448647454.82;(0, 0);0;0;;;;;;;;;;;;;;4;15,30,73,34;0;0;0;0;0;0;0;();(-2000.0, -2000.0);
06:48:05:022;06:48:05:015;1448647454.89;(0, 0);0;0;;;;;;;;;;;;;;4;15,30,73,34;0;0;0;0;0;0;0;();(-2000.0, -2000.0);
06:48:05:038;06:48:05:015;1448647454.89;(0, 0);0;0;;;;;;;;;;;;;;4;15,30,73,34;0;0;0;0;0;0;0;();(-2000.0, -2000.0);
06:48:05:073;06:48:05:015;1448647454.89;(0, 0);0;0;;;;;;;;;;;;;;4;15,30,73,34;0;0;0;0;0;0;0;();(-2000.0, -2000.0);
06:48:05:089;06:48:05:080;1448647454.96;(0, 0);0;0;;;;;;;;;;;;;;4;15,30,73,34;0;0;0;0;0;0;0;();(-2000.0, -2000.0);
06:48:05:105;06:48:05:080;1448647454.96;(0, 0);0;0;;;;;;;;;;;;;;4;15,30,73,34;0;0;0;0;0;0;0;();(-2000.0, -2000.0);
06:48:05:122;06:48:05:080;1448647454.96;(0, 0);0;0;;;;;;;;;;;;;;4;15,30,73,34;0;0;0;0;0;0;0;();(-2000.0, -2000.0);
06:48:05:138;06:48:05:080;1448647454.96;(0, 0);0;0;;;;;;;;;;;;;;4;15,30,73,34;0;0;0;0;0;0;0;();(-2000.0, -2000.0);
06:48:05:171;06:48:05:147;1448647455.02;(0, 0);0;0;;;;;;;;;;;;;;4;15,30,73,34;0;0;0;0;0;0;0;();(-2000.0, -2000.0);
06:48:05:188;06:48:05:147;1448647455.02;(0, 0);0;0;;;;;;;;;;;;;;4;15,30,73,34;0;0;0;0;0;0;0;();(-2000.0, -2000.0);
06:48:05:205;06:48:05:147;1448647455.02;(0, 0);0;0;;;;;;;;;;;;;;4;15,30,73,34;0;0;0;0;0;0;0;();(-2000.0, -2000.0);
06:48:05:222;06:48:05:211;1448647455.09;(0, 0);0;0;;;;;;;;;;;;;;4;15,30,73,34;0;0;0;0;0;0;0;();(-2000.0, -2000.0);
06:48:05:238;06:48:05:211;1448647455.09;(0, 0);0;0;;;;;;;;;;;;;;4;15,30,73,34;0;0;0;0;0;0;0;();(-2000.0, -2000.0);
06:48:05:270;06:48:05:211;1448647455.09;(0, 0);0;0;;;;;;;;;;;;;;4;15,30,73,34;0;0;0;0;0;0;0;();(-2000.0, -2000.0);
06:48:05:287;06:48:05:280;1448647455.16;(0, 0);0;0;;;;;;;;;;;;;;4;15,30,73,34;0;0;0;0;0;0;0;();(-2000.0, -2000.0);
06:48:05:303;06:48:05:280;1448647455.16;(0, 0);0;0;;;;;;;;;;;;;;4;15,30,73,34;0;0;0;0;0;0;0;();(-2000.0, -2000.0);
06:48:05:321;06:48:05:280;1448647455.16;(0, 0);0;0;;;;;;;;;;;;;;4;15,30,73,34;0;0;0;0;0;0;0;();(-2000.0, -2000.0);
06:48:05:337;06:48:05:280;1448647455.16;(0, 0);0;0;;;;;;;;;;;;;;4;15,30,73,34;0;0;0;0;0;0;0;();(-2000.0, -2000.0);
06:48:05:370;06:48:05:343;1448647455.22;(0, 0);0;0;;;;;;;;;;;;;;4;15,30,73,34;0;0;0;0;0;0;0;();(-2000.0, -2000.0);
06:48:05:386;06:48:05:343;1448647455.22;(0, 0);0;0;;;;;;;;;;;;;;4;15,30,73,34;0;0;0;0;0;0;0;();(-2000.0, -2000.0);
06:48:05:403;06:48:05:343;1448647455.22;(0, 0);0;0;;;;;;;;;;;;;;4;15,30,73,34;0;0;0;0;0;0;0;();(-2000.0, -2000.0);
06:48:05:420;06:48:05:411;1448647455.29;(0, 0);0;0;;;;;;;;;;;;;;4;15,30,73,34;0;0;0;0;0;0;0;();(-2000.0, -2000.0);
06:48:05:437;06:48:05:411;1448647455.29;(0, 0);0;0;;;;;;;;;;;;;;4;15,30,73,34;0;0;0;0;0;0;0;();(-2000.0, -2000.0);
06:48:05:469;06:48:05:411;1448647455.29;(0, 0);0;0;;;;;;;;;;;;;;4;15,30,73,34;0;0;0;0;0;0;0;();(-2000.0, -2000.0);
06:48:05:487;06:48:05:479;1448647455.36;(0, 0);0;0;;;;;;;;;;;;;;4;15,30,73,34;0;0;0;0;0;0;0;();(-2000.0, -2000.0);
06:48:05:503;06:48:05:479;1448647455.36;(0, 0);0;0;;;;;;;;;;;;;;4;15,30,73,34;0;0;0;0;0;0;0;();(-2000.0, -2000.0);
06:48:05:519;06:48:05:479;1448647455.36;(0, 0);0;0;;;;;;;;;;;;;;4;15,30,73,34;0;0;0;0;0;0;0;();(-2000.0, -2000.0);
06:48:05:553;06:48:05:544;1448647455.42;(0, 0);0;0;;;;;;;;;;;;;;4;15,30,73,34;0;0;0;0;0;0;0;();(-2000.0, -2000.0);
06:48:05:569;06:48:05:544;1448647455.42;(0, 0);0;0;;;;;;;;;;;;;;4;15,30,73,34;0;0;0;0;0;0;0;();(-2000.0, -2000.0);
06:48:05:586;06:48:05:544;1448647455.42;(0, 0);0;0;;;;;;;;;;;;;;4;15,30,73,34;0;0;0;0;0;0;0;();(-2000.0, -2000.0);
06:48:05:602;06:48:05:544;1448647455.42;(0, 0);0;0;;;;;;;;;;;;;;4;15,30,73,34;0;0;0;0;0;0;0;();(-2000.0, -2000.0);
06:48:05:619;06:48:05:612;1448647455.49;(0, 0);0;0;;;;;;;;;;;;;;4;15,30,73,34;0;0;0;0;0;0;0;();(-2000.0, -2000.0);
06:48:05:652;06:48:05:612;1448647455.49;(0, 0);0;0;;;;;;;;;;;;;;4;15,30,73,34;0;0;0;0;0;0;0;();(-2000.0, -2000.0);
06:48:05:668;06:48:05:612;1448647455.49;(0, 0);0;0;;;;;;;;;;;;;;4;15,30,73,34;0;0;0;0;0;0;0;();(-2000.0, -2000.0);
06:48:05:685;06:48:05:675;1448647455.56;(0, 0);0;0;;;;;;;;;;;;;;3;15,73,34;0;0;0;5;1;0;0;();(-2000.0, -2000.0);
06:48:05:702;06:48:05:675;1448647455.56;(0, 0);0;0;;;;;;;;;;;;;;3;15,73,34;0;0;0;5;1;0;0;();(-2000.0, -2000.0);
06:48:05:718;06:48:05:675;1448647455.56;(0, 0);0;0;;;;;;;;;;;;;;3;15,73,34;0;0;0;5;1;0;0;();(-2000.0, -2000.0);
06:48:05:752;06:48:05:744;1448647455.62;(0, 0);0;0;;;;;;;;;;;;;;3;15,73,34;0;0;0;5;1;0;0;();(-2000.0, -2000.0);
06:48:05:768;06:48:05:744;1448647455.62;(0, 0);0;0;;;;;;;;;;;;;;3;15,73,34;0;0;0;5;1;0;0;();(-2000.0, -2000.0);
06:48:05:784;06:48:05:744;1448647455.62;(0, 0);0;0;;;;;;;;;;;;;;3;15,73,34;0;0;0;5;1;0;0;();(-2000.0, -2000.0);
06:48:05:800;06:48:05:744;1448647455.62;(0, 0);0;0;;;;;;;;;;;;;;3;15,73,34;0;0;0;5;1;0;0;();(-2000.0, -2000.0);
06:48:05:817;06:48:05:811;1448647455.69;(0, 0);0;0;;;;;;;;;;;;;;3;15,73,34;0;0;0;5;1;0;0;();(-2000.0, -2000.0);
06:48:05:851;06:48:05:811;1448647455.69;(0, 0);0;0;;;;;;;;;;;;;;3;15,73,34;0;0;0;5;1;0;0;();(-2000.0, -2000.0);
06:48:05:867;06:48:05:811;1448647455.69;(0, 0);0;0;;;;;;;;;;;;;;3;15,73,34;0;0;0;5;1;0;0;();(-2000.0, -2000.0);
06:48:05:884;06:48:05:876;1448647455.76;(0.8016317367553711, 0.6838422563340929);18.3763790131;0.904948415381;;;;;;;;;;;;;;3;15,73,34;0;0;0;5;1;0;0;();(-2000.0, -2000.0);
06:48:05:901;06:48:05:876;1448647455.76;(0.8016317367553711, 0.6838422563340929);18.3763790131;0.904948415381;;;;;;;;;;;;;;3;15,73,34;0;0;0;5;1;0;0;();(-2000.0, -2000.0);
06:48:05:917;06:48:05:876;1448647455.76;(0.8016317367553711, 0.6838422563340929);18.3763790131;0.904948415381;;;;;;;;;;;;;;3;15,73,34;0;0;0;5;1;0;0;();(-2000.0, -2000.0);
06:48:05:950;06:48:05:943;1448647455.82;(0, 0);0;0;;;;;;;;;;;;;;3;15,73,34;0;0;0;5;1;0;0;();(-2000.0, -2000.0);
06:48:05:967;06:48:05:943;1448647455.82;(0, 0);0;0;;;;;;;;;;;;;;3;15,73,34;0;0;0;5;1;0;0;();(-2000.0, -2000.0);
06:48:05:984;06:48:05:943;1448647455.82;(0, 0);0;0;;;;;;;;;;;;;;3;15,73,34;0;0;0;5;1;0;0;();(-2000.0, -2000.0);
06:48:06:000;06:48:05:943;1448647455.82;(0, 0);0;0;;;;;;;;;;;;;;3;15,73,34;0;0;0;5;1;0;0;();(-2000.0, -2000.0);
06:48:06:033;06:48:06:008;1448647455.89;(0, 0);0;0;;;;;;;;;;;;;;3;15,73,34;0;0;0;5;1;0;0;();(-2000.0, -2000.0);
06:48:06:049;06:48:06:008;1448647455.89;(0, 0);0;0;;;;;;;;;;;;;;3;15,73,34;0;0;0;5;1;0;0;();(-2000.0, -2000.0);
06:48:06:065;06:48:06:008;1448647455.89;(0, 0);0;0;;;;;;;;;;;;;;3;15,73,34;0;0;0;5;1;0;0;();(-2000.0, -2000.0);
06:48:06:083;06:48:06:075;1448647455.96;(0, 0);0;0;;;;;;;;;;;;;;3;15,73,34;0;0;0;5;1;0;0;();(-2000.0, -2000.0);
06:48:06:099;06:48:06:075;1448647455.96;(0, 0);0;0;;;;;;;;;;;;;;3;15,73,34;0;0;0;5;1;0;0;();(-2000.0, -2000.0);
06:48:06:132;06:48:06:075;1448647455.96;(0, 0);0;0;;;;;;;;;;;;;;3;15,73,34;0;0;0;5;1;0;0;();(-2000.0, -2000.0);
06:48:06:149;06:48:06:143;1448647456.02;(0, 0);0;0;;;;;;;;;;;;;;3;15,73,34;0;0;0;5;1;0;0;();(-2000.0, -2000.0);
06:48:06:165;06:48:06:143;1448647456.02;(0, 0);0;0;;;;;;;;;;;;;;3;15,73,34;0;0;0;5;1;0;0;();(-2000.0, -2000.0);
06:48:06:181;06:48:06:143;1448647456.02;(0, 0);0;0;;;;;;;;;;;;;;3;15,73,34;0;0;0;5;1;0;0;();(-2000.0, -2000.0);
06:48:06:199;06:48:06:143;1448647456.02;(0, 0);0;0;;;;;;;;;;;;;;3;15,73,34;0;0;0;5;1;0;0;();(-2000.0, -2000.0);
06:48:06:232;06:48:06:207;1448647456.09;(0, 0);0;0;;;;;;;;;;;;;;3;15,73,34;0;0;0;5;1;0;0;();(-2000.0, -2000.0);
06:48:06:249;06:48:06:207;1448647456.09;(0, 0);0;0;;;;;;;;;;;;;;3;15,73,34;0;0;0;5;1;0;0;();(-2000.0, -2000.0);
06:48:06:266;06:48:06:207;1448647456.09;(0, 0);0;0;;;;;;;;;;;;;;3;15,73,34;0;0;0;5;1;0;0;();(-2000.0, -2000.0);
06:48:06:282;06:48:06:276;1448647456.16;(0, 0);0;0;;;;;;;;;;;;;;3;15,73,34;0;0;0;5;1;0;0;();(-2000.0, -2000.0);
06:48:06:298;06:48:06:276;1448647456.16;(0, 0);0;0;;;;;;;;;;;;;;3;15,73,34;0;0;0;5;1;0;0;();(-2000.0, -2000.0);
06:48:06:331;06:48:06:276;1448647456.16;(0, 0);0;0;;;;;;;;;;;;;;3;15,73,34;0;0;0;5;1;0;0;();(-2000.0, -2000.0);
06:48:06:348;06:48:06:339;1448647456.22;(0, 0);0;0;;;;;;;;;;;;;;3;15,73,34;0;0;0;5;1;0;0;();(-2000.0, -2000.0);
06:48:06:365;06:48:06:339;1448647456.22;(0, 0);0;0;;;;;;;;;;;;;;3;15,73,34;0;0;0;5;1;0;0;();(-2000.0, -2000.0);
06:48:06:380;06:48:06:339;1448647456.22;(0, 0);0;0;;;;;;;;;;;;;;3;15,73,34;0;0;0;5;1;0;0;();(-2000.0, -2000.0);
06:48:06:397;06:48:06:339;1448647456.22;(0, 0);0;0;;;;;;;;;;;;;;3;15,73,34;0;0;0;5;1;0;0;();(-2000.0, -2000.0);
06:48:06:431;06:48:06:407;1448647456.29;(0, 0);0;0;;;;;;;;;;;;;;3;15,73,34;0;0;0;5;1;0;0;();(-2000.0, -2000.0);
06:48:06:448;06:48:06:407;1448647456.29;(0, 0);0;0;;;;;;;;;;;;;;3;15,73,34;0;0;0;5;1;0;0;();(-2000.0, -2000.0);
06:48:06:464;06:48:06:407;1448647456.29;(0, 0);0;0;;;;;;;;;;;;;;3;15,73,34;0;0;0;5;1;0;0;();(-2000.0, -2000.0);
06:48:06:480;06:48:06:475;1448647456.36;(0, 0);0;0;;;;;;;;;;;;;;3;15,73,34;0;0;0;5;1;0;0;();(-2000.0, -2000.0);
06:48:06:497;06:48:06:475;1448647456.36;(0, 0);0;0;;;;;;;;;;;;;;3;15,73,34;0;0;0;5;1;0;0;();(-2000.0, -2000.0);
06:48:06:529;06:48:06:475;1448647456.36;(0, 0);0;0;;;;;;;;;;;;;;3;15,73,34;0;0;0;5;1;0;0;();(-2000.0, -2000.0);
06:48:06:547;06:48:06:540;1448647456.42;(0, 0);0;0;;;;;;;;;;;;;;3;15,73,34;0;0;0;5;1;0;0;();(-2000.0, -2000.0);
06:48:06:563;06:48:06:540;1448647456.42;(0, 0);0;0;;;;;;;;;;;;;;3;15,73,34;0;0;0;5;1;0;0;();(-2000.0, -2000.0);
06:48:06:580;06:48:06:540;1448647456.42;(0, 0);0;0;;;;;;;;;;;;;;3;15,73,34;0;0;0;5;1;0;0;();(-2000.0, -2000.0);
06:48:06:597;06:48:06:540;1448647456.42;(0, 0);0;0;;;;;;;;;;;;;;3;15,73,34;0;0;0;5;1;0;0;();(-2000.0, -2000.0);
06:48:06:630;06:48:06:607;1448647456.49;(0, 0);0;0;;;;;;;;;;;;;;3;15,73,34;0;0;0;5;1;0;0;();(-2000.0, -2000.0);
06:48:06:646;06:48:06:607;1448647456.49;(0, 0);0;0;;;;;;;;;;;;;;3;15,73,34;0;0;0;5;1;0;0;();(-2000.0, -2000.0);
06:48:06:663;06:48:06:607;1448647456.49;(0, 0);0;0;;;;;;;;;;;;;;3;15,73,34;0;0;0;5;1;0;0;();(-2000.0, -2000.0);
06:48:06:679;06:48:06:672;1448647456.56;(0, 0);0;0;;;;;;;;;;;;;;3;15,73,34;0;0;0;5;1;0;0;();(-2000.0, -2000.0);
06:48:06:711;06:48:06:672;1448647456.56;(0, 0);0;0;;;;;;;;;;;;;;3;15,73,34;0;0;0;5;1;0;0;();(-2000.0, -2000.0);
06:48:06:729;06:48:06:672;1448647456.56;(0, 0);0;0;;;;;;;;;;;;;;3;15,73,34;0;0;0;5;1;0;0;();(-2000.0, -2000.0);
06:48:06:745;06:48:06:740;1448647456.62;(0, 0);0;0;;;;;;;;;;;;;;3;15,73,34;0;0;0;5;1;0;0;();(-2000.0, -2000.0);
06:48:06:763;06:48:06:740;1448647456.62;(0, 0);0;0;;;;;;;;;;;;;;3;15,73,34;0;0;0;5;1;0;0;();(-2000.0, -2000.0);
06:48:06:778;06:48:06:740;1448647456.62;(0, 0);0;0;;;;;;;;;;;;;;3;15,73,34;0;0;0;5;1;0;0;();(-2000.0, -2000.0);
06:48:06:813;06:48:06:740;1448647456.62;(0, 0);0;0;;;;;;;;;;;;;;3;15,73,34;0;0;0;5;1;0;0;();(-2000.0, -2000.0);
06:48:06:828;06:48:06:818;1448647456.69;(0, 0);0;0;;;;;;;;;;;;;;3;15,73,34;0;0;0;5;1;0;0;();(-2000.0, -2000.0);
06:48:06:844;06:48:06:818;1448647456.69;(0, 0);0;0;;;;;;;;;;;;;;3;15,73,34;0;0;0;5;1;0;0;();(-2000.0, -2000.0);
06:48:06:861;06:48:06:818;1448647456.69;(0, 0);0;0;;;;;;;;;;;;;;3;15,73,34;0;0;0;5;1;0;0;();(-2000.0, -2000.0);
06:48:06:878;06:48:06:871;1448647456.76;(0, 0);0;0;;;;;;;;;;;;;;3;15,73,34;0;0;0;5;1;0;0;();(-2000.0, -2000.0);
06:48:06:911;06:48:06:871;1448647456.76;(0, 0);0;0;;;;;;;;;;;;;;3;15,73,34;0;0;0;5;1;0;0;();(-2000.0, -2000.0);
06:48:06:928;06:48:06:871;1448647456.76;(0, 0);0;0;;;;;;;;;;;;;;3;15,73,34;0;0;0;5;1;0;0;();(-2000.0, -2000.0);
06:48:06:944;06:48:06:940;1448647456.82;(0, 0);0;0;;;;;;;;;;;;;;3;15,73,34;0;0;0;5;1;0;0;();(-2000.0, -2000.0);
06:48:06:961;06:48:06:940;1448647456.82;(0, 0);0;0;;;;;;;;;;;;;;3;15,73,34;0;0;0;5;1;0;0;();(-2000.0, -2000.0);
06:48:06:977;06:48:06:940;1448647456.82;(0, 0);0;0;;;;;;;;;;;;;;3;15,73,34;0;0;0;5;1;0;0;();(-2000.0, -2000.0);
06:48:07:010;06:48:07:004;1448647456.89;(0, 0);0;0;;;;;;;;;;;;;;3;15,73,34;0;0;0;5;1;0;0;();(-2000.0, -2000.0);
06:48:07:027;06:48:07:004;1448647456.89;(0, 0);0;0;;;;;;;;;;;;;;3;15,73,34;0;0;0;5;1;0;0;();(-2000.0, -2000.0);
06:48:07:044;06:48:07:004;1448647456.89;(0, 0);0;0;;;;;;;;;;;;;;3;15,73,34;0;0;0;5;1;0;0;();(-2000.0, -2000.0);
06:48:07:060;06:48:07:004;1448647456.89;(0, 0);0;0;;;;;;;;;;;;;;3;15,73,34;0;0;0;5;1;0;0;();(-2000.0, -2000.0);
06:48:07:077;06:48:07:071;1448647456.96;(0, 0);0;0;;;;;;;;;;;;;;3;15,73,34;0;0;0;5;1;0;0;();(-2000.0, -2000.0);
06:48:07:110;06:48:07:071;1448647456.96;(0, 0);0;0;;;;;;;;;;;;;;3;15,73,34;0;0;0;5;1;0;0;();(-2000.0, -2000.0);
06:48:07:126;06:48:07:071;1448647456.96;(0, 0);0;0;;;;;;;;;;;;;;3;15,73,34;0;0;0;5;1;0;0;();(-2000.0, -2000.0);
06:48:07:143;06:48:07:139;1448647457.02;(0.7770906448364258, 0.7148893780178494);22.9634456635;0.615133053691;;;;;;;;;;;;;;3;15,73,34;0;0;0;5;1;0;0;();(-2000.0, -2000.0);
06:48:07:160;06:48:07:139;1448647457.02;(0.7770906448364258, 0.7148893780178494);22.9634456635;0.615133053691;;;;;;;;;;;;;;3;15,73,34;0;0;0;5;1;0;0;();(-2000.0, -2000.0);
06:48:07:193;06:48:07:139;1448647457.02;(0.7770906448364258, 0.7148893780178494);22.9634456635;0.615133053691;;;;;;;;;;;;;;3;15,73,34;0;0;0;5;1;0;0;();(-2000.0, -2000.0);
06:48:07:210;06:48:07:204;1448647457.09;(0.8489531517028809, 0.6535439809163411);22.3602409363;0.948841162301;;;;;;;;;;;;;;3;15,73,34;0;0;0;5;1;0;0;();(-2000.0, -2000.0);
06:48:07:226;06:48:07:204;1448647457.09;(0.8489531517028809, 0.6535439809163411);22.3602409363;0.948841162301;;;;;;;;;;;;;;3;15,73,34;0;0;0;5;1;0;0;();(-2000.0, -2000.0);
06:48:07:243;06:48:07:204;1448647457.09;(0.8489531517028809, 0.6535439809163411);22.3602409363;0.948841162301;;;;;;;;;;;;;;3;15,73,34;0;0;0;5;1;0;0;();(-2000.0, -2000.0);
06:48:07:259;06:48:07:204;1448647457.09;(0.8489531517028809, 0.6535439809163411);22.3602409363;0.948841162301;;;;;;;;;;;;;;3;15,73,34;0;0;0;5;1;0;0;();(-2000.0, -2000.0);
06:48:07:293;06:48:07:271;1448647457.16;(0, 0);0;0;;;;;;;;;;;;;;3;15,73,34;0;0;0;5;1;0;0;();(-2000.0, -2000.0);
06:48:07:309;06:48:07:271;1448647457.16;(0, 0);0;0;;;;;;;;;;;;;;3;15,73,34;0;0;0;5;1;0;0;();(-2000.0, -2000.0);
06:48:07:325;06:48:07:271;1448647457.16;(0, 0);0;0;;;;;;;;;;;;;;3;15,73,34;0;0;0;5;1;0;0;();(-2000.0, -2000.0);
06:48:07:342;06:48:07:335;1448647457.22;(0, 0);0;0;;;;;;;;;;;;;;3;15,73,34;0;0;0;5;1;0;0;();(-2000.0, -2000.0);
06:48:07:358;06:48:07:335;1448647457.22;(0, 0);0;0;;;;;;;;;;;;;;3;15,73,34;0;0;0;5;1;0;0;();(-2000.0, -2000.0);
06:48:07:392;06:48:07:335;1448647457.22;(0, 0);0;0;;;;;;;;;;;;;;3;15,73,34;0;0;0;5;1;0;0;();(-2000.0, -2000.0);
06:48:07:408;06:48:07:404;1448647457.29;(0, 0);0;0;;;;;;;;;;;;;;3;15,73,34;0;0;0;5;1;0;0;();(-2000.0, -2000.0);
06:48:07:425;06:48:07:404;1448647457.29;(0, 0);0;0;;;;;;;;;;;;;;3;15,73,34;0;0;0;5;1;0;0;();(-2000.0, -2000.0);
06:48:07:441;06:48:07:404;1448647457.29;(0, 0);0;0;;;;;;;;;;;;;;3;15,73,34;0;0;0;5;1;0;0;();(-2000.0, -2000.0);
06:48:07:458;06:48:07:404;1448647457.29;(0, 0);0;0;;;;;;;;;;;;;;3;15,73,34;0;0;0;5;1;0;0;();(-2000.0, -2000.0);
06:48:07:491;06:48:07:472;1448647457.36;(0, 0);0;0;;;;;;;;;;;;;;3;15,73,34;0;0;0;5;1;0;0;();(-2000.0, -2000.0);
06:48:07:507;06:48:07:472;1448647457.36;(0, 0);0;0;;;;;;;;;;;;;;3;15,73,34;0;0;0;5;1;0;0;();(-2000.0, -2000.0);
06:48:07:525;06:48:07:472;1448647457.36;(0, 0);0;0;;;;;;;;;;;;;;3;15,73,34;0;0;0;5;1;0;0;();(-2000.0, -2000.0);
06:48:07:541;06:48:07:536;1448647457.42;(0, 0);0;0;;;;;;;;;;;;;;3;15,73,34;0;0;0;5;1;0;0;();(-2000.0, -2000.0);
06:48:07:558;06:48:07:536;1448647457.42;(0, 0);0;0;;;;;;;;;;;;;;3;15,73,34;0;0;0;5;1;0;0;();(-2000.0, -2000.0);
06:48:07:590;06:48:07:536;1448647457.42;(0, 0);0;0;;;;;;;;;;;;;;3;15,73,34;0;0;0;5;1;0;0;();(-2000.0, -2000.0);
06:48:07:607;06:48:07:605;1448647457.49;(0.7761987209320068, 0.709177271525065);23.3520507812;0.701133629733;;;;;;;;;;;;;;3;15,73,34;0;0;0;5;1;0;0;();(-2000.0, -2000.0);
06:48:07:623;06:48:07:605;1448647457.49;(0.7761987209320068, 0.709177271525065);23.3520507812;0.701133629733;;;;;;;;;;;;;;3;15,73,34;0;0;0;5;1;0;0;();(-2000.0, -2000.0);
06:48:07:639;06:48:07:605;1448647457.49;(0.7761987209320068, 0.709177271525065);23.3520507812;0.701133629733;;;;;;;;;;;;;;3;15,73,34;0;0;0;5;1;0;0;();(-2000.0, -2000.0);
06:48:07:673;06:48:07:667;1448647457.56;(0, 0);0;0;;;;;;;;;;;;;;3;15,73,34;0;0;0;5;1;0;0;();(-2000.0, -2000.0);
06:48:07:690;06:48:07:667;1448647457.56;(0, 0);0;0;;;;;;;;;;;;;;3;15,73,34;0;0;0;5;1;0;0;();(-2000.0, -2000.0);
06:48:07:707;06:48:07:667;1448647457.56;(0, 0);0;0;;;;;;;;;;;;;;3;15,73,34;0;0;0;5;1;0;0;();(-2000.0, -2000.0);
06:48:07:724;06:48:07:667;1448647457.56;(0, 0);0;0;;;;;;;;;;;;;;3;15,73,34;0;0;0;5;1;0;0;();(-2000.0, -2000.0);
06:48:07:740;06:48:07:735;1448647457.62;(0, 0);0;0;;;;;;;;;;;;;;3;15,73,34;0;0;0;5;1;0;0;();(-2000.0, -2000.0);
06:48:07:772;06:48:07:735;1448647457.62;(0, 0);0;0;;;;;;;;;;;;;;3;15,73,34;0;0;0;5;1;0;0;();(-2000.0, -2000.0);
06:48:07:788;06:48:07:735;1448647457.62;(0, 0);0;0;;;;;;;;;;;;;;3;15,73,34;0;0;0;5;1;0;0;();(-2000.0, -2000.0);
06:48:07:806;06:48:07:799;1448647457.69;(0, 0);0;0;;;;;;;;;;;;;;3;15,73,34;0;0;0;5;1;0;0;();(-2000.0, -2000.0);
06:48:07:823;06:48:07:799;1448647457.69;(0, 0);0;0;;;;;;;;;;;;;;3;15,73,34;0;0;0;5;1;0;0;();(-2000.0, -2000.0);
06:48:07:838;06:48:07:799;1448647457.69;(0, 0);0;0;;;;;;;;;;;;;;3;15,73,34;0;0;0;5;1;0;0;();(-2000.0, -2000.0);
06:48:07:872;06:48:07:868;1448647457.76;(0, 0);0;0;;;;;;;;;;;;;;3;15,73,34;0;0;0;5;1;0;0;();(-2000.0, -2000.0);
06:48:07:888;06:48:07:868;1448647457.76;(0, 0);0;0;;;;;;;;;;;;;;3;15,73,34;0;0;0;5;1;0;0;();(-2000.0, -2000.0);
06:48:07:905;06:48:07:868;1448647457.76;(0, 0);0;0;;;;;;;;;;;;;;3;15,73,34;0;0;0;5;1;0;0;();(-2000.0, -2000.0);
06:48:07:922;06:48:07:868;1448647457.76;(0, 0);0;0;;;;;;;;;;;;;;3;15,73,34;0;0;0;5;1;0;0;();(-2000.0, -2000.0);
06:48:07:938;06:48:07:935;1448647457.82;(0, 0);0;0;;;;;;;;;;;;;;3;15,73,34;0;0;0;5;1;0;0;();(-2000.0, -2000.0);
06:48:07:972;06:48:07:935;1448647457.82;(0, 0);0;0;;;;;;;;;;;;;;3;15,73,34;0;0;0;5;1;0;0;();(-2000.0, -2000.0);
06:48:07:988;06:48:07:935;1448647457.82;(0, 0);0;0;;;;;;;;;;;;;;3;15,73,34;0;0;0;5;1;0;0;();(-2000.0, -2000.0);
06:48:08:005;06:48:08:000;1448647457.89;(0, 0);0;0;;;;;;;;;;;;;;3;15,73,34;0;0;0;5;1;0;0;();(-2000.0, -2000.0);
06:48:08:020;06:48:08:000;1448647457.89;(0, 0);0;0;;;;;;;;;;;;;;3;15,73,34;0;0;0;5;1;0;0;();(-2000.0, -2000.0);
06:48:08:038;06:48:08:000;1448647457.89;(0, 0);0;0;;;;;;;;;;;;;;3;15,73,34;0;0;0;5;1;0;0;();(-2000.0, -2000.0);
06:48:08:071;06:48:08:070;1448647457.96;(0, 0);0;0;;;;;;;;;;;;;;3;15,73,34;0;0;0;5;1;0;0;();(-2000.0, -2000.0);
06:48:08:087;06:48:08:070;1448647457.96;(0, 0);0;0;;;;;;;;;;;;;;3;15,73,34;0;0;0;5;1;0;0;();(-2000.0, -2000.0);
06:48:08:104;06:48:08:070;1448647457.96;(0, 0);0;0;;;;;;;;;;;;;;3;15,73,34;0;0;0;5;1;0;0;();(-2000.0, -2000.0);
06:48:08:120;06:48:08:070;1448647457.96;(0, 0);0;0;;;;;;;;;;;;;;3;15,73,34;0;0;0;5;1;0;0;();(-2000.0, -2000.0);
06:48:08:138;06:48:08:132;1448647458.02;(0, 0);0;0;;;;;;;;;;;;;;3;15,73,34;0;0;0;5;1;0;0;();(-2000.0, -2000.0);
06:48:08:170;06:48:08:132;1448647458.02;(0, 0);0;0;;;;;;;;;;;;;;3;15,73,34;0;0;0;5;1;0;0;();(-2000.0, -2000.0);
06:48:08:187;06:48:08:132;1448647458.02;(0, 0);0;0;;;;;;;;;;;;;;3;15,73,34;0;0;0;5;1;0;0;();(-2000.0, -2000.0);
06:48:08:204;06:48:08:200;1448647458.09;(0, 0);0;0;;;;;;;;;;;;;;3;15,73,34;0;0;0;5;1;0;0;();(-2000.0, -2000.0);
06:48:08:220;06:48:08:200;1448647458.09;(0, 0);0;0;;;;;;;;;;;;;;3;15,73,34;0;0;0;5;1;0;0;();(-2000.0, -2000.0);
06:48:08:253;06:48:08:200;1448647458.09;(0, 0);0;0;;;;;;;;;;;;;;3;15,73,34;0;0;0;5;1;0;0;();(-2000.0, -2000.0);
06:48:08:269;06:48:08:267;1448647458.16;(0, 0);0;0;;;;;;;;;;;;;;3;15,73,34;0;0;0;5;1;0;0;();(-2000.0, -2000.0);
06:48:08:285;06:48:08:267;1448647458.16;(0, 0);0;0;;;;;;;;;;;;;;3;15,73,34;0;0;0;5;1;0;0;();(-2000.0, -2000.0);
06:48:08:304;06:48:08:267;1448647458.16;(0, 0);0;0;;;;;;;;;;;;;;3;15,73,34;0;0;0;5;1;0;0;();(-2000.0, -2000.0);
06:48:08:319;06:48:08:267;1448647458.16;(0, 0);0;0;;;;;;;;;;;;;;3;15,73,34;0;0;0;5;1;0;0;();(-2000.0, -2000.0);
06:48:08:353;06:48:08:331;1448647458.22;(0, 0);0;0;;;;;;;;;;;;;;3;15,73,34;0;0;0;5;1;0;0;();(-2000.0, -2000.0);
06:48:08:369;06:48:08:331;1448647458.22;(0, 0);0;0;;;;;;;;;;;;;;3;15,73,34;0;0;0;5;1;0;0;();(-2000.0, -2000.0);
06:48:08:385;06:48:08:331;1448647458.22;(0, 0);0;0;;;;;;;;;;;;;;3;15,73,34;0;0;0;5;1;0;0;();(-2000.0, -2000.0);
06:48:08:402;06:48:08:400;1448647458.29;(0, 0);0;0;;;;;;;;;;;;;;3;15,73,34;0;0;0;5;1;0;0;();(-2000.0, -2000.0);
06:48:08:419;06:48:08:400;1448647458.29;(0, 0);0;0;;;;;;;;;;;;;;3;15,73,34;0;0;0;5;1;0;0;();(-2000.0, -2000.0);
06:48:08:452;06:48:08:400;1448647458.29;(0, 0);0;0;;;;;;;;;;;;;;3;15,73,34;0;0;0;5;1;0;0;();(-2000.0, -2000.0);
06:48:08:468;06:48:08:463;1448647458.36;(0, 0);0;0;;;;;;;;;;;;;;3;15,73,34;0;0;0;5;1;0;0;();(-2000.0, -2000.0);
06:48:08:485;06:48:08:463;1448647458.36;(0, 0);0;0;;;;;;;;;;;;;;3;15,73,34;0;0;0;5;1;0;0;();(-2000.0, -2000.0);
06:48:08:501;06:48:08:463;1448647458.36;(0, 0);0;0;;;;;;;;;;;;;;3;15,73,34;0;0;0;5;1;0;0;();(-2000.0, -2000.0);
06:48:08:517;06:48:08:463;1448647458.36;(0, 0);0;0;;;;;;;;;;;;;;3;15,73,34;0;0;0;5;1;0;0;();(-2000.0, -2000.0);
06:48:08:551;06:48:08:532;1448647458.42;(0, 0);0;0;;;;;;;;;;;;;;3;15,73,34;0;0;0;5;1;0;0;();(-2000.0, -2000.0);
06:48:08:568;06:48:08:532;1448647458.42;(0, 0);0;0;;;;;;;;;;;;;;3;15,73,34;0;0;0;5;1;0;0;();(-2000.0, -2000.0);
06:48:08:584;06:48:08:532;1448647458.42;(0, 0);0;0;;;;;;;;;;;;;;3;15,73,34;0;0;0;5;1;0;0;();(-2000.0, -2000.0);
06:48:08:601;06:48:08:599;1448647458.49;(0, 0);0;0;;;;;;;;;;;;;;3;15,73,34;0;0;0;5;1;0;0;();(-2000.0, -2000.0);
06:48:08:617;06:48:08:599;1448647458.49;(0, 0);0;0;;;;;;;;;;;;;;3;15,73,34;0;0;0;5;1;0;0;();(-2000.0, -2000.0);
06:48:08:650;06:48:08:599;1448647458.49;(0, 0);0;0;;;;;;;;;;;;;;3;15,73,34;0;0;0;5;1;0;0;();(-2000.0, -2000.0);
06:48:08:668;06:48:08:663;1448647458.56;(0, 0);0;0;;;;;;;;;;;;;;3;15,73,34;0;0;0;5;1;0;0;();(-2000.0, -2000.0);
06:48:08:683;06:48:08:663;1448647458.56;(0, 0);0;0;;;;;;;;;;;;;;3;15,73,34;0;0;0;5;1;0;0;();(-2000.0, -2000.0);
06:48:08:700;06:48:08:663;1448647458.56;(0, 0);0;0;;;;;;;;;;;;;;3;15,73,34;0;0;0;5;1;0;0;();(-2000.0, -2000.0);
06:48:08:716;06:48:08:663;1448647458.56;(0, 0);0;0;;;;;;;;;;;;;;3;15,73,34;0;0;0;5;1;0;0;();(-2000.0, -2000.0);
06:48:08:750;06:48:08:732;1448647458.62;(0, 0);0;0;;;;;;;;;;;;;;3;15,73,34;0;0;0;5;1;0;0;();(-2000.0, -2000.0);
06:48:08:766;06:48:08:732;1448647458.62;(0, 0);0;0;;;;;;;;;;;;;;3;15,73,34;0;0;0;5;1;0;0;();(-2000.0, -2000.0);
06:48:08:783;06:48:08:732;1448647458.62;(0, 0);0;0;;;;;;;;;;;;;;3;15,73,34;0;0;0;5;1;0;0;();(-2000.0, -2000.0);
06:48:08:799;06:48:08:795;1448647458.69;(0, 0);0;0;;;;;;;;;;;;;;3;15,73,34;0;0;0;5;1;0;0;();(-2000.0, -2000.0);
06:48:08:833;06:48:08:795;1448647458.69;(0, 0);0;0;;;;;;;;;;;;;;3;15,73,34;0;0;0;5;1;0;0;();(-2000.0, -2000.0);
06:48:08:850;06:48:08:795;1448647458.69;(0, 0);0;0;;;;;;;;;;;;;;3;15,73,34;0;0;0;5;1;0;0;();(-2000.0, -2000.0);
06:48:08:866;06:48:08:864;1448647458.76;(0, 0);0;0;;;;;;;;;;;;;;3;15,73,34;0;0;0;5;1;0;0;();(-2000.0, -2000.0);
06:48:08:882;06:48:08:864;1448647458.76;(0, 0);0;0;;;;;;;;;;;;;;3;15,73,34;0;0;0;5;1;0;0;();(-2000.0, -2000.0);
06:48:08:898;06:48:08:864;1448647458.76;(0, 0);0;0;;;;;;;;;;;;;;3;15,73,34;0;0;0;5;1;0;0;();(-2000.0, -2000.0);
06:48:08:932;06:48:08:931;1448647458.79;(0, 0);0;0;;;;;;;;;;;;;;3;15,73,34;0;0;0;5;1;0;0;();(-2000.0, -2000.0);
06:48:08:949;06:48:08:933;1448647458.82;(0, 0);0;0;;;;;;;;;;;;;;3;15,73,34;0;0;0;5;1;0;0;();(-2000.0, -2000.0);
06:48:08:965;06:48:08:933;1448647458.82;(0, 0);0;0;;;;;;;;;;;;;;3;15,73,34;0;0;0;5;1;0;0;();(-2000.0, -2000.0);
06:48:08:982;06:48:08:933;1448647458.82;(0, 0);0;0;;;;;;;;;;;;;;3;15,73,34;0;0;0;5;1;0;0;();(-2000.0, -2000.0);
06:48:08:998;06:48:08:995;1448647458.89;(0, 0);0;0;;;;;;;;;;;;;;3;15,73,34;0;0;0;5;1;0;0;();(-2000.0, -2000.0);
06:48:09:031;06:48:08:995;1448647458.89;(0, 0);0;0;;;;;;;;;;;;;;3;15,73,34;0;0;0;5;1;0;0;();(-2000.0, -2000.0);
06:48:09:048;06:48:08:995;1448647458.89;(0, 0);0;0;;;;;;;;;;;;;;3;15,73,34;0;0;0;5;1;0;0;();(-2000.0, -2000.0);
06:48:09:064;06:48:09:063;1448647458.96;(0, 0);0;0;;;;;;;;;;;;;;3;15,73,34;0;0;0;5;1;0;0;();(-2000.0, -2000.0);
06:48:09:082;06:48:09:063;1448647458.96;(0, 0);0;0;;;;;;;;;;;;;;3;15,73,34;0;0;0;5;1;0;0;();(-2000.0, -2000.0);
06:48:09:097;06:48:09:063;1448647458.96;(0, 0);0;0;;;;;;;;;;;;;;3;15,73,34;0;0;0;5;1;0;0;();(-2000.0, -2000.0);
06:48:09:131;06:48:09:127;1448647458.99;(0, 0);0;0;;;;;;;;;;;;;;3;15,73,34;0;0;0;5;1;0;0;();(-2000.0, -2000.0);
06:48:09:147;06:48:09:127;1448647458.99;(0, 0);0;0;;;;;;;;;;;;;;3;15,73,34;0;0;0;5;1;0;0;();(-2000.0, -2000.0);
06:48:09:164;06:48:09:127;1448647458.99;(0, 0);0;0;;;;;;;;;;;;;;3;15,73,34;0;0;0;5;1;0;0;();(-2000.0, -2000.0);
06:48:09:180;06:48:09:127;1448647458.99;(0, 0);0;0;;;;;;;;;;;;;;3;15,73,34;0;0;0;5;1;0;0;();(-2000.0, -2000.0);
06:48:09:197;06:48:09:196;1448647459.09;(0, 0);0;0;;;;;;;;;;;;;;3;15,73,34;0;0;0;5;1;0;0;();(-2000.0, -2000.0);
06:48:09:231;06:48:09:196;1448647459.09;(0, 0);0;0;;;;;;;;;;;;;;3;15,73,34;0;0;0;5;1;0;0;();(-2000.0, -2000.0);
06:48:09:246;06:48:09:196;1448647459.09;(0, 0);0;0;;;;;;;;;;;;;;3;15,73,34;0;0;0;5;1;0;0;();(-2000.0, -2000.0);
06:48:09:263;06:48:09:196;1448647459.09;(0, 0);0;0;;;;;;;;;;;;;;3;15,73,34;0;0;0;5;1;0;0;();(-2000.0, -2000.0);
06:48:09:280;06:48:09:264;1448647459.16;(0, 0);0;0;;;;;;;;;;;;;;3;15,73,34;0;0;0;5;1;0;0;();(-2000.0, -2000.0);
06:48:09:297;06:48:09:264;1448647459.16;(0, 0);0;0;;;;;;;;;;;;;;3;15,73,34;0;0;0;5;1;0;0;();(-2000.0, -2000.0);
06:48:09:330;06:48:09:327;1448647459.22;(0, 0);0;0;;;;;;;;;;;;;;3;15,73,34;0;0;0;5;1;0;0;();(-2000.0, -2000.0);
06:48:09:346;06:48:09:327;1448647459.22;(0, 0);0;0;;;;;;;;;;;;;;3;15,73,34;0;0;0;5;1;0;0;();(-2000.0, -2000.0);
06:48:09:363;06:48:09:327;1448647459.22;(0, 0);0;0;;;;;;;;;;;;;;3;15,73,34;0;0;0;5;1;0;0;();(-2000.0, -2000.0);
06:48:09:379;06:48:09:327;1448647459.22;(0, 0);0;0;;;;;;;;;;;;;;3;15,73,34;0;0;0;5;1;0;0;();(-2000.0, -2000.0);
06:48:09:413;06:48:09:396;1448647459.29;(0, 0);0;0;;;;;;;;;;;;;;3;15,73,34;0;0;0;5;1;0;0;();(-2000.0, -2000.0);
06:48:09:429;06:48:09:396;1448647459.29;(0, 0);0;0;;;;;;;;;;;;;;3;15,73,34;0;0;0;5;1;0;0;();(-2000.0, -2000.0);
06:48:09:446;06:48:09:396;1448647459.29;(0, 0);0;0;;;;;;;;;;;;;;3;15,73,34;0;0;0;5;1;0;0;();(-2000.0, -2000.0);
06:48:09:462;06:48:09:460;1448647459.32;(0, 0);0;0;;;;;;;;;;;;;;3;15,73,34;0;0;0;5;1;0;0;();(-2000.0, -2000.0);
06:48:09:478;06:48:09:460;1448647459.32;(0, 0);0;0;;;;;;;;;;;;;;3;15,73,34;0;0;0;5;1;0;0;();(-2000.0, -2000.0);
06:48:09:512;06:48:09:460;1448647459.32;(0, 0);0;0;;;;;;;;;;;;;;3;15,73,34;0;0;0;5;1;0;0;();(-2000.0, -2000.0);
06:48:09:529;06:48:09:528;1448647459.42;(0, 0);0;0;;;;;;;;;;;;;;3;15,73,34;0;0;0;5;1;0;0;();(-2000.0, -2000.0);
06:48:09:545;06:48:09:528;1448647459.42;(0, 0);0;0;;;;;;;;;;;;;;3;15,73,34;0;0;0;5;1;0;0;();(-2000.0, -2000.0);
06:48:09:561;06:48:09:528;1448647459.42;(0, 0);0;0;;;;;;;;;;;;;;3;15,73,34;0;0;0;5;1;0;0;();(-2000.0, -2000.0);
06:48:09:579;06:48:09:528;1448647459.42;(0, 0);0;0;;;;;;;;;;;;;;3;15,73,34;0;0;0;5;1;0;0;();(-2000.0, -2000.0);
06:48:09:611;06:48:09:596;1448647459.49;(0, 0);0;0;;;;;;;;;;;;;;3;15,73,34;0;0;0;5;1;0;0;();(-2000.0, -2000.0);
06:48:09:628;06:48:09:596;1448647459.49;(0, 0);0;0;;;;;;;;;;;;;;3;15,73,34;0;0;0;5;1;0;0;();(-2000.0, -2000.0);
06:48:09:645;06:48:09:596;1448647459.49;(0, 0);0;0;;;;;;;;;;;;;;3;15,73,34;0;0;0;5;1;0;0;();(-2000.0, -2000.0);
06:48:09:661;06:48:09:659;1448647459.56;(0, 0);0;0;;;;;;;;;;;;;;3;15,73,34;0;0;0;5;1;0;0;();(-2000.0, -2000.0);
06:48:09:678;06:48:09:659;1448647459.56;(0, 0);0;0;;;;;;;;;;;;;;3;15,73,34;0;0;0;5;1;0;0;();(-2000.0, -2000.0);
06:48:09:711;06:48:09:659;1448647459.56;(0, 0);0;0;;;;;;;;;;;;;;3;15,73,34;0;0;0;5;1;0;0;();(-2000.0, -2000.0);
06:48:09:728;06:48:09:659;1448647459.56;(0, 0);0;0;;;;;;;;;;;;;;3;15,73,34;0;0;0;5;1;0;0;();(-2000.0, -2000.0);
06:48:09:744;06:48:09:730;1448647459.62;(0, 0);0;0;;;;;;;;;;;;;;3;15,73,34;0;0;0;5;1;0;0;();(-2000.0, -2000.0);
06:48:09:760;06:48:09:730;1448647459.62;(0, 0);0;0;;;;;;;;;;;;;;3;15,73,34;0;0;0;5;1;0;0;();(-2000.0, -2000.0);
06:48:09:777;06:48:09:730;1448647459.62;(0, 0);0;0;;;;;;;;;;;;;;3;15,73,34;0;0;0;5;1;0;0;();(-2000.0, -2000.0);
06:48:09:811;06:48:09:791;1448647459.69;(0, 0);0;0;;;;;;;;;;;;;;3;15,73,34;0;0;0;5;1;0;0;();(-2000.0, -2000.0);
06:48:09:827;06:48:09:791;1448647459.69;(0, 0);0;0;;;;;;;;;;;;;;3;15,73,34;0;0;0;5;1;0;0;();(-2000.0, -2000.0);
06:48:09:843;06:48:09:791;1448647459.69;(0, 0);0;0;;;;;;;;;;;;;;3;15,73,34;0;0;0;5;1;0;0;();(-2000.0, -2000.0);
06:48:09:859;06:48:09:859;1448647459.72;(0, 0);0;0;;;;;;;;;;;;;;3;15,73,34;0;0;0;5;1;0;0;();(-2000.0, -2000.0);
06:48:09:893;06:48:09:864;1448647459.76;(0, 0);0;0;;;;;;;;;;;;;;3;15,73,34;0;0;0;5;1;0;0;();(-2000.0, -2000.0);
06:48:09:910;06:48:09:864;1448647459.76;(0, 0);0;0;;;;;;;;;;;;;;3;15,73,34;0;0;0;5;1;0;0;();(-2000.0, -2000.0);
06:48:09:927;06:48:09:864;1448647459.76;(0, 0);0;0;;;;;;;;;;;;;;3;15,73,34;0;0;0;5;1;0;0;();(-2000.0, -2000.0);
06:48:09:943;06:48:09:933;1448647459.82;(0, 0);0;0;;;;;;;;;;;;;;3;15,73,34;0;0;0;5;1;0;0;();(-2000.0, -2000.0);
06:48:09:959;06:48:09:933;1448647459.82;(0, 0);0;0;;;;;;;;;;;;;;3;15,73,34;0;0;0;5;1;0;0;();(-2000.0, -2000.0);
06:48:09:993;06:48:09:991;1448647459.86;(0, 0);0;0;;;;;;;;;;;;;;3;15,73,34;0;0;0;5;1;0;0;();(-2000.0, -2000.0);
06:48:10:009;06:48:09:991;1448647459.86;(0, 0);0;0;;;;;;;;;;;;;;3;15,73,34;0;0;0;5;1;0;0;();(-2000.0, -2000.0);
06:48:10:025;06:48:09:991;1448647459.86;(0, 0);0;0;;;;;;;;;;;;;;3;15,73,34;0;0;0;5;1;0;0;();(-2000.0, -2000.0);
06:48:10:042;06:48:09:991;1448647459.86;(0, 0);0;0;;;;;;;;;;;;;;3;15,73,34;0;0;0;5;1;0;0;();(-2000.0, -2000.0);
06:48:10:059;06:48:09:991;1448647459.86;(0, 0);0;0;;;;;;;;;;;;;;3;15,73,34;0;0;0;5;1;0;0;();(-2000.0, -2000.0);
06:48:10:091;06:48:10:066;1448647459.92;(0, 0);0;0;;;;;;;;;;;;;;3;15,73,34;0;0;0;5;1;0;0;();(-2000.0, -2000.0);
06:48:10:108;06:48:10:066;1448647459.92;(0, 0);0;0;;;;;;;;;;;;;;3;15,73,34;0;0;0;5;1;0;0;();(-2000.0, -2000.0);
06:48:10:125;06:48:10:123;1448647459.99;(0, 0);0;0;;;;;;;;;;;;;;3;15,73,34;0;0;0;5;1;0;0;();(-2000.0, -2000.0);
06:48:10:141;06:48:10:123;1448647459.99;(0, 0);0;0;;;;;;;;;;;;;;3;15,73,34;0;0;0;5;1;0;0;();(-2000.0, -2000.0);
06:48:10:159;06:48:10:123;1448647459.99;(0, 0);0;0;;;;;;;;;;;;;;3;15,73,34;0;0;0;5;1;0;0;();(-2000.0, -2000.0);
06:48:10:191;06:48:10:123;1448647459.99;(0, 0);0;0;;;;;;;;;;;;;;3;15,73,34;0;0;0;5;1;0;0;();(-2000.0, -2000.0);
06:48:10:208;06:48:10:195;1448647460.06;(0, 0);0;0;;;;;;;;;;;;;;3;15,73,34;0;0;0;5;1;0;0;();(-2000.0, -2000.0);
06:48:10:224;06:48:10:195;1448647460.06;(0, 0);0;0;;;;;;;;;;;;;;3;15,73,34;0;0;0;5;1;0;0;();(-2000.0, -2000.0);
06:48:10:241;06:48:10:195;1448647460.06;(0, 0);0;0;;;;;;;;;;;;;;3;15,73,34;0;0;0;5;1;0;0;();(-2000.0, -2000.0);
06:48:10:257;06:48:10:195;1448647460.06;(0, 0);0;0;;;;;;;;;;;;;;3;15,73,34;0;0;0;5;1;0;0;();(-2000.0, -2000.0);
06:48:10:291;06:48:10:262;1448647460.16;(0, 0);0;0;;;;;;;;;;;;;;3;15,73,34;0;0;0;5;1;0;0;();(-2000.0, -2000.0);
06:48:10:307;06:48:10:262;1448647460.16;(0, 0);0;0;;;;;;;;;;;;;;3;15,73,34;0;0;0;5;1;0;0;();(-2000.0, -2000.0);
06:48:10:323;06:48:10:262;1448647460.16;(0, 0);0;0;;;;;;;;;;;;;;3;15,73,34;0;0;0;5;1;0;0;();(-2000.0, -2000.0);
06:48:10:340;06:48:10:326;1448647460.22;(0, 0);0;0;;;;;;;;;;;;;;3;15,73,34;0;0;0;5;1;0;0;();(-2000.0, -2000.0);
06:48:10:357;06:48:10:326;1448647460.22;(0, 0);0;0;;;;;;;;;;;;;;3;15,73,34;0;0;0;5;1;0;0;();(-2000.0, -2000.0);
06:48:10:390;06:48:10:326;1448647460.22;(0, 0);0;0;;;;;;;;;;;;;;3;15,73,34;0;0;0;5;1;0;0;();(-2000.0, -2000.0);
06:48:10:406;06:48:10:392;1448647460.29;(0, 0);0;0;;;;;;;;;;;;;;3;15,73,34;0;0;0;5;1;0;0;();(-2000.0, -2000.0);
06:48:10:423;06:48:10:392;1448647460.29;(0, 0);0;0;;;;;;;;;;;;;;3;15,73,34;0;0;0;5;1;0;0;();(-2000.0, -2000.0);
06:48:10:439;06:48:10:392;1448647460.29;(0, 0);0;0;;;;;;;;;;;;;;3;15,73,34;0;0;0;5;1;0;0;();(-2000.0, -2000.0);
06:48:10:473;06:48:10:457;1448647460.36;(0, 0);0;0;;;;;;;;;;;;;;3;15,73,34;0;0;0;5;1;0;0;();(-2000.0, -2000.0);
06:48:10:490;06:48:10:457;1448647460.36;(0, 0);0;0;;;;;;;;;;;;;;3;15,73,34;0;0;0;5;1;0;0;();(-2000.0, -2000.0);
06:48:10:506;06:48:10:457;1448647460.36;(0, 0);0;0;;;;;;;;;;;;;;3;15,73,34;0;0;0;5;1;0;0;();(-2000.0, -2000.0);
06:48:10:522;06:48:10:457;1448647460.36;(0, 0);0;0;;;;;;;;;;;;;;3;15,73,34;0;0;0;5;1;0;0;();(-2000.0, -2000.0);
06:48:10:539;06:48:10:525;1448647460.42;(0, 0);0;0;;;;;;;;;;;;;;3;15,73,34;0;0;0;5;1;0;0;();(-2000.0, -2000.0);
06:48:10:572;06:48:10:525;1448647460.42;(0, 0);0;0;;;;;;;;;;;;;;3;15,73,34;0;0;0;5;1;0;0;();(-2000.0, -2000.0);
06:48:10:590;06:48:10:588;1448647460.49;(0, 0);0;0;;;;;;;;;;;;;;3;15,73,34;0;0;0;5;1;0;0;();(-2000.0, -2000.0);
06:48:10:606;06:48:10:588;1448647460.49;(0, 0);0;0;;;;;;;;;;;;;;3;15,73,34;0;0;0;5;1;0;0;();(-2000.0, -2000.0);
06:48:10:622;06:48:10:588;1448647460.49;(0, 0);0;0;;;;;;;;;;;;;;3;15,73,34;0;0;0;5;1;0;0;();(-2000.0, -2000.0);
06:48:10:638;06:48:10:588;1448647460.49;(0, 0);0;0;;;;;;;;;;;;;;3;15,73,34;0;0;0;5;1;0;0;();(-2000.0, -2000.0);
