%Timestamp,timestamp_write;timestamp_gotpupil;eyeTrackerTime;normPos;diameter;confidence;timestamp_gotbitdata;CRC;SEQ;AnalogOutp1;AnalogOutp2;AnalogOutp3;AnalogOutp4;AnalogOutp5;AnalogOutp6;DigitalOutp1;DigitalOutp2;DigitalOutp3;DigitalOutp4;nplanes;listofAirplanesonScreen;lastAction;lastActionDetails;lastActionAirplaneNumber;calculatedScore;positiveScore;negativeScore;collidedAirplaneNumbers;targetPositions;collisionPoint
08:46:47:321;08:46:47:318;1448480801.91;(0.45649266242980957, 0.49400906032986114);57.2071914673;1.0;;;;;;;;;;;;;;0;0;0;0;0;0;0;0;0;();(-2000.0, -2000.0);
08:46:47:329;08:46:47:318;1448480801.91;(0.45649266242980957, 0.49400906032986114);57.2071914673;1.0;;;;;;;;;;;;;;0;0;0;0;0;0;0;0;0;();(-2000.0, -2000.0);
08:46:47:331;08:46:47:318;1448480801.91;(0.45649266242980957, 0.49400906032986114);57.2071914673;1.0;;;;;;;;;;;;;;0;0;0;0;0;0;0;0;0;();(-2000.0, -2000.0);
08:46:47:334;08:46:47:318;1448480801.91;(0.45649266242980957, 0.49400906032986114);57.2071914673;1.0;;;;;;;;;;;;;;0;0;0;0;0;0;0;0;0;();(-2000.0, -2000.0);
08:46:47:337;08:46:47:318;1448480801.91;(0.45649266242980957, 0.49400906032986114);57.2071914673;1.0;;;;;;;;;;;;;;0;0;0;0;0;0;0;0;0;();(-2000.0, -2000.0);
08:46:47:338;08:46:47:318;1448480801.91;(0.45649266242980957, 0.49400906032986114);57.2071914673;1.0;;;;;;;;;;;;;;0;0;0;0;0;0;0;0;0;();(-2000.0, -2000.0);
08:46:47:340;08:46:47:318;1448480801.91;(0.45649266242980957, 0.49400906032986114);57.2071914673;1.0;;;;;;;;;;;;;;0;0;0;0;0;0;0;0;0;();(-2000.0, -2000.0);
08:46:47:341;08:46:47:318;1448480801.91;(0.45649266242980957, 0.49400906032986114);57.2071914673;1.0;;;;;;;;;;;;;;0;0;0;0;0;0;0;0;0;();(-2000.0, -2000.0);
08:46:47:342;08:46:47:318;1448480801.91;(0.45649266242980957, 0.49400906032986114);57.2071914673;1.0;;;;;;;;;;;;;;0;0;0;0;0;0;0;0;0;();(-2000.0, -2000.0);
08:46:47:344;08:46:47:318;1448480801.91;(0.45649266242980957, 0.49400906032986114);57.2071914673;1.0;;;;;;;;;;;;;;0;0;0;0;0;0;0;0;0;();(-2000.0, -2000.0);
08:46:47:345;08:46:47:318;1448480801.91;(0.45649266242980957, 0.49400906032986114);57.2071914673;1.0;;;;;;;;;;;;;;0;0;0;0;0;0;0;0;0;();(-2000.0, -2000.0);
08:46:47:346;08:46:47:318;1448480801.91;(0.45649266242980957, 0.49400906032986114);57.2071914673;1.0;;;;;;;;;;;;;;0;0;0;0;0;0;0;0;0;();(-2000.0, -2000.0);
08:46:47:348;08:46:47:318;1448480801.91;(0.45649266242980957, 0.49400906032986114);57.2071914673;1.0;;;;;;;;;;;;;;0;0;0;0;0;0;0;0;0;();(-2000.0, -2000.0);
08:46:47:349;08:46:47:318;1448480801.91;(0.45649266242980957, 0.49400906032986114);57.2071914673;1.0;;;;;;;;;;;;;;0;0;0;0;0;0;0;0;0;();(-2000.0, -2000.0);
08:46:47:351;08:46:47:318;1448480801.91;(0.45649266242980957, 0.49400906032986114);57.2071914673;1.0;;;;;;;;;;;;;;0;0;0;0;0;0;0;0;0;();(-2000.0, -2000.0);
08:46:47:352;08:46:47:318;1448480801.91;(0.45649266242980957, 0.49400906032986114);57.2071914673;1.0;;;;;;;;;;;;;;0;0;0;0;0;0;0;0;0;();(-2000.0, -2000.0);
08:46:47:354;08:46:47:318;1448480801.91;(0.45649266242980957, 0.49400906032986114);57.2071914673;1.0;;;;;;;;;;;;;;0;0;0;0;0;0;0;0;0;();(-2000.0, -2000.0);
08:46:47:356;08:46:47:318;1448480801.91;(0.45649266242980957, 0.49400906032986114);57.2071914673;1.0;;;;;;;;;;;;;;0;0;0;0;0;0;0;0;0;();(-2000.0, -2000.0);
08:46:47:383;08:46:47:362;1448480801.94;(0.4561213493347168, 0.49359724256727433);57.3259887695;1.0;;;;;;;;;;;;;;0;0;0;0;0;0;0;0;0;();(-2000.0, -2000.0);
08:46:47:400;08:46:47:362;1448480801.94;(0.4561213493347168, 0.49359724256727433);57.3259887695;1.0;;;;;;;;;;;;;;0;0;0;0;0;0;0;0;0;();(-2000.0, -2000.0);
08:46:47:418;08:46:47:415;1448480802.01;(0.45551328659057616, 0.49237802293565536);57.34765625;1.0;;;;;;;;;;;;;;0;0;0;0;0;0;0;0;0;();(-2000.0, -2000.0);
08:46:47:436;08:46:47:415;1448480802.01;(0.45551328659057616, 0.49237802293565536);57.34765625;1.0;;;;;;;;;;;;;;0;0;0;0;0;0;0;0;0;();(-2000.0, -2000.0);
08:46:47:452;08:46:47:415;1448480802.01;(0.45551328659057616, 0.49237802293565536);57.34765625;1.0;;;;;;;;;;;;;;0;0;0;0;0;0;0;0;0;();(-2000.0, -2000.0);
08:46:47:467;08:46:47:462;1448480802.04;(0.4551917552947998, 0.49212803310818143);57.3128738403;1.0;;;;;;;;;;;;;;0;0;0;0;0;0;0;0;0;();(-2000.0, -2000.0);
08:46:49:026;08:46:49:006;1448480803.58;(0.47107439041137694, 0.5026688045925565);54.8673400879;1.0;;;;;;;;;;;;;;0;0;0;0;0;0;0;0;0;();(-2000.0, -2000.0);
08:46:49:030;08:46:49:006;1448480803.58;(0.47107439041137694, 0.5026688045925565);54.8673400879;1.0;;;;;;;;;;;;;;0;0;0;0;0;0;0;0;0;();(-2000.0, -2000.0);
08:46:49:032;08:46:49:006;1448480803.58;(0.47107439041137694, 0.5026688045925565);54.8673400879;1.0;;;;;;;;;;;;;;0;0;0;0;0;0;0;0;0;();(-2000.0, -2000.0);
08:46:49:035;08:46:49:006;1448480803.58;(0.47107439041137694, 0.5026688045925565);54.8673400879;1.0;;;;;;;;;;;;;;0;0;0;0;0;0;0;0;0;();(-2000.0, -2000.0);
08:46:49:037;08:46:49:006;1448480803.58;(0.47107439041137694, 0.5026688045925565);54.8673400879;1.0;;;;;;;;;;;;;;0;0;0;0;0;0;0;0;0;();(-2000.0, -2000.0);
08:46:49:039;08:46:49:006;1448480803.58;(0.47107439041137694, 0.5026688045925565);54.8673400879;1.0;;;;;;;;;;;;;;0;0;0;0;0;0;0;0;0;();(-2000.0, -2000.0);
08:46:49:041;08:46:49:006;1448480803.58;(0.47107439041137694, 0.5026688045925565);54.8673400879;1.0;;;;;;;;;;;;;;0;0;0;0;0;0;0;0;0;();(-2000.0, -2000.0);
08:46:49:043;08:46:49:006;1448480803.58;(0.47107439041137694, 0.5026688045925565);54.8673400879;1.0;;;;;;;;;;;;;;0;0;0;0;0;0;0;0;0;();(-2000.0, -2000.0);
08:46:49:045;08:46:49:006;1448480803.58;(0.47107439041137694, 0.5026688045925565);54.8673400879;1.0;;;;;;;;;;;;;;0;0;0;0;0;0;0;0;0;();(-2000.0, -2000.0);
08:46:49:046;08:46:49:006;1448480803.58;(0.47107439041137694, 0.5026688045925565);54.8673400879;1.0;;;;;;;;;;;;;;0;0;0;0;0;0;0;0;0;();(-2000.0, -2000.0);
08:46:49:048;08:46:49:006;1448480803.58;(0.47107439041137694, 0.5026688045925565);54.8673400879;1.0;;;;;;;;;;;;;;0;0;0;0;0;0;0;0;0;();(-2000.0, -2000.0);
08:46:49:049;08:46:49:006;1448480803.58;(0.47107439041137694, 0.5026688045925565);54.8673400879;1.0;;;;;;;;;;;;;;0;0;0;0;0;0;0;0;0;();(-2000.0, -2000.0);
08:46:49:050;08:46:49:006;1448480803.58;(0.47107439041137694, 0.5026688045925565);54.8673400879;1.0;;;;;;;;;;;;;;0;0;0;0;0;0;0;0;0;();(-2000.0, -2000.0);
08:46:49:051;08:46:49:006;1448480803.58;(0.47107439041137694, 0.5026688045925565);54.8673400879;1.0;;;;;;;;;;;;;;0;0;0;0;0;0;0;0;0;();(-2000.0, -2000.0);
08:46:49:052;08:46:49:006;1448480803.58;(0.47107439041137694, 0.5026688045925565);54.8673400879;1.0;;;;;;;;;;;;;;0;0;0;0;0;0;0;0;0;();(-2000.0, -2000.0);
08:46:49:053;08:46:49:006;1448480803.58;(0.47107439041137694, 0.5026688045925565);54.8673400879;1.0;;;;;;;;;;;;;;0;0;0;0;0;0;0;0;0;();(-2000.0, -2000.0);
08:46:49:055;08:46:49:054;1448480803.64;(0.47109365463256836, 0.5037405649820963);54.6088409424;1.0;;;;;;;;;;;;;;0;0;0;0;0;0;0;0;0;();(-2000.0, -2000.0);
08:46:49:057;08:46:49:054;1448480803.64;(0.47109365463256836, 0.5037405649820963);54.6088409424;1.0;;;;;;;;;;;;;;0;0;0;0;0;0;0;0;0;();(-2000.0, -2000.0);
08:46:49:077;08:46:49:054;1448480803.64;(0.47109365463256836, 0.5037405649820963);54.6088409424;1.0;;;;;;;;;;;;;;0;0;0;0;0;0;0;0;0;();(-2000.0, -2000.0);
08:46:49:095;08:46:49:054;1448480803.64;(0.47109365463256836, 0.5037405649820963);54.6088409424;1.0;;;;;;;;;;;;;;0;0;0;0;0;0;0;0;0;();(-2000.0, -2000.0);
08:46:49:140;08:46:49:106;1448480803.71;(0.4716664791107178, 0.5036617279052734);54.0609512329;1.0;;;;;;;;;;;;;;0;0;0;0;0;0;0;0;0;();(-2000.0, -2000.0);
08:46:49:141;08:46:49:106;1448480803.71;(0.4716664791107178, 0.5036617279052734);54.0609512329;1.0;;;;;;;;;;;;;;0;0;0;0;0;0;0;0;0;();(-2000.0, -2000.0);
08:46:49:161;08:46:49:154;1448480803.74;(0.47200756072998046, 0.5032093471950955);53.6492233276;1.0;;;;;;;;;;;;;;0;0;0;0;0;0;0;0;0;();(-2000.0, -2000.0);
08:46:49:178;08:46:49:154;1448480803.74;(0.47200756072998046, 0.5032093471950955);53.6492233276;1.0;;;;;;;;;;;;;;0;0;0;0;0;0;0;0;0;();(-2000.0, -2000.0);
08:46:49:194;08:46:49:154;1448480803.74;(0.47200756072998046, 0.5032093471950955);53.6492233276;1.0;;;;;;;;;;;;;;0;0;0;0;0;0;0;0;0;();(-2000.0, -2000.0);
08:46:49:211;08:46:49:206;1448480803.81;(0.4726959228515625, 0.5022308349609375);53.3992767334;1.0;;;;;;;;;;;;;;0;0;0;0;0;0;0;0;0;();(-2000.0, -2000.0);
08:46:49:246;08:46:49:206;1448480803.81;(0.4726959228515625, 0.5022308349609375);53.3992767334;1.0;;;;;;;;;;;;;;0;0;0;0;0;0;0;0;0;();(-2000.0, -2000.0);
08:46:49:276;08:46:49:206;1448480803.81;(0.4726959228515625, 0.5022308349609375);53.3992767334;1.0;;;;;;;;;;;;;;0;0;0;0;0;0;0;0;0;();(-2000.0, -2000.0);
08:46:49:277;08:46:49:206;1448480803.81;(0.4726959228515625, 0.5022308349609375);53.3992767334;1.0;;;;;;;;;;;;;;0;0;0;0;0;0;0;0;0;();(-2000.0, -2000.0);
08:46:49:291;08:46:49:206;1448480803.81;(0.4726959228515625, 0.5022308349609375);53.3992767334;1.0;;;;;;;;;;;;;;0;0;0;0;0;0;0;0;0;();(-2000.0, -2000.0);
08:46:49:323;08:46:49:302;1448480803.89;(0.4664112091064453, 0.505061043633355);53.2578125;1.0;;;;;;;;;;;;;;0;0;0;0;0;0;0;0;0;();(-2000.0, -2000.0);
08:46:49:338;08:46:49:302;1448480803.89;(0.4664112091064453, 0.505061043633355);53.2578125;1.0;;;;;;;;;;;;;;0;0;0;0;0;0;0;0;0;();(-2000.0, -2000.0);
08:46:49:353;08:46:49:302;1448480803.89;(0.4664112091064453, 0.505061043633355);53.2578125;1.0;;;;;;;;;;;;;;0;0;0;0;0;0;0;0;0;();(-2000.0, -2000.0);
08:46:49:384;08:46:49:355;1448480803.94;(0.4667971611022949, 0.5066109127468533);53.343372345;1.0;;;;;;;;;;;;;;0;0;0;0;0;0;0;0;0;();(-2000.0, -2000.0);
08:46:49:399;08:46:49:355;1448480803.94;(0.4667971611022949, 0.5066109127468533);53.343372345;1.0;;;;;;;;;;;;;;0;0;0;0;0;0;0;0;0;();(-2000.0, -2000.0);
08:46:49:417;08:46:49:401;1448480803.98;(0.46676950454711913, 0.5066175672743056);53.2384757996;1.0;;;;;;;;;;;;;;0;0;0;0;0;0;0;0;0;();(-2000.0, -2000.0);
08:46:49:446;08:46:49:401;1448480803.98;(0.46676950454711913, 0.5066175672743056);53.2384757996;1.0;;;;;;;;;;;;;;0;0;0;0;0;0;0;0;0;();(-2000.0, -2000.0);
08:46:49:462;08:46:49:454;1448480804.04;(0.4665364265441895, 0.506129879421658);53.398021698;1.0;;;;;;;;;;;;;;0;0;0;0;0;0;0;0;0;();(-2000.0, -2000.0);
08:46:49:480;08:46:49:454;1448480804.04;(0.4665364265441895, 0.506129879421658);53.398021698;1.0;;;;;;;;;;;;;;0;0;0;0;0;0;0;0;0;();(-2000.0, -2000.0);
08:46:49:496;08:46:49:454;1448480804.04;(0.4665364265441895, 0.506129879421658);53.398021698;1.0;;;;;;;;;;;;;;0;0;0;0;0;0;0;0;0;();(-2000.0, -2000.0);
08:46:49:514;08:46:49:501;1448480804.08;(0.4664501667022705, 0.5049273596869575);53.2192802429;1.0;;;;;;;;;;;;;;0;0;0;0;0;0;0;0;0;();(-2000.0, -2000.0);
08:46:49:546;08:46:49:501;1448480804.08;(0.4664501667022705, 0.5049273596869575);53.2192802429;1.0;;;;;;;;;;;;;;0;0;0;0;0;0;0;0;0;();(-2000.0, -2000.0);
08:46:49:563;08:46:49:554;1448480804.14;(0.46655783653259275, 0.5032203250461155);53.4265327454;1.0;;;;;;;;;;;;;;0;0;0;0;0;0;0;0;0;();(-2000.0, -2000.0);
08:46:49:580;08:46:49:554;1448480804.14;(0.46655783653259275, 0.5032203250461155);53.4265327454;1.0;;;;;;;;;;;;;;0;0;0;0;0;0;0;0;0;();(-2000.0, -2000.0);
08:46:49:597;08:46:49:554;1448480804.14;(0.46655783653259275, 0.5032203250461155);53.4265327454;1.0;;;;;;;;;;;;;;0;0;0;0;0;0;0;0;0;();(-2000.0, -2000.0);
08:46:49:614;08:46:49:602;1448480804.18;(0.4668269634246826, 0.5026287502712674);53.2252311707;1.0;;;;;;;;;;;;;;0;0;0;0;0;0;0;0;0;();(-2000.0, -2000.0);
08:46:49:647;08:46:49:602;1448480804.18;(0.4668269634246826, 0.5026287502712674);53.2252311707;1.0;;;;;;;;;;;;;;0;0;0;0;0;0;0;0;0;();(-2000.0, -2000.0);
08:46:49:665;08:46:49:653;1448480804.24;(0.45047850608825685, 0.5045019361707899);53.8384208679;1.0;;;;;;;;;;;;;;0;0;0;0;0;0;0;0;0;();(-2000.0, -2000.0);
08:46:49:680;08:46:49:653;1448480804.24;(0.45047850608825685, 0.5045019361707899);53.8384208679;1.0;;;;;;;;;;;;;;0;0;0;0;0;0;0;0;0;();(-2000.0, -2000.0);
08:46:49:697;08:46:49:653;1448480804.24;(0.45047850608825685, 0.5045019361707899);53.8384208679;1.0;;;;;;;;;;;;;;0;0;0;0;0;0;0;0;0;();(-2000.0, -2000.0);
08:46:50:246;08:46:50:197;1448480804.78;(0.4007634401321411, 0.5422357347276476);55.4437789917;0.90495625376;08:46:50:242;0;9;-1.5;1.88397790055249;1.46627565982405;0;0;0;1;1;1;1;0;0;0;0;0;0;0;0;0;();(-2000.0, -2000.0);
08:46:50:248;08:46:50:197;1448480804.78;(0.4007634401321411, 0.5422357347276476);55.4437789917;0.90495625376;08:46:50:248;0;9;-1.5;1.88397790055249;1.46627565982405;0;0;0;1;1;1;1;0;0;0;0;0;0;0;0;0;();(-2000.0, -2000.0);
08:46:50:251;08:46:50:250;1448480804.84;(0.4034504175186157, 0.5429331885443793);55.1303443909;1.0;08:46:50:251;0;4;-1.5;2.77989130434783;2.34604105571848;0;0;0;1;1;1;1;0;0;0;0;0;0;0;0;0;();(-2000.0, -2000.0);
08:46:50:253;08:46:50:250;1448480804.84;(0.4034504175186157, 0.5429331885443793);55.1303443909;1.0;08:46:50:253;0;4;-1.5;2.77989130434783;2.34604105571848;0;0;0;1;1;1;1;0;0;0;0;0;0;0;0;0;();(-2000.0, -2000.0);
08:46:50:255;08:46:50:250;1448480804.84;(0.4034504175186157, 0.5429331885443793);55.1303443909;1.0;08:46:50:255;0;4;-1.5;2.77989130434783;2.34604105571848;0;0;0;1;1;1;1;0;0;0;0;0;0;0;0;0;();(-2000.0, -2000.0);
08:46:50:256;08:46:50:250;1448480804.84;(0.4034504175186157, 0.5429331885443793);55.1303443909;1.0;08:46:50:256;0;4;-1.5;2.77989130434783;2.34604105571848;0;0;0;1;1;1;1;0;0;0;0;0;0;0;0;0;();(-2000.0, -2000.0);
08:46:50:258;08:46:50:250;1448480804.84;(0.4034504175186157, 0.5429331885443793);55.1303443909;1.0;08:46:50:258;0;4;-1.5;2.77989130434783;2.34604105571848;0;0;0;1;1;1;1;0;0;0;0;0;0;0;0;0;();(-2000.0, -2000.0);
08:46:50:260;08:46:50:250;1448480804.84;(0.4034504175186157, 0.5429331885443793);55.1303443909;1.0;08:46:50:260;0;4;-1.5;2.77989130434783;2.34604105571848;0;0;0;1;1;1;1;0;0;0;0;0;0;0;0;0;();(-2000.0, -2000.0);
08:46:50:261;08:46:50:250;1448480804.84;(0.4034504175186157, 0.5429331885443793);55.1303443909;1.0;08:46:50:261;0;4;-1.5;2.77989130434783;2.34604105571848;0;0;0;1;1;1;1;0;0;0;0;0;0;0;0;0;();(-2000.0, -2000.0);
08:46:50:263;08:46:50:250;1448480804.84;(0.4034504175186157, 0.5429331885443793);55.1303443909;1.0;08:46:50:263;0;14;-1.5;2.0625;1.46627565982405;0;0;0;1;1;1;1;0;0;0;0;0;0;0;0;0;();(-2000.0, -2000.0);
08:46:50:264;08:46:50:250;1448480804.84;(0.4034504175186157, 0.5429331885443793);55.1303443909;1.0;08:46:50:264;0;14;-1.5;2.0625;1.46627565982405;0;0;0;1;1;1;1;0;0;0;0;0;0;0;0;0;();(-2000.0, -2000.0);
08:46:50:266;08:46:50:250;1448480804.84;(0.4034504175186157, 0.5429331885443793);55.1303443909;1.0;08:46:50:266;0;0;-1.5;2.46506024096386;2.44379276637341;0;0;0;1;1;1;1;0;0;0;0;0;0;0;0;0;();(-2000.0, -2000.0);
08:46:50:267;08:46:50:250;1448480804.84;(0.4034504175186157, 0.5429331885443793);55.1303443909;1.0;08:46:50:267;0;9;-1.5;2.48300970873786;1.85728250244379;0;0;0;1;1;1;1;0;0;0;0;0;0;0;0;0;();(-2000.0, -2000.0);
08:46:50:268;08:46:50:250;1448480804.84;(0.4034504175186157, 0.5429331885443793);55.1303443909;1.0;08:46:50:268;0;9;-1.5;2.48300970873786;1.85728250244379;0;0;0;1;1;1;1;0;0;0;0;0;0;0;0;0;();(-2000.0, -2000.0);
08:46:50:270;08:46:50:250;1448480804.84;(0.4034504175186157, 0.5429331885443793);55.1303443909;1.0;08:46:50:270;0;9;-1.5;2.48300970873786;1.85728250244379;0;0;0;1;1;1;1;0;0;0;0;0;0;0;0;0;();(-2000.0, -2000.0);
08:46:50:271;08:46:50:250;1448480804.84;(0.4034504175186157, 0.5429331885443793);55.1303443909;1.0;08:46:50:271;0;9;-1.5;2.48300970873786;1.85728250244379;0;0;0;1;1;1;1;0;0;0;0;0;0;0;0;0;();(-2000.0, -2000.0);
08:46:50:273;08:46:50:250;1448480804.84;(0.4034504175186157, 0.5429331885443793);55.1303443909;1.0;08:46:50:273;0;9;-1.5;2.48300970873786;1.85728250244379;0;0;0;1;1;1;1;0;0;0;0;0;0;0;0;0;();(-2000.0, -2000.0);
08:46:50:275;08:46:50:250;1448480804.84;(0.4034504175186157, 0.5429331885443793);55.1303443909;1.0;08:46:50:275;0;9;-1.5;2.48300970873786;1.85728250244379;0;0;0;1;1;1;1;0;0;0;0;0;0;0;0;0;();(-2000.0, -2000.0);
08:46:50:302;08:46:50:298;1448480804.88;(0.411528491973877, 0.5426281399197048);54.4639511108;1.0;08:46:50:302;0;10;-1.5;2.72074468085106;2.34604105571848;0;0;0;1;1;1;1;0;0;0;0;0;0;0;0;0;();(-2000.0, -2000.0);
08:46:50:303;08:46:50:298;1448480804.88;(0.411528491973877, 0.5426281399197048);54.4639511108;1.0;08:46:50:303;0;10;-1.5;2.72074468085106;2.34604105571848;0;0;0;1;1;1;1;0;0;0;0;0;0;0;0;0;();(-2000.0, -2000.0);
08:46:50:334;08:46:50:298;1448480804.88;(0.411528491973877, 0.5426281399197048);54.4639511108;1.0;08:46:50:334;0;6;-1.5;2.05835010060362;1.46627565982405;0;0;0;1;1;1;1;0;0;0;0;0;0;0;0;0;();(-2000.0, -2000.0);
08:46:50:352;08:46:50:350;1448480804.94;(0.41292247772216795, 0.5415965610080296);53.9383277893;1.0;08:46:50:352;0;5;-1.5;3.05373134328358;2.44379276637341;0;0;0;1;1;1;1;0;0;0;0;0;0;0;0;0;();(-2000.0, -2000.0);
08:46:50:368;08:46:50:350;1448480804.94;(0.41292247772216795, 0.5415965610080296);53.9383277893;1.0;08:46:50:368;0;10;-1.5;3.12844036697248;2.44379276637341;0;0;0;1;1;1;1;0;0;0;0;0;0;0;0;0;();(-2000.0, -2000.0);
08:46:50:386;08:46:50:350;1448480804.94;(0.41292247772216795, 0.5415965610080296);53.9383277893;1.0;08:46:50:386;0;5;-1.5;1.62380952380952;1.17302052785924;0;0;0;1;1;1;1;0;0;0;0;0;0;0;0;0;();(-2000.0, -2000.0);
08:46:50:402;08:46:50:397;1448480804.98;(0.41354873180389407, 0.5412661234537761);53.949016571;1.0;08:46:50:402;0;9;-1.5;1.85662431941924;1.46627565982405;0;0;0;1;1;1;1;0;0;0;0;0;0;0;0;0;();(-2000.0, -2000.0);
08:46:50:436;08:46:50:397;1448480804.98;(0.41354873180389407, 0.5412661234537761);53.949016571;1.0;08:46:50:436;0;9;-1.5;2.28348214285714;2.34604105571848;0;0;0;1;1;1;1;0;0;0;0;0;0;0;0;0;();(-2000.0, -2000.0);
08:46:50:453;08:46:50:450;1448480805.04;(0.41436967849731443, 0.5336919148763021);54.1012954712;1.0;08:46:50:453;0;15;-1.5;1.77913043478261;1.17302052785924;0;0;0;1;1;1;1;0;0;0;0;0;0;0;0;0;();(-2000.0, -2000.0);
08:46:50:469;08:46:50:450;1448480805.04;(0.41436967849731443, 0.5336919148763021);54.1012954712;1.0;08:46:50:469;0;9;-1.5;2.53846153846154;2.34604105571848;0;0;0;1;1;1;1;0;0;0;0;0;0;0;0;0;();(-2000.0, -2000.0);
08:46:50:488;08:46:50:450;1448480805.04;(0.41436967849731443, 0.5336919148763021);54.1012954712;1.0;08:46:50:488;0;15;-1.5;2.77235772357724;2.34604105571848;0;0;0;1;1;1;1;0;0;0;0;0;0;0;0;0;();(-2000.0, -2000.0);
08:46:50:519;08:46:50:497;1448480805.08;(0.41853787899017336, 0.36282212999131946);19.3182601929;0.618865338833;08:46:50:519;0;15;-1.5;1.26765799256506;0.293255131964809;0;0;0;1;1;1;1;0;0;0;0;0;0;0;0;0;();(-2000.0, -2000.0);
08:46:50:536;08:46:50:497;1448480805.08;(0.41853787899017336, 0.36282212999131946);19.3182601929;0.618865338833;08:46:50:536;0;10;-1.5;2.325;1.66177908113392;0;0;0;1;1;1;1;0;0;0;0;0;0;0;0;0;();(-2000.0, -2000.0);
08:46:50:552;08:46:50:550;1448480805.14;(0, 0);0;0;08:46:50:552;0;15;-1.5;2.85754189944134;2.34604105571848;0;0;0;1;1;1;1;0;0;0;0;0;0;0;0;0;();(-2000.0, -2000.0);
08:46:50:569;08:46:50:550;1448480805.14;(0, 0);0;0;08:46:50:569;0;9;-1.5;1.75773195876289;1.17302052785924;0;0;0;1;1;1;1;0;0;0;0;0;0;0;0;0;();(-2000.0, -2000.0);
08:46:50:587;08:46:50:550;1448480805.14;(0, 0);0;0;08:46:50:587;0;15;-1.5;1.77913043478261;1.36852394916911;0;0;0;1;1;1;1;0;0;0;0;0;0;0;0;0;();(-2000.0, -2000.0);
08:46:50:604;08:46:50:597;1448480805.18;(0.432672119140625, 0.5552298651801215);52.6075019836;1.0;08:46:50:604;0;5;-1.5;2.64341085271318;2.1505376344086;0;0;0;1;1;1;1;0;0;0;0;0;0;0;0;0;();(-2000.0, -2000.0);
08:46:50:636;08:46:50:597;1448480805.18;(0.432672119140625, 0.5552298651801215);52.6075019836;1.0;08:46:50:636;0;4;-1.5;2.07926829268293;1.85728250244379;0;0;0;1;1;1;1;0;0;0;0;0;0;0;0;0;();(-2000.0, -2000.0);
08:46:50:654;08:46:50:650;1448480805.24;(0.4336386203765869, 0.5555915408664279);53.8301124573;1.0;08:46:50:654;0;10;-1.5;1.705;1.17302052785924;0;0;0;1;1;1;1;0;0;0;0;0;0;0;0;0;();(-2000.0, -2000.0);
08:46:50:670;08:46:50:650;1448480805.24;(0.4336386203765869, 0.5555915408664279);53.8301124573;1.0;08:46:50:670;0;5;-1.5;2.90625;2.34604105571848;0;0;0;1;1;1;1;0;0;0;0;0;0;0;0;0;();(-2000.0, -2000.0);
08:46:50:687;08:46:50:650;1448480805.24;(0.4336386203765869, 0.5555915408664279);53.8301124573;1.0;08:46:50:687;0;10;-1.5;2.6640625;2.1505376344086;0;0;0;1;1;1;1;0;0;0;0;0;0;0;0;0;();(-2000.0, -2000.0);
08:46:50:703;08:46:50:697;1448480805.28;(0.4340404987335205, 0.5549093034532335);53.7688179016;1.0;08:46:50:703;0;15;-1.5;2.58333333333333;1.85728250244379;0;0;0;1;1;1;1;0;0;0;0;0;0;0;0;0;();(-2000.0, -2000.0);
08:46:50:737;08:46:50:697;1448480805.28;(0.4340404987335205, 0.5549093034532335);53.7688179016;1.0;08:46:50:737;0;15;-1.5;1.82678571428571;1.36852394916911;0;0;0;1;1;1;1;0;0;0;0;0;0;0;0;0;();(-2000.0, -2000.0);
08:46:50:754;08:46:50:745;1448480805.34;(0.43432304859161375, 0.5558380550808377);53.9008560181;1.0;08:46:50:754;0;10;-1.5;2.07926829268293;1.46627565982405;0;0;0;1;1;1;1;0;0;0;0;0;0;0;0;0;();(-2000.0, -2000.0);
08:46:50:770;08:46:50:745;1448480805.34;(0.43432304859161375, 0.5558380550808377);53.9008560181;1.0;08:46:50:770;0;5;-1.5;2.325;1.66177908113392;0;0;0;1;1;1;1;0;0;0;0;0;0;0;0;0;();(-2000.0, -2000.0);
08:46:50:788;08:46:50:745;1448480805.34;(0.43432304859161375, 0.5558380550808377);53.9008560181;1.0;08:46:50:788;0;9;-1.5;2.16737288135593;1.66177908113392;0;0;0;1;1;1;1;0;0;0;0;0;0;0;0;0;();(-2000.0, -2000.0);
08:46:50:804;08:46:50:797;1448480805.38;(0.43465461730957033, 0.5551887936062283);53.8593025208;1.0;08:46:50:804;0;15;-1.5;2.77235772357724;2.34604105571848;0;0;0;1;1;1;1;0;0;0;0;0;0;0;0;0;();(-2000.0, -2000.0);
08:46:50:821;08:46:50:797;1448480805.38;(0.43465461730957033, 0.5551887936062283);53.8593025208;1.0;08:46:50:821;0;4;-1.5;2.61636828644501;1.85728250244379;0;0;0;1;1;1;1;0;0;0;0;0;0;0;0;0;();(-2000.0, -2000.0);
08:46:50:854;08:46:50:845;1448480805.44;(0.4351003646850586, 0.5531764560275607);53.6777954102;1.0;08:46:50:854;0;10;-1.5;3.20689655172414;2.73704789833822;0;0;0;1;1;1;1;0;0;0;0;0;0;0;0;0;();(-2000.0, -2000.0);
08:46:50:871;08:46:50:845;1448480805.44;(0.4351003646850586, 0.5531764560275607);53.6777954102;1.0;08:46:50:871;0;15;-1.5;2.41843971631206;1.85728250244379;0;0;0;1;1;1;1;0;0;0;0;0;0;0;0;0;();(-2000.0, -2000.0);
08:46:50:888;08:46:50:845;1448480805.44;(0.4351003646850586, 0.5531764560275607);53.6777954102;1.0;08:46:50:888;0;4;-1.5;3.03560830860534;2.93255131964809;0;0;0;1;1;1;1;0;0;0;0;0;0;0;0;0;();(-2000.0, -2000.0);
08:46:50:904;08:46:50:898;1448480805.48;(0.43504862785339354, 0.5528264787462023);53.741394043;1.0;08:46:50:904;0;15;-1.5;2.03784860557769;1.46627565982405;0;0;0;1;1;1;1;0;0;0;0;0;0;0;0;0;();(-2000.0, -2000.0);
08:46:50:938;08:46:50:898;1448480805.48;(0.43504862785339354, 0.5528264787462023);53.741394043;1.0;08:46:50:938;0;10;-1.5;2.53846153846154;1.85728250244379;0;0;0;1;1;1;1;0;0;0;0;0;0;0;0;0;();(-2000.0, -2000.0);
08:46:50:955;08:46:50:945;1448480805.54;(0.435213565826416, 0.5537030961778429);53.6893692017;1.0;08:46:50:955;0;4;-1.5;2.01377952755906;1.36852394916911;0;0;0;1;1;1;1;0;0;0;0;0;0;0;0;0;();(-2000.0, -2000.0);
08:46:50:972;08:46:50:945;1448480805.54;(0.435213565826416, 0.5537030961778429);53.6893692017;1.0;08:46:50:972;0;10;-1.5;1.85662431941924;1.17302052785924;0;0;0;1;1;1;1;0;0;0;0;0;0;0;0;0;();(-2000.0, -2000.0);
08:46:50:989;08:46:50:945;1448480805.54;(0.435213565826416, 0.5537030961778429);53.6893692017;1.0;08:46:50:989;0;5;-1.5;3.27884615384615;2.73704789833822;0;0;0;1;1;1;1;0;0;0;0;0;0;0;0;0;();(-2000.0, -2000.0);
08:46:51:006;08:46:50:997;1448480805.58;(0.48012681007385255, 0.8997924433814155);33.3345794678;0.646249646278;08:46:51:006;0;0;-1.5;1.65;0.879765395894428;0;0;0;1;1;1;1;0;0;0;0;0;0;0;0;0;();(-2000.0, -2000.0);
08:46:51:022;08:46:50:997;1448480805.58;(0.48012681007385255, 0.8997924433814155);33.3345794678;0.646249646278;08:46:51:022;0;0;-1.5;1.65;0.879765395894428;0;0;0;1;1;1;1;0;0;0;0;0;0;0;0;0;();(-2000.0, -2000.0);
08:46:51:055;08:46:51:045;1448480805.61;(0.46993160247802734, 0.490114254421658);53.4016075134;1.0;08:46:51:055;0;5;-1.5;2.44152744630072;1.85728250244379;0;0;0;1;1;1;1;0;0;0;0;0;0;0;0;0;();(-2000.0, -2000.0);
08:46:51:072;08:46:51:045;1448480805.61;(0.46993160247802734, 0.490114254421658);53.4016075134;1.0;08:46:51:072;0;10;-1.5;2.325;1.85728250244379;0;0;0;1;1;1;1;0;0;0;0;0;0;0;0;0;();(-2000.0, -2000.0);
08:46:51:089;08:46:51:045;1448480805.61;(0.46993160247802734, 0.490114254421658);53.4016075134;1.0;08:46:51:089;0;5;-1.5;2.19057815845824;1.46627565982405;0;0;0;1;1;1;1;0;0;0;0;0;0;0;0;0;();(-2000.0, -2000.0);
08:46:51:106;08:46:51:093;1448480805.64;(0.46811666488647463, 0.4816500769721137);53.0992012024;1.0;08:46:51:106;0;10;-1.5;2.46506024096386;1.85728250244379;0;0;0;1;1;1;1;0;0;0;0;0;0;0;0;0;();(-2000.0, -2000.0);
08:46:51:122;08:46:51:093;1448480805.64;(0.46811666488647463, 0.4816500769721137);53.0992012024;1.0;08:46:51:122;0;4;-1.5;1.85662431941924;1.17302052785924;0;0;0;1;1;1;1;0;0;0;0;0;0;0;0;0;();(-2000.0, -2000.0);
08:46:51:157;08:46:51:145;1448480805.71;(0.4663723945617676, 0.47890247768825955);53.3325462341;1.0;08:46:51:157;0;0;-1.5;1.71932773109244;1.17302052785924;0;0;0;1;1;1;1;0;0;0;0;0;0;0;0;0;();(-2000.0, -2000.0);
08:46:51:173;08:46:51:145;1448480805.71;(0.4663723945617676, 0.47890247768825955);53.3325462341;1.0;08:46:51:173;0;10;-1.5;3.27884615384615;3.03030303030303;0;0;0;1;1;1;1;0;0;0;0;0;0;0;0;0;();(-2000.0, -2000.0);
08:46:51:190;08:46:51:145;1448480805.71;(0.4663723945617676, 0.47890247768825955);53.3325462341;1.0;08:46:51:190;0;15;-1.5;2.71352785145889;2.93255131964809;0;0;0;1;1;1;1;0;0;0;0;0;0;0;0;0;();(-2000.0, -2000.0);
08:46:51:207;08:46:51:194;1448480805.78;(0.4650081157684326, 0.47746806674533415);53.7733917236;1.0;08:46:51:207;0;9;-1.5;1.86;1.17302052785924;0;0;0;1;1;1;1;0;0;0;0;0;0;0;0;0;();(-2000.0, -2000.0);
08:46:51:223;08:46:51:194;1448480805.78;(0.4650081157684326, 0.47746806674533415);53.7733917236;1.0;08:46:51:223;0;0;-1.5;1.88397790055249;1.17302052785924;0;0;0;1;1;1;1;0;0;0;0;0;0;0;0;0;();(-2000.0, -2000.0);
08:46:51:258;08:46:51:247;1448480805.84;(0.4640308380126953, 0.4803429073757596);53.7727088928;1.0;08:46:51:258;0;15;-1.5;1.97490347490347;1.36852394916911;0;0;0;1;1;1;1;0;0;0;0;0;0;0;0;0;();(-2000.0, -2000.0);
08:46:51:274;08:46:51:247;1448480805.84;(0.4640308380126953, 0.4803429073757596);53.7727088928;1.0;08:46:51:274;0;4;-1.5;1.78846153846154;1.17302052785924;0;0;0;1;1;1;1;0;0;0;0;0;0;0;0;0;();(-2000.0, -2000.0);
08:46:51:290;08:46:51:247;1448480805.84;(0.4640308380126953, 0.4803429073757596);53.7727088928;1.0;08:46:51:290;0;15;-1.5;3.05373134328358;2.44379276637341;0;0;0;1;1;1;1;0;0;0;0;0;0;0;0;0;();(-2000.0, -2000.0);
08:46:51:308;08:46:51:294;1448480805.88;(0.46376543045043944, 0.4826204087999132);53.4358406067;1.0;08:46:51:308;0;4;-1.5;3.20689655172414;2.73704789833822;0;0;0;1;1;1;1;0;0;0;0;0;0;0;0;0;();(-2000.0, -2000.0);
08:46:51:325;08:46:51:294;1448480805.88;(0.46376543045043944, 0.4826204087999132);53.4358406067;1.0;08:46:51:325;0;10;-1.5;2.77989130434783;2.44379276637341;0;0;0;1;1;1;1;0;0;0;0;0;0;0;0;0;();(-2000.0, -2000.0);
08:46:51:341;08:46:51:294;1448480805.88;(0.46376543045043944, 0.4826204087999132);53.4358406067;1.0;08:46:51:341;0;5;-1.5;1.73979591836735;1.17302052785924;0;0;0;1;1;1;1;0;0;0;0;0;0;0;0;0;();(-2000.0, -2000.0);
08:46:51:375;08:46:51:345;1448480805.94;(0.46329431533813475, 0.4859274122450087);52.7034111023;1.0;08:46:51:375;0;4;-1.5;2.50735294117647;1.85728250244379;0;0;0;1;1;1;1;0;0;0;0;0;0;0;0;0;();(-2000.0, -2000.0);
08:46:51:392;08:46:51:345;1448480805.94;(0.46329431533813475, 0.4859274122450087);52.7034111023;1.0;08:46:51:392;0;10;-1.5;2.0625;1.66177908113392;0;0;0;1;1;1;1;0;0;0;0;0;0;0;0;0;();(-2000.0, -2000.0);
08:46:51:408;08:46:51:393;1448480805.98;(0.46332263946533203, 0.4852446662055121);52.4593009949;1.0;08:46:51:408;0;5;-1.5;2.41843971631206;1.85728250244379;0;0;0;1;1;1;1;0;0;0;0;0;0;0;0;0;();(-2000.0, -2000.0);
08:46:51:424;08:46:51:393;1448480805.98;(0.46332263946533203, 0.4852446662055121);52.4593009949;1.0;08:46:51:424;0;9;-1.5;2.21428571428571;1.46627565982405;0;0;0;1;1;1;1;0;0;0;0;0;0;0;0;0;();(-2000.0, -2000.0);
08:46:51:442;08:46:51:393;1448480805.98;(0.46332263946533203, 0.4852446662055121);52.4593009949;1.0;08:46:51:441;0;14;-1.5;2.90625;2.73704789833822;0;0;0;1;1;1;1;0;0;0;0;0;0;0;0;0;();(-2000.0, -2000.0);
08:46:51:475;08:46:51:445;1448480806.04;(0.46280617713928224, 0.4856309254964193);51.9148979187;1.0;08:46:51:475;0;15;-1.5;1.58114374034003;0.684261974584555;0;0;0;1;1;1;1;0;0;0;0;0;0;0;0;0;();(-2000.0, -2000.0);
08:46:51:493;08:46:51:445;1448480806.04;(0.46280617713928224, 0.4856309254964193);51.9148979187;1.0;08:46:51:493;0;10;-1.5;2.6030534351145;1.85728250244379;0;0;0;1;1;1;1;0;0;0;0;0;0;0;0;0;();(-2000.0, -2000.0);
08:46:51:509;08:46:51:493;1448480806.08;(0.4624939441680908, 0.48683480156792536);51.8741378784;1.0;08:46:51:509;0;15;-1.5;2.26829268292683;1.46627565982405;0;0;0;1;1;1;1;0;0;0;0;0;0;0;0;0;();(-2000.0, -2000.0);
08:46:51:525;08:46:51:493;1448480806.08;(0.4624939441680908, 0.48683480156792536);51.8741378784;1.0;08:46:51:525;0;4;-1.5;1.75773195876289;1.17302052785924;0;0;0;1;1;1;1;0;0;0;0;0;0;0;0;0;();(-2000.0, -2000.0);
08:46:51:543;08:46:51:542;1448480806.14;(0.4615913391113281, 0.48972765604654944);51.7202911377;1.0;08:46:51:543;0;0;-1.5;1.97109826589595;1.46627565982405;0;0;0;1;1;1;1;0;0;0;0;0;0;0;0;0;();(-2000.0, -2000.0);
08:46:51:575;08:46:51:542;1448480806.14;(0.4615913391113281, 0.48972765604654944);51.7202911377;1.0;08:46:51:575;0;15;-1.5;2.03784860557769;1.46627565982405;0;0;0;1;1;1;1;0;0;0;0;0;0;0;0;0;();(-2000.0, -2000.0);
08:46:51:592;08:46:51:542;1448480806.14;(0.4615913391113281, 0.48972765604654944);51.7202911377;1.0;08:46:51:592;0;4;-1.5;2.02574257425743;1.85728250244379;0;0;0;1;1;1;1;0;0;0;0;0;0;0;0;0;();(-2000.0, -2000.0);
08:46:51:609;08:46:51:593;1448480806.18;(0.4572211742401123, 0.4925059424506293);51.8302192688;1.0;08:46:51:609;0;15;-1.5;3.08132530120482;2.44379276637341;0;0;0;1;1;1;1;0;0;0;0;0;0;0;0;0;();(-2000.0, -2000.0);
08:46:51:626;08:46:51:593;1448480806.18;(0.4572211742401123, 0.4925059424506293);51.8302192688;1.0;08:46:51:626;0;5;-1.5;2.97383720930233;2.73704789833822;0;0;0;1;1;1;1;0;0;0;0;0;0;0;0;0;();(-2000.0, -2000.0);
08:46:51:644;08:46:51:642;1448480806.24;(0.456744909286499, 0.4939699384901258);51.8627891541;1.0;08:46:51:644;0;10;-1.5;2.77989130434783;2.34604105571848;0;0;0;1;1;1;1;0;0;0;0;0;0;0;0;0;();(-2000.0, -2000.0);
08:46:51:676;08:46:51:642;1448480806.24;(0.456744909286499, 0.4939699384901258);51.8627891541;1.0;08:46:51:676;0;9;-1.5;1.97109826589595;1.36852394916911;0;0;0;1;1;1;1;0;0;0;0;0;0;0;0;0;();(-2000.0, -2000.0);
08:46:51:693;08:46:51:642;1448480806.24;(0.456744909286499, 0.4939699384901258);51.8627891541;1.0;08:46:51:693;0;4;-1.5;2.83379501385042;2.34604105571848;0;0;0;1;1;1;1;0;0;0;0;0;0;0;0;0;();(-2000.0, -2000.0);
08:46:51:709;08:46:51:693;1448480806.28;(0.45675125122070315, 0.4939142862955729);51.7359161377;1.0;08:46:51:709;0;0;-1.5;2.44152744630072;2.1505376344086;0;0;0;1;1;1;1;0;0;0;0;0;0;0;0;0;();(-2000.0, -2000.0);
08:46:51:726;08:46:51:693;1448480806.28;(0.45675125122070315, 0.4939142862955729);51.7359161377;1.0;08:46:51:726;0;5;-1.5;2.50735294117647;1.85728250244379;0;0;0;1;1;1;1;0;0;0;0;0;0;0;0;0;();(-2000.0, -2000.0);
08:46:51:744;08:46:51:743;1448480806.34;(0.4570921897888184, 0.49508743286132817);51.5549468994;1.0;08:46:51:744;0;10;-1.5;2.55112219451372;2.73704789833822;0;0;0;1;1;1;1;0;0;0;0;0;0;0;0;0;();(-2000.0, -2000.0);
08:46:51:777;08:46:51:743;1448480806.34;(0.4570921897888184, 0.49508743286132817);51.5549468994;1.0;08:46:51:777;0;10;-1.5;1.5314371257485;0.684261974584555;0;0;0;1;1;1;1;0;0;0;0;0;0;0;0;0;();(-2000.0, -2000.0);
08:46:51:793;08:46:51:743;1448480806.34;(0.4570921897888184, 0.49508743286132817);51.5549468994;1.0;08:46:51:793;0;5;-1.5;2.50735294117647;1.85728250244379;0;0;0;1;1;1;1;0;0;0;0;0;0;0;0;0;();(-2000.0, -2000.0);
08:46:51:810;08:46:51:793;1448480806.38;(0.45716109275817873, 0.49667629665798607);51.6475830078;1.0;08:46:51:810;0;10;-1.5;2.36805555555556;2.34604105571848;0;0;0;1;1;1;1;0;0;0;0;0;0;0;0;0;();(-2000.0, -2000.0);
08:46:51:827;08:46:51:793;1448480806.38;(0.45716109275817873, 0.49667629665798607);51.6475830078;1.0;08:46:51:827;0;4;-1.5;1.60093896713615;0.684261974584555;0;0;0;1;1;1;1;0;0;0;0;0;0;0;0;0;();(-2000.0, -2000.0);
08:46:51:844;08:46:51:841;1448480806.41;(0.45753021240234376, 0.4974915398491754);51.8598594666;1.0;08:46:51:844;0;9;-1.5;1.54066265060241;0.684261974584555;0;0;0;1;1;1;1;0;0;0;0;0;0;0;0;0;();(-2000.0, -2000.0);
08:46:51:875;08:46:51:841;1448480806.41;(0.45753021240234376, 0.4974915398491754);51.8598594666;1.0;08:46:51:875;0;9;-1.5;2.0297619047619;1.46627565982405;0;0;0;1;1;1;1;0;0;0;0;0;0;0;0;0;();(-2000.0, -2000.0);
08:46:51:890;08:46:51:841;1448480806.41;(0.45753021240234376, 0.4974915398491754);51.8598594666;1.0;08:46:51:890;0;5;-1.5;2.62307692307692;2.1505376344086;0;0;0;1;1;1;1;0;0;0;0;0;0;0;0;0;();(-2000.0, -2000.0);
08:46:51:905;08:46:51:841;1448480806.41;(0.45753021240234376, 0.4974915398491754);51.8598594666;1.0;08:46:51:905;0;10;-1.5;2.84958217270195;2.34604105571848;0;0;0;1;1;1;1;0;0;0;0;0;0;0;0;0;();(-2000.0, -2000.0);
08:46:51:936;08:46:51:841;1448480806.41;(0.45753021240234376, 0.4974915398491754);51.8598594666;1.0;08:46:51:936;0;10;-1.5;1.69370860927152;0.879765395894428;0;0;0;1;1;1;1;0;0;0;0;0;0;0;0;0;();(-2000.0, -2000.0);
08:46:51:951;08:46:51:841;1448480806.41;(0.45753021240234376, 0.4974915398491754);51.8598594666;1.0;08:46:51:951;0;5;-1.5;2.84958217270195;2.73704789833822;0;0;0;1;1;1;1;0;0;0;0;0;0;0;0;0;();(-2000.0, -2000.0);
08:46:51:966;08:46:51:841;1448480806.41;(0.45753021240234376, 0.4974915398491754);51.8598594666;1.0;08:46:51:966;0;7;-1.5;3.35409836065574;3.03030303030303;0;0;0;1;1;1;1;0;0;0;0;0;0;0;0;0;();(-2000.0, -2000.0);
08:46:51:995;08:46:51:993;1448480806.56;(0.4095931053161621, 0.5404312557644314);52.7368507385;1.0;08:46:51:995;0;15;-1.5;2.46506024096386;1.85728250244379;0;0;0;1;1;1;1;0;0;0;0;0;0;0;0;0;();(-2000.0, -2000.0);
08:46:52:011;08:46:51:993;1448480806.56;(0.4095931053161621, 0.5404312557644314);52.7368507385;1.0;08:46:52:011;0;4;-1.5;2.58333333333333;1.85728250244379;0;0;0;1;1;1;1;0;0;0;0;0;0;0;0;0;();(-2000.0, -2000.0);
08:46:52:028;08:46:51:993;1448480806.56;(0.4095931053161621, 0.5404312557644314);52.7368507385;1.0;08:46:52:028;0;0;-1.5;2.12681912681913;1.46627565982405;0;0;0;1;1;1;1;0;0;0;0;0;0;0;0;0;();(-2000.0, -2000.0);
08:46:52:046;08:46:52:042;1448480806.64;(0.4087721109390259, 0.54161376953125);52.8563919067;1.0;08:46:52:046;0;5;-1.5;2.36258660508083;1.66177908113392;0;0;0;1;1;1;1;0;0;0;0;0;0;0;0;0;();(-2000.0, -2000.0);
08:46:52:078;08:46:52:042;1448480806.64;(0.4087721109390259, 0.54161376953125);52.8563919067;1.0;08:46:52:078;0;4;-1.5;1.77913043478261;1.46627565982405;0;0;0;1;1;1;1;0;0;0;0;0;0;0;0;0;();(-2000.0, -2000.0);
08:46:52:095;08:46:52:090;1448480806.68;(0.4087015390396118, 0.5421220991346571);52.8215103149;1.0;08:46:52:095;0;9;-1.5;1.72512647554806;1.17302052785924;0;0;0;1;1;1;1;0;0;0;0;0;0;0;0;0;();(-2000.0, -2000.0);
08:46:52:112;08:46:52:090;1448480806.68;(0.4087015390396118, 0.5421220991346571);52.8215103149;1.0;08:46:52:112;0;5;-1.5;2.84958217270195;2.34604105571848;0;0;0;1;1;1;1;0;0;0;0;0;0;0;0;0;();(-2000.0, -2000.0);
08:46:52:130;08:46:52:090;1448480806.68;(0.4087015390396118, 0.5421220991346571);52.8215103149;1.0;08:46:52:130;0;10;-1.5;2.50735294117647;1.85728250244379;0;0;0;1;1;1;1;0;0;0;0;0;0;0;0;0;();(-2000.0, -2000.0);
08:46:52:145;08:46:52:141;1448480806.71;(0.4089934825897217, 0.543474833170573);53.1506881714;1.0;08:46:52:145;0;4;-1.5;1.63157894736842;0.684261974584555;0;0;0;1;1;1;1;0;0;0;0;0;0;0;0;0;();(-2000.0, -2000.0);
08:46:52:162;08:46:52:141;1448480806.71;(0.4089934825897217, 0.543474833170573);53.1506881714;1.0;08:46:52:162;0;9;-1.5;2.02574257425743;1.46627565982405;0;0;0;1;1;1;1;0;0;0;0;0;0;0;0;0;();(-2000.0, -2000.0);
08:46:52:196;08:46:52:189;1448480806.78;(0.421808648109436, 0.5609600490993923);52.2969055176;0.830467341363;08:46:52:196;0;9;-1.5;2.6640625;2.1505376344086;0;0;0;1;1;1;1;0;0;0;0;0;0;0;0;0;();(-2000.0, -2000.0);
08:46:52:215;08:46:52:189;1448480806.78;(0.421808648109436, 0.5609600490993923);52.2969055176;0.830467341363;08:46:52:215;0;15;-1.5;2.1006160164271;1.46627565982405;0;0;0;1;1;1;1;0;0;0;0;0;0;0;0;0;();(-2000.0, -2000.0);
08:46:52:230;08:46:52:189;1448480806.78;(0.421808648109436, 0.5609600490993923);52.2969055176;0.830467341363;08:46:52:230;0;9;-1.5;2.21428571428571;1.46627565982405;0;0;0;1;1;1;1;0;0;0;0;0;0;0;0;0;();(-2000.0, -2000.0);
08:46:52:246;08:46:52:241;1448480806.84;(0.42243759632110595, 0.5606109195285374);51.7244338989;1.0;08:46:52:246;0;15;-1.5;2.77989130434783;2.34604105571848;0;0;0;1;1;1;1;0;0;0;0;0;0;0;0;0;();(-2000.0, -2000.0);
08:46:52:264;08:46:52:241;1448480806.84;(0.42243759632110595, 0.5606109195285374);51.7244338989;1.0;08:46:52:263;0;10;-1.5;1.73979591836735;1.17302052785924;0;0;0;1;1;1;1;0;0;0;0;0;0;0;0;0;();(-2000.0, -2000.0);
08:46:52:297;08:46:52:289;1448480806.88;(0.42268497943878175, 0.5603927612304688);51.7480278015;1.0;08:46:52:297;0;15;-1.5;1.60093896713615;0.684261974584555;0;0;0;1;1;1;1;0;0;0;0;0;0;0;0;0;();(-2000.0, -2000.0);
08:46:52:315;08:46:52:289;1448480806.88;(0.42268497943878175, 0.5603927612304688);51.7480278015;1.0;08:46:52:315;0;15;-1.5;2.75741239892183;2.34604105571848;0;0;0;1;1;1;1;0;0;0;0;0;0;0;0;0;();(-2000.0, -2000.0);
08:46:52:331;08:46:52:289;1448480806.88;(0.42268497943878175, 0.5603927612304688);51.7480278015;1.0;08:46:52:331;0;5;-1.5;2.28348214285714;1.85728250244379;0;0;0;1;1;1;1;0;0;0;0;0;0;0;0;0;();(-2000.0, -2000.0);
08:46:52:347;08:46:52:343;1448480806.94;(0.42243261337280275, 0.5610936058892144);51.4877853394;1.0;08:46:52:347;0;0;-1.5;2.44152744630072;1.85728250244379;0;0;0;1;1;1;1;0;0;0;0;0;0;0;0;0;();(-2000.0, -2000.0);
08:46:52:365;08:46:52:343;1448480806.94;(0.42243261337280275, 0.5610936058892144);51.4877853394;1.0;08:46:52:365;0;5;-1.5;2.325;1.66177908113392;0;0;0;1;1;1;1;0;0;0;0;0;0;0;0;0;();(-2000.0, -2000.0);
08:46:52:381;08:46:52:343;1448480806.94;(0.42243261337280275, 0.5610936058892144);51.4877853394;1.0;08:46:52:381;0;10;-1.5;2.13125;1.46627565982405;0;0;0;1;1;1;1;0;0;0;0;0;0;0;0;0;();(-2000.0, -2000.0);
08:46:52:414;08:46:52:389;1448480806.98;(0.4224765539169312, 0.5625223795572917);51.4196510315;1.0;08:46:52:414;0;10;-1.5;1.69370860927152;1.17302052785924;0;0;0;1;1;1;1;0;0;0;0;0;0;0;0;0;();(-2000.0, -2000.0);
08:46:52:431;08:46:52:389;1448480806.98;(0.4224765539169312, 0.5625223795572917);51.4196510315;1.0;08:46:52:431;0;5;-1.5;2.41843971631206;1.66177908113392;0;0;0;1;1;1;1;0;0;0;0;0;0;0;0;0;();(-2000.0, -2000.0);
08:46:52:448;08:46:52:441;1448480807.01;(0.4327690124511719, 0.5612920973036024);51.3060150146;1.0;08:46:52:448;0;10;-1.5;3.65357142857143;3.81231671554252;0;0;0;1;1;1;1;0;0;0;0;0;0;0;0;0;();(-2000.0, -2000.0);
08:46:52:466;08:46:52:441;1448480807.01;(0.4327690124511719, 0.5612920973036024);51.3060150146;1.0;08:46:52:464;0;15;-1.5;2.50735294117647;1.85728250244379;0;0;0;1;1;1;1;0;0;0;0;0;0;0;0;0;();(-2000.0, -2000.0);
08:46:52:481;08:46:52:441;1448480807.01;(0.4327690124511719, 0.5612920973036024);51.3060150146;1.0;08:46:52:481;0;9;-1.5;1.89444444444444;1.17302052785924;0;0;0;1;1;1;1;0;0;0;0;0;0;0;0;0;();(-2000.0, -2000.0);
08:46:52:514;08:46:52:489;1448480807.08;(0.43256022930145266, 0.5604907565646702);51.3977851868;1.0;08:46:52:514;0;10;-1.5;2.20950323974082;2.1505376344086;0;0;0;1;1;1;1;0;0;0;0;0;0;0;0;0;();(-2000.0, -2000.0);
08:46:52:533;08:46:52:489;1448480807.08;(0.43256022930145266, 0.5604907565646702);51.3977851868;1.0;08:46:52:533;0;15;-1.5;2.13125;1.46627565982405;0;0;0;1;1;1;1;0;0;0;0;0;0;0;0;0;();(-2000.0, -2000.0);
08:46:52:548;08:46:52:537;1448480807.14;(0.4325780153274536, 0.5585041046142578);51.6686058044;1.0;08:46:52:548;0;4;-1.5;2.0501002004008;1.46627565982405;0;0;0;1;1;1;1;0;0;0;0;0;0;0;0;0;();(-2000.0, -2000.0);
08:46:52:564;08:46:52:537;1448480807.14;(0.4325780153274536, 0.5585041046142578);51.6686058044;1.0;08:46:52:564;0;15;-1.5;2.97383720930233;2.34604105571848;0;0;0;1;1;1;1;0;0;0;0;0;0;0;0;0;();(-2000.0, -2000.0);
08:46:52:598;08:46:52:590;1448480807.18;(0.43274745941162107, 0.5576766120062935);51.673034668;1.0;08:46:52:598;0;0;-1.5;1.63942307692308;0.684261974584555;0;0;0;1;1;1;1;0;0;0;0;0;0;0;0;0;();(-2000.0, -2000.0);
08:46:52:615;08:46:52:590;1448480807.18;(0.43274745941162107, 0.5576766120062935);51.673034668;1.0;08:46:52:615;0;4;-1.5;1.75471698113208;1.17302052785924;0;0;0;1;1;1;1;0;0;0;0;0;0;0;0;0;();(-2000.0, -2000.0);
08:46:52:633;08:46:52:590;1448480807.18;(0.43274745941162107, 0.5576766120062935);51.673034668;1.0;08:46:52:633;0;0;-1.5;2.20950323974082;1.46627565982405;0;0;0;1;1;1;1;0;0;0;0;0;0;0;0;0;();(-2000.0, -2000.0);
08:46:52:649;08:46:52:637;1448480807.24;(0.4329996109008789, 0.5581712086995443);51.7792434692;1.0;08:46:52:649;0;4;-1.5;2.48300970873786;2.34604105571848;0;0;0;1;1;1;1;0;0;0;0;0;0;0;0;0;();(-2000.0, -2000.0);
08:46:52:665;08:46:52:637;1448480807.24;(0.4329996109008789, 0.5581712086995443);51.7792434692;1.0;08:46:52:665;0;15;-1.5;1.87020109689214;1.17302052785924;0;0;0;1;1;1;1;0;0;0;0;0;0;0;0;0;();(-2000.0, -2000.0);
08:46:52:682;08:46:52:637;1448480807.24;(0.4329996109008789, 0.5581712086995443);51.7792434692;1.0;08:46:52:682;0;5;-1.5;2.25330396475771;1.46627565982405;0;0;0;1;1;1;1;0;0;0;0;0;0;0;0;0;();(-2000.0, -2000.0);
08:46:52:715;08:46:52:689;1448480807.28;(0.43309717178344725, 0.5592198265923394);51.3201065063;1.0;08:46:52:715;0;4;-1.5;1.74871794871795;1.17302052785924;0;0;0;1;1;1;1;0;0;0;0;0;0;0;0;0;();(-2000.0, -2000.0);
08:46:52:733;08:46:52:689;1448480807.28;(0.43309717178344725, 0.5592198265923394);51.3201065063;1.0;08:46:52:733;0;9;-1.5;1.68256578947368;0.879765395894428;0;0;0;1;1;1;1;0;0;0;0;0;0;0;0;0;();(-2000.0, -2000.0);
08:46:52:750;08:46:52:737;1448480807.31;(0.4332287788391113, 0.5609664493136935);51.1186027527;1.0;08:46:52:750;0;5;-1.5;2.97383720930233;2.34604105571848;0;0;0;1;1;1;1;0;0;0;0;0;0;0;0;0;();(-2000.0, -2000.0);
08:46:52:767;08:46:52:737;1448480807.31;(0.4332287788391113, 0.5609664493136935);51.1186027527;1.0;08:46:52:767;0;10;-1.5;3.70652173913044;3.03030303030303;0;0;0;1;1;1;1;0;0;0;0;0;0;0;0;0;();(-2000.0, -2000.0);
08:46:52:783;08:46:52:737;1448480807.31;(0.4332287788391113, 0.5609664493136935);51.1186027527;1.0;08:46:52:783;0;15;-1.5;2.6640625;2.1505376344086;0;0;0;1;1;1;1;0;0;0;0;0;0;0;0;0;();(-2000.0, -2000.0);
08:46:52:816;08:46:52:789;1448480807.34;(0.4146721601486206, 0.5564214494493273);59.3046760559;0.704857059747;08:46:52:816;0;5;-1.5;2.16737288135593;1.85728250244379;0;0;0;1;1;1;1;0;0;0;0;0;0;0;0;0;();(-2000.0, -2000.0);
08:46:52:833;08:46:52:789;1448480807.34;(0.4146721601486206, 0.5564214494493273);59.3046760559;0.704857059747;08:46:52:833;0;10;-1.5;2.1006160164271;1.46627565982405;0;0;0;1;1;1;1;0;0;0;0;0;0;0;0;0;();(-2000.0, -2000.0);
08:46:52:851;08:46:52:837;1448480807.44;(0.401033616065979, 0.5478762732611762);52.9014053345;1.0;08:46:52:851;0;15;-1.5;1.79789103690685;1.36852394916911;0;0;0;1;1;1;1;0;0;0;0;0;0;0;0;0;();(-2000.0, -2000.0);
08:46:52:866;08:46:52:837;1448480807.44;(0.401033616065979, 0.5478762732611762);52.9014053345;1.0;08:46:52:866;0;10;-1.5;2.61636828644501;1.95503421309873;0;0;0;1;1;1;1;0;0;0;0;0;0;0;0;0;();(-2000.0, -2000.0);
08:46:52:883;08:46:52:837;1448480807.44;(0.401033616065979, 0.5478762732611762);52.9014053345;1.0;08:46:52:883;0;4;-1.5;1.82678571428571;1.17302052785924;0;0;0;1;1;1;1;0;0;0;0;0;0;0;0;0;();(-2000.0, -2000.0);
08:46:52:917;08:46:52:890;1448480807.48;(0.400632381439209, 0.5469888051350911);53.0531425476;1.0;08:46:52:917;0;5;-1.5;2.73529411764706;2.34604105571848;0;0;0;1;1;1;1;0;0;0;0;0;0;0;0;0;();(-2000.0, -2000.0);
08:46:52:934;08:46:52:890;1448480807.48;(0.400632381439209, 0.5469888051350911);53.0531425476;1.0;08:46:52:934;0;10;-1.5;2.50735294117647;1.85728250244379;0;0;0;1;1;1;1;0;0;0;0;0;0;0;0;0;();(-2000.0, -2000.0);
08:46:52:950;08:46:52:938;1448480807.54;(0.4005256652832031, 0.546347893608941);53.3502960205;1.0;08:46:52:950;0;15;-1.5;2.57035175879397;1.85728250244379;0;0;0;1;1;1;1;0;0;0;0;0;0;0;0;0;();(-2000.0, -2000.0);
08:46:52:967;08:46:52:938;1448480807.54;(0.4005256652832031, 0.546347893608941);53.3502960205;1.0;08:46:52:967;0;9;-1.5;2.03784860557769;1.46627565982405;0;0;0;1;1;1;1;0;0;0;0;0;0;0;0;0;();(-2000.0, -2000.0);
08:46:52:984;08:46:52:938;1448480807.54;(0.4005256652832031, 0.546347893608941);53.3502960205;1.0;08:46:52:984;0;15;-1.5;1.97109826589595;1.36852394916911;0;0;0;1;1;1;1;0;0;0;0;0;0;0;0;0;();(-2000.0, -2000.0);
08:46:53:002;08:46:52:986;1448480807.58;(0.4008054733276367, 0.5465928819444444);53.7489585876;1.0;08:46:53:002;0;5;-1.5;2.33561643835616;1.66177908113392;0;0;0;1;1;1;1;0;0;0;0;0;0;0;0;0;();(-2000.0, -2000.0);
08:46:53:034;08:46:52:986;1448480807.58;(0.4008054733276367, 0.5465928819444444);53.7489585876;1.0;08:46:53:034;0;4;-1.5;1.82678571428571;1.17302052785924;0;0;0;1;1;1;1;0;0;0;0;0;0;0;0;0;();(-2000.0, -2000.0);
08:46:53:052;08:46:53:037;1448480807.61;(0.40078346729278563, 0.5470372941758898);53.8454704285;1.0;08:46:53:052;0;0;-1.5;3.41;2.73704789833822;0;0;0;1;1;1;1;0;0;0;0;0;0;0;0;0;();(-2000.0, -2000.0);
08:46:53:069;08:46:53:037;1448480807.61;(0.40078346729278563, 0.5470372941758898);53.8454704285;1.0;08:46:53:069;0;5;-1.5;2.84958217270195;2.34604105571848;0;0;0;1;1;1;1;0;0;0;0;0;0;0;0;0;();(-2000.0, -2000.0);
08:46:53:084;08:46:53:037;1448480807.61;(0.40078346729278563, 0.5470372941758898);53.8454704285;1.0;08:46:53:084;0;10;-1.5;2.6640625;2.1505376344086;0;0;0;1;1;1;1;0;0;0;0;0;0;0;0;0;();(-2000.0, -2000.0);
08:46:53:101;08:46:53:085;1448480807.64;(0.40121724605560305, 0.5407677544487848);54.170715332;1.0;08:46:53:101;0;5;-1.5;1.75471698113208;1.17302052785924;0;0;0;1;1;1;1;0;0;0;0;0;0;0;0;0;();(-2000.0, -2000.0);
08:46:53:135;08:46:53:085;1448480807.64;(0.40121724605560305, 0.5407677544487848);54.170715332;1.0;08:46:53:135;0;5;-1.5;2.2;1.46627565982405;0;0;0;1;1;1;1;0;0;0;0;0;0;0;0;0;();(-2000.0, -2000.0);
08:46:53:152;08:46:53:139;1448480807.74;(0.4011897802352905, 0.5409434424506294);54.4882011414;1.0;08:46:53:152;0;10;-1.5;2.0625;1.46627565982405;0;0;0;1;1;1;1;0;0;0;0;0;0;0;0;0;();(-2000.0, -2000.0);
08:46:53:168;08:46:53:139;1448480807.74;(0.4011897802352905, 0.5409434424506294);54.4882011414;1.0;08:46:53:168;0;5;-1.5;2.36805555555556;1.66177908113392;0;0;0;1;1;1;1;0;0;0;0;0;0;0;0;0;();(-2000.0, -2000.0);
08:46:53:185;08:46:53:139;1448480807.74;(0.4011897802352905, 0.5409434424506294);54.4882011414;1.0;08:46:53:185;0;10;-1.5;2.97383720930233;2.93255131964809;0;0;0;1;1;1;1;0;0;0;0;0;0;0;0;0;();(-2000.0, -2000.0);
08:46:53:202;08:46:53:185;1448480807.78;(0.40109710693359374, 0.5408128526475695);54.5908432007;1.0;08:46:53:202;0;4;-1.5;2.01377952755906;1.36852394916911;0;0;0;1;1;1;1;0;0;0;0;0;0;0;0;0;();(-2000.0, -2000.0);
08:46:53:235;08:46:53:185;1448480807.78;(0.40109710693359374, 0.5408128526475695);54.5908432007;1.0;08:46:53:235;0;5;-1.5;2.58333333333333;2.34604105571848;0;0;0;1;1;1;1;0;0;0;0;0;0;0;0;0;();(-2000.0, -2000.0);
08:46:53:253;08:46:53:239;1448480807.84;(0.401579761505127, 0.5398800320095486);55.0171852112;1.0;08:46:53:253;0;10;-1.5;2.84958217270195;2.34604105571848;0;0;0;1;1;1;1;0;0;0;0;0;0;0;0;0;();(-2000.0, -2000.0);
08:46:53:270;08:46:53:239;1448480807.84;(0.401579761505127, 0.5398800320095486);55.0171852112;1.0;08:46:53:270;0;15;-1.5;1.77913043478261;1.17302052785924;0;0;0;1;1;1;1;0;0;0;0;0;0;0;0;0;();(-2000.0, -2000.0);
08:46:53:286;08:46:53:239;1448480807.84;(0.401579761505127, 0.5398800320095486);55.0171852112;1.0;08:46:53:286;0;9;-1.5;1.78846153846154;1.17302052785924;0;0;0;1;1;1;1;0;0;0;0;0;0;0;0;0;();(-2000.0, -2000.0);
08:46:53:302;08:46:53:239;1448480807.84;(0.401579761505127, 0.5398800320095486);55.0171852112;1.0;08:46:53:302;0;15;-1.5;2.28348214285714;1.66177908113392;0;0;0;1;1;1;1;0;0;0;0;0;0;0;0;0;();(-2000.0, -2000.0);
08:46:53:336;08:46:53:335;1448480807.91;(0.4685337543487549, 0.8920483695136177);32.5984764099;0.933935403708;08:46:53:336;0;15;-1.5;2.05835010060362;1.46627565982405;0;0;0;1;1;1;1;0;0;0;0;0;0;0;0;0;();(-2000.0, -2000.0);
08:46:53:353;08:46:53:335;1448480807.91;(0.4685337543487549, 0.8920483695136177);32.5984764099;0.933935403708;08:46:53:353;0;4;-1.5;1.90858208955224;1.46627565982405;0;0;0;1;1;1;1;0;0;0;0;0;0;0;0;0;();(-2000.0, -2000.0);
08:46:53:369;08:46:53:335;1448480807.91;(0.4685337543487549, 0.8920483695136177);32.5984764099;0.933935403708;08:46:53:369;0;15;-1.5;2.64341085271318;2.1505376344086;0;0;0;1;1;1;1;0;0;0;0;0;0;0;0;0;();(-2000.0, -2000.0);
08:46:53:386;08:46:53:385;1448480807.98;(0.46946287155151367, 0.8915930218166775);33.3874931335;0.812555663822;08:46:53:386;0;5;-1.5;3.64056939501779;3.03030303030303;0;0;0;1;1;1;1;0;0;0;0;0;0;0;0;0;();(-2000.0, -2000.0);
08:46:53:403;08:46:53:385;1448480807.98;(0.46946287155151367, 0.8915930218166775);33.3874931335;0.812555663822;08:46:53:403;0;5;-1.5;3.64056939501779;3.03030303030303;0;0;0;1;1;1;1;0;0;0;0;0;0;0;0;0;();(-2000.0, -2000.0);
08:46:53:437;08:46:53:433;1448480808.01;(0.40676753520965575, 0.5343902587890625);55.0600662231;1.0;08:46:53:437;0;15;-1.5;2.72074468085106;2.34604105571848;0;0;0;1;1;1;1;0;0;0;0;0;0;0;0;0;();(-2000.0, -2000.0);
08:46:53:453;08:46:53:433;1448480808.01;(0.40676753520965575, 0.5343902587890625);55.0600662231;1.0;08:46:53:453;0;4;-1.5;2.50122249388753;2.34604105571848;0;0;0;1;1;1;1;0;0;0;0;0;0;0;0;0;();(-2000.0, -2000.0);
08:46:53:470;08:46:53:433;1448480808.01;(0.40676753520965575, 0.5343902587890625);55.0600662231;1.0;08:46:53:470;0;0;-1.5;2.1006160164271;1.85728250244379;0;0;0;1;1;1;1;0;0;0;0;0;0;0;0;0;();(-2000.0, -2000.0);
08:46:53:487;08:46:53:486;1448480808.08;(0.40656657218933107, 0.5365507337782118);55.3382377625;1.0;08:46:53:487;0;5;-1.5;2.0625;1.46627565982405;0;0;0;1;1;1;1;0;0;0;0;0;0;0;0;0;();(-2000.0, -2000.0);
08:46:53:504;08:46:53:486;1448480808.08;(0.40656657218933107, 0.5365507337782118);55.3382377625;1.0;08:46:53:504;0;10;-1.5;2.6640625;2.34604105571848;0;0;0;1;1;1;1;0;0;0;0;0;0;0;0;0;();(-2000.0, -2000.0);
08:46:53:537;08:46:53:533;1448480808.11;(0.40625462532043455, 0.5370321061876084);55.3669929504;1.0;08:46:53:537;0;10;-1.5;1.705;0.879765395894428;0;0;0;1;1;1;1;0;0;0;0;0;0;0;0;0;();(-2000.0, -2000.0);
08:46:53:554;08:46:53:533;1448480808.11;(0.40625462532043455, 0.5370321061876084);55.3669929504;1.0;08:46:53:554;0;5;-1.5;2.88169014084507;2.34604105571848;0;0;0;1;1;1;1;0;0;0;0;0;0;0;0;0;();(-2000.0, -2000.0);
08:46:53:571;08:46:53:533;1448480808.11;(0.40625462532043455, 0.5370321061876084);55.3669929504;1.0;08:46:53:571;0;0;-1.5;1.75471698113208;1.17302052785924;0;0;0;1;1;1;1;0;0;0;0;0;0;0;0;0;();(-2000.0, -2000.0);
08:46:53:588;08:46:53:585;1448480808.14;(0.40637023448944093, 0.5428543938530817);54.9032936096;1.0;08:46:53:588;0;0;-1.5;1.75471698113208;1.17302052785924;0;0;0;1;1;1;1;0;0;0;0;0;0;0;0;0;();(-2000.0, -2000.0);
08:46:53:607;08:46:53:585;1448480808.14;(0.40637023448944093, 0.5428543938530817);54.9032936096;1.0;08:46:53:606;0;9;-1.5;1.90858208955224;1.46627565982405;0;0;0;1;1;1;1;0;0;0;0;0;0;0;0;0;();(-2000.0, -2000.0);
08:46:53:621;08:46:53:585;1448480808.14;(0.40637023448944093, 0.5428543938530817);54.9032936096;1.0;08:46:53:621;0;4;-1.5;2.50735294117647;1.85728250244379;0;0;0;1;1;1;1;0;0;0;0;0;0;0;0;0;();(-2000.0, -2000.0);
08:46:53:657;08:46:53:633;1448480808.21;(0.4203336238861084, 0.5535700903998482);53.8390922546;1.0;08:46:53:657;0;15;-1.5;2.0625;1.46627565982405;0;0;0;1;1;1;1;0;0;0;0;0;0;0;0;0;();(-2000.0, -2000.0);
08:46:53:671;08:46:53:633;1448480808.21;(0.4203336238861084, 0.5535700903998482);53.8390922546;1.0;08:46:53:671;0;10;-1.5;2.90625;2.73704789833822;0;0;0;1;1;1;1;0;0;0;0;0;0;0;0;0;();(-2000.0, -2000.0);
08:46:53:688;08:46:53:685;1448480808.28;(0.42000157833099366, 0.5544528961181641);53.5423240662;1.0;08:46:53:688;0;15;-1.5;2.65714285714286;2.34604105571848;0;0;0;1;1;1;1;0;0;0;0;0;0;0;0;0;();(-2000.0, -2000.0);
08:46:53:705;08:46:53:685;1448480808.28;(0.42000157833099366, 0.5544528961181641);53.5423240662;1.0;08:46:53:705;0;5;-1.5;3.56445993031359;2.93255131964809;0;0;0;1;1;1;1;0;0;0;0;0;0;0;0;0;();(-2000.0, -2000.0);
08:46:53:723;08:46:53:685;1448480808.28;(0.42000157833099366, 0.5544528961181641);53.5423240662;1.0;08:46:53:723;0;10;-1.5;2.97383720930233;2.34604105571848;0;0;0;1;1;1;1;0;0;0;0;0;0;0;0;0;();(-2000.0, -2000.0);
08:46:53:755;08:46:53:733;1448480808.31;(0.42026610374450685, 0.5554312388102214);53.0941581726;1.0;08:46:53:755;0;9;-1.5;1.80105633802817;1.17302052785924;0;0;0;1;1;1;1;0;0;0;0;0;0;0;0;0;();(-2000.0, -2000.0);
08:46:53:772;08:46:53:733;1448480808.31;(0.42026610374450685, 0.5554312388102214);53.0941581726;1.0;08:46:53:772;0;4;-1.5;2.44152744630072;1.85728250244379;0;0;0;1;1;1;1;0;0;0;0;0;0;0;0;0;();(-2000.0, -2000.0);
08:46:53:789;08:46:53:781;1448480808.38;(0.42071564197540284, 0.5584654490152995);52.3591384888;1.0;08:46:53:789;0;9;-1.5;2.36258660508083;1.66177908113392;0;0;0;1;1;1;1;0;0;0;0;0;0;0;0;0;();(-2000.0, -2000.0);
08:46:53:805;08:46:53:781;1448480808.38;(0.42071564197540284, 0.5584654490152995);52.3591384888;1.0;08:46:53:805;0;5;-1.5;2.50122249388753;2.34604105571848;0;0;0;1;1;1;1;0;0;0;0;0;0;0;0;0;();(-2000.0, -2000.0);
08:46:53:823;08:46:53:781;1448480808.38;(0.42071564197540284, 0.5584654490152995);52.3591384888;1.0;08:46:53:823;0;10;-1.5;2.90625;2.73704789833822;0;0;0;1;1;1;1;0;0;0;0;0;0;0;0;0;();(-2000.0, -2000.0);
08:46:53:856;08:46:53:833;1448480808.41;(0.42089524269104006, 0.5592506832546658);52.0119171143;1.0;08:46:53:856;0;10;-1.5;1.705;1.0752688172043;0;0;0;1;1;1;1;0;0;0;0;0;0;0;0;0;();(-2000.0, -2000.0);
08:46:53:872;08:46:53:833;1448480808.41;(0.42089524269104006, 0.5592506832546658);52.0119171143;1.0;08:46:53:872;0;0;-1.5;1.74871794871795;1.17302052785924;0;0;0;1;1;1;1;0;0;0;0;0;0;0;0;0;();(-2000.0, -2000.0);
08:46:53:889;08:46:53:881;1448480808.48;(0.42101411819458007, 0.5585029602050782);51.5364151001;1.0;08:46:53:889;0;10;-1.5;2.85754189944134;2.34604105571848;0;0;0;1;1;1;1;0;0;0;0;0;0;0;0;0;();(-2000.0, -2000.0);
08:46:53:906;08:46:53:881;1448480808.48;(0.42101411819458007, 0.5585029602050782);51.5364151001;1.0;08:46:53:906;0;15;-1.5;2.90625;2.34604105571848;0;0;0;1;1;1;1;0;0;0;0;0;0;0;0;0;();(-2000.0, -2000.0);
08:46:53:923;08:46:53:881;1448480808.48;(0.42101411819458007, 0.5585029602050782);51.5364151001;1.0;08:46:53:923;0;9;-1.5;1.81705150976909;1.17302052785924;0;0;0;1;1;1;1;0;0;0;0;0;0;0;0;0;();(-2000.0, -2000.0);
08:46:53:957;08:46:53:933;1448480808.51;(0.42384912967681887, 0.5565830654568142);52.0573921204;1.0;08:46:53:957;0;10;-1.5;2.14016736401674;1.66177908113392;0;0;0;1;1;1;1;0;0;0;0;0;0;0;0;0;();(-2000.0, -2000.0);
08:46:53:973;08:46:53:933;1448480808.51;(0.42384912967681887, 0.5565830654568142);52.0573921204;1.0;08:46:53:973;0;15;-1.5;1.88397790055249;1.17302052785924;0;0;0;1;1;1;1;0;0;0;0;0;0;0;0;0;();(-2000.0, -2000.0);
08:46:53:990;08:46:53:981;1448480808.54;(0.42782528400421144, 0.5537411583794487);51.4510231018;1.0;08:46:53:990;0;9;-1.5;2.28348214285714;1.85728250244379;0;0;0;1;1;1;1;0;0;0;0;0;0;0;0;0;();(-2000.0, -2000.0);
08:46:54:007;08:46:53:981;1448480808.54;(0.42782528400421144, 0.5537411583794487);51.4510231018;1.0;08:46:54:007;0;15;-1.5;2.50735294117647;1.85728250244379;0;0;0;1;1;1;1;0;0;0;0;0;0;0;0;0;();(-2000.0, -2000.0);
08:46:54:023;08:46:53:981;1448480808.54;(0.42782528400421144, 0.5537411583794487);51.4510231018;1.0;08:46:54:023;0;12;-1.5;1.77913043478261;1.17302052785924;0;0;0;1;1;1;1;0;0;0;0;0;0;0;0;0;();(-2000.0, -2000.0);
08:46:54:058;08:46:54:035;1448480808.61;(0.4280322790145874, 0.553764639960395);51.4435043335;1.0;08:46:54:058;0;5;-1.5;1.98640776699029;1.46627565982405;0;0;0;1;1;1;1;0;0;0;0;0;0;0;0;0;();(-2000.0, -2000.0);
08:46:54:075;08:46:54:035;1448480808.61;(0.4280322790145874, 0.553764639960395);51.4435043335;1.0;08:46:54:074;0;15;-1.5;2.55112219451372;1.85728250244379;0;0;0;1;1;1;1;0;0;0;0;0;0;0;0;0;();(-2000.0, -2000.0);
08:46:54:091;08:46:54:081;1448480808.68;(0.42826318740844727, 0.5544083065456814);51.2501831055;1.0;08:46:54:091;0;4;-1.5;2.46506024096386;1.85728250244379;0;0;0;1;1;1;1;0;0;0;0;0;0;0;0;0;();(-2000.0, -2000.0);
08:46:54:109;08:46:54:081;1448480808.68;(0.42826318740844727, 0.5544083065456814);51.2501831055;1.0;08:46:54:109;0;10;-1.5;1.998046875;1.36852394916911;0;0;0;1;1;1;1;0;0;0;0;0;0;0;0;0;();(-2000.0, -2000.0);
08:46:54:125;08:46:54:081;1448480808.68;(0.42826318740844727, 0.5544083065456814);51.2501831055;1.0;08:46:54:125;0;5;-1.5;2.50735294117647;1.85728250244379;0;0;0;1;1;1;1;0;0;0;0;0;0;0;0;0;();(-2000.0, -2000.0);
08:46:54:141;08:46:54:133;1448480808.71;(0.4282341241836548, 0.5543401930067274);51.5575637817;1.0;08:46:54:141;0;10;-1.5;3.08132530120482;2.44379276637341;0;0;0;1;1;1;1;0;0;0;0;0;0;0;0;0;();(-2000.0, -2000.0);
08:46:54:210;08:46:54:181;1448480808.78;(0.42883739471435545, 0.5534573872884114);51.7346763611;1.0;08:46:54:210;0;10;-1.5;2.13125;1.66177908113392;0;0;0;1;1;1;1;0;0;0;0;0;0;0;0;0;();(-2000.0, -2000.0);
08:46:54:212;08:46:54:181;1448480808.78;(0.42883739471435545, 0.5534573872884114);51.7346763611;1.0;08:46:54:212;0;10;-1.5;2.13125;1.66177908113392;0;0;0;1;1;1;1;0;0;0;0;0;0;0;0;0;();(-2000.0, -2000.0);
08:46:54:214;08:46:54:181;1448480808.78;(0.42883739471435545, 0.5534573872884114);51.7346763611;1.0;08:46:54:214;0;10;-1.5;2.13125;1.66177908113392;0;0;0;1;1;1;1;0;0;0;0;0;0;0;0;0;();(-2000.0, -2000.0);
08:46:54:241;08:46:54:229;1448480808.81;(0.42886903285980227, 0.5539254506429037);51.6912727356;1.0;08:46:54:241;0;9;-1.5;1.94117647058824;1.46627565982405;0;0;0;1;1;1;1;0;0;0;0;0;0;0;0;0;();(-2000.0, -2000.0);
08:46:54:243;08:46:54:229;1448480808.81;(0.42886903285980227, 0.5539254506429037);51.6912727356;1.0;08:46:54:242;0;9;-1.5;1.94117647058824;1.46627565982405;0;0;0;1;1;1;1;0;0;0;0;0;0;0;0;0;();(-2000.0, -2000.0);
08:46:54:276;08:46:54:229;1448480808.81;(0.42886903285980227, 0.5539254506429037);51.6912727356;1.0;08:46:54:276;0;10;-1.5;2.2;1.46627565982405;0;0;0;1;1;1;1;0;0;0;0;0;0;0;0;0;();(-2000.0, -2000.0);
08:46:54:293;08:46:54:281;1448480808.88;(0.4290295600891113, 0.5568232218424479);51.6558761597;1.0;08:46:54:293;0;15;-1.5;1.94117647058824;1.36852394916911;0;0;0;1;1;1;1;0;0;0;0;0;0;0;0;0;();(-2000.0, -2000.0);
08:46:54:309;08:46:54:281;1448480808.88;(0.4290295600891113, 0.5568232218424479);51.6558761597;1.0;08:46:54:309;0;10;-1.5;2.62307692307692;2.1505376344086;0;0;0;1;1;1;1;0;0;0;0;0;0;0;0;0;();(-2000.0, -2000.0);
08:46:54:326;08:46:54:281;1448480808.88;(0.4290295600891113, 0.5568232218424479);51.6558761597;1.0;08:46:54:326;0;15;-1.5;3.08132530120482;2.93255131964809;0;0;0;1;1;1;1;0;0;0;0;0;0;0;0;0;();(-2000.0, -2000.0);
08:46:54:343;08:46:54:329;1448480808.91;(0.4286233425140381, 0.5569115108913846);52.0289382935;1.0;08:46:54:343;0;10;-1.5;1.90858208955224;1.46627565982405;0;0;0;1;1;1;1;0;0;0;0;0;0;0;0;0;();(-2000.0, -2000.0);
08:46:54:377;08:46:54:329;1448480808.91;(0.4286233425140381, 0.5569115108913846);52.0289382935;1.0;08:46:54:377;0;11;-1.5;2.64341085271318;2.73704789833822;0;0;0;1;1;1;1;0;0;0;0;0;0;0;0;0;();(-2000.0, -2000.0);
08:46:54:392;08:46:54:382;1448480808.98;(0.4280327320098877, 0.5553576999240452);52.4784126282;1.0;08:46:54:392;0;15;-1.5;2.44152744630072;1.85728250244379;0;0;0;1;1;1;1;0;0;0;0;0;0;0;0;0;();(-2000.0, -2000.0);
08:46:54:410;08:46:54:382;1448480808.98;(0.4280327320098877, 0.5553576999240452);52.4784126282;1.0;08:46:54:410;0;9;-1.5;1.90502793296089;1.17302052785924;0;0;0;1;1;1;1;0;0;0;0;0;0;0;0;0;();(-2000.0, -2000.0);
08:46:54:427;08:46:54:382;1448480808.98;(0.4280327320098877, 0.5553576999240452);52.4784126282;1.0;08:46:54:427;0;0;-1.5;2.07085020242915;1.46627565982405;0;0;0;1;1;1;1;0;0;0;0;0;0;0;0;0;();(-2000.0, -2000.0);
08:46:54:444;08:46:54:430;1448480809.01;(0.42803881168365476, 0.5539532555474176);52.165184021;1.0;08:46:54:444;0;5;-1.5;2.16737288135593;2.1505376344086;0;0;0;1;1;1;1;0;0;0;0;0;0;0;0;0;();(-2000.0, -2000.0);
08:46:54:477;08:46:54:430;1448480809.01;(0.42803881168365476, 0.5539532555474176);52.165184021;1.0;08:46:54:477;0;5;-1.5;1.60849056603774;0.879765395894428;0;0;0;1;1;1;1;0;0;0;0;0;0;0;0;0;();(-2000.0, -2000.0);
08:46:54:495;08:46:54:482;1448480809.08;(0.42821810245513914, 0.5528745863172744);51.9491233826;1.0;08:46:54:495;0;9;-1.5;1.77913043478261;1.17302052785924;0;0;0;1;1;1;1;0;0;0;0;0;0;0;0;0;();(-2000.0, -2000.0);
08:46:54:511;08:46:54:482;1448480809.08;(0.42821810245513914, 0.5528745863172744);51.9491233826;1.0;08:46:54:511;0;5;-1.5;2.64341085271318;2.73704789833822;0;0;0;1;1;1;1;0;0;0;0;0;0;0;0;0;();(-2000.0, -2000.0);
08:46:54:529;08:46:54:482;1448480809.08;(0.42821810245513914, 0.5528745863172744);51.9491233826;1.0;08:46:54:529;0;15;-1.5;1.72512647554806;1.17302052785924;0;0;0;1;1;1;1;0;0;0;0;0;0;0;0;0;();(-2000.0, -2000.0);
08:46:54:544;08:46:54:530;1448480809.11;(0.42822678089141847, 0.5532100253634983);51.7507286072;1.0;08:46:54:544;0;5;-1.5;1.77913043478261;1.36852394916911;0;0;0;1;1;1;1;0;0;0;0;0;0;0;0;0;();(-2000.0, -2000.0);
08:46:54:578;08:46:54:530;1448480809.11;(0.42822678089141847, 0.5532100253634983);51.7507286072;1.0;08:46:54:578;0;4;-1.5;2.61636828644501;1.95503421309873;0;0;0;1;1;1;1;0;0;0;0;0;0;0;0;0;();(-2000.0, -2000.0);
08:46:54:594;08:46:54:582;1448480809.14;(0.4280338525772095, 0.5538319905598958);51.9928245544;1.0;08:46:54:594;0;10;-1.5;2.1006160164271;1.66177908113392;0;0;0;1;1;1;1;0;0;0;0;0;0;0;0;0;();(-2000.0, -2000.0);
08:46:54:611;08:46:54:582;1448480809.14;(0.4280338525772095, 0.5538319905598958);51.9928245544;1.0;08:46:54:611;0;5;-1.5;2.85754189944134;2.73704789833822;0;0;0;1;1;1;1;0;0;0;0;0;0;0;0;0;();(-2000.0, -2000.0);
08:46:54:628;08:46:54:582;1448480809.14;(0.4280338525772095, 0.5538319905598958);51.9928245544;1.0;08:46:54:628;0;10;-1.5;2.44152744630072;1.85728250244379;0;0;0;1;1;1;1;0;0;0;0;0;0;0;0;0;();(-2000.0, -2000.0);
08:46:54:646;08:46:54:582;1448480809.14;(0.4280338525772095, 0.5538319905598958);51.9928245544;1.0;08:46:54:646;0;4;-1.5;1.81705150976909;1.36852394916911;0;0;0;1;1;1;1;0;0;0;0;0;0;0;0;0;();(-2000.0, -2000.0);
08:46:54:663;08:46:54:582;1448480809.14;(0.4280338525772095, 0.5538319905598958);51.9928245544;1.0;08:46:54:663;0;9;-1.5;1.76683937823834;1.17302052785924;0;0;0;1;1;1;1;0;0;0;0;0;0;0;0;0;();(-2000.0, -2000.0);
08:46:54:695;08:46:54:582;1448480809.14;(0.4280338525772095, 0.5538319905598958);51.9928245544;1.0;08:46:54:695;0;10;-1.5;2.84958217270195;2.34604105571848;0;0;0;1;1;1;1;0;0;0;0;0;0;0;0;0;();(-2000.0, -2000.0);
08:46:54:712;08:46:54:582;1448480809.14;(0.4280338525772095, 0.5538319905598958);51.9928245544;1.0;08:46:54:712;0;15;-1.5;2.71352785145889;2.1505376344086;0;0;0;1;1;1;1;0;0;0;0;0;0;0;0;0;();(-2000.0, -2000.0);
08:46:54:729;08:46:54:582;1448480809.14;(0.4280338525772095, 0.5538319905598958);51.9928245544;1.0;08:46:54:729;0;9;-1.5;1.80105633802817;1.17302052785924;0;0;0;1;1;1;1;0;0;0;0;0;0;0;0;0;();(-2000.0, -2000.0);
08:46:54:746;08:46:54:731;1448480809.32;(0.40200238227844237, 0.5487557305230035);53.0127830505;1.0;08:46:54:746;0;0;-1.5;2.1006160164271;1.66177908113392;0;0;0;1;1;1;1;0;0;0;0;0;0;0;0;0;();(-2000.0, -2000.0);
08:46:54:762;08:46:54:731;1448480809.32;(0.40200238227844237, 0.5487557305230035);53.0127830505;1.0;08:46:54:762;0;4;-1.5;2.85754189944134;2.34604105571848;0;0;0;1;1;1;1;0;0;0;0;0;0;0;0;0;();(-2000.0, -2000.0);
08:46:54:796;08:46:54:778;1448480809.38;(0.4016310453414917, 0.5473269992404514);53.0978279114;1.0;08:46:54:796;0;4;-1.5;1.76683937823834;1.17302052785924;0;0;0;1;1;1;1;0;0;0;0;0;0;0;0;0;();(-2000.0, -2000.0);
08:46:54:813;08:46:54:778;1448480809.38;(0.4016310453414917, 0.5473269992404514);53.0978279114;1.0;08:46:54:813;0;9;-1.5;1.75471698113208;1.17302052785924;0;0;0;1;1;1;1;0;0;0;0;0;0;0;0;0;();(-2000.0, -2000.0);
08:46:54:830;08:46:54:830;1448480809.41;(0.4015490055084229, 0.5457338545057508);53.6369132996;1.0;08:46:54:830;0;4;-1.5;2.88169014084507;2.34604105571848;0;0;0;1;1;1;1;0;0;0;0;0;0;0;0;0;();(-2000.0, -2000.0);
08:46:54:847;08:46:54:830;1448480809.41;(0.4015490055084229, 0.5457338545057508);53.6369132996;1.0;08:46:54:847;0;10;-1.5;2.81043956043956;2.34604105571848;0;0;0;1;1;1;1;0;0;0;0;0;0;0;0;0;();(-2000.0, -2000.0);
08:46:54:863;08:46:54:830;1448480809.41;(0.4015490055084229, 0.5457338545057508);53.6369132996;1.0;08:46:54:863;0;10;-1.5;2.81043956043956;2.34604105571848;0;0;0;1;1;1;1;0;0;0;0;0;0;0;0;0;();(-2000.0, -2000.0);
08:46:54:896;08:46:54:879;1448480809.44;(0.4027308464050293, 0.5350739373101128);53.6615791321;1.0;08:46:54:896;0;5;-1.5;2.33561643835616;1.66177908113392;0;0;0;1;1;1;1;0;0;0;0;0;0;0;0;0;();(-2000.0, -2000.0);
08:46:54:913;08:46:54:879;1448480809.44;(0.4027308464050293, 0.5350739373101128);53.6615791321;1.0;08:46:54:913;0;10;-1.5;2.0501002004008;1.46627565982405;0;0;0;1;1;1;1;0;0;0;0;0;0;0;0;0;();(-2000.0, -2000.0);
08:46:54:931;08:46:54:931;1448480809.51;(0.40231659412384035, 0.5363882276746962);54.213432312;1.0;08:46:54:931;0;5;-1.5;2.35172413793103;1.66177908113392;0;0;0;1;1;1;1;0;0;0;0;0;0;0;0;0;();(-2000.0, -2000.0);
08:46:54:947;08:46:54:931;1448480809.51;(0.40231659412384035, 0.5363882276746962);54.213432312;1.0;08:46:54:947;0;9;-1.5;2.41843971631206;1.66177908113392;0;0;0;1;1;1;1;0;0;0;0;0;0;0;0;0;();(-2000.0, -2000.0);
08:46:54:964;08:46:54:931;1448480809.51;(0.40231659412384035, 0.5363882276746962);54.213432312;1.0;08:46:54:964;0;15;-1.5;2.53846153846154;1.85728250244379;0;0;0;1;1;1;1;0;0;0;0;0;0;0;0;0;();(-2000.0, -2000.0);
08:46:54:997;08:46:54:979;1448480809.58;(0.40232574939727783, 0.5384722815619575);54.1238098145;1.0;08:46:54:997;0;0;-1.5;1.83992805755396;1.17302052785924;0;0;0;1;1;1;1;0;0;0;0;0;0;0;0;0;();(-2000.0, -2000.0);
08:46:55:014;08:46:54:979;1448480809.58;(0.40232574939727783, 0.5384722815619575);54.1238098145;1.0;08:46:55:014;0;10;-1.5;2.85754189944134;2.34604105571848;0;0;0;1;1;1;1;0;0;0;0;0;0;0;0;0;();(-2000.0, -2000.0);
08:46:55:031;08:46:55:030;1448480809.61;(0.4022381067276001, 0.5386560651991102);54.3900947571;1.0;08:46:55:031;0;15;-1.5;2.53846153846154;1.85728250244379;0;0;0;1;1;1;1;0;0;0;0;0;0;0;0;0;();(-2000.0, -2000.0);
08:46:55:047;08:46:55:030;1448480809.61;(0.4022381067276001, 0.5386560651991102);54.3900947571;1.0;08:46:55:047;0;4;-1.5;2.46506024096386;2.1505376344086;0;0;0;1;1;1;1;0;0;0;0;0;0;0;0;0;();(-2000.0, -2000.0);
08:46:55:064;08:46:55:030;1448480809.61;(0.4022381067276001, 0.5386560651991102);54.3900947571;1.0;08:46:55:064;0;0;-1.5;2.35172413793103;1.95503421309873;0;0;0;1;1;1;1;0;0;0;0;0;0;0;0;0;();(-2000.0, -2000.0);
08:46:55:098;08:46:55:079;1448480809.68;(0.4022676467895508, 0.5370579613579645);54.8390617371;1.0;08:46:55:098;0;15;-1.5;2.07926829268293;1.46627565982405;0;0;0;1;1;1;1;0;0;0;0;0;0;0;0;0;();(-2000.0, -2000.0);
08:46:55:114;08:46:55:079;1448480809.68;(0.4022676467895508, 0.5370579613579645);54.8390617371;1.0;08:46:55:114;0;9;-1.5;2.56390977443609;2.34604105571848;0;0;0;1;1;1;1;0;0;0;0;0;0;0;0;0;();(-2000.0, -2000.0);
08:46:55:131;08:46:55:130;1448480809.71;(0.3819036245346069, 0.5417439778645834);57.3826522827;1.0;08:46:55:131;0;15;-1.5;2.85754189944134;2.34604105571848;0;0;0;1;1;1;1;0;0;0;0;0;0;0;0;0;();(-2000.0, -2000.0);
08:46:55:148;08:46:55:130;1448480809.71;(0.3819036245346069, 0.5417439778645834);57.3826522827;1.0;08:46:55:148;0;5;-1.5;3.2373417721519;3.03030303030303;0;0;0;1;1;1;1;0;0;0;0;0;0;0;0;0;();(-2000.0, -2000.0);
08:46:55:165;08:46:55:130;1448480809.71;(0.3819036245346069, 0.5417439778645834);57.3826522827;1.0;08:46:55:165;0;10;-1.5;2.30405405405405;1.85728250244379;0;0;0;1;1;1;1;0;0;0;0;0;0;0;0;0;();(-2000.0, -2000.0);
08:46:55:198;08:46:55:178;1448480809.74;(0.37559783458709717, 0.5438801659478081);55.4301795959;1.0;08:46:55:198;0;15;-1.5;2.02574257425743;1.46627565982405;0;0;0;1;1;1;1;0;0;0;0;0;0;0;0;0;();(-2000.0, -2000.0);
08:46:55:215;08:46:55:178;1448480809.74;(0.37559783458709717, 0.5438801659478081);55.4301795959;1.0;08:46:55:215;0;4;-1.5;2.325;1.66177908113392;0;0;0;1;1;1;1;0;0;0;0;0;0;0;0;0;();(-2000.0, -2000.0);
08:46:55:232;08:46:55:226;1448480809.81;(0.37556302547454834, 0.5466564178466797);55.7065353394;1.0;08:46:55:232;0;10;-1.5;2.14915966386555;1.46627565982405;0;0;0;1;1;1;1;0;0;0;0;0;0;0;0;0;();(-2000.0, -2000.0);
08:46:55:249;08:46:55:226;1448480809.81;(0.37556302547454834, 0.5466564178466797);55.7065353394;1.0;08:46:55:249;0;15;-1.5;1.88745387453875;1.46627565982405;0;0;0;1;1;1;1;0;0;0;0;0;0;0;0;0;();(-2000.0, -2000.0);
08:46:55:265;08:46:55:226;1448480809.81;(0.37556302547454834, 0.5466564178466797);55.7065353394;1.0;08:46:55:265;0;10;-1.5;2.81043956043956;2.73704789833822;0;0;0;1;1;1;1;0;0;0;0;0;0;0;0;0;();(-2000.0, -2000.0);
08:46:55:283;08:46:55:279;1448480809.88;(0.3751664400100708, 0.5468791113959419);56.2589645386;1.0;08:46:55:283;0;15;-1.5;2.72074468085106;2.1505376344086;0;0;0;1;1;1;1;0;0;0;0;0;0;0;0;0;();(-2000.0, -2000.0);
08:46:55:316;08:46:55:279;1448480809.88;(0.3751664400100708, 0.5468791113959419);56.2589645386;1.0;08:46:55:316;0;0;-1.5;1.78846153846154;1.46627565982405;0;0;0;1;1;1;1;0;0;0;0;0;0;0;0;0;();(-2000.0, -2000.0);
08:46:55:332;08:46:55:326;1448480809.91;(0.3748215436935425, 0.5466479407416449);56.0155715942;1.0;08:46:55:332;0;10;-1.5;2.79508196721311;2.34604105571848;0;0;0;1;1;1;1;0;0;0;0;0;0;0;0;0;();(-2000.0, -2000.0);
08:46:55:349;08:46:55:326;1448480809.91;(0.3748215436935425, 0.5466479407416449);56.0155715942;1.0;08:46:55:349;0;15;-1.5;2.64341085271318;2.1505376344086;0;0;0;1;1;1;1;0;0;0;0;0;0;0;0;0;();(-2000.0, -2000.0);
08:46:55:367;08:46:55:326;1448480809.91;(0.3748215436935425, 0.5466479407416449);56.0155715942;1.0;08:46:55:367;0;4;-1.5;2.37906976744186;1.66177908113392;0;0;0;1;1;1;1;0;0;0;0;0;0;0;0;0;();(-2000.0, -2000.0);
08:46:55:384;08:46:55:379;1448480809.98;(0.374935245513916, 0.544939931233724);56.703868866;1.0;08:46:55:384;0;15;-1.5;2.37906976744186;1.66177908113392;0;0;0;1;1;1;1;0;0;0;0;0;0;0;0;0;();(-2000.0, -2000.0);
08:46:55:418;08:46:55:379;1448480809.98;(0.374935245513916, 0.544939931233724);56.703868866;1.0;08:46:55:418;0;15;-1.5;1.94117647058824;1.36852394916911;0;0;0;1;1;1;1;0;0;0;0;0;0;0;0;0;();(-2000.0, -2000.0);
08:46:55:433;08:46:55:426;1448480810.01;(0.3734241724014282, 0.543975575764974);56.7922821045;0.971623738692;08:46:55:433;0;9;-1.5;2.36805555555556;1.66177908113392;0;0;0;1;1;1;1;0;0;0;0;0;0;0;0;0;();(-2000.0, -2000.0);
08:46:55:450;08:46:55:426;1448480810.01;(0.3734241724014282, 0.543975575764974);56.7922821045;0.971623738692;08:46:55:450;0;15;-1.5;2.77989130434783;3.03030303030303;0;0;0;1;1;1;1;0;0;0;0;0;0;0;0;0;();(-2000.0, -2000.0);
08:46:55:467;08:46:55:426;1448480810.01;(0.3734241724014282, 0.543975575764974);56.7922821045;0.971623738692;08:46:55:467;0;9;-1.5;1.73389830508475;1.17302052785924;0;0;0;1;1;1;1;0;0;0;0;0;0;0;0;0;();(-2000.0, -2000.0);
08:46:55:484;08:46:55:478;1448480810.04;(0.36988115310668945, 0.5434594472249349);56.9379653931;1.0;08:46:55:484;0;0;-1.5;1.75471698113208;1.36852394916911;0;0;0;1;1;1;1;0;0;0;0;0;0;0;0;0;();(-2000.0, -2000.0);
08:46:55:517;08:46:55:478;1448480810.04;(0.36988115310668945, 0.5434594472249349);56.9379653931;1.0;08:46:55:517;0;15;-1.5;2.50122249388753;1.85728250244379;0;0;0;1;1;1;1;0;0;0;0;0;0;0;0;0;();(-2000.0, -2000.0);
08:46:55:534;08:46:55:527;1448480810.11;(0.3696706771850586, 0.5450000339084201);57.1031455994;1.0;08:46:55:534;0;4;-1.5;2.39018691588785;2.1505376344086;0;0;0;1;1;1;1;0;0;0;0;0;0;0;0;0;();(-2000.0, -2000.0);
08:46:55:551;08:46:55:527;1448480810.11;(0.3696706771850586, 0.5450000339084201);57.1031455994;1.0;08:46:55:551;0;0;-1.5;2.24835164835165;1.85728250244379;0;0;0;1;1;1;1;0;0;0;0;0;0;0;0;0;();(-2000.0, -2000.0);
08:46:55:567;08:46:55:527;1448480810.11;(0.3696706771850586, 0.5450000339084201);57.1031455994;1.0;08:46:55:567;0;5;-1.5;2.46506024096386;2.1505376344086;0;0;0;1;1;1;1;0;0;0;0;0;0;0;0;0;();(-2000.0, -2000.0);
08:46:55:584;08:46:55:578;1448480810.18;(0.37042999267578125, 0.5463520050048828);57.7739105225;1.0;08:46:55:584;0;9;-1.5;3.20689655172414;2.73704789833822;0;0;0;1;1;1;1;0;0;0;0;0;0;0;0;0;();(-2000.0, -2000.0);
08:46:55:617;08:46:55:578;1448480810.18;(0.37042999267578125, 0.5463520050048828);57.7739105225;1.0;08:46:55:617;0;9;-1.5;1.85662431941924;1.17302052785924;0;0;0;1;1;1;1;0;0;0;0;0;0;0;0;0;();(-2000.0, -2000.0);
08:46:55:634;08:46:55:626;1448480810.21;(0.3707648515701294, 0.5462617662217881);57.6654777527;1.0;08:46:55:634;0;4;-1.5;3.10942249240122;2.44379276637341;0;0;0;1;1;1;1;0;0;0;0;0;0;0;0;0;();(-2000.0, -2000.0);
08:46:55:652;08:46:55:626;1448480810.21;(0.3707648515701294, 0.5462617662217881);57.6654777527;1.0;08:46:55:652;0;10;-1.5;2.88169014084507;2.73704789833822;0;0;0;1;1;1;1;0;0;0;0;0;0;0;0;0;();(-2000.0, -2000.0);
08:46:55:668;08:46:55:626;1448480810.21;(0.3707648515701294, 0.5462617662217881);57.6654777527;1.0;08:46:55:668;0;15;-1.5;2.44152744630072;1.85728250244379;0;0;0;1;1;1;1;0;0;0;0;0;0;0;0;0;();(-2000.0, -2000.0);
08:46:55:686;08:46:55:675;1448480810.28;(0.3705324649810791, 0.5447522057427301);57.717830658;1.0;08:46:55:686;0;9;-1.5;2.07085020242915;1.46627565982405;0;0;0;1;1;1;1;0;0;0;0;0;0;0;0;0;();(-2000.0, -2000.0);
08:46:55:702;08:46:55:675;1448480810.28;(0.3705324649810791, 0.5447522057427301);57.717830658;1.0;08:46:55:702;0;0;-1.5;1.90502793296089;1.46627565982405;0;0;0;1;1;1;1;0;0;0;0;0;0;0;0;0;();(-2000.0, -2000.0);
08:46:55:736;08:46:55:726;1448480810.31;(0.37041916847229006, 0.5437792036268446);57.9267425537;1.0;08:46:55:736;0;0;-1.5;1.86;1.36852394916911;0;0;0;1;1;1;1;0;0;0;0;0;0;0;0;0;();(-2000.0, -2000.0);
08:46:55:752;08:46:55:726;1448480810.31;(0.37041916847229006, 0.5437792036268446);57.9267425537;1.0;08:46:55:752;0;10;-1.5;2.77989130434783;2.34604105571848;0;0;0;1;1;1;1;0;0;0;0;0;0;0;0;0;();(-2000.0, -2000.0);
08:46:55:769;08:46:55:726;1448480810.31;(0.37041916847229006, 0.5437792036268446);57.9267425537;1.0;08:46:55:769;0;15;-1.5;3.01769911504425;2.34604105571848;0;0;0;1;1;1;1;0;0;0;0;0;0;0;0;0;();(-2000.0, -2000.0);
08:46:55:785;08:46:55:774;1448480810.38;(0.3699148893356323, 0.5416021982828776);58.0900268555;1.0;08:46:55:785;0;15;-1.5;1.99415204678363;1.46627565982405;0;0;0;1;1;1;1;0;0;0;0;0;0;0;0;0;();(-2000.0, -2000.0);
08:46:55:802;08:46:55:774;1448480810.38;(0.3699148893356323, 0.5416021982828776);58.0900268555;1.0;08:46:55:802;0;10;-1.5;2.36805555555556;1.66177908113392;0;0;0;1;1;1;1;0;0;0;0;0;0;0;0;0;();(-2000.0, -2000.0);
08:46:55:835;08:46:55:826;1448480810.41;(0.3490839958190918, 0.5075105455186633);59.5566215515;1.0;08:46:55:835;0;15;-1.5;2.61636828644501;1.85728250244379;0;0;0;1;1;1;1;0;0;0;0;0;0;0;0;0;();(-2000.0, -2000.0);
08:46:55:852;08:46:55:826;1448480810.41;(0.3490839958190918, 0.5075105455186633);59.5566215515;1.0;08:46:55:852;0;5;-1.5;2.39018691588785;1.66177908113392;0;0;0;1;1;1;1;0;0;0;0;0;0;0;0;0;();(-2000.0, -2000.0);
08:46:55:869;08:46:55:826;1448480810.41;(0.3490839958190918, 0.5075105455186633);59.5566215515;1.0;08:46:55:869;0;10;-1.5;2.02574257425743;1.46627565982405;0;0;0;1;1;1;1;0;0;0;0;0;0;0;0;0;();(-2000.0, -2000.0);
08:46:55:886;08:46:55:874;1448480810.44;(0.3505213499069214, 0.48980200025770404);58.7600517273;1.0;08:46:55:886;0;5;-1.5;2.16737288135593;1.85728250244379;0;0;0;1;1;1;1;0;0;0;0;0;0;0;0;0;();(-2000.0, -2000.0);
08:46:55:902;08:46:55:874;1448480810.44;(0.3505213499069214, 0.48980200025770404);58.7600517273;1.0;08:46:55:902;0;10;-1.5;2.75741239892183;2.34604105571848;0;0;0;1;1;1;1;0;0;0;0;0;0;0;0;0;();(-2000.0, -2000.0);
08:46:55:937;08:46:55:926;1448480810.51;(0.349537992477417, 0.49162373012966576);58.9332962036;1.0;08:46:55:937;0;9;-1.5;1.69370860927152;0.879765395894428;0;0;0;1;1;1;1;0;0;0;0;0;0;0;0;0;();(-2000.0, -2000.0);
08:46:55:953;08:46:55:926;1448480810.51;(0.349537992477417, 0.49162373012966576);58.9332962036;1.0;08:46:55:953;0;4;-1.5;2.57035175879397;2.34604105571848;0;0;0;1;1;1;1;0;0;0;0;0;0;0;0;0;();(-2000.0, -2000.0);
08:46:55:970;08:46:55:926;1448480810.51;(0.349537992477417, 0.49162373012966576);58.9332962036;1.0;08:46:55:970;0;10;-1.5;2.6640625;2.1505376344086;0;0;0;1;1;1;1;0;0;0;0;0;0;0;0;0;();(-2000.0, -2000.0);
08:46:55:987;08:46:55:975;1448480810.58;(0.3493637561798096, 0.49251980251736116);59.076259613;1.0;08:46:55:987;0;4;-1.5;1.63157894736842;0.684261974584555;0;0;0;1;1;1;1;0;0;0;0;0;0;0;0;0;();(-2000.0, -2000.0);
08:46:56:003;08:46:55:975;1448480810.58;(0.3493637561798096, 0.49251980251736116);59.076259613;1.0;08:46:56:003;0;9;-1.5;1.90858208955224;1.36852394916911;0;0;0;1;1;1;1;0;0;0;0;0;0;0;0;0;();(-2000.0, -2000.0);
08:46:56:038;08:46:56:026;1448480810.61;(0.34931938648223876, 0.4925971137152778);58.9327583313;1.0;08:46:56:038;0;9;-1.5;2.19057815845824;1.46627565982405;0;0;0;1;1;1;1;0;0;0;0;0;0;0;0;0;();(-2000.0, -2000.0);
08:46:56:054;08:46:56:026;1448480810.61;(0.34931938648223876, 0.4925971137152778);58.9327583313;1.0;08:46:56:054;0;15;-1.5;1.94117647058824;1.46627565982405;0;0;0;1;1;1;1;0;0;0;0;0;0;0;0;0;();(-2000.0, -2000.0);
08:46:56:071;08:46:56:026;1448480810.61;(0.34931938648223876, 0.4925971137152778);58.9327583313;1.0;08:46:56:071;0;10;-1.5;2.26829268292683;2.34604105571848;0;0;0;1;1;1;1;0;0;0;0;0;0;0;0;0;();(-2000.0, -2000.0);
08:46:56:087;08:46:56:074;1448480810.64;(0.3507388114929199, 0.4879022810194228);58.7034034729;1.0;08:46:56:087;0;10;-1.5;1.82678571428571;1.17302052785924;0;0;0;1;1;1;1;0;0;0;0;0;0;0;0;0;();(-2000.0, -2000.0);
08:46:56:104;08:46:56:074;1448480810.64;(0.3507388114929199, 0.4879022810194228);58.7034034729;1.0;08:46:56:104;0;9;-1.5;1.85662431941924;1.17302052785924;0;0;0;1;1;1;1;0;0;0;0;0;0;0;0;0;();(-2000.0, -2000.0);
08:46:56:137;08:46:56:122;1448480810.71;(0.3504603624343872, 0.4875988430447049);58.4257965088;1.0;08:46:56:137;0;4;-1.5;3.06287425149701;2.44379276637341;0;0;0;1;1;1;1;0;0;0;0;0;0;0;0;0;();(-2000.0, -2000.0);
08:46:56:154;08:46:56:122;1448480810.71;(0.3504603624343872, 0.4875988430447049);58.4257965088;1.0;08:46:56:154;0;5;-1.5;1.75471698113208;1.17302052785924;0;0;0;1;1;1;1;0;0;0;0;0;0;0;0;0;();(-2000.0, -2000.0);
08:46:56:171;08:46:56:122;1448480810.71;(0.3504603624343872, 0.4875988430447049);58.4257965088;1.0;08:46:56:171;0;4;-1.5;2.31972789115646;1.56402737047898;0;0;0;1;1;1;1;0;0;0;0;0;0;0;0;0;();(-2000.0, -2000.0);
08:46:56:187;08:46:56:175;1448480810.78;(0.350551176071167, 0.48620686001247826);58.0351676941;1.0;08:46:56:187;0;1;-1.5;2.325;1.66177908113392;0;0;0;1;1;1;1;0;0;0;0;0;0;0;0;0;();(-2000.0, -2000.0);
08:46:56:205;08:46:56:175;1448480810.78;(0.350551176071167, 0.48620686001247826);58.0351676941;1.0;08:46:56:205;0;5;-1.5;2.41843971631206;1.85728250244379;0;0;0;1;1;1;1;0;0;0;0;0;0;0;0;0;();(-2000.0, -2000.0);
08:46:56:222;08:46:56:175;1448480810.78;(0.350551176071167, 0.48620686001247826);58.0351676941;1.0;08:46:56:222;0;15;-1.5;1.91573033707865;1.36852394916911;0;0;0;1;1;1;1;0;0;0;0;0;0;0;0;0;();(-2000.0, -2000.0);
08:46:56:255;08:46:56:222;1448480810.81;(0.3506171703338623, 0.48615260654025605);58.0048904419;1.0;08:46:56:255;0;15;-1.5;2.97383720930233;2.34604105571848;0;0;0;1;1;1;1;0;0;0;0;0;0;0;0;0;();(-2000.0, -2000.0);
08:46:56:297;08:46:56:295;1448480810.88;(0.350675368309021, 0.4885649787055122);58.1826896667;1.0;08:46:56:297;0;10;-1.5;2.75741239892183;2.34604105571848;0;0;0;1;1;1;1;0;0;0;0;0;0;0;0;0;();(-2000.0, -2000.0);
08:46:56:299;08:46:56:295;1448480810.88;(0.350675368309021, 0.4885649787055122);58.1826896667;1.0;08:46:56:299;0;4;-1.5;1.73389830508475;1.17302052785924;0;0;0;1;1;1;1;0;0;0;0;0;0;0;0;0;();(-2000.0, -2000.0);
08:46:56:324;08:46:56:323;1448480810.91;(0.35081992149353025, 0.4900575849745009);57.7945785522;1.0;08:46:56:324;0;9;-1.5;1.76683937823834;1.17302052785924;0;0;0;1;1;1;1;0;0;0;0;0;0;0;0;0;();(-2000.0, -2000.0);
08:46:56:328;08:46:56:323;1448480810.91;(0.35081992149353025, 0.4900575849745009);57.7945785522;1.0;08:46:56:328;0;4;-1.5;2.10493827160494;1.46627565982405;0;0;0;1;1;1;1;0;0;0;0;0;0;0;0;0;();(-2000.0, -2000.0);
08:46:56:355;08:46:56:323;1448480810.91;(0.35081992149353025, 0.4900575849745009);57.7945785522;1.0;08:46:56:355;0;10;-1.5;1.83992805755396;1.17302052785924;0;0;0;1;1;1;1;0;0;0;0;0;0;0;0;0;();(-2000.0, -2000.0);
08:46:56:372;08:46:56:323;1448480810.91;(0.35081992149353025, 0.4900575849745009);57.7945785522;1.0;08:46:56:372;0;15;-1.5;1.88397790055249;1.46627565982405;0;0;0;1;1;1;1;0;0;0;0;0;0;0;0;0;();(-2000.0, -2000.0);
08:46:56:391;08:46:56:374;1448480810.98;(0.3502180576324463, 0.4892709520128038);57.674823761;1.0;08:46:56:390;0;10;-1.5;2.37906976744186;1.66177908113392;0;0;0;1;1;1;1;0;0;0;0;0;0;0;0;0;();(-2000.0, -2000.0);
08:46:56:406;08:46:56:374;1448480810.98;(0.3502180576324463, 0.4892709520128038);57.674823761;1.0;08:46:56:406;0;15;-1.5;2.36805555555556;1.66177908113392;0;0;0;1;1;1;1;0;0;0;0;0;0;0;0;0;();(-2000.0, -2000.0);
08:46:56:424;08:46:56:422;1448480811.01;(0, 0);0;0;08:46:56:424;0;9;-1.5;1.73096446700508;1.17302052785924;0;0;0;1;1;1;1;0;0;0;0;0;0;0;0;0;();(-2000.0, -2000.0);
08:46:56:456;08:46:56:422;1448480811.01;(0, 0);0;0;08:46:56:456;0;10;-1.5;2.46506024096386;1.85728250244379;0;0;0;1;1;1;1;0;0;0;0;0;0;0;0;0;();(-2000.0, -2000.0);
08:46:56:474;08:46:56:474;1448480811.04;(0.30530874729156493, 0.4518165164523654);25.3351325989;0.890803008238;08:46:56:474;0;15;-1.5;2.325;1.66177908113392;0;0;0;1;1;1;1;0;0;0;0;0;0;0;0;0;();(-2000.0, -2000.0);
08:46:56:490;08:46:56:474;1448480811.04;(0.30530874729156493, 0.4518165164523654);25.3351325989;0.890803008238;08:46:56:490;0;9;-1.5;1.73096446700508;1.17302052785924;0;0;0;1;1;1;1;0;0;0;0;0;0;0;0;0;();(-2000.0, -2000.0);
08:46:56:506;08:46:56:474;1448480811.04;(0.30530874729156493, 0.4518165164523654);25.3351325989;0.890803008238;08:46:56:506;0;0;-1.5;2.42417061611374;2.1505376344086;0;0;0;1;1;1;1;0;0;0;0;0;0;0;0;0;();(-2000.0, -2000.0);
08:46:56:523;08:46:56:522;1448480811.11;(0.4120190620422363, 0.5519183264838325);48.1415710449;0.671363961485;08:46:56:523;0;4;-1.5;2.39018691588785;1.66177908113392;0;0;0;1;1;1;1;0;0;0;0;0;0;0;0;0;();(-2000.0, -2000.0);
08:46:56:557;08:46:56:522;1448480811.11;(0.4120190620422363, 0.5519183264838325);48.1415710449;0.671363961485;08:46:56:557;0;4;-1.5;1.97109826589595;1.36852394916911;0;0;0;1;1;1;1;0;0;0;0;0;0;0;0;0;();(-2000.0, -2000.0);
08:46:56:575;08:46:56:570;1448480811.14;(0.4333580255508423, 0.5554303063286675);53.3444328308;1.0;08:46:56:575;0;14;-1.5;3.08132530120482;2.44379276637341;0;0;0;1;1;1;1;0;0;0;0;0;0;0;0;0;();(-2000.0, -2000.0);
08:46:56:592;08:46:56:570;1448480811.14;(0.4333580255508423, 0.5554303063286675);53.3444328308;1.0;08:46:56:592;0;4;-1.5;2.88169014084507;2.34604105571848;0;0;0;1;1;1;1;0;0;0;0;0;0;0;0;0;();(-2000.0, -2000.0);
08:46:56:607;08:46:56:570;1448480811.14;(0.4333580255508423, 0.5554303063286675);53.3444328308;1.0;08:46:56:607;0;0;-1.5;1.93383742911153;1.66177908113392;0;0;0;1;1;1;1;0;0;0;0;0;0;0;0;0;();(-2000.0, -2000.0);
08:46:56:624;08:46:56:622;1448480811.21;(0.4407376289367676, 0.5557247585720486);53.4389801025;0.865350727325;08:46:56:624;0;4;-1.5;2.0625;1.46627565982405;0;0;0;1;1;1;1;0;0;0;0;0;0;0;0;0;();(-2000.0, -2000.0);
08:46:56:657;08:46:56:622;1448480811.21;(0.4407376289367676, 0.5557247585720486);53.4389801025;0.865350727325;08:46:56:657;0;7;-1.5;1.91573033707865;1.36852394916911;0;0;0;1;1;1;1;0;0;0;0;0;0;0;0;0;();(-2000.0, -2000.0);
08:46:56:675;08:46:56:670;1448480811.24;(0.4415278434753418, 0.5572654300265842);53.3233222961;1.0;08:46:56:675;0;10;-1.5;2.13125;1.46627565982405;0;0;0;1;1;1;1;0;0;0;0;0;0;0;0;0;();(-2000.0, -2000.0);
08:46:56:691;08:46:56:670;1448480811.24;(0.4415278434753418, 0.5572654300265842);53.3233222961;1.0;08:46:56:691;0;15;-1.5;1.97109826589595;1.36852394916911;0;0;0;1;1;1;1;0;0;0;0;0;0;0;0;0;();(-2000.0, -2000.0);
08:46:56:708;08:46:56:670;1448480811.24;(0.4415278434753418, 0.5572654300265842);53.3233222961;1.0;08:46:56:708;0;10;-1.5;2.64341085271318;2.34604105571848;0;0;0;1;1;1;1;0;0;0;0;0;0;0;0;0;();(-2000.0, -2000.0);
08:46:56:724;08:46:56:724;1448480811.31;(0.44237189292907714, 0.5579359266493056);52.6410217285;1.0;08:46:56:724;0;15;-1.5;2.96521739130435;2.34604105571848;0;0;0;1;1;1;1;0;0;0;0;0;0;0;0;0;();(-2000.0, -2000.0);
08:46:56:742;08:46:56:724;1448480811.31;(0.44237189292907714, 0.5579359266493056);52.6410217285;1.0;08:46:56:742;0;9;-1.5;1.88397790055249;1.46627565982405;0;0;0;1;1;1;1;0;0;0;0;0;0;0;0;0;();(-2000.0, -2000.0);
08:46:56:776;08:46:56:770;1448480811.34;(0.442288875579834, 0.5579653845893012);52.2208595276;1.0;08:46:56:776;0;10;-1.5;2.77235772357724;2.44379276637341;0;0;0;1;1;1;1;0;0;0;0;0;0;0;0;0;();(-2000.0, -2000.0);
08:46:56:792;08:46:56:770;1448480811.34;(0.442288875579834, 0.5579653845893012);52.2208595276;1.0;08:46:56:792;0;15;-1.5;2.35172413793103;1.66177908113392;0;0;0;1;1;1;1;0;0;0;0;0;0;0;0;0;();(-2000.0, -2000.0);
08:46:56:808;08:46:56:770;1448480811.34;(0.442288875579834, 0.5579653845893012);52.2208595276;1.0;08:46:56:808;0;9;-1.5;2.0501002004008;1.46627565982405;0;0;0;1;1;1;1;0;0;0;0;0;0;0;0;0;();(-2000.0, -2000.0);
08:46:56:826;08:46:56:822;1448480811.41;(0.4420755386352539, 0.5576309627956815);51.8971061707;1.0;08:46:56:826;0;0;-1.5;2.19057815845824;1.46627565982405;0;0;0;1;1;1;1;0;0;0;0;0;0;0;0;0;();(-2000.0, -2000.0);
08:46:56:843;08:46:56:822;1448480811.41;(0.4420755386352539, 0.5576309627956815);51.8971061707;1.0;08:46:56:843;0;4;-1.5;2.13125;1.95503421309873;0;0;0;1;1;1;1;0;0;0;0;0;0;0;0;0;();(-2000.0, -2000.0);
08:46:56:876;08:46:56:870;1448480811.44;(0.4418743133544922, 0.5572940826416015);51.5792503357;1.0;08:46:56:876;0;4;-1.5;1.85662431941924;1.17302052785924;0;0;0;1;1;1;1;0;0;0;0;0;0;0;0;0;();(-2000.0, -2000.0);
08:46:56:892;08:46:56:870;1448480811.44;(0.4418743133544922, 0.5572940826416015);51.5792503357;1.0;08:46:56:892;0;15;-1.5;2.77989130434783;2.34604105571848;0;0;0;1;1;1;1;0;0;0;0;0;0;0;0;0;();(-2000.0, -2000.0);
08:46:56:909;08:46:56:870;1448480811.44;(0.4418743133544922, 0.5572940826416015);51.5792503357;1.0;08:46:56:909;0;5;-1.5;3.05373134328358;2.44379276637341;0;0;0;1;1;1;1;0;0;0;0;0;0;0;0;0;();(-2000.0, -2000.0);
08:46:56:926;08:46:56:919;1448480811.51;(0.3602419376373291, 0.7839154349433051);26.9174232483;0.672189230337;08:46:56:926;0;10;-1.5;2.77989130434783;2.34604105571848;0;0;0;1;1;1;1;0;0;0;0;0;0;0;0;0;();(-2000.0, -2000.0);
08:46:56:942;08:46:56:919;1448480811.51;(0.3602419376373291, 0.7839154349433051);26.9174232483;0.672189230337;08:46:56:942;0;4;-1.5;1.75471698113208;1.17302052785924;0;0;0;1;1;1;1;0;0;0;0;0;0;0;0;0;();(-2000.0, -2000.0);
08:46:56:976;08:46:56:970;1448480811.54;(0.46903462409973146, 0.5516775343153212);51.3592720032;1.0;08:46:56:976;0;5;-1.5;2.16737288135593;1.46627565982405;0;0;0;1;1;1;1;0;0;0;0;0;0;0;0;0;();(-2000.0, -2000.0);
08:46:56:993;08:46:56:970;1448480811.54;(0.46903462409973146, 0.5516775343153212);51.3592720032;1.0;08:46:56:993;0;10;-1.5;1.95229007633588;1.36852394916911;0;0;0;1;1;1;1;0;0;0;0;0;0;0;0;0;();(-2000.0, -2000.0);
08:46:57:010;08:46:56:970;1448480811.54;(0.46903462409973146, 0.5516775343153212);51.3592720032;1.0;08:46:57:010;0;4;-1.5;2.36258660508083;1.66177908113392;0;0;0;1;1;1;1;0;0;0;0;0;0;0;0;0;();(-2000.0, -2000.0);
08:46:57:026;08:46:57:019;1448480811.61;(0.4685536861419678, 0.5542388492160373);51.6905212402;1.0;08:46:57:026;0;9;-1.5;2.51970443349754;2.34604105571848;0;0;0;1;1;1;1;0;0;0;0;0;0;0;0;0;();(-2000.0, -2000.0);
08:46:57:043;08:46:57:019;1448480811.61;(0.4685536861419678, 0.5542388492160373);51.6905212402;1.0;08:46:57:043;0;15;-1.5;2.48300970873786;1.85728250244379;0;0;0;1;1;1;1;0;0;0;0;0;0;0;0;0;();(-2000.0, -2000.0);
08:46:57:076;08:46:57:071;1448480811.64;(0.46782608032226564, 0.555936050415039);51.7441215515;1.0;08:46:57:076;0;0;-1.5;1.40521978021978;0.684261974584555;0;0;0;1;1;1;1;0;0;0;0;0;0;0;0;0;();(-2000.0, -2000.0);
08:46:57:093;08:46:57:071;1448480811.64;(0.46782608032226564, 0.555936050415039);51.7441215515;1.0;08:46:57:093;0;10;-1.5;2.28348214285714;1.66177908113392;0;0;0;1;1;1;1;0;0;0;0;0;0;0;0;0;();(-2000.0, -2000.0);
08:46:57:111;08:46:57:071;1448480811.64;(0.46782608032226564, 0.555936050415039);51.7441215515;1.0;08:46:57:111;0;15;-1.5;2.14915966386555;1.46627565982405;0;0;0;1;1;1;1;0;0;0;0;0;0;0;0;0;();(-2000.0, -2000.0);
08:46:57:127;08:46:57:120;1448480811.71;(0.46576876640319825, 0.5571343315972221);52.4981079102;1.0;08:46:57:127;0;9;-1.5;2.07926829268293;1.66177908113392;0;0;0;1;1;1;1;0;0;0;0;0;0;0;0;0;();(-2000.0, -2000.0);
08:46:57:144;08:46:57:120;1448480811.71;(0.46576876640319825, 0.5571343315972221);52.4981079102;1.0;08:46:57:144;0;0;-1.5;2.75741239892183;2.34604105571848;0;0;0;1;1;1;1;0;0;0;0;0;0;0;0;0;();(-2000.0, -2000.0);
08:46:57:177;08:46:57:170;1448480811.74;(0.46487975120544434, 0.5568344540066189);52.7992401123;1.0;08:46:57:177;0;0;-1.5;1.82678571428571;1.17302052785924;0;0;0;1;1;1;1;0;0;0;0;0;0;0;0;0;();(-2000.0, -2000.0);
08:46:57:195;08:46:57:170;1448480811.74;(0.46487975120544434, 0.5568344540066189);52.7992401123;1.0;08:46:57:195;0;4;-1.5;1.89444444444444;1.17302052785924;0;0;0;1;1;1;1;0;0;0;0;0;0;0;0;0;();(-2000.0, -2000.0);
08:46:57:212;08:46:57:170;1448480811.74;(0.46487975120544434, 0.5568344540066189);52.7992401123;1.0;08:46:57:212;0;15;-1.5;2.84958217270195;2.34604105571848;0;0;0;1;1;1;1;0;0;0;0;0;0;0;0;0;();(-2000.0, -2000.0);
08:46:57:227;08:46:57:220;1448480811.81;(0.4634373664855957, 0.5556890699598525);52.9636459351;1.0;08:46:57:227;0;4;-1.5;2.61636828644501;2.34604105571848;0;0;0;1;1;1;1;0;0;0;0;0;0;0;0;0;();(-2000.0, -2000.0);
08:46:57:245;08:46:57:220;1448480811.81;(0.4634373664855957, 0.5556890699598525);52.9636459351;1.0;08:46:57:245;0;0;-1.5;1.95229007633588;1.36852394916911;0;0;0;1;1;1;1;0;0;0;0;0;0;0;0;0;();(-2000.0, -2000.0);
08:46:57:262;08:46:57:220;1448480811.81;(0.4634373664855957, 0.5556890699598525);52.9636459351;1.0;08:46:57:262;0;4;-1.5;1.87706422018349;1.17302052785924;0;0;0;1;1;1;1;0;0;0;0;0;0;0;0;0;();(-2000.0, -2000.0);
08:46:57:294;08:46:57:270;1448480811.84;(0.4627871513366699, 0.5552584754096137);53.1126213074;1.0;08:46:57:294;0;5;-1.5;2.325;1.66177908113392;0;0;0;1;1;1;1;0;0;0;0;0;0;0;0;0;();(-2000.0, -2000.0);
08:46:57:312;08:46:57:270;1448480811.84;(0.4627871513366699, 0.5552584754096137);53.1126213074;1.0;08:46:57:311;0;10;-1.5;1.998046875;1.36852394916911;0;0;0;1;1;1;1;0;0;0;0;0;0;0;0;0;();(-2000.0, -2000.0);
08:46:57:328;08:46:57:318;1448480811.91;(0.46217880249023435, 0.555733405219184);53.1333122253;1.0;08:46:57:328;0;4;-1.5;2.48300970873786;1.85728250244379;0;0;0;1;1;1;1;0;0;0;0;0;0;0;0;0;();(-2000.0, -2000.0);
08:46:57:347;08:46:57:318;1448480811.91;(0.46217880249023435, 0.555733405219184);53.1333122253;1.0;08:46:57:347;0;9;-1.5;2.26829268292683;1.46627565982405;0;0;0;1;1;1;1;0;0;0;0;0;0;0;0;0;();(-2000.0, -2000.0);
08:46:57:363;08:46:57:318;1448480811.91;(0.46217880249023435, 0.555733405219184);53.1333122253;1.0;08:46:57:363;0;14;-1.5;2.61636828644501;1.85728250244379;0;0;0;1;1;1;1;0;0;0;0;0;0;0;0;0;();(-2000.0, -2000.0);
08:46:57:395;08:46:57:366;1448480811.94;(0.46238908767700193, 0.5559886508517795);53.6597633362;1.0;08:46:57:395;0;5;-1.5;2.325;1.66177908113392;0;0;0;1;1;1;1;0;0;0;0;0;0;0;0;0;();(-2000.0, -2000.0);
08:46:57:412;08:46:57:366;1448480811.94;(0.46238908767700193, 0.5559886508517795);53.6597633362;1.0;08:46:57:412;0;0;-1.5;1.75471698113208;1.17302052785924;0;0;0;1;1;1;1;0;0;0;0;0;0;0;0;0;();(-2000.0, -2000.0);
08:46:57:429;08:46:57:418;1448480811.98;(0.4625199794769287, 0.5554899427625868);53.6637077332;1.0;08:46:57:429;0;10;-1.5;2.35172413793103;1.66177908113392;0;0;0;1;1;1;1;0;0;0;0;0;0;0;0;0;();(-2000.0, -2000.0);
08:46:57:445;08:46:57:418;1448480811.98;(0.4625199794769287, 0.5554899427625868);53.6637077332;1.0;08:46:57:445;0;9;-1.5;1.97109826589595;1.46627565982405;0;0;0;1;1;1;1;0;0;0;0;0;0;0;0;0;();(-2000.0, -2000.0);
08:46:57:463;08:46:57:418;1448480811.98;(0.4625199794769287, 0.5554899427625868);53.6637077332;1.0;08:46:57:463;0;0;-1.5;2.55112219451372;1.85728250244379;0;0;0;1;1;1;1;0;0;0;0;0;0;0;0;0;();(-2000.0, -2000.0);
08:46:57:496;08:46:57:418;1448480811.98;(0.4625199794769287, 0.5554899427625868);53.6637077332;1.0;08:46:57:496;0;15;-1.5;2.00195694716243;1.36852394916911;0;0;0;1;1;1;1;0;0;0;0;0;0;0;0;0;();(-2000.0, -2000.0);
08:46:57:514;08:46:57:418;1448480811.98;(0.4625199794769287, 0.5554899427625868);53.6637077332;1.0;08:46:57:514;0;12;-1.5;2.62307692307692;2.1505376344086;0;0;0;1;1;1;1;0;0;0;0;0;0;0;0;0;();(-2000.0, -2000.0);
08:46:57:530;08:46:57:518;1448480812.01;(0.4450565814971924, 0.5584584554036458);65.0979385376;0.716982841928;08:46:57:530;0;15;-1.5;2.75741239892183;2.34604105571848;0;0;0;1;1;1;1;0;0;0;0;0;0;0;0;0;();(-2000.0, -2000.0);
08:46:57:546;08:46:57:518;1448480812.01;(0.4450565814971924, 0.5584584554036458);65.0979385376;0.716982841928;08:46:57:546;0;5;-1.5;2.75741239892183;2.34604105571848;0;0;0;1;1;1;1;0;0;0;0;0;0;0;0;0;();(-2000.0, -2000.0);
08:46:57:564;08:46:57:518;1448480812.01;(0.4450565814971924, 0.5584584554036458);65.0979385376;0.716982841928;08:46:57:564;0;10;-1.5;2.64341085271318;2.34604105571848;0;0;0;1;1;1;1;0;0;0;0;0;0;0;0;0;();(-2000.0, -2000.0);
08:46:57:596;08:46:57:567;1448480812.16;(0.4126027822494507, 0.5698423173692491);54.9405326843;1.0;08:46:57:596;0;9;-1.5;2.14915966386555;1.66177908113392;0;0;0;1;1;1;1;0;0;0;0;0;0;0;0;0;();(-2000.0, -2000.0);
08:46:57:613;08:46:57:567;1448480812.16;(0.4126027822494507, 0.5698423173692491);54.9405326843;1.0;08:46:57:613;0;4;-1.5;2.325;1.85728250244379;0;0;0;1;1;1;1;0;0;0;0;0;0;0;0;0;();(-2000.0, -2000.0);
08:46:57:631;08:46:57:618;1448480812.21;(0.41177871227264407, 0.5700485653347439);55.0387229919;1.0;08:46:57:631;0;10;-1.5;2.0297619047619;1.46627565982405;0;0;0;1;1;1;1;0;0;0;0;0;0;0;0;0;();(-2000.0, -2000.0);
08:46:57:647;08:46:57:618;1448480812.21;(0.41177871227264407, 0.5700485653347439);55.0387229919;1.0;08:46:57:647;0;15;-1.5;1.95602294455067;1.36852394916911;0;0;0;1;1;1;1;0;0;0;0;0;0;0;0;0;();(-2000.0, -2000.0);
08:46:57:665;08:46:57:618;1448480812.21;(0.41177871227264407, 0.5700485653347439);55.0387229919;1.0;08:46:57:665;0;10;-1.5;2.37906976744186;1.66177908113392;0;0;0;1;1;1;1;0;0;0;0;0;0;0;0;0;();(-2000.0, -2000.0);
08:46:57:697;08:46:57:667;1448480812.24;(0.411809515953064, 0.5695562998453776);55.0834770203;1.0;08:46:57:697;0;9;-1.5;1.71932773109244;1.17302052785924;0;0;0;1;1;1;1;0;0;0;0;0;0;0;0;0;();(-2000.0, -2000.0);
08:46:57:715;08:46:57:667;1448480812.24;(0.411809515953064, 0.5695562998453776);55.0834770203;1.0;08:46:57:715;0;5;-1.5;2.90625;2.34604105571848;0;0;0;1;1;1;1;0;0;0;0;0;0;0;0;0;();(-2000.0, -2000.0);
08:46:57:731;08:46:57:718;1448480812.31;(0.4118416547775269, 0.5679747687445746);55.1035232544;1.0;08:46:57:731;0;10;-1.5;2.50735294117647;2.34604105571848;0;0;0;1;1;1;1;0;0;0;0;0;0;0;0;0;();(-2000.0, -2000.0);
08:46:57:747;08:46:57:718;1448480812.31;(0.4118416547775269, 0.5679747687445746);55.1035232544;1.0;08:46:57:747;0;4;-1.5;2.0501002004008;1.85728250244379;0;0;0;1;1;1;1;0;0;0;0;0;0;0;0;0;();(-2000.0, -2000.0);
08:46:57:765;08:46:57:718;1448480812.31;(0.4118416547775269, 0.5679747687445746);55.1035232544;1.0;08:46:57:765;0;9;-1.5;1.91573033707865;1.46627565982405;0;0;0;1;1;1;1;0;0;0;0;0;0;0;0;0;();(-2000.0, -2000.0);
08:46:57:782;08:46:57:766;1448480812.34;(0.4122032165527344, 0.5679756588406033);55.2375984192;1.0;08:46:57:782;0;15;-1.5;1.96353166986564;1.46627565982405;0;0;0;1;1;1;1;0;0;0;0;0;0;0;0;0;();(-2000.0, -2000.0);
08:46:57:814;08:46:57:814;1448480812.41;(0.41254711151123047, 0.5674975925021701);55.7617645264;1.0;08:46:57:814;0;15;-1.5;1.82678571428571;1.46627565982405;0;0;0;1;1;1;1;0;0;0;0;0;0;0;0;0;();(-2000.0, -2000.0);
08:46:57:831;08:46:57:814;1448480812.41;(0.41254711151123047, 0.5674975925021701);55.7617645264;1.0;08:46:57:831;0;10;-1.5;2.6640625;2.73704789833822;0;0;0;1;1;1;1;0;0;0;0;0;0;0;0;0;();(-2000.0, -2000.0);
08:46:57:848;08:46:57:814;1448480812.41;(0.41254711151123047, 0.5674975925021701);55.7617645264;1.0;08:46:57:848;0;15;-1.5;2.75741239892183;2.34604105571848;0;0;0;1;1;1;1;0;0;0;0;0;0;0;0;0;();(-2000.0, -2000.0);
08:46:57:866;08:46:57:814;1448480812.41;(0.41254711151123047, 0.5674975925021701);55.7617645264;1.0;08:46:57:866;0;5;-1.5;2.77989130434783;2.34604105571848;0;0;0;1;1;1;1;0;0;0;0;0;0;0;0;0;();(-2000.0, -2000.0);
08:46:57:898;08:46:57:866;1448480812.44;(0.41274826526641845, 0.5669912974039714);55.6800460815;1.0;08:46:57:898;0;10;-1.5;2.35172413793103;1.66177908113392;0;0;0;1;1;1;1;0;0;0;0;0;0;0;0;0;();(-2000.0, -2000.0);
08:46:57:915;08:46:57:914;1448480812.51;(0.41297838687896726, 0.5667736477322048);55.9972686768;1.0;08:46:57:915;0;15;-1.5;2.56390977443609;2.34604105571848;0;0;0;1;1;1;1;0;0;0;0;0;0;0;0;0;();(-2000.0, -2000.0);
08:46:57:932;08:46:57:914;1448480812.51;(0.41297838687896726, 0.5667736477322048);55.9972686768;1.0;08:46:57:932;0;4;-1.5;2.20950323974082;1.85728250244379;0;0;0;1;1;1;1;0;0;0;0;0;0;0;0;0;();(-2000.0, -2000.0);
08:46:57:950;08:46:57:914;1448480812.51;(0.41297838687896726, 0.5667736477322048);55.9972686768;1.0;08:46:57:950;0;10;-1.5;1.76683937823834;1.36852394916911;0;0;0;1;1;1;1;0;0;0;0;0;0;0;0;0;();(-2000.0, -2000.0);
08:46:57:965;08:46:57:914;1448480812.51;(0.41297838687896726, 0.5667736477322048);55.9972686768;1.0;08:46:57:965;0;2;-1.5;1.59097978227061;0.879765395894428;0;0;0;1;1;1;1;0;0;0;0;0;0;0;0;0;();(-2000.0, -2000.0);
08:46:57:982;08:46:57:966;1448480812.54;(0.41332459449768066, 0.5670314364963107);56.1647262573;1.0;08:46:57:982;0;10;-1.5;1.98640776699029;1.85728250244379;0;0;0;1;1;1;1;0;0;0;0;0;0;0;0;0;();(-2000.0, -2000.0);
08:46:58:017;08:46:58:014;1448480812.61;(0.4133078336715698, 0.5672654893663194);55.995098114;1.0;08:46:58:017;0;10;-1.5;1.83992805755396;1.17302052785924;0;0;0;1;1;1;1;0;0;0;0;0;0;0;0;0;();(-2000.0, -2000.0);
08:46:58:032;08:46:58:014;1448480812.61;(0.4133078336715698, 0.5672654893663194);55.995098114;1.0;08:46:58:032;0;5;-1.5;2.50735294117647;1.85728250244379;0;0;0;1;1;1;1;0;0;0;0;0;0;0;0;0;();(-2000.0, -2000.0);
08:46:58:050;08:46:58:014;1448480812.61;(0.4133078336715698, 0.5672654893663194);55.995098114;1.0;08:46:58:050;0;10;-1.5;2.97383720930233;2.34604105571848;0;0;0;1;1;1;1;0;0;0;0;0;0;0;0;0;();(-2000.0, -2000.0);
08:46:58:066;08:46:58:066;1448480812.64;(0.4130970239639282, 0.5671159532335069);56.0239562988;1.0;08:46:58:066;0;5;-1.5;2.14915966386555;1.46627565982405;0;0;0;1;1;1;1;0;0;0;0;0;0;0;0;0;();(-2000.0, -2000.0);
08:46:58:083;08:46:58:066;1448480812.64;(0.4130970239639282, 0.5671159532335069);56.0239562988;1.0;08:46:58:083;0;9;-1.5;2.07085020242915;1.46627565982405;0;0;0;1;1;1;1;0;0;0;0;0;0;0;0;0;();(-2000.0, -2000.0);
08:46:58:117;08:46:58:066;1448480812.64;(0.4130970239639282, 0.5671159532335069);56.0239562988;1.0;08:46:58:117;0;10;-1.5;2.14915966386555;1.46627565982405;0;0;0;1;1;1;1;0;0;0;0;0;0;0;0;0;();(-2000.0, -2000.0);
08:46:58:134;08:46:58:066;1448480812.64;(0.4130970239639282, 0.5671159532335069);56.0239562988;1.0;08:46:58:134;0;5;-1.5;3.20689655172414;2.73704789833822;0;0;0;1;1;1;1;0;0;0;0;0;0;0;0;0;();(-2000.0, -2000.0);
08:46:58:150;08:46:58:066;1448480812.64;(0.4130970239639282, 0.5671159532335069);56.0239562988;1.0;08:46:58:150;0;10;-1.5;2.36805555555556;1.95503421309873;0;0;0;1;1;1;1;0;0;0;0;0;0;0;0;0;();(-2000.0, -2000.0);
08:46:58:185;08:46:58:167;1448480812.76;(0.41798298358917235, 0.5286506652832031);56.1631660461;1.0;08:46:58:185;0;5;-1.5;2.46506024096386;1.85728250244379;0;0;0;1;1;1;1;0;0;0;0;0;0;0;0;0;();(-2000.0, -2000.0);
08:46:58:187;08:46:58:167;1448480812.76;(0.41798298358917235, 0.5286506652832031);56.1631660461;1.0;08:46:58:187;0;5;-1.5;2.46506024096386;1.85728250244379;0;0;0;1;1;1;1;0;0;0;0;0;0;0;0;0;();(-2000.0, -2000.0);
08:46:58:217;08:46:58:215;1448480812.81;(0.4166166543960571, 0.5293608771430122);56.128036499;1.0;08:46:58:217;0;10;-1.5;2.55112219451372;1.85728250244379;0;0;0;1;1;1;1;0;0;0;0;0;0;0;0;0;();(-2000.0, -2000.0);
08:46:58:235;08:46:58:215;1448480812.81;(0.4166166543960571, 0.5293608771430122);56.128036499;1.0;08:46:58:235;0;15;-1.5;2.47101449275362;1.85728250244379;0;0;0;1;1;1;1;0;0;0;0;0;0;0;0;0;();(-2000.0, -2000.0);
08:46:58:251;08:46:58:215;1448480812.81;(0.4166166543960571, 0.5293608771430122);56.128036499;1.0;08:46:58:251;0;4;-1.5;1.93383742911153;1.36852394916911;0;0;0;1;1;1;1;0;0;0;0;0;0;0;0;0;();(-2000.0, -2000.0);
08:46:58:267;08:46:58:262;1448480812.84;(0.4161389350891113, 0.5296307033962674);56.3260803223;1.0;08:46:58:267;0;0;-1.5;1.97490347490347;1.46627565982405;0;0;0;1;1;1;1;0;0;0;0;0;0;0;0;0;();(-2000.0, -2000.0);
08:46:58:285;08:46:58:262;1448480812.84;(0.4161389350891113, 0.5296307033962674);56.3260803223;1.0;08:46:58:285;0;4;-1.5;1.97109826589595;1.36852394916911;0;0;0;1;1;1;1;0;0;0;0;0;0;0;0;0;();(-2000.0, -2000.0);
08:46:58:302;08:46:58:262;1448480812.84;(0.4161389350891113, 0.5296307033962674);56.3260803223;1.0;08:46:58:302;0;15;-1.5;1.73389830508475;0.879765395894428;0;0;0;1;1;1;1;0;0;0;0;0;0;0;0;0;();(-2000.0, -2000.0);
08:46:58:334;08:46:58:315;1448480812.91;(0.4139728307723999, 0.5288523779975043);55.5197753906;0.678111356859;08:46:58:334;0;9;-1.5;1.83992805755396;1.17302052785924;0;0;0;1;1;1;1;0;0;0;0;0;0;0;0;0;();(-2000.0, -2000.0);
08:46:58:351;08:46:58:315;1448480812.91;(0.4139728307723999, 0.5288523779975043);55.5197753906;0.678111356859;08:46:58:351;0;5;-1.5;2.41843971631206;1.66177908113392;0;0;0;1;1;1;1;0;0;0;0;0;0;0;0;0;();(-2000.0, -2000.0);
08:46:58:369;08:46:58:362;1448480812.94;(0, 0);0;0;08:46:58:369;0;10;-1.5;2.50735294117647;1.85728250244379;0;0;0;1;1;1;1;0;0;0;0;0;0;0;0;0;();(-2000.0, -2000.0);
08:46:58:384;08:46:58:362;1448480812.94;(0, 0);0;0;08:46:58:384;0;4;-1.5;1.94117647058824;1.36852394916911;0;0;0;1;1;1;1;0;0;0;0;0;0;0;0;0;();(-2000.0, -2000.0);
08:46:58:402;08:46:58:362;1448480812.94;(0, 0);0;0;08:46:58:402;0;9;-1.5;2.00588235294118;1.36852394916911;0;0;0;1;1;1;1;0;0;0;0;0;0;0;0;0;();(-2000.0, -2000.0);
08:46:58:435;08:46:58:414;1448480813.01;(0.25030813217163084, 0.42786844041612415);33.9609870911;0.621176766537;08:46:58:435;0;9;-1.5;2.36258660508083;1.85728250244379;0;0;0;1;1;1;1;0;0;0;0;0;0;0;0;0;();(-2000.0, -2000.0);
08:46:58:451;08:46:58:414;1448480813.01;(0.25030813217163084, 0.42786844041612415);33.9609870911;0.621176766537;08:46:58:451;0;5;-1.5;3.2373417721519;2.73704789833822;0;0;0;1;1;1;1;0;0;0;0;0;0;0;0;0;();(-2000.0, -2000.0);
08:46:58:468;08:46:58:462;1448480813.04;(0.40892412662506106, 0.5194463094075521);55.123298645;0.753507961294;08:46:58:468;0;9;-1.5;2.41843971631206;2.1505376344086;0;0;0;1;1;1;1;0;0;0;0;0;0;0;0;0;();(-2000.0, -2000.0);
08:46:58:485;08:46:58:462;1448480813.04;(0.40892412662506106, 0.5194463094075521);55.123298645;0.753507961294;08:46:58:485;0;4;-1.5;2.01377952755906;1.46627565982405;0;0;0;1;1;1;1;0;0;0;0;0;0;0;0;0;();(-2000.0, -2000.0);
08:46:58:502;08:46:58:462;1448480813.04;(0.40892412662506106, 0.5194463094075521);55.123298645;0.753507961294;08:46:58:502;0;9;-1.5;1.97109826589595;1.46627565982405;0;0;0;1;1;1;1;0;0;0;0;0;0;0;0;0;();(-2000.0, -2000.0);
08:46:58:536;08:46:58:514;1448480813.08;(0.40822246074676516, 0.5250745985243055);56.2635307312;1.0;08:46:58:536;0;10;-1.5;2.48300970873786;1.85728250244379;0;0;0;1;1;1;1;0;0;0;0;0;0;0;0;0;();(-2000.0, -2000.0);
08:46:58:553;08:46:58:514;1448480813.08;(0.40822246074676516, 0.5250745985243055);56.2635307312;1.0;08:46:58:553;0;15;-1.5;2.61636828644501;2.1505376344086;0;0;0;1;1;1;1;0;0;0;0;0;0;0;0;0;();(-2000.0, -2000.0);
08:46:58:569;08:46:58:562;1448480813.14;(0.41372635364532473, 0.5557706620958116);55.7622718811;1.0;08:46:58:569;0;4;-1.5;2.42417061611374;1.85728250244379;0;0;0;1;1;1;1;0;0;0;0;0;0;0;0;0;();(-2000.0, -2000.0);
08:46:58:587;08:46:58:562;1448480813.14;(0.41372635364532473, 0.5557706620958116);55.7622718811;1.0;08:46:58:587;0;0;-1.5;2.16737288135593;1.66177908113392;0;0;0;1;1;1;1;0;0;0;0;0;0;0;0;0;();(-2000.0, -2000.0);
08:46:58:603;08:46:58:562;1448480813.14;(0.41372635364532473, 0.5557706620958116);55.7622718811;1.0;08:46:58:603;0;5;-1.5;2.46506024096386;1.85728250244379;0;0;0;1;1;1;1;0;0;0;0;0;0;0;0;0;();(-2000.0, -2000.0);
08:46:58:637;08:46:58:614;1448480813.18;(0.4150752067565918, 0.5618445078531902);56.075717926;1.0;08:46:58:637;0;4;-1.5;1.89444444444444;1.17302052785924;0;0;0;1;1;1;1;0;0;0;0;0;0;0;0;0;();(-2000.0, -2000.0);
08:46:58:654;08:46:58:614;1448480813.18;(0.4150752067565918, 0.5618445078531902);56.075717926;1.0;08:46:58:654;0;9;-1.5;1.90502793296089;1.36852394916911;0;0;0;1;1;1;1;0;0;0;0;0;0;0;0;0;();(-2000.0, -2000.0);
08:46:58:669;08:46:58:662;1448480813.24;(0.41648552417755125, 0.5623714023166233);56.2544364929;1.0;08:46:58:669;0;5;-1.5;2.50735294117647;1.85728250244379;0;0;0;1;1;1;1;0;0;0;0;0;0;0;0;0;();(-2000.0, -2000.0);
08:46:58:686;08:46:58:662;1448480813.24;(0.41648552417755125, 0.5623714023166233);56.2544364929;1.0;08:46:58:686;0;15;-1.5;1.69370860927152;0.684261974584555;0;0;0;1;1;1;1;0;0;0;0;0;0;0;0;0;();(-2000.0, -2000.0);
08:46:58:703;08:46:58:662;1448480813.24;(0.41648552417755125, 0.5623714023166233);56.2544364929;1.0;08:46:58:703;0;15;-1.5;1.69370860927152;0.684261974584555;0;0;0;1;1;1;1;0;0;0;0;0;0;0;0;0;();(-2000.0, -2000.0);
08:46:58:737;08:46:58:710;1448480813.31;(0.4168981075286865, 0.5621827867296008);55.9372634888;1.0;08:46:58:737;0;4;-1.5;2.36805555555556;1.95503421309873;0;0;0;1;1;1;1;0;0;0;0;0;0;0;0;0;();(-2000.0, -2000.0);
08:46:58:754;08:46:58:710;1448480813.31;(0.4168981075286865, 0.5621827867296008);55.9372634888;1.0;08:46:58:754;0;9;-1.5;1.97490347490347;1.66177908113392;0;0;0;1;1;1;1;0;0;0;0;0;0;0;0;0;();(-2000.0, -2000.0);
08:46:58:770;08:46:58:762;1448480813.34;(0.4172149419784546, 0.5622320387098525);56.2215194702;1.0;08:46:58:770;0;15;-1.5;1.89444444444444;1.46627565982405;0;0;0;1;1;1;1;0;0;0;0;0;0;0;0;0;();(-2000.0, -2000.0);
08:46:58:789;08:46:58:762;1448480813.34;(0.4172149419784546, 0.5622320387098525);56.2215194702;1.0;08:46:58:789;0;10;-1.5;2.84958217270195;2.73704789833822;0;0;0;1;1;1;1;0;0;0;0;0;0;0;0;0;();(-2000.0, -2000.0);
08:46:58:804;08:46:58:762;1448480813.34;(0.4172149419784546, 0.5622320387098525);56.2215194702;1.0;08:46:58:804;0;15;-1.5;2.21428571428571;1.46627565982405;0;0;0;1;1;1;1;0;0;0;0;0;0;0;0;0;();(-2000.0, -2000.0);
08:46:58:838;08:46:58:810;1448480813.38;(0.4231483697891235, 0.5680308871799045);55.9578666687;1.0;08:46:58:838;0;0;-1.5;1.73979591836735;1.17302052785924;0;0;0;1;1;1;1;0;0;0;0;0;0;0;0;0;();(-2000.0, -2000.0);
08:46:58:854;08:46:58:810;1448480813.38;(0.4231483697891235, 0.5680308871799045);55.9578666687;1.0;08:46:58:854;0;5;-1.5;1.73979591836735;1.17302052785924;0;0;0;1;1;1;1;0;0;0;0;0;0;0;0;0;();(-2000.0, -2000.0);
08:46:58:871;08:46:58:863;1448480813.44;(0.42388904094696045, 0.5692067040337456);55.830116272;1.0;08:46:58:871;0;15;-1.5;2.28348214285714;1.66177908113392;0;0;0;1;1;1;1;0;0;0;0;0;0;0;0;0;();(-2000.0, -2000.0);
08:46:58:888;08:46:58:863;1448480813.44;(0.42388904094696045, 0.5692067040337456);55.830116272;1.0;08:46:58:888;0;4;-1.5;2.11801242236025;1.85728250244379;0;0;0;1;1;1;1;0;0;0;0;0;0;0;0;0;();(-2000.0, -2000.0);
08:46:58:904;08:46:58:863;1448480813.44;(0.42388904094696045, 0.5692067040337456);55.830116272;1.0;08:46:58:904;0;15;-1.5;2.07926829268293;1.56402737047898;0;0;0;1;1;1;1;0;0;0;0;0;0;0;0;0;();(-2000.0, -2000.0);
08:46:58:939;08:46:58:911;1448480813.51;(0.4243763446807861, 0.5713924407958985);55.0770683289;1.0;08:46:58:939;0;0;-1.5;1.50662739322533;0.684261974584555;0;0;0;1;1;1;1;0;0;0;0;0;0;0;0;0;();(-2000.0, -2000.0);
08:46:58:955;08:46:58:911;1448480813.51;(0.4243763446807861, 0.5713924407958985);55.0770683289;1.0;08:46:58:955;0;4;-1.5;1.72512647554806;1.36852394916911;0;0;0;1;1;1;1;0;0;0;0;0;0;0;0;0;();(-2000.0, -2000.0);
08:46:58:972;08:46:58:962;1448480813.54;(0.4246117830276489, 0.5727764129638672);54.8080558777;1.0;08:46:58:972;0;9;-1.5;1.97490347490347;1.36852394916911;0;0;0;1;1;1;1;0;0;0;0;0;0;0;0;0;();(-2000.0, -2000.0);
08:46:58:988;08:46:58:962;1448480813.54;(0.4246117830276489, 0.5727764129638672);54.8080558777;1.0;08:46:58:988;0;4;-1.5;2.84958217270195;2.34604105571848;0;0;0;1;1;1;1;0;0;0;0;0;0;0;0;0;();(-2000.0, -2000.0);
08:46:59:005;08:46:58:962;1448480813.54;(0.4246117830276489, 0.5727764129638672);54.8080558777;1.0;08:46:59:005;0;10;-1.5;2.41843971631206;2.1505376344086;0;0;0;1;1;1;1;0;0;0;0;0;0;0;0;0;();(-2000.0, -2000.0);
08:46:59:022;08:46:59:010;1448480813.61;(0.42500131130218505, 0.5737202962239583);53.9529380798;1.0;08:46:59:022;0;4;-1.5;1.99415204678363;1.36852394916911;0;0;0;1;1;1;1;0;0;0;0;0;0;0;0;0;();(-2000.0, -2000.0);
08:46:59:055;08:46:59:010;1448480813.61;(0.42500131130218505, 0.5737202962239583);53.9529380798;1.0;08:46:59:055;0;4;-1.5;2.36805555555556;1.66177908113392;0;0;0;1;1;1;1;0;0;0;0;0;0;0;0;0;();(-2000.0, -2000.0);
08:46:59:072;08:46:59:062;1448480813.64;(0.4250649929046631, 0.5736336178249783);53.5810699463;1.0;08:46:59:072;0;9;-1.5;2.0297619047619;1.46627565982405;0;0;0;1;1;1;1;0;0;0;0;0;0;0;0;0;();(-2000.0, -2000.0);
08:46:59:090;08:46:59:062;1448480813.64;(0.4250649929046631, 0.5736336178249783);53.5810699463;1.0;08:46:59:090;0;15;-1.5;1.93383742911153;1.46627565982405;0;0;0;1;1;1;1;0;0;0;0;0;0;0;0;0;();(-2000.0, -2000.0);
08:46:59:105;08:46:59:062;1448480813.64;(0.4250649929046631, 0.5736336178249783);53.5810699463;1.0;08:46:59:105;0;10;-1.5;2.88169014084507;2.34604105571848;0;0;0;1;1;1;1;0;0;0;0;0;0;0;0;0;();(-2000.0, -2000.0);
08:46:59:123;08:46:59:110;1448480813.71;(0.42552776336669923, 0.5744603474934895);54.0853118896;1.0;08:46:59:123;0;15;-1.5;2.61636828644501;1.85728250244379;0;0;0;1;1;1;1;0;0;0;0;0;0;0;0;0;();(-2000.0, -2000.0);
08:46:59:157;08:46:59:110;1448480813.71;(0.42552776336669923, 0.5744603474934895);54.0853118896;1.0;08:46:59:157;0;10;-1.5;1.82352941176471;1.17302052785924;0;0;0;1;1;1;1;0;0;0;0;0;0;0;0;0;();(-2000.0, -2000.0);
08:46:59:173;08:46:59:158;1448480813.74;(0.4257864475250244, 0.5758224911159939);54.033744812;1.0;08:46:59:173;0;10;-1.5;2.05835010060362;1.46627565982405;0;0;0;1;1;1;1;0;0;0;0;0;0;0;0;0;();(-2000.0, -2000.0);
08:46:59:190;08:46:59:158;1448480813.74;(0.4257864475250244, 0.5758224911159939);54.033744812;1.0;08:46:59:190;0;15;-1.5;2.2;2.1505376344086;0;0;0;1;1;1;1;0;0;0;0;0;0;0;0;0;();(-2000.0, -2000.0);
08:46:59:207;08:46:59:158;1448480813.74;(0.4257864475250244, 0.5758224911159939);54.033744812;1.0;08:46:59:207;0;9;-1.5;1.80742049469965;1.17302052785924;0;0;0;1;1;1;1;0;0;0;0;0;0;0;0;0;();(-2000.0, -2000.0);
08:46:59:223;08:46:59:210;1448480813.78;(0.42672955989837646, 0.5808038499620225);53.9958610535;1.0;08:46:59:223;0;0;-1.5;2.48300970873786;2.34604105571848;0;0;0;1;1;1;1;0;0;0;0;0;0;0;0;0;();(-2000.0, -2000.0);
08:46:59:256;08:46:59:210;1448480813.78;(0.42672955989837646, 0.5808038499620225);53.9958610535;1.0;08:46:59:256;0;15;-1.5;1.82678571428571;1.17302052785924;0;0;0;1;1;1;1;0;0;0;0;0;0;0;0;0;();(-2000.0, -2000.0);
08:46:59:275;08:46:59:258;1448480813.84;(0, 0);0;0;08:46:59:275;0;4;-1.5;1.78846153846154;1.17302052785924;0;0;0;1;1;1;1;0;0;0;0;0;0;0;0;0;();(-2000.0, -2000.0);
08:46:59:291;08:46:59:258;1448480813.84;(0, 0);0;0;08:46:59:291;0;15;-1.5;2.55112219451372;1.85728250244379;0;0;0;1;1;1;1;0;0;0;0;0;0;0;0;0;();(-2000.0, -2000.0);
08:46:59:307;08:46:59:258;1448480813.84;(0, 0);0;0;08:46:59:307;0;5;-1.5;2.61636828644501;1.85728250244379;0;0;0;1;1;1;1;0;0;0;0;0;0;0;0;0;();(-2000.0, -2000.0);
08:46:59:326;08:46:59:258;1448480813.84;(0, 0);0;0;08:46:59:326;0;10;-1.5;2.72074468085106;2.1505376344086;0;0;0;1;1;1;1;0;0;0;0;0;0;0;0;0;();(-2000.0, -2000.0);
08:46:59:358;08:46:59:258;1448480813.84;(0, 0);0;0;08:46:59:358;0;15;-1.5;2.50735294117647;1.85728250244379;0;0;0;1;1;1;1;0;0;0;0;0;0;0;0;0;();(-2000.0, -2000.0);
08:46:59:374;08:46:59:258;1448480813.84;(0, 0);0;0;08:46:59:374;0;4;-1.5;2.23851203501094;2.1505376344086;0;0;0;1;1;1;1;0;0;0;0;0;0;0;0;0;();(-2000.0, -2000.0);
08:46:59:392;08:46:59:258;1448480813.84;(0, 0);0;0;08:46:59:392;0;10;-1.5;1.85662431941924;1.36852394916911;0;0;0;1;1;1;1;0;0;0;0;0;0;0;0;0;();(-2000.0, -2000.0);
08:46:59:407;08:46:59:258;1448480813.84;(0, 0);0;0;08:46:59:407;0;5;-1.5;2.84958217270195;2.34604105571848;0;0;0;1;1;1;1;0;0;0;0;0;0;0;0;0;();(-2000.0, -2000.0);
08:46:59:425;08:46:59:410;1448480813.88;(0.4266000986099243, 0.5917986975775824);52.7413825989;0.86643397457;08:46:59:425;0;10;-1.5;2.79508196721311;2.34604105571848;0;0;0;1;1;1;1;0;0;0;0;0;0;0;0;0;();(-2000.0, -2000.0);
08:46:59:459;08:46:59:410;1448480813.88;(0.4266000986099243, 0.5917986975775824);52.7413825989;0.86643397457;08:46:59:459;0;9;-1.5;1.87020109689214;1.17302052785924;0;0;0;1;1;1;1;0;0;0;0;0;0;0;0;0;();(-2000.0, -2000.0);
08:46:59:474;08:46:59:410;1448480813.88;(0.4266000986099243, 0.5917986975775824);52.7413825989;0.86643397457;08:46:59:474;0;5;-1.5;2.84958217270195;2.34604105571848;0;0;0;1;1;1;1;0;0;0;0;0;0;0;0;0;();(-2000.0, -2000.0);
08:46:59:491;08:46:59:410;1448480813.88;(0.4266000986099243, 0.5917986975775824);52.7413825989;0.86643397457;08:46:59:491;0;10;-1.5;2.41843971631206;1.85728250244379;0;0;0;1;1;1;1;0;0;0;0;0;0;0;0;0;();(-2000.0, -2000.0);
08:46:59:509;08:46:59:410;1448480813.88;(0.4266000986099243, 0.5917986975775824);52.7413825989;0.86643397457;08:46:59:509;0;8;-1.5;2.46506024096386;1.85728250244379;0;0;0;1;1;1;1;0;0;0;0;0;0;0;0;0;();(-2000.0, -2000.0);
08:46:59:525;08:46:59:410;1448480813.88;(0.4266000986099243, 0.5917986975775824);52.7413825989;0.86643397457;08:46:59:525;0;9;-1.5;1.98640776699029;1.36852394916911;0;0;0;1;1;1;1;0;0;0;0;0;0;0;0;0;();(-2000.0, -2000.0);
08:46:59:559;08:46:59:410;1448480813.88;(0.4266000986099243, 0.5917986975775824);52.7413825989;0.86643397457;08:46:59:558;0;5;-1.5;2.57035175879397;2.34604105571848;0;0;0;1;1;1;1;0;0;0;0;0;0;0;0;0;();(-2000.0, -2000.0);
08:46:59:576;08:46:59:410;1448480813.88;(0.4266000986099243, 0.5917986975775824);52.7413825989;0.86643397457;08:46:59:576;0;15;-1.5;2.13125;1.46627565982405;0;0;0;1;1;1;1;0;0;0;0;0;0;0;0;0;();(-2000.0, -2000.0);
08:46:59:592;08:46:59:410;1448480813.88;(0.4266000986099243, 0.5917986975775824);52.7413825989;0.86643397457;08:46:59:592;0;9;-1.5;2.93965517241379;2.34604105571848;0;0;0;1;1;1;1;0;0;0;0;0;0;0;0;0;();(-2000.0, -2000.0);
08:46:59:610;08:46:59:410;1448480813.88;(0.4266000986099243, 0.5917986975775824);52.7413825989;0.86643397457;08:46:59:610;0;15;-1.5;2.90625;2.34604105571848;0;0;0;1;1;1;1;0;0;0;0;0;0;0;0;0;();(-2000.0, -2000.0);
08:46:59:626;08:46:59:410;1448480813.88;(0.4266000986099243, 0.5917986975775824);52.7413825989;0.86643397457;08:46:59:626;0;9;-1.5;1.73979591836735;1.17302052785924;0;0;0;1;1;1;1;0;0;0;0;0;0;0;0;0;();(-2000.0, -2000.0);
08:46:59:642;08:46:59:410;1448480813.88;(0.4266000986099243, 0.5917986975775824);52.7413825989;0.86643397457;08:46:59:642;0;0;-1.5;2.01377952755906;1.46627565982405;0;0;0;1;1;1;1;0;0;0;0;0;0;0;0;0;();(-2000.0, -2000.0);
08:46:59:676;08:46:59:658;1448480814.24;(0.32607474327087405, 0.6928860770331489);19.4933624268;0.91930486568;08:46:59:676;0;15;-1.5;2.39018691588785;2.34604105571848;0;0;0;1;1;1;1;0;0;0;0;0;0;0;0;0;();(-2000.0, -2000.0);
08:46:59:692;08:46:59:658;1448480814.24;(0.32607474327087405, 0.6928860770331489);19.4933624268;0.91930486568;08:46:59:692;0;4;-1.5;2.13125;1.46627565982405;0;0;0;1;1;1;1;0;0;0;0;0;0;0;0;0;();(-2000.0, -2000.0);
08:46:59:711;08:46:59:658;1448480814.24;(0.32607474327087405, 0.6928860770331489);19.4933624268;0.91930486568;08:46:59:710;0;10;-1.5;1.80105633802817;1.17302052785924;0;0;0;1;1;1;1;0;0;0;0;0;0;0;0;0;();(-2000.0, -2000.0);
08:46:59:727;08:46:59:658;1448480814.24;(0.32607474327087405, 0.6928860770331489);19.4933624268;0.91930486568;08:46:59:727;0;15;-1.5;1.83992805755396;1.46627565982405;0;0;0;1;1;1;1;0;0;0;0;0;0;0;0;0;();(-2000.0, -2000.0);
08:46:59:743;08:46:59:658;1448480814.24;(0.32607474327087405, 0.6928860770331489);19.4933624268;0.91930486568;08:46:59:743;0;10;-1.5;2.6640625;2.34604105571848;0;0;0;1;1;1;1;0;0;0;0;0;0;0;0;0;();(-2000.0, -2000.0);
08:46:59:776;08:46:59:658;1448480814.24;(0.32607474327087405, 0.6928860770331489);19.4933624268;0.91930486568;08:46:59:776;0;9;-1.5;1.80105633802817;1.17302052785924;0;0;0;1;1;1;1;0;0;0;0;0;0;0;0;0;();(-2000.0, -2000.0);
08:46:59:794;08:46:59:658;1448480814.24;(0.32607474327087405, 0.6928860770331489);19.4933624268;0.91930486568;08:46:59:794;0;4;-1.5;2.77989130434783;2.34604105571848;0;0;0;1;1;1;1;0;0;0;0;0;0;0;0;0;();(-2000.0, -2000.0);
08:46:59:810;08:46:59:658;1448480814.24;(0.32607474327087405, 0.6928860770331489);19.4933624268;0.91930486568;08:46:59:810;0;9;-1.5;2.77989130434783;2.34604105571848;0;0;0;1;1;1;1;0;0;0;0;0;0;0;0;0;();(-2000.0, -2000.0);
08:46:59:827;08:46:59:658;1448480814.24;(0.32607474327087405, 0.6928860770331489);19.4933624268;0.91930486568;08:46:59:827;0;7;-1.5;2.37906976744186;1.66177908113392;0;0;0;1;1;1;1;0;0;0;0;0;0;0;0;0;();(-2000.0, -2000.0);
08:46:59:844;08:46:59:658;1448480814.24;(0.32607474327087405, 0.6928860770331489);19.4933624268;0.91930486568;08:46:59:844;0;9;-1.5;1.87020109689214;1.17302052785924;0;0;0;1;1;1;1;0;0;0;0;0;0;0;0;0;();(-2000.0, -2000.0);
08:46:59:877;08:46:59:858;1448480814.28;(0.4270972490310669, 0.5874218410915799);58.6872749329;0.75897963181;08:46:59:877;0;10;-1.5;1.85662431941924;1.17302052785924;0;0;0;1;1;1;1;0;0;0;0;0;0;0;0;0;();(-2000.0, -2000.0);
08:46:59:895;08:46:59:858;1448480814.28;(0.4270972490310669, 0.5874218410915799);58.6872749329;0.75897963181;08:46:59:895;0;0;-1.5;1.73389830508475;1.17302052785924;0;0;0;1;1;1;1;0;0;0;0;0;0;0;0;0;();(-2000.0, -2000.0);
08:46:59:910;08:46:59:858;1448480814.28;(0.4270972490310669, 0.5874218410915799);58.6872749329;0.75897963181;08:46:59:910;0;10;-1.5;2.16737288135593;1.46627565982405;0;0;0;1;1;1;1;0;0;0;0;0;0;0;0;0;();(-2000.0, -2000.0);
08:46:59:928;08:46:59:858;1448480814.28;(0.4270972490310669, 0.5874218410915799);58.6872749329;0.75897963181;08:46:59:928;0;15;-1.5;2.42417061611374;1.85728250244379;0;0;0;1;1;1;1;0;0;0;0;0;0;0;0;0;();(-2000.0, -2000.0);
08:46:59:944;08:46:59:858;1448480814.28;(0.4270972490310669, 0.5874218410915799);58.6872749329;0.75897963181;08:46:59:944;0;9;-1.5;1.87020109689214;1.17302052785924;0;0;0;1;1;1;1;0;0;0;0;0;0;0;0;0;();(-2000.0, -2000.0);
08:46:59:977;08:46:59:958;1448480814.43;(0.4253687858581543, 0.5879813724093967);56.286819458;0.777610934693;08:46:59:977;0;10;-1.5;1.76683937823834;1.36852394916911;0;0;0;1;1;1;1;0;0;0;0;0;0;0;0;0;();(-2000.0, -2000.0);
08:46:59:995;08:46:59:958;1448480814.43;(0.4253687858581543, 0.5879813724093967);56.286819458;0.777610934693;08:46:59:995;0;15;-1.5;2.20950323974082;1.46627565982405;0;0;0;1;1;1;1;0;0;0;0;0;0;0;0;0;();(-2000.0, -2000.0);
08:47:00:011;08:47:00:006;1448480814.61;(0.4268369674682617, 0.8729459126790364);20.904209137;0.841390235327;08:47:00:011;0;4;-1.5;2.28348214285714;1.66177908113392;0;0;0;1;1;1;1;0;0;0;0;0;0;0;0;0;();(-2000.0, -2000.0);
08:47:00:028;08:47:00:006;1448480814.61;(0.4268369674682617, 0.8729459126790364);20.904209137;0.841390235327;08:47:00:028;0;9;-1.5;2.19057815845824;1.46627565982405;0;0;0;1;1;1;1;0;0;0;0;0;0;0;0;0;();(-2000.0, -2000.0);
08:47:00:045;08:47:00:006;1448480814.61;(0.4268369674682617, 0.8729459126790364);20.904209137;0.841390235327;08:47:00:045;0;5;-1.5;3.03560830860534;2.34604105571848;0;0;0;1;1;1;1;0;0;0;0;0;0;0;0;0;();(-2000.0, -2000.0);
08:47:00:063;08:47:00:054;1448480814.64;(0.4268784761428833, 0.8717951562669541);21.8716430664;0.835351283049;08:47:00:063;0;9;-1.5;2.83379501385042;2.34604105571848;0;0;0;1;1;1;1;0;0;0;0;0;0;0;0;0;();(-2000.0, -2000.0);
08:47:00:095;08:47:00:054;1448480814.64;(0.4268784761428833, 0.8717951562669541);21.8716430664;0.835351283049;08:47:00:095;0;15;-1.5;2.88169014084507;2.73704789833822;0;0;0;1;1;1;1;0;0;0;0;0;0;0;0;0;();(-2000.0, -2000.0);
08:47:00:112;08:47:00:106;1448480814.68;(0.42668566703796384, 0.8715976715087891);22.2429409027;0.920506779069;08:47:00:112;0;4;-1.5;2.6640625;2.1505376344086;0;0;0;1;1;1;1;0;0;0;0;0;0;0;0;0;();(-2000.0, -2000.0);
08:47:00:129;08:47:00:106;1448480814.68;(0.42668566703796384, 0.8715976715087891);22.2429409027;0.920506779069;08:47:00:129;0;10;-1.5;2.36805555555556;1.66177908113392;0;0;0;1;1;1;1;0;0;0;0;0;0;0;0;0;();(-2000.0, -2000.0);
08:47:00:145;08:47:00:106;1448480814.68;(0.42668566703796384, 0.8715976715087891);22.2429409027;0.920506779069;08:47:00:145;0;4;-1.5;2.07926829268293;1.46627565982405;0;0;0;1;1;1;1;0;0;0;0;0;0;0;0;0;();(-2000.0, -2000.0);
08:47:00:162;08:47:00:155;1448480814.74;(0.42323932647705076, 0.5894343905978733);56.9226531982;1.0;08:47:00:162;0;9;-1.5;2.0501002004008;1.46627565982405;0;0;0;1;1;1;1;0;0;0;0;0;0;0;0;0;();(-2000.0, -2000.0);
08:47:00:195;08:47:00:155;1448480814.74;(0.42323932647705076, 0.5894343905978733);56.9226531982;1.0;08:47:00:195;0;10;-1.5;1.81705150976909;1.17302052785924;0;0;0;1;1;1;1;0;0;0;0;0;0;0;0;0;();(-2000.0, -2000.0);
08:47:00:212;08:47:00:206;1448480814.78;(0.4203323841094971, 0.5830804189046224);56.1487083435;1.0;08:47:00:212;0;4;-1.5;2.30405405405405;1.66177908113392;0;0;0;1;1;1;1;0;0;0;0;0;0;0;0;0;();(-2000.0, -2000.0);
08:47:00:229;08:47:00:206;1448480814.78;(0.4203323841094971, 0.5830804189046224);56.1487083435;1.0;08:47:00:229;0;10;-1.5;2.36805555555556;1.66177908113392;0;0;0;1;1;1;1;0;0;0;0;0;0;0;0;0;();(-2000.0, -2000.0);
