%Timestamp,timestamp_write;timestamp_gotpupil;eyeTrackerTime;normPos;diameter;confidence;timestamp_gotbitdata;CRC;SEQ;AnalogOutp1;AnalogOutp2;AnalogOutp3;AnalogOutp4;AnalogOutp5;AnalogOutp6;DigitalOutp1;DigitalOutp2;DigitalOutp3;DigitalOutp4;nplanes;listofAirplanesonScreen;lastAction;lastActionDetails;lastActionAirplaneNumber;calculatedScore;positiveScore;negativeScore;collidedAirplaneNumbers;targetPositions;collisionPoint
12:15:50:590;12:15:50:583;1448407909.1;(0.9030418395996094, 0.49240642123752165);21.0357589722;0.818319235148;;;;;;;;;;;;;;0;0;0;0;0;0;0;0;0;();(0.0, 0.0);
12:15:50:604;12:15:50:593;1448407909.14;(0, 0);0;0;;;;;;;;;;;;;;0;0;0;0;0;0;0;0;0;();(-2000.0, -2000.0);
12:15:50:611;12:15:50:593;1448407909.14;(0, 0);0;0;;;;;;;;;;;;;;0;0;0;0;0;0;0;0;0;();(-2000.0, -2000.0);
12:15:50:617;12:15:50:593;1448407909.14;(0, 0);0;0;;;;;;;;;;;;;;0;0;0;0;0;0;0;0;0;();(-2000.0, -2000.0);
12:15:50:623;12:15:50:593;1448407909.14;(0, 0);0;0;;;;;;;;;;;;;;0;0;0;0;0;0;0;0;0;();(-2000.0, -2000.0);
12:15:50:626;12:15:50:593;1448407909.14;(0, 0);0;0;;;;;;;;;;;;;;0;0;0;0;0;0;0;0;0;();(-2000.0, -2000.0);
12:15:50:629;12:15:50:593;1448407909.14;(0, 0);0;0;;;;;;;;;;;;;;0;0;0;0;0;0;0;0;0;();(-2000.0, -2000.0);
12:15:50:632;12:15:50:593;1448407909.14;(0, 0);0;0;;;;;;;;;;;;;;0;0;0;0;0;0;0;0;0;();(-2000.0, -2000.0);
12:15:50:634;12:15:50:593;1448407909.14;(0, 0);0;0;;;;;;;;;;;;;;0;0;0;0;0;0;0;0;0;();(-2000.0, -2000.0);
12:15:50:637;12:15:50:593;1448407909.14;(0, 0);0;0;;;;;;;;;;;;;;0;0;0;0;0;0;0;0;0;();(-2000.0, -2000.0);
12:15:50:639;12:15:50:593;1448407909.14;(0, 0);0;0;;;;;;;;;;;;;;0;0;0;0;0;0;0;0;0;();(-2000.0, -2000.0);
12:15:50:642;12:15:50:593;1448407909.14;(0, 0);0;0;;;;;;;;;;;;;;0;0;0;0;0;0;0;0;0;();(-2000.0, -2000.0);
12:15:50:644;12:15:50:593;1448407909.14;(0, 0);0;0;;;;;;;;;;;;;;0;0;0;0;0;0;0;0;0;();(-2000.0, -2000.0);
12:15:50:647;12:15:50:593;1448407909.14;(0, 0);0;0;;;;;;;;;;;;;;0;0;0;0;0;0;0;0;0;();(-2000.0, -2000.0);
12:15:50:650;12:15:50:593;1448407909.14;(0, 0);0;0;;;;;;;;;;;;;;0;0;0;0;0;0;0;0;0;();(-2000.0, -2000.0);
12:15:50:652;12:15:50:593;1448407909.14;(0, 0);0;0;;;;;;;;;;;;;;0;0;0;0;0;0;0;0;0;();(-2000.0, -2000.0);
12:15:50:656;12:15:50:652;1448407909.17;(0.7100013732910156, 0.7621539645724826);81.4796905518;0.826165184076;;;;;;;;;;;;;;0;0;0;0;0;0;0;0;0;();(-2000.0, -2000.0);
12:15:50:661;12:15:50:653;1448407909.2;(0.7075510501861573, 0.7648165808783637);80.3797149658;0.69164049588;;;;;;;;;;;;;;0;0;0;0;0;0;0;0;0;();(-2000.0, -2000.0);
12:15:50:664;12:15:50:653;1448407909.2;(0.7075510501861573, 0.7648165808783637);80.3797149658;0.69164049588;;;;;;;;;;;;;;0;0;0;0;0;0;0;0;0;();(-2000.0, -2000.0);
12:15:50:667;12:15:50:653;1448407909.2;(0.7075510501861573, 0.7648165808783637);80.3797149658;0.69164049588;;;;;;;;;;;;;;0;0;0;0;0;0;0;0;0;();(-2000.0, -2000.0);
12:15:50:678;12:15:50:653;1448407909.2;(0.7075510501861573, 0.7648165808783637);80.3797149658;0.69164049588;;;;;;;;;;;;;;0;0;0;0;0;0;0;0;0;();(-2000.0, -2000.0);
12:15:50:695;12:15:50:653;1448407909.2;(0.7075510501861573, 0.7648165808783637);80.3797149658;0.69164049588;;;;;;;;;;;;;;0;0;0;0;0;0;0;0;0;();(-2000.0, -2000.0);
12:15:50:728;12:15:50:716;1448407909.27;(0.7049710750579834, 0.7701106177435981);80.622177124;0.87184149131;;;;;;;;;;;;;;0;0;0;0;0;0;0;0;0;();(-2000.0, -2000.0);
12:15:50:745;12:15:50:716;1448407909.27;(0.7049710750579834, 0.7701106177435981);80.622177124;0.87184149131;;;;;;;;;;;;;;0;0;0;0;0;0;0;0;0;();(-2000.0, -2000.0);
12:15:50:761;12:15:50:716;1448407909.27;(0.7049710750579834, 0.7701106177435981);80.622177124;0.87184149131;;;;;;;;;;;;;;0;0;0;0;0;0;0;0;0;();(-2000.0, -2000.0);
12:15:50:778;12:15:50:716;1448407909.27;(0.7049710750579834, 0.7701106177435981);80.622177124;0.87184149131;;;;;;;;;;;;;;0;0;0;0;0;0;0;0;0;();(-2000.0, -2000.0);
12:15:50:795;12:15:50:784;1448407909.34;(0, 0);0;0;;;;;;;;;;;;;;0;0;0;0;0;0;0;0;0;();(-2000.0, -2000.0);
12:15:50:812;12:15:50:784;1448407909.34;(0, 0);0;0;;;;;;;;;;;;;;0;0;0;0;0;0;0;0;0;();(-2000.0, -2000.0);
12:15:50:846;12:15:50:784;1448407909.34;(0, 0);0;0;;;;;;;;;;;;;;0;0;0;0;0;0;0;0;0;();(-2000.0, -2000.0);
12:15:50:862;12:15:50:853;1448407909.44;(0.7118788242340088, 0.7816139221191406);80.33618927;0.987056016725;;;;;;;;;;;;;;0;0;0;0;0;0;0;0;0;();(-2000.0, -2000.0);
12:15:50:879;12:15:50:853;1448407909.44;(0.7118788242340088, 0.7816139221191406);80.33618927;0.987056016725;;;;;;;;;;;;;;0;0;0;0;0;0;0;0;0;();(-2000.0, -2000.0);
12:15:50:896;12:15:50:853;1448407909.44;(0.7118788242340088, 0.7816139221191406);80.33618927;0.987056016725;;;;;;;;;;;;;;0;0;0;0;0;0;0;0;0;();(-2000.0, -2000.0);
12:15:50:912;12:15:50:853;1448407909.44;(0.7118788242340088, 0.7816139221191406);80.33618927;0.987056016725;;;;;;;;;;;;;;0;0;0;0;0;0;0;0;0;();(-2000.0, -2000.0);
12:15:50:946;12:15:50:915;1448407909.47;(0.7109376430511475, 0.7822386847601996);80.5886001587;0.819812622043;;;;;;;;;;;;;;0;0;0;0;0;0;0;0;0;();(-2000.0, -2000.0);
12:15:50:962;12:15:50:915;1448407909.47;(0.7109376430511475, 0.7822386847601996);80.5886001587;0.819812622043;;;;;;;;;;;;;;0;0;0;0;0;0;0;0;0;();(-2000.0, -2000.0);
12:15:50:979;12:15:50:915;1448407909.47;(0.7109376430511475, 0.7822386847601996);80.5886001587;0.819812622043;;;;;;;;;;;;;;0;0;0;0;0;0;0;0;0;();(-2000.0, -2000.0);
12:15:50:996;12:15:50:984;1448407909.54;(0.7069133758544922, 0.7840404510498047);81.477722168;0.944500203407;;;;;;;;;;;;;;0;0;0;0;0;0;0;0;0;();(-2000.0, -2000.0);
12:15:51:012;12:15:50:984;1448407909.54;(0.7069133758544922, 0.7840404510498047);81.477722168;0.944500203407;;;;;;;;;;;;;;0;0;0;0;0;0;0;0;0;();(-2000.0, -2000.0);
12:15:51:046;12:15:50:984;1448407909.54;(0.7069133758544922, 0.7840404510498047);81.477722168;0.944500203407;;;;;;;;;;;;;;0;0;0;0;0;0;0;0;0;();(-2000.0, -2000.0);
12:15:51:062;12:15:51:050;1448407909.6;(0.7032295227050781, 0.7880300309922961);80.8555297852;0.983589230791;;;;;;;;;;;;;;0;0;0;0;0;0;0;0;0;();(-2000.0, -2000.0);
12:15:51:079;12:15:51:050;1448407909.6;(0.7032295227050781, 0.7880300309922961);80.8555297852;0.983589230791;;;;;;;;;;;;;;0;0;0;0;0;0;0;0;0;();(-2000.0, -2000.0);
12:15:51:095;12:15:51:050;1448407909.6;(0.7032295227050781, 0.7880300309922961);80.8555297852;0.983589230791;;;;;;;;;;;;;;0;0;0;0;0;0;0;0;0;();(-2000.0, -2000.0);
12:15:51:113;12:15:51:050;1448407909.6;(0.7032295227050781, 0.7880300309922961);80.8555297852;0.983589230791;;;;;;;;;;;;;;0;0;0;0;0;0;0;0;0;();(-2000.0, -2000.0);
12:15:51:146;12:15:51:118;1448407909.67;(0.7015264511108399, 0.7883407168918186);86.2928619385;0.790785126393;;;;;;;;;;;;;;0;0;0;0;0;0;0;0;0;();(-2000.0, -2000.0);
12:15:51:162;12:15:51:118;1448407909.67;(0.7015264511108399, 0.7883407168918186);86.2928619385;0.790785126393;;;;;;;;;;;;;;0;0;0;0;0;0;0;0;0;();(-2000.0, -2000.0);
12:15:51:179;12:15:51:118;1448407909.67;(0.7015264511108399, 0.7883407168918186);86.2928619385;0.790785126393;;;;;;;;;;;;;;0;0;0;0;0;0;0;0;0;();(-2000.0, -2000.0);
12:15:51:196;12:15:51:184;1448407909.74;(0.7333755493164062, 0.7572900348239475);81.8345489502;0.942603459232;;;;;;;;;;;;;;0;0;0;0;0;0;0;0;0;();(-2000.0, -2000.0);
12:15:51:212;12:15:51:184;1448407909.74;(0.7333755493164062, 0.7572900348239475);81.8345489502;0.942603459232;;;;;;;;;;;;;;0;0;0;0;0;0;0;0;0;();(-2000.0, -2000.0);
12:15:51:246;12:15:51:184;1448407909.74;(0.7333755493164062, 0.7572900348239475);81.8345489502;0.942603459232;;;;;;;;;;;;;;0;0;0;0;0;0;0;0;0;();(-2000.0, -2000.0);
12:15:51:262;12:15:51:250;1448407909.8;(0.7263296127319336, 0.7627265930175782);82.3589477539;0.668425742411;;;;;;;;;;;;;;0;0;0;0;0;0;0;0;0;();(-2000.0, -2000.0);
12:15:51:279;12:15:51:250;1448407909.8;(0.7263296127319336, 0.7627265930175782);82.3589477539;0.668425742411;;;;;;;;;;;;;;0;0;0;0;0;0;0;0;0;();(-2000.0, -2000.0);
12:15:51:296;12:15:51:250;1448407909.8;(0.7263296127319336, 0.7627265930175782);82.3589477539;0.668425742411;;;;;;;;;;;;;;0;0;0;0;0;0;0;0;0;();(-2000.0, -2000.0);
12:15:51:313;12:15:51:250;1448407909.8;(0.7263296127319336, 0.7627265930175782);82.3589477539;0.668425742411;;;;;;;;;;;;;;0;0;0;0;0;0;0;0;0;();(-2000.0, -2000.0);
12:15:51:346;12:15:51:317;1448407909.87;(0.7232273578643799, 0.7692020628187392);82.0181274414;0.863767342799;;;;;;;;;;;;;;0;0;0;0;0;0;0;0;0;();(-2000.0, -2000.0);
12:15:51:363;12:15:51:317;1448407909.87;(0.7232273578643799, 0.7692020628187392);82.0181274414;0.863767342799;;;;;;;;;;;;;;0;0;0;0;0;0;0;0;0;();(-2000.0, -2000.0);
12:15:51:379;12:15:51:317;1448407909.87;(0.7232273578643799, 0.7692020628187392);82.0181274414;0.863767342799;;;;;;;;;;;;;;0;0;0;0;0;0;0;0;0;();(-2000.0, -2000.0);
12:15:51:396;12:15:51:381;1448407909.94;(0.3127321243286133, 0.8856241967942979);19.7142181396;0.742524172097;;;;;;;;;;;;;;0;0;0;0;0;0;0;0;0;();(-2000.0, -2000.0);
12:15:51:413;12:15:51:381;1448407909.94;(0.3127321243286133, 0.8856241967942979);19.7142181396;0.742524172097;;;;;;;;;;;;;;0;0;0;0;0;0;0;0;0;();(-2000.0, -2000.0);
12:15:51:446;12:15:51:381;1448407909.94;(0.3127321243286133, 0.8856241967942979);19.7142181396;0.742524172097;;;;;;;;;;;;;;0;0;0;0;0;0;0;0;0;();(-2000.0, -2000.0);
12:15:51:463;12:15:51:450;1448407910.0;(0, 0);0;0;;;;;;;;;;;;;;0;0;0;0;0;0;0;0;0;();(-2000.0, -2000.0);
12:15:51:479;12:15:51:450;1448407910.0;(0, 0);0;0;;;;;;;;;;;;;;0;0;0;0;0;0;0;0;0;();(-2000.0, -2000.0);
12:15:51:496;12:15:51:450;1448407910.0;(0, 0);0;0;;;;;;;;;;;;;;0;0;0;0;0;0;0;0;0;();(-2000.0, -2000.0);
12:15:51:513;12:15:51:450;1448407910.0;(0, 0);0;0;;;;;;;;;;;;;;0;0;0;0;0;0;0;0;0;();(-2000.0, -2000.0);
12:15:51:546;12:15:51:517;1448407910.07;(0, 0);0;0;;;;;;;;;;;;;;0;0;0;0;0;0;0;0;0;();(-2000.0, -2000.0);
12:15:51:563;12:15:51:517;1448407910.07;(0, 0);0;0;;;;;;;;;;;;;;0;0;0;0;0;0;0;0;0;();(-2000.0, -2000.0);
12:15:51:579;12:15:51:517;1448407910.07;(0, 0);0;0;;;;;;;;;;;;;;0;0;0;0;0;0;0;0;0;();(-2000.0, -2000.0);
12:15:51:596;12:15:51:580;1448407910.14;(0, 0);0;0;;;;;;;;;;;;;;0;0;0;0;0;0;0;0;0;();(-2000.0, -2000.0);
12:15:51:613;12:15:51:580;1448407910.14;(0, 0);0;0;;;;;;;;;;;;;;0;0;0;0;0;0;0;0;0;();(-2000.0, -2000.0);
12:15:51:646;12:15:51:580;1448407910.14;(0, 0);0;0;;;;;;;;;;;;;;0;0;0;0;0;0;0;0;0;();(-2000.0, -2000.0);
12:15:51:663;12:15:51:649;1448407910.2;(0.7204360961914062, 0.7699860042995876);83.0527114868;0.910998662028;;;;;;;;;;;;;;0;0;0;0;0;0;0;0;0;();(-2000.0, -2000.0);
12:15:51:679;12:15:51:649;1448407910.2;(0.7204360961914062, 0.7699860042995876);83.0527114868;0.910998662028;;;;;;;;;;;;;;0;0;0;0;0;0;0;0;0;();(-2000.0, -2000.0);
12:15:51:696;12:15:51:649;1448407910.2;(0.7204360961914062, 0.7699860042995876);83.0527114868;0.910998662028;;;;;;;;;;;;;;0;0;0;0;0;0;0;0;0;();(-2000.0, -2000.0);
12:15:51:713;12:15:51:711;1448407910.24;(0.7187700271606445, 0.7709822336832682);82.9405899048;0.711283389032;;;;;;;;;;;;;;0;0;0;0;0;0;0;0;0;();(-2000.0, -2000.0);
12:15:51:746;12:15:51:712;1448407910.27;(0, 0);0;0;;;;;;;;;;;;;;0;0;0;0;0;0;0;0;0;();(-2000.0, -2000.0);
12:15:51:763;12:15:51:712;1448407910.27;(0, 0);0;0;;;;;;;;;;;;;;0;0;0;0;0;0;0;0;0;();(-2000.0, -2000.0);
12:15:51:780;12:15:51:712;1448407910.27;(0, 0);0;0;;;;;;;;;;;;;;0;0;0;0;0;0;0;0;0;();(-2000.0, -2000.0);
12:15:51:796;12:15:51:783;1448407910.34;(0.702599573135376, 0.7716333601209853);86.3947525024;0.649932998453;;;;;;;;;;;;;;0;0;0;0;0;0;0;0;0;();(-2000.0, -2000.0);
12:15:51:813;12:15:51:783;1448407910.34;(0.702599573135376, 0.7716333601209853);86.3947525024;0.649932998453;;;;;;;;;;;;;;0;0;0;0;0;0;0;0;0;();(-2000.0, -2000.0);
12:15:51:846;12:15:51:783;1448407910.34;(0.702599573135376, 0.7716333601209853);86.3947525024;0.649932998453;;;;;;;;;;;;;;0;0;0;0;0;0;0;0;0;();(-2000.0, -2000.0);
12:15:51:863;12:15:51:850;1448407910.4;(0, 0);0;0;;;;;;;;;;;;;;0;0;0;0;0;0;0;0;0;();(-2000.0, -2000.0);
12:15:51:880;12:15:51:850;1448407910.4;(0, 0);0;0;;;;;;;;;;;;;;0;0;0;0;0;0;0;0;0;();(-2000.0, -2000.0);
12:15:51:896;12:15:51:850;1448407910.4;(0, 0);0;0;;;;;;;;;;;;;;0;0;0;0;0;0;0;0;0;();(-2000.0, -2000.0);
12:15:51:913;12:15:51:910;1448407910.44;(0, 0);0;0;;;;;;;;;;;;;;0;0;0;0;0;0;0;0;0;();(-2000.0, -2000.0);
12:15:51:946;12:15:51:910;1448407910.44;(0, 0);0;0;;;;;;;;;;;;;;0;0;0;0;0;0;0;0;0;();(-2000.0, -2000.0);
12:15:51:963;12:15:51:910;1448407910.44;(0, 0);0;0;;;;;;;;;;;;;;0;0;0;0;0;0;0;0;0;();(-2000.0, -2000.0);
12:15:51:980;12:15:51:978;1448407910.47;(0.7232257843017578, 0.7872368706597223);81.7409362793;0.734533500603;;;;;;;;;;;;;;0;0;0;0;0;0;0;0;0;();(-2000.0, -2000.0);
12:15:51:996;12:15:51:980;1448407910.52;(0.45176048278808595, 0.9116329087151421);22.1956691742;0.865068260052;;;;;;;;;;;;;;0;0;0;0;0;0;0;0;0;();(-2000.0, -2000.0);
12:15:52:013;12:15:51:980;1448407910.52;(0.45176048278808595, 0.9116329087151421);22.1956691742;0.865068260052;;;;;;;;;;;;;;0;0;0;0;0;0;0;0;0;();(-2000.0, -2000.0);
12:15:52:046;12:15:52:044;1448407910.61;(0, 0);0;0;;;;;;;;;;;;;;0;0;0;0;0;0;0;0;0;();(-2000.0, -2000.0);
12:15:52:063;12:15:52:044;1448407910.61;(0, 0);0;0;;;;;;;;;;;;;;0;0;0;0;0;0;0;0;0;();(-2000.0, -2000.0);
12:15:52:080;12:15:52:044;1448407910.61;(0, 0);0;0;;;;;;;;;;;;;;0;0;0;0;0;0;0;0;0;();(-2000.0, -2000.0);
12:15:52:096;12:15:52:044;1448407910.61;(0, 0);0;0;;;;;;;;;;;;;;0;0;0;0;0;0;0;0;0;();(-2000.0, -2000.0);
12:15:52:113;12:15:52:111;1448407910.64;(0.715576457977295, 0.7897085189819336);84.8443222046;0.800136500503;;;;;;;;;;;;;;0;0;0;0;0;0;0;0;0;();(-2000.0, -2000.0);
12:15:52:146;12:15:52:112;1448407910.67;(0.7129740715026855, 0.7902748531765408);85.8564758301;0.979412847588;;;;;;;;;;;;;;0;0;0;0;0;0;0;0;0;();(-2000.0, -2000.0);
12:15:52:163;12:15:52:112;1448407910.67;(0.7129740715026855, 0.7902748531765408);85.8564758301;0.979412847588;;;;;;;;;;;;;;0;0;0;0;0;0;0;0;0;();(-2000.0, -2000.0);
12:15:52:180;12:15:52:178;1448407910.71;(0, 0);0;0;;;;;;;;;;;;;;0;0;0;0;0;0;0;0;0;();(-2000.0, -2000.0);
12:15:52:197;12:15:52:179;1448407910.74;(0, 0);0;0;;;;;;;;;;;;;;0;0;0;0;0;0;0;0;0;();(-2000.0, -2000.0);
12:15:52:213;12:15:52:179;1448407910.74;(0, 0);0;0;;;;;;;;;;;;;;0;0;0;0;0;0;0;0;0;();(-2000.0, -2000.0);
12:15:52:246;12:15:52:244;1448407910.8;(0.9005475044250488, 0.49581616719563804);25.1478652954;0.667579888991;;;;;;;;;;;;;;0;0;0;0;0;0;0;0;0;();(-2000.0, -2000.0);
12:15:52:263;12:15:52:244;1448407910.8;(0.9005475044250488, 0.49581616719563804);25.1478652954;0.667579888991;;;;;;;;;;;;;;0;0;0;0;0;0;0;0;0;();(-2000.0, -2000.0);
12:15:52:280;12:15:52:244;1448407910.8;(0.9005475044250488, 0.49581616719563804);25.1478652954;0.667579888991;;;;;;;;;;;;;;0;0;0;0;0;0;0;0;0;();(-2000.0, -2000.0);
12:15:52:297;12:15:52:244;1448407910.8;(0.9005475044250488, 0.49581616719563804);25.1478652954;0.667579888991;;;;;;;;;;;;;;0;0;0;0;0;0;0;0;0;();(-2000.0, -2000.0);
12:15:52:313;12:15:52:244;1448407910.8;(0.9005475044250488, 0.49581616719563804);25.1478652954;0.667579888991;;;;;;;;;;;;;;0;0;0;0;0;0;0;0;0;();(-2000.0, -2000.0);
12:15:52:347;12:15:52:321;1448407910.87;(0.7304300785064697, 0.7646196577284071);85.4691085815;0.811495270274;;;;;;;;;;;;;;0;0;0;0;0;0;0;0;0;();(-2000.0, -2000.0);
12:15:52:363;12:15:52:321;1448407910.87;(0.7304300785064697, 0.7646196577284071);85.4691085815;0.811495270274;;;;;;;;;;;;;;0;0;0;0;0;0;0;0;0;();(-2000.0, -2000.0);
12:15:52:380;12:15:52:376;1448407910.95;(0.7271446704864502, 0.768830935160319);85.2911376953;1.0;;;;;;;;;;;;;;0;0;0;0;0;0;0;0;0;();(-2000.0, -2000.0);
12:15:52:397;12:15:52:376;1448407910.95;(0.7271446704864502, 0.768830935160319);85.2911376953;1.0;;;;;;;;;;;;;;0;0;0;0;0;0;0;0;0;();(-2000.0, -2000.0);
12:15:52:413;12:15:52:376;1448407910.95;(0.7271446704864502, 0.768830935160319);85.2911376953;1.0;;;;;;;;;;;;;;0;0;0;0;0;0;0;0;0;();(-2000.0, -2000.0);
12:15:52:446;12:15:52:444;1448407911.0;(0.6846735954284668, 0.6843544430202908);18.0080718994;0.672322654062;;;;;;;;;;;;;;0;0;0;0;0;0;0;0;0;();(-2000.0, -2000.0);
12:15:52:463;12:15:52:444;1448407911.0;(0.6846735954284668, 0.6843544430202908);18.0080718994;0.672322654062;;;;;;;;;;;;;;0;0;0;0;0;0;0;0;0;();(-2000.0, -2000.0);
12:15:52:479;12:15:52:444;1448407911.0;(0.6846735954284668, 0.6843544430202908);18.0080718994;0.672322654062;;;;;;;;;;;;;;0;0;0;0;0;0;0;0;0;();(-2000.0, -2000.0);
12:15:52:496;12:15:52:444;1448407911.0;(0.6846735954284668, 0.6843544430202908);18.0080718994;0.672322654062;;;;;;;;;;;;;;0;0;0;0;0;0;0;0;0;();(-2000.0, -2000.0);
12:15:52:513;12:15:52:508;1448407911.07;(0.31139588356018066, 0.8757403055826822);19.3319778442;0.699016066438;;;;;;;;;;;;;;0;0;0;0;0;0;0;0;0;();(-2000.0, -2000.0);
12:15:52:546;12:15:52:508;1448407911.07;(0.31139588356018066, 0.8757403055826822);19.3319778442;0.699016066438;;;;;;;;;;;;;;0;0;0;0;0;0;0;0;0;();(-2000.0, -2000.0);
12:15:52:563;12:15:52:508;1448407911.07;(0.31139588356018066, 0.8757403055826822);19.3319778442;0.699016066438;;;;;;;;;;;;;;0;0;0;0;0;0;0;0;0;();(-2000.0, -2000.0);
12:15:52:580;12:15:52:576;1448407911.14;(0.7393317222595215, 0.7583832210964627);83.9073791504;0.707082237101;;;;;;;;;;;;;;0;0;0;0;0;0;0;0;0;();(-2000.0, -2000.0);
12:15:52:597;12:15:52:576;1448407911.14;(0.7393317222595215, 0.7583832210964627);83.9073791504;0.707082237101;;;;;;;;;;;;;;0;0;0;0;0;0;0;0;0;();(-2000.0, -2000.0);
12:15:52:613;12:15:52:576;1448407911.14;(0.7393317222595215, 0.7583832210964627);83.9073791504;0.707082237101;;;;;;;;;;;;;;0;0;0;0;0;0;0;0;0;();(-2000.0, -2000.0);
12:15:52:646;12:15:52:644;1448407911.2;(0.7405042171478271, 0.7566043217976888);82.873085022;0.912638060382;;;;;;;;;;;;;;0;0;0;0;0;0;0;0;0;();(-2000.0, -2000.0);
12:15:52:663;12:15:52:644;1448407911.2;(0.7405042171478271, 0.7566043217976888);82.873085022;0.912638060382;;;;;;;;;;;;;;0;0;0;0;0;0;0;0;0;();(-2000.0, -2000.0);
12:15:52:679;12:15:52:644;1448407911.2;(0.7405042171478271, 0.7566043217976888);82.873085022;0.912638060382;;;;;;;;;;;;;;0;0;0;0;0;0;0;0;0;();(-2000.0, -2000.0);
12:15:52:696;12:15:52:644;1448407911.2;(0.7405042171478271, 0.7566043217976888);82.873085022;0.912638060382;;;;;;;;;;;;;;0;0;0;0;0;0;0;0;0;();(-2000.0, -2000.0);
12:15:52:713;12:15:52:708;1448407911.27;(0.912362003326416, 0.8824037233988444);42.8105926514;0.612546732641;;;;;;;;;;;;;;0;0;0;0;0;0;0;0;0;();(-2000.0, -2000.0);
12:15:52:746;12:15:52:708;1448407911.27;(0.912362003326416, 0.8824037233988444);42.8105926514;0.612546732641;;;;;;;;;;;;;;0;0;0;0;0;0;0;0;0;();(-2000.0, -2000.0);
12:15:52:763;12:15:52:708;1448407911.27;(0.912362003326416, 0.8824037233988444);42.8105926514;0.612546732641;;;;;;;;;;;;;;0;0;0;0;0;0;0;0;0;();(-2000.0, -2000.0);
12:15:52:780;12:15:52:777;1448407911.34;(0.7350263118743896, 0.7589328553941515);83.7256698608;0.85160145419;;;;;;;;;;;;;;0;0;0;0;0;0;0;0;0;();(-2000.0, -2000.0);
12:15:52:796;12:15:52:777;1448407911.34;(0.7350263118743896, 0.7589328553941515);83.7256698608;0.85160145419;;;;;;;;;;;;;;0;0;0;0;0;0;0;0;0;();(-2000.0, -2000.0);
12:15:52:813;12:15:52:777;1448407911.34;(0.7350263118743896, 0.7589328553941515);83.7256698608;0.85160145419;;;;;;;;;;;;;;0;0;0;0;0;0;0;0;0;();(-2000.0, -2000.0);
12:15:52:846;12:15:52:840;1448407911.4;(0.7334854125976562, 0.7607979668511284);83.6364364624;0.822222835582;;;;;;;;;;;;;;0;0;0;0;0;0;0;0;0;();(-2000.0, -2000.0);
12:15:52:863;12:15:52:840;1448407911.4;(0.7334854125976562, 0.7607979668511284);83.6364364624;0.822222835582;;;;;;;;;;;;;;0;0;0;0;0;0;0;0;0;();(-2000.0, -2000.0);
12:15:52:880;12:15:52:840;1448407911.4;(0.7334854125976562, 0.7607979668511284);83.6364364624;0.822222835582;;;;;;;;;;;;;;0;0;0;0;0;0;0;0;0;();(-2000.0, -2000.0);
12:15:52:897;12:15:52:840;1448407911.4;(0.7334854125976562, 0.7607979668511284);83.6364364624;0.822222835582;;;;;;;;;;;;;;0;0;0;0;0;0;0;0;0;();(-2000.0, -2000.0);
12:15:52:913;12:15:52:908;1448407911.47;(0.7322056293487549, 0.7624063067966037);83.9182891846;0.891622548853;;;;;;;;;;;;;;0;0;0;0;0;0;0;0;0;();(-2000.0, -2000.0);
12:15:52:946;12:15:52:908;1448407911.47;(0.7322056293487549, 0.7624063067966037);83.9182891846;0.891622548853;;;;;;;;;;;;;;0;0;0;0;0;0;0;0;0;();(-2000.0, -2000.0);
12:15:52:963;12:15:52:908;1448407911.47;(0.7322056293487549, 0.7624063067966037);83.9182891846;0.891622548853;;;;;;;;;;;;;;0;0;0;0;0;0;0;0;0;();(-2000.0, -2000.0);
12:15:52:980;12:15:52:975;1448407911.54;(0, 0);0;0;;;;;;;;;;;;;;0;0;0;0;0;0;0;0;0;();(-2000.0, -2000.0);
12:15:52:997;12:15:52:975;1448407911.54;(0, 0);0;0;;;;;;;;;;;;;;0;0;0;0;0;0;0;0;0;();(-2000.0, -2000.0);
12:15:53:013;12:15:52:975;1448407911.54;(0, 0);0;0;;;;;;;;;;;;;;0;0;0;0;0;0;0;0;0;();(-2000.0, -2000.0);
12:15:53:047;12:15:53:040;1448407911.6;(0, 0);0;0;;;;;;;;;;;;;;0;0;0;0;0;0;0;0;0;();(-2000.0, -2000.0);
12:15:53:064;12:15:53:040;1448407911.6;(0, 0);0;0;;;;;;;;;;;;;;0;0;0;0;0;0;0;0;0;();(-2000.0, -2000.0);
12:15:53:080;12:15:53:040;1448407911.6;(0, 0);0;0;;;;;;;;;;;;;;0;0;0;0;0;0;0;0;0;();(-2000.0, -2000.0);
12:15:53:097;12:15:53:040;1448407911.6;(0, 0);0;0;;;;;;;;;;;;;;0;0;0;0;0;0;0;0;0;();(-2000.0, -2000.0);
12:15:53:113;12:15:53:108;1448407911.67;(0, 0);0;0;;;;;;;;;;;;;;0;0;0;0;0;0;0;0;0;();(-2000.0, -2000.0);
12:15:53:147;12:15:53:108;1448407911.67;(0, 0);0;0;;;;;;;;;;;;;;0;0;0;0;0;0;0;0;0;();(-2000.0, -2000.0);
12:15:53:163;12:15:53:108;1448407911.67;(0, 0);0;0;;;;;;;;;;;;;;0;0;0;0;0;0;0;0;0;();(-2000.0, -2000.0);
12:15:53:180;12:15:53:171;1448407911.74;(0, 0);0;0;;;;;;;;;;;;;;0;0;0;0;0;0;0;0;0;();(-2000.0, -2000.0);
12:15:53:197;12:15:53:171;1448407911.74;(0, 0);0;0;;;;;;;;;;;;;;0;0;0;0;0;0;0;0;0;();(-2000.0, -2000.0);
12:15:53:213;12:15:53:171;1448407911.74;(0, 0);0;0;;;;;;;;;;;;;;0;0;0;0;0;0;0;0;0;();(-2000.0, -2000.0);
12:15:53:247;12:15:53:239;1448407911.8;(0.6927677154541015, 0.7915269215901692);85.5677719116;1.0;;;;;;;;;;;;;;0;0;0;0;0;0;0;0;0;();(-2000.0, -2000.0);
12:15:53:264;12:15:53:239;1448407911.8;(0.6927677154541015, 0.7915269215901692);85.5677719116;1.0;;;;;;;;;;;;;;0;0;0;0;0;0;0;0;0;();(-2000.0, -2000.0);
12:15:53:280;12:15:53:239;1448407911.8;(0.6927677154541015, 0.7915269215901692);85.5677719116;1.0;;;;;;;;;;;;;;0;0;0;0;0;0;0;0;0;();(-2000.0, -2000.0);
12:15:53:297;12:15:53:239;1448407911.8;(0.6927677154541015, 0.7915269215901692);85.5677719116;1.0;;;;;;;;;;;;;;0;0;0;0;0;0;0;0;0;();(-2000.0, -2000.0);
12:15:53:314;12:15:53:308;1448407911.87;(0.6936797142028809, 0.7904659059312609);85.5932388306;0.917167263323;;;;;;;;;;;;;;0;0;0;0;0;0;0;0;0;();(-2000.0, -2000.0);
12:15:53:347;12:15:53:308;1448407911.87;(0.6936797142028809, 0.7904659059312609);85.5932388306;0.917167263323;;;;;;;;;;;;;;0;0;0;0;0;0;0;0;0;();(-2000.0, -2000.0);
12:15:53:363;12:15:53:308;1448407911.87;(0.6936797142028809, 0.7904659059312609);85.5932388306;0.917167263323;;;;;;;;;;;;;;0;0;0;0;0;0;0;0;0;();(-2000.0, -2000.0);
12:15:53:380;12:15:53:371;1448407911.94;(0, 0);0;0;;;;;;;;;;;;;;0;0;0;0;0;0;0;0;0;();(-2000.0, -2000.0);
12:15:53:397;12:15:53:371;1448407911.94;(0, 0);0;0;;;;;;;;;;;;;;0;0;0;0;0;0;0;0;0;();(-2000.0, -2000.0);
12:15:53:414;12:15:53:371;1448407911.94;(0, 0);0;0;;;;;;;;;;;;;;0;0;0;0;0;0;0;0;0;();(-2000.0, -2000.0);
12:15:53:447;12:15:53:440;1448407912.02;(0.6720948219299316, 0.8009225527445475);85.2379150391;0.810842960212;;;;;;;;;;;;;;0;0;0;0;0;0;0;0;0;();(-2000.0, -2000.0);
12:15:53:463;12:15:53:440;1448407912.02;(0.6720948219299316, 0.8009225527445475);85.2379150391;0.810842960212;;;;;;;;;;;;;;0;0;0;0;0;0;0;0;0;();(-2000.0, -2000.0);
12:15:53:480;12:15:53:440;1448407912.02;(0.6720948219299316, 0.8009225527445475);85.2379150391;0.810842960212;;;;;;;;;;;;;;0;0;0;0;0;0;0;0;0;();(-2000.0, -2000.0);
12:15:53:498;12:15:53:440;1448407912.02;(0.6720948219299316, 0.8009225527445475);85.2379150391;0.810842960212;;;;;;;;;;;;;;0;0;0;0;0;0;0;0;0;();(-2000.0, -2000.0);
12:15:53:514;12:15:53:504;1448407912.07;(0.6729693412780762, 0.8008015314737955);85.7014541626;0.885279098669;;;;;;;;;;;;;;0;0;0;0;0;0;0;0;0;();(-2000.0, -2000.0);
12:15:53:547;12:15:53:504;1448407912.07;(0.6729693412780762, 0.8008015314737955);85.7014541626;0.885279098669;;;;;;;;;;;;;;0;0;0;0;0;0;0;0;0;();(-2000.0, -2000.0);
12:15:53:564;12:15:53:504;1448407912.07;(0.6729693412780762, 0.8008015314737955);85.7014541626;0.885279098669;;;;;;;;;;;;;;0;0;0;0;0;0;0;0;0;();(-2000.0, -2000.0);
12:15:53:581;12:15:53:571;1448407912.14;(0.9027820587158203, 0.5156051635742187);28.724439621;0.714771704022;;;;;;;;;;;;;;0;0;0;0;0;0;0;0;0;();(-2000.0, -2000.0);
12:15:53:597;12:15:53:571;1448407912.14;(0.9027820587158203, 0.5156051635742187);28.724439621;0.714771704022;;;;;;;;;;;;;;0;0;0;0;0;0;0;0;0;();(-2000.0, -2000.0);
12:15:53:614;12:15:53:571;1448407912.14;(0.9027820587158203, 0.5156051635742187);28.724439621;0.714771704022;;;;;;;;;;;;;;0;0;0;0;0;0;0;0;0;();(-2000.0, -2000.0);
12:15:53:647;12:15:53:640;1448407912.2;(0.6767094612121582, 0.7992158677842882);87.3042144775;0.887333879399;;;;;;;;;;;;;;0;0;0;0;0;0;0;0;0;();(-2000.0, -2000.0);
12:15:53:664;12:15:53:640;1448407912.2;(0.6767094612121582, 0.7992158677842882);87.3042144775;0.887333879399;;;;;;;;;;;;;;0;0;0;0;0;0;0;0;0;();(-2000.0, -2000.0);
12:15:53:681;12:15:53:640;1448407912.2;(0.6767094612121582, 0.7992158677842882);87.3042144775;0.887333879399;;;;;;;;;;;;;;0;0;0;0;0;0;0;0;0;();(-2000.0, -2000.0);
12:15:53:697;12:15:53:640;1448407912.2;(0.6767094612121582, 0.7992158677842882);87.3042144775;0.887333879399;;;;;;;;;;;;;;0;0;0;0;0;0;0;0;0;();(-2000.0, -2000.0);
12:15:53:714;12:15:53:704;1448407912.27;(0.675896406173706, 0.7938883675469293);84.423324585;0.789534829865;;;;;;;;;;;;;;0;0;0;0;0;0;0;0;0;();(-2000.0, -2000.0);
12:15:53:731;12:15:53:704;1448407912.27;(0.675896406173706, 0.7938883675469293);84.423324585;0.789534829865;;;;;;;;;;;;;;0;0;0;0;0;0;0;0;0;();(-2000.0, -2000.0);
12:15:53:764;12:15:53:704;1448407912.27;(0.675896406173706, 0.7938883675469293);84.423324585;0.789534829865;;;;;;;;;;;;;;0;0;0;0;0;0;0;0;0;();(-2000.0, -2000.0);
12:15:53:781;12:15:53:771;1448407912.34;(0.7173646926879883, 0.6682172563340929);19.2019710541;0.769800963268;;;;;;;;;;;;;;0;0;0;0;0;0;0;0;0;();(-2000.0, -2000.0);
12:15:53:797;12:15:53:771;1448407912.34;(0.7173646926879883, 0.6682172563340929);19.2019710541;0.769800963268;;;;;;;;;;;;;;0;0;0;0;0;0;0;0;0;();(-2000.0, -2000.0);
12:15:53:814;12:15:53:771;1448407912.34;(0.7173646926879883, 0.6682172563340929);19.2019710541;0.769800963268;;;;;;;;;;;;;;0;0;0;0;0;0;0;0;0;();(-2000.0, -2000.0);
12:15:53:848;12:15:53:836;1448407912.4;(0, 0);0;0;;;;;;;;;;;;;;0;0;0;0;0;0;0;0;0;();(-2000.0, -2000.0);
12:15:53:864;12:15:53:836;1448407912.4;(0, 0);0;0;;;;;;;;;;;;;;0;0;0;0;0;0;0;0;0;();(-2000.0, -2000.0);
12:15:53:881;12:15:53:836;1448407912.4;(0, 0);0;0;;;;;;;;;;;;;;0;0;0;0;0;0;0;0;0;();(-2000.0, -2000.0);
12:15:53:898;12:15:53:836;1448407912.4;(0, 0);0;0;;;;;;;;;;;;;;0;0;0;0;0;0;0;0;0;();(-2000.0, -2000.0);
12:15:53:914;12:15:53:903;1448407912.47;(0.9013604164123535, 0.5067348904079861);30.6007900238;0.612684987988;;;;;;;;;;;;;;0;0;0;0;0;0;0;0;0;();(-2000.0, -2000.0);
12:15:53:948;12:15:53:903;1448407912.47;(0.9013604164123535, 0.5067348904079861);30.6007900238;0.612684987988;;;;;;;;;;;;;;0;0;0;0;0;0;0;0;0;();(-2000.0, -2000.0);
12:15:53:964;12:15:53:903;1448407912.47;(0.9013604164123535, 0.5067348904079861);30.6007900238;0.612684987988;;;;;;;;;;;;;;0;0;0;0;0;0;0;0;0;();(-2000.0, -2000.0);
12:15:53:981;12:15:53:972;1448407912.54;(0, 0);0;0;;;;;;;;;;;;;;0;0;0;0;0;0;0;0;0;();(-2000.0, -2000.0);
12:15:53:997;12:15:53:972;1448407912.54;(0, 0);0;0;;;;;;;;;;;;;;0;0;0;0;0;0;0;0;0;();(-2000.0, -2000.0);
12:15:54:014;12:15:53:972;1448407912.54;(0, 0);0;0;;;;;;;;;;;;;;0;0;0;0;0;0;0;0;0;();(-2000.0, -2000.0);
12:15:54:047;12:15:54:035;1448407912.57;(0.6451455593109131, 0.8173184288872613);85.1537322998;0.701920418034;;;;;;;;;;;;;;0;0;0;0;0;0;0;0;0;();(-2000.0, -2000.0);
12:15:54:064;12:15:54:035;1448407912.57;(0.6451455593109131, 0.8173184288872613);85.1537322998;0.701920418034;;;;;;;;;;;;;;0;0;0;0;0;0;0;0;0;();(-2000.0, -2000.0);
12:15:54:081;12:15:54:035;1448407912.57;(0.6451455593109131, 0.8173184288872613);85.1537322998;0.701920418034;;;;;;;;;;;;;;0;0;0;0;0;0;0;0;0;();(-2000.0, -2000.0);
12:15:54:098;12:15:54:035;1448407912.57;(0.6451455593109131, 0.8173184288872613);85.1537322998;0.701920418034;;;;;;;;;;;;;;0;0;0;0;0;0;0;0;0;();(-2000.0, -2000.0);
12:15:54:114;12:15:54:107;1448407912.67;(0.9058490753173828, 0.5036237080891928);21.8618774414;0.672389370787;;;;;;;;;;;;;;0;0;0;0;0;0;0;0;0;();(-2000.0, -2000.0);
12:15:54:147;12:15:54:107;1448407912.67;(0.9058490753173828, 0.5036237080891928);21.8618774414;0.672389370787;;;;;;;;;;;;;;0;0;0;0;0;0;0;0;0;();(-2000.0, -2000.0);
12:15:54:164;12:15:54:107;1448407912.67;(0.9058490753173828, 0.5036237080891928);21.8618774414;0.672389370787;;;;;;;;;;;;;;0;0;0;0;0;0;0;0;0;();(-2000.0, -2000.0);
12:15:54:181;12:15:54:168;1448407912.74;(0, 0);0;0;;;;;;;;;;;;;;0;0;0;0;0;0;0;0;0;();(-2000.0, -2000.0);
12:15:54:197;12:15:54:168;1448407912.74;(0, 0);0;0;;;;;;;;;;;;;;0;0;0;0;0;0;0;0;0;();(-2000.0, -2000.0);
12:15:54:214;12:15:54:168;1448407912.74;(0, 0);0;0;;;;;;;;;;;;;;0;0;0;0;0;0;0;0;0;();(-2000.0, -2000.0);
12:15:54:248;12:15:54:235;1448407912.8;(0.6052586555480957, 0.8342696401807996);84.9575042725;0.659851054424;;;;;;;;;;;;;;0;0;0;0;0;0;0;0;0;();(-2000.0, -2000.0);
12:15:54:264;12:15:54:235;1448407912.8;(0.6052586555480957, 0.8342696401807996);84.9575042725;0.659851054424;;;;;;;;;;;;;;0;0;0;0;0;0;0;0;0;();(-2000.0, -2000.0);
12:15:54:281;12:15:54:235;1448407912.8;(0.6052586555480957, 0.8342696401807996);84.9575042725;0.659851054424;;;;;;;;;;;;;;0;0;0;0;0;0;0;0;0;();(-2000.0, -2000.0);
12:15:54:298;12:15:54:235;1448407912.8;(0.6052586555480957, 0.8342696401807996);84.9575042725;0.659851054424;;;;;;;;;;;;;;0;0;0;0;0;0;0;0;0;();(-2000.0, -2000.0);
12:15:54:315;12:15:54:303;1448407912.87;(0.6179243087768554, 0.825866805182563);85.0704193115;0.686900668835;;;;;;;;;;;;;;0;0;0;0;0;0;0;0;0;();(-2000.0, -2000.0);
12:15:54:348;12:15:54:303;1448407912.87;(0.6179243087768554, 0.825866805182563);85.0704193115;0.686900668835;;;;;;;;;;;;;;0;0;0;0;0;0;0;0;0;();(-2000.0, -2000.0);
12:15:54:364;12:15:54:303;1448407912.87;(0.6179243087768554, 0.825866805182563);85.0704193115;0.686900668835;;;;;;;;;;;;;;0;0;0;0;0;0;0;0;0;();(-2000.0, -2000.0);
12:15:54:381;12:15:54:368;1448407912.94;(0.6328602790832519, 0.8220642725626628);85.660369873;0.864133291451;;;;;;;;;;;;;;0;0;0;0;0;0;0;0;0;();(-2000.0, -2000.0);
12:15:54:397;12:15:54:368;1448407912.94;(0.6328602790832519, 0.8220642725626628);85.660369873;0.864133291451;;;;;;;;;;;;;;0;0;0;0;0;0;0;0;0;();(-2000.0, -2000.0);
12:15:54:415;12:15:54:368;1448407912.94;(0.6328602790832519, 0.8220642725626628);85.660369873;0.864133291451;;;;;;;;;;;;;;0;0;0;0;0;0;0;0;0;();(-2000.0, -2000.0);
12:15:54:431;12:15:54:368;1448407912.94;(0.6328602790832519, 0.8220642725626628);85.660369873;0.864133291451;;;;;;;;;;;;;;0;0;0;0;0;0;0;0;0;();(-2000.0, -2000.0);
12:15:54:465;12:15:54:436;1448407913.0;(0.30901203155517576, 0.8782303916083442);21.3113956451;0.765734812302;;;;;;;;;;;;;;0;0;0;0;0;0;0;0;0;();(-2000.0, -2000.0);
12:15:54:481;12:15:54:436;1448407913.0;(0.30901203155517576, 0.8782303916083442);21.3113956451;0.765734812302;;;;;;;;;;;;;;0;0;0;0;0;0;0;0;0;();(-2000.0, -2000.0);
12:15:54:498;12:15:54:436;1448407913.0;(0.30901203155517576, 0.8782303916083442);21.3113956451;0.765734812302;;;;;;;;;;;;;;0;0;0;0;0;0;0;0;0;();(-2000.0, -2000.0);
12:15:54:515;12:15:54:500;1448407913.07;(0.9099433898925782, 0.528000005086263);25.3165206909;0.67264509792;;;;;;;;;;;;;;0;0;0;0;0;0;0;0;0;();(-2000.0, -2000.0);
12:15:54:531;12:15:54:500;1448407913.07;(0.9099433898925782, 0.528000005086263);25.3165206909;0.67264509792;;;;;;;;;;;;;;0;0;0;0;0;0;0;0;0;();(-2000.0, -2000.0);
12:15:54:564;12:15:54:500;1448407913.07;(0.9099433898925782, 0.528000005086263);25.3165206909;0.67264509792;;;;;;;;;;;;;;0;0;0;0;0;0;0;0;0;();(-2000.0, -2000.0);
12:15:54:581;12:15:54:568;1448407913.14;(0, 0);0;0;;;;;;;;;;;;;;0;0;0;0;0;0;0;0;0;();(-2000.0, -2000.0);
12:15:54:598;12:15:54:568;1448407913.14;(0, 0);0;0;;;;;;;;;;;;;;0;0;0;0;0;0;0;0;0;();(-2000.0, -2000.0);
12:15:54:615;12:15:54:568;1448407913.14;(0, 0);0;0;;;;;;;;;;;;;;0;0;0;0;0;0;0;0;0;();(-2000.0, -2000.0);
12:15:54:631;12:15:54:568;1448407913.14;(0, 0);0;0;;;;;;;;;;;;;;0;0;0;0;0;0;0;0;0;();(-2000.0, -2000.0);
12:15:54:665;12:15:54:638;1448407913.2;(0, 0);0;0;;;;;;;;;;;;;;0;0;0;0;0;0;0;0;0;();(-2000.0, -2000.0);
12:15:54:682;12:15:54:638;1448407913.2;(0, 0);0;0;;;;;;;;;;;;;;0;0;0;0;0;0;0;0;0;();(-2000.0, -2000.0);
12:15:54:698;12:15:54:638;1448407913.2;(0, 0);0;0;;;;;;;;;;;;;;0;0;0;0;0;0;0;0;0;();(-2000.0, -2000.0);
12:15:54:715;12:15:54:702;1448407913.27;(0, 0);0;0;;;;;;;;;;;;;;0;0;0;0;0;0;0;0;0;();(-2000.0, -2000.0);
12:15:54:732;12:15:54:702;1448407913.27;(0, 0);0;0;;;;;;;;;;;;;;0;0;0;0;0;0;0;0;0;();(-2000.0, -2000.0);
12:15:54:765;12:15:54:702;1448407913.27;(0, 0);0;0;;;;;;;;;;;;;;0;0;0;0;0;0;0;0;0;();(-2000.0, -2000.0);
12:15:54:782;12:15:54:773;1448407913.34;(0, 0);0;0;;;;;;;;;;;;;;0;0;0;0;0;0;0;0;0;();(-2000.0, -2000.0);
12:15:54:798;12:15:54:773;1448407913.34;(0, 0);0;0;;;;;;;;;;;;;;0;0;0;0;0;0;0;0;0;();(-2000.0, -2000.0);
12:15:54:815;12:15:54:773;1448407913.34;(0, 0);0;0;;;;;;;;;;;;;;0;0;0;0;0;0;0;0;0;();(-2000.0, -2000.0);
12:15:54:831;12:15:54:773;1448407913.34;(0, 0);0;0;;;;;;;;;;;;;;0;0;0;0;0;0;0;0;0;();(-2000.0, -2000.0);
12:15:54:865;12:15:54:838;1448407913.4;(0, 0);0;0;;;;;;;;;;;;;;0;0;0;0;0;0;0;0;0;();(-2000.0, -2000.0);
12:15:54:882;12:15:54:838;1448407913.4;(0, 0);0;0;;;;;;;;;;;;;;0;0;0;0;0;0;0;0;0;();(-2000.0, -2000.0);
12:15:54:899;12:15:54:838;1448407913.4;(0, 0);0;0;;;;;;;;;;;;;;0;0;0;0;0;0;0;0;0;();(-2000.0, -2000.0);
12:15:54:915;12:15:54:907;1448407913.47;(0.90469970703125, 0.5153570810953776);21.9866752625;0.876659244986;;;;;;;;;;;;;;0;0;0;0;0;0;0;0;0;();(-2000.0, -2000.0);
12:15:54:932;12:15:54:907;1448407913.47;(0.90469970703125, 0.5153570810953776);21.9866752625;0.876659244986;;;;;;;;;;;;;;0;0;0;0;0;0;0;0;0;();(-2000.0, -2000.0);
12:15:54:965;12:15:54:907;1448407913.47;(0.90469970703125, 0.5153570810953776);21.9866752625;0.876659244986;;;;;;;;;;;;;;0;0;0;0;0;0;0;0;0;();(-2000.0, -2000.0);
12:15:54:982;12:15:54:971;1448407913.54;(0, 0);0;0;;;;;;;;;;;;;;0;0;0;0;0;0;0;0;0;();(-2000.0, -2000.0);
12:15:54:998;12:15:54:971;1448407913.54;(0, 0);0;0;;;;;;;;;;;;;;0;0;0;0;0;0;0;0;0;();(-2000.0, -2000.0);
12:15:55:015;12:15:54:971;1448407913.54;(0, 0);0;0;;;;;;;;;;;;;;0;0;0;0;0;0;0;0;0;();(-2000.0, -2000.0);
12:15:55:032;12:15:55:031;1448407913.57;(0.6606260299682617, 0.8081063058641222);82.0565338135;0.622578426684;;;;;;;;;;;;;;0;0;0;0;0;0;0;0;0;();(-2000.0, -2000.0);
12:15:55:065;12:15:55:032;1448407913.6;(0, 0);0;0;;;;;;;;;;;;;;0;0;0;0;0;0;0;0;0;();(-2000.0, -2000.0);
12:15:55:081;12:15:55:032;1448407913.6;(0, 0);0;0;;;;;;;;;;;;;;0;0;0;0;0;0;0;0;0;();(-2000.0, -2000.0);
12:15:55:098;12:15:55:032;1448407913.6;(0, 0);0;0;;;;;;;;;;;;;;0;0;0;0;0;0;0;0;0;();(-2000.0, -2000.0);
12:15:55:115;12:15:55:102;1448407913.67;(0, 0);0;0;;;;;;;;;;;;;;0;0;0;0;0;0;0;0;0;();(-2000.0, -2000.0);
12:15:55:131;12:15:55:102;1448407913.67;(0, 0);0;0;;;;;;;;;;;;;;0;0;0;0;0;0;0;0;0;();(-2000.0, -2000.0);
12:15:55:165;12:15:55:162;1448407913.7;(0.6877558708190918, 0.7880937788221571);82.0677490234;0.72168894096;;;;;;;;;;;;;;0;0;0;0;0;0;0;0;0;();(-2000.0, -2000.0);
12:15:55:181;12:15:55:164;1448407913.74;(0.6868999481201172, 0.7898741192287869);82.1251983643;0.784615831383;;;;;;;;;;;;;;0;0;0;0;0;0;0;0;0;();(-2000.0, -2000.0);
12:15:55:199;12:15:55:164;1448407913.74;(0.6868999481201172, 0.7898741192287869);82.1251983643;0.784615831383;;;;;;;;;;;;;;0;0;0;0;0;0;0;0;0;();(-2000.0, -2000.0);
12:15:55:215;12:15:55:164;1448407913.74;(0.6868999481201172, 0.7898741192287869);82.1251983643;0.784615831383;;;;;;;;;;;;;;0;0;0;0;0;0;0;0;0;();(-2000.0, -2000.0);
12:15:55:232;12:15:55:231;1448407913.77;(0.6865450859069824, 0.7912134382459852);82.615020752;0.853618387963;;;;;;;;;;;;;;0;0;0;0;0;0;0;0;0;();(-2000.0, -2000.0);
12:15:55:265;12:15:55:232;1448407913.8;(0, 0);0;0;;;;;;;;;;;;;;0;0;0;0;0;0;0;0;0;();(-2000.0, -2000.0);
12:15:55:282;12:15:55:232;1448407913.8;(0, 0);0;0;;;;;;;;;;;;;;0;0;0;0;0;0;0;0;0;();(-2000.0, -2000.0);
12:15:55:299;12:15:55:296;1448407913.87;(0, 0);0;0;;;;;;;;;;;;;;0;0;0;0;0;0;0;0;0;();(-2000.0, -2000.0);
12:15:55:315;12:15:55:296;1448407913.87;(0, 0);0;0;;;;;;;;;;;;;;0;0;0;0;0;0;0;0;0;();(-2000.0, -2000.0);
12:15:55:331;12:15:55:296;1448407913.87;(0, 0);0;0;;;;;;;;;;;;;;0;0;0;0;0;0;0;0;0;();(-2000.0, -2000.0);
12:15:55:365;12:15:55:364;1448407913.94;(0.39646646976470945, 0.9053041829003228);21.2449436188;0.681170931557;;;;;;;;;;;;;;0;0;0;0;0;0;0;0;0;();(-2000.0, -2000.0);
12:15:55:382;12:15:55:364;1448407913.94;(0.39646646976470945, 0.9053041829003228);21.2449436188;0.681170931557;;;;;;;;;;;;;;0;0;0;0;0;0;0;0;0;();(-2000.0, -2000.0);
12:15:55:399;12:15:55:364;1448407913.94;(0.39646646976470945, 0.9053041829003228);21.2449436188;0.681170931557;;;;;;;;;;;;;;0;0;0;0;0;0;0;0;0;();(-2000.0, -2000.0);
12:15:55:415;12:15:55:364;1448407913.94;(0.39646646976470945, 0.9053041829003228);21.2449436188;0.681170931557;;;;;;;;;;;;;;0;0;0;0;0;0;0;0;0;();(-2000.0, -2000.0);
12:15:55:432;12:15:55:431;1448407913.97;(0.6797836780548095, 0.7962254736158583);83.5211029053;0.881749377706;;;;;;;;;;;;;;0;0;0;0;0;0;0;0;0;();(-2000.0, -2000.0);
12:15:55:465;12:15:55:432;1448407914.0;(0.6984047889709473, 0.7808746761745877);84.8131256104;0.867839277097;;;;;;;;;;;;;;0;0;0;0;0;0;0;0;0;();(-2000.0, -2000.0);
12:15:55:482;12:15:55:432;1448407914.0;(0.6984047889709473, 0.7808746761745877);84.8131256104;0.867839277097;;;;;;;;;;;;;;0;0;0;0;0;0;0;0;0;();(-2000.0, -2000.0);
12:15:55:499;12:15:55:496;1448407914.07;(0.7008050918579102, 0.777498287624783);84.5480422974;0.85290382338;;;;;;;;;;;;;;0;0;0;0;0;0;0;0;0;();(-2000.0, -2000.0);
12:15:55:516;12:15:55:496;1448407914.07;(0.7008050918579102, 0.777498287624783);84.5480422974;0.85290382338;;;;;;;;;;;;;;0;0;0;0;0;0;0;0;0;();(-2000.0, -2000.0);
12:15:55:533;12:15:55:496;1448407914.07;(0.7008050918579102, 0.777498287624783);84.5480422974;0.85290382338;;;;;;;;;;;;;;0;0;0;0;0;0;0;0;0;();(-2000.0, -2000.0);
12:15:55:565;12:15:55:564;1448407914.14;(0.309770393371582, 0.8920450210571289);21.0871391296;0.623412065472;;;;;;;;;;;;;;0;0;0;0;0;0;0;0;0;();(-2000.0, -2000.0);
12:15:55:582;12:15:55:564;1448407914.14;(0.309770393371582, 0.8920450210571289);21.0871391296;0.623412065472;;;;;;;;;;;;;;0;0;0;0;0;0;0;0;0;();(-2000.0, -2000.0);
12:15:55:599;12:15:55:564;1448407914.14;(0.309770393371582, 0.8920450210571289);21.0871391296;0.623412065472;;;;;;;;;;;;;;0;0;0;0;0;0;0;0;0;();(-2000.0, -2000.0);
12:15:55:615;12:15:55:564;1448407914.14;(0.309770393371582, 0.8920450210571289);21.0871391296;0.623412065472;;;;;;;;;;;;;;0;0;0;0;0;0;0;0;0;();(-2000.0, -2000.0);
12:15:55:632;12:15:55:628;1448407914.2;(0.31015744209289553, 0.8895729117923312);19.3472557068;0.928415335983;;;;;;;;;;;;;;0;0;0;0;0;0;0;0;0;();(-2000.0, -2000.0);
12:15:55:666;12:15:55:628;1448407914.2;(0.31015744209289553, 0.8895729117923312);19.3472557068;0.928415335983;;;;;;;;;;;;;;0;0;0;0;0;0;0;0;0;();(-2000.0, -2000.0);
12:15:55:682;12:15:55:628;1448407914.2;(0.31015744209289553, 0.8895729117923312);19.3472557068;0.928415335983;;;;;;;;;;;;;;0;0;0;0;0;0;0;0;0;();(-2000.0, -2000.0);
12:15:55:699;12:15:55:628;1448407914.2;(0.31015744209289553, 0.8895729117923312);19.3472557068;0.928415335983;;;;;;;;;;;;;;0;0;0;0;0;0;0;0;0;();(-2000.0, -2000.0);
12:15:55:716;12:15:55:704;1448407914.27;(0.6965988636016845, 0.7850994957817925);83.6280441284;0.859303742976;;;;;;;;;;;;;;0;0;0;0;0;0;0;0;0;();(-2000.0, -2000.0);
12:15:55:732;12:15:55:704;1448407914.27;(0.6965988636016845, 0.7850994957817925);83.6280441284;0.859303742976;;;;;;;;;;;;;;0;0;0;0;0;0;0;0;0;();(-2000.0, -2000.0);
12:15:55:765;12:15:55:763;1448407914.3;(0, 0);0;0;;;;;;;;;;;;;;0;0;0;0;0;0;0;0;0;();(-2000.0, -2000.0);
12:15:55:782;12:15:55:764;1448407914.34;(0.4760498046875, 0.7329922993977864);34.3354110718;0.619629394394;;;;;;;;;;;;;;0;0;0;0;0;0;0;0;0;();(-2000.0, -2000.0);
12:15:55:799;12:15:55:764;1448407914.34;(0.4760498046875, 0.7329922993977864);34.3354110718;0.619629394394;;;;;;;;;;;;;;0;0;0;0;0;0;0;0;0;();(-2000.0, -2000.0);
12:15:55:816;12:15:55:764;1448407914.34;(0.4760498046875, 0.7329922993977864);34.3354110718;0.619629394394;;;;;;;;;;;;;;0;0;0;0;0;0;0;0;0;();(-2000.0, -2000.0);
12:15:55:832;12:15:55:826;1448407914.37;(0.7220635414123535, 0.7077700085110135);39.9289474487;0.602365363535;;;;;;;;;;;;;;0;0;0;0;0;0;0;0;0;();(-2000.0, -2000.0);
12:15:55:866;12:15:55:826;1448407914.37;(0.7220635414123535, 0.7077700085110135);39.9289474487;0.602365363535;;;;;;;;;;;;;;0;0;0;0;0;0;0;0;0;();(-2000.0, -2000.0);
12:15:55:882;12:15:55:826;1448407914.37;(0.7220635414123535, 0.7077700085110135);39.9289474487;0.602365363535;;;;;;;;;;;;;;0;0;0;0;0;0;0;0;0;();(-2000.0, -2000.0);
12:15:55:900;12:15:55:896;1448407914.44;(0.7201838970184327, 0.7736648559570313);81.0322113037;0.937892465824;;;;;;;;;;;;;;0;0;0;0;0;0;0;0;0;();(-2000.0, -2000.0);
12:15:55:916;12:15:55:896;1448407914.44;(0.7201838970184327, 0.7736648559570313);81.0322113037;0.937892465824;;;;;;;;;;;;;;0;0;0;0;0;0;0;0;0;();(-2000.0, -2000.0);
12:15:55:933;12:15:55:896;1448407914.44;(0.7201838970184327, 0.7736648559570313);81.0322113037;0.937892465824;;;;;;;;;;;;;;0;0;0;0;0;0;0;0;0;();(-2000.0, -2000.0);
12:15:55:966;12:15:55:962;1448407914.54;(0.7134419441223144, 0.7787372165256077);84.763053894;0.865645150988;;;;;;;;;;;;;;0;0;0;0;0;0;0;0;0;();(-2000.0, -2000.0);
12:15:55:983;12:15:55:962;1448407914.54;(0.7134419441223144, 0.7787372165256077);84.763053894;0.865645150988;;;;;;;;;;;;;;0;0;0;0;0;0;0;0;0;();(-2000.0, -2000.0);
12:15:56:000;12:15:55:962;1448407914.54;(0.7134419441223144, 0.7787372165256077);84.763053894;0.865645150988;;;;;;;;;;;;;;0;0;0;0;0;0;0;0;0;();(-2000.0, -2000.0);
12:15:56:016;12:15:55:962;1448407914.54;(0.7134419441223144, 0.7787372165256077);84.763053894;0.865645150988;;;;;;;;;;;;;;0;0;0;0;0;0;0;0;0;();(-2000.0, -2000.0);
12:15:56:032;12:15:56:027;1448407914.6;(0.7085525035858155, 0.7810498555501302);84.0999069214;0.887628620411;;;;;;;;;;;;;;0;0;0;0;0;0;0;0;0;();(-2000.0, -2000.0);
12:15:56:066;12:15:56:027;1448407914.6;(0.7085525035858155, 0.7810498555501302);84.0999069214;0.887628620411;;;;;;;;;;;;;;0;0;0;0;0;0;0;0;0;();(-2000.0, -2000.0);
12:15:56:082;12:15:56:027;1448407914.6;(0.7085525035858155, 0.7810498555501302);84.0999069214;0.887628620411;;;;;;;;;;;;;;0;0;0;0;0;0;0;0;0;();(-2000.0, -2000.0);
12:15:56:099;12:15:56:095;1448407914.67;(0.7019447326660156, 0.7841946283976237);86.1368026733;0.619501053138;;;;;;;;;;;;;;0;0;0;0;0;0;0;0;0;();(-2000.0, -2000.0);
12:15:56:116;12:15:56:095;1448407914.67;(0.7019447326660156, 0.7841946283976237);86.1368026733;0.619501053138;;;;;;;;;;;;;;0;0;0;0;0;0;0;0;0;();(-2000.0, -2000.0);
12:15:56:133;12:15:56:095;1448407914.67;(0.7019447326660156, 0.7841946283976237);86.1368026733;0.619501053138;;;;;;;;;;;;;;0;0;0;0;0;0;0;0;0;();(-2000.0, -2000.0);
12:15:56:166;12:15:56:159;1448407914.74;(0.701301097869873, 0.7913409762912327);87.967590332;0.665710827967;;;;;;;;;;;;;;0;0;0;0;0;0;0;0;0;();(-2000.0, -2000.0);
12:15:56:182;12:15:56:159;1448407914.74;(0.701301097869873, 0.7913409762912327);87.967590332;0.665710827967;;;;;;;;;;;;;;0;0;0;0;0;0;0;0;0;();(-2000.0, -2000.0);
12:15:56:199;12:15:56:159;1448407914.74;(0.701301097869873, 0.7913409762912327);87.967590332;0.665710827967;;;;;;;;;;;;;;0;0;0;0;0;0;0;0;0;();(-2000.0, -2000.0);
12:15:56:216;12:15:56:159;1448407914.74;(0.701301097869873, 0.7913409762912327);87.967590332;0.665710827967;;;;;;;;;;;;;;0;0;0;0;0;0;0;0;0;();(-2000.0, -2000.0);
12:15:56:233;12:15:56:228;1448407914.8;(0.6975595951080322, 0.7855993482801649);87.0207901001;0.830693126882;;;;;;;;;;;;;;0;0;0;0;0;0;0;0;0;();(-2000.0, -2000.0);
12:15:56:266;12:15:56:228;1448407914.8;(0.6975595951080322, 0.7855993482801649);87.0207901001;0.830693126882;;;;;;;;;;;;;;0;0;0;0;0;0;0;0;0;();(-2000.0, -2000.0);
12:15:56:283;12:15:56:228;1448407914.8;(0.6975595951080322, 0.7855993482801649);87.0207901001;0.830693126882;;;;;;;;;;;;;;0;0;0;0;0;0;0;0;0;();(-2000.0, -2000.0);
12:15:56:299;12:15:56:291;1448407914.84;(0.7140967369079589, 0.7642923990885416);87.2437210083;0.85093131717;;;;;;;;;;;;;;0;0;0;0;0;0;0;0;0;();(-2000.0, -2000.0);
12:15:56:316;12:15:56:291;1448407914.84;(0.7140967369079589, 0.7642923990885416);87.2437210083;0.85093131717;;;;;;;;;;;;;;0;0;0;0;0;0;0;0;0;();(-2000.0, -2000.0);
12:15:56:333;12:15:56:291;1448407914.84;(0.7140967369079589, 0.7642923990885416);87.2437210083;0.85093131717;;;;;;;;;;;;;;0;0;0;0;0;0;0;0;0;();(-2000.0, -2000.0);
12:15:56:366;12:15:56:291;1448407914.84;(0.7140967369079589, 0.7642923990885416);87.2437210083;0.85093131717;;;;;;;;;;;;;;0;0;0;0;0;0;0;0;0;();(-2000.0, -2000.0);
12:15:56:383;12:15:56:380;1448407914.94;(0.8970380783081054, 0.5025611877441406);29.5235729218;0.69904975534;;;;;;;;;;;;;;0;0;0;0;0;0;0;0;0;();(-2000.0, -2000.0);
12:15:56:399;12:15:56:380;1448407914.94;(0.8970380783081054, 0.5025611877441406);29.5235729218;0.69904975534;;;;;;;;;;;;;;0;0;0;0;0;0;0;0;0;();(-2000.0, -2000.0);
12:15:56:416;12:15:56:380;1448407914.94;(0.8970380783081054, 0.5025611877441406);29.5235729218;0.69904975534;;;;;;;;;;;;;;0;0;0;0;0;0;0;0;0;();(-2000.0, -2000.0);
12:15:56:433;12:15:56:426;1448407914.97;(0.7094456672668457, 0.7636365678575303);86.3271636963;0.781779168773;;;;;;;;;;;;;;0;0;0;0;0;0;0;0;0;();(-2000.0, -2000.0);
12:15:56:467;12:15:56:426;1448407914.97;(0.7094456672668457, 0.7636365678575303);86.3271636963;0.781779168773;;;;;;;;;;;;;;0;0;0;0;0;0;0;0;0;();(-2000.0, -2000.0);
12:15:56:483;12:15:56:426;1448407914.97;(0.7094456672668457, 0.7636365678575303);86.3271636963;0.781779168773;;;;;;;;;;;;;;0;0;0;0;0;0;0;0;0;();(-2000.0, -2000.0);
12:15:56:500;12:15:56:493;1448407915.07;(0.7065985202789307, 0.7665992101033529);86.0370941162;0.832103486259;;;;;;;;;;;;;;0;0;0;0;0;0;0;0;0;();(-2000.0, -2000.0);
12:15:56:517;12:15:56:493;1448407915.07;(0.7065985202789307, 0.7665992101033529);86.0370941162;0.832103486259;;;;;;;;;;;;;;0;0;0;0;0;0;0;0;0;();(-2000.0, -2000.0);
12:15:56:533;12:15:56:493;1448407915.07;(0.7065985202789307, 0.7665992101033529);86.0370941162;0.832103486259;;;;;;;;;;;;;;0;0;0;0;0;0;0;0;0;();(-2000.0, -2000.0);
12:15:56:566;12:15:56:559;1448407915.1;(0.3080306529998779, 0.8710819138420953);19.6241970062;0.750764172951;;;;;;;;;;;;;;0;0;0;0;0;0;0;0;0;();(-2000.0, -2000.0);
12:15:56:583;12:15:56:565;1448407915.14;(0, 0);0;0;;;;;;;;;;;;;;0;0;0;0;0;0;0;0;0;();(-2000.0, -2000.0);
12:15:56:600;12:15:56:565;1448407915.14;(0, 0);0;0;;;;;;;;;;;;;;0;0;0;0;0;0;0;0;0;();(-2000.0, -2000.0);
12:15:56:617;12:15:56:565;1448407915.14;(0, 0);0;0;;;;;;;;;;;;;;0;0;0;0;0;0;0;0;0;();(-2000.0, -2000.0);
12:15:56:633;12:15:56:622;1448407915.17;(0.704064130783081, 0.7698721355862088);85.4186477661;0.684401077356;;;;;;;;;;;;;;0;0;0;0;0;0;0;0;0;();(-2000.0, -2000.0);
12:15:56:666;12:15:56:622;1448407915.17;(0.704064130783081, 0.7698721355862088);85.4186477661;0.684401077356;;;;;;;;;;;;;;0;0;0;0;0;0;0;0;0;();(-2000.0, -2000.0);
12:15:56:689;12:15:56:622;1448407915.17;(0.704064130783081, 0.7698721355862088);85.4186477661;0.684401077356;;;;;;;;;;;;;;0;31,73;0;0;0;0;0;0;0;();(-2000.0, -2000.0);
12:15:56:713;12:15:56:697;1448407915.24;(0.7264498233795166, 0.7525553385416667);83.5005340576;0.693233001514;;;;;;;;;;;;;;0;31,73;0;0;0;0;0;0;0;();(-2000.0, -2000.0);
12:15:56:717;12:15:56:697;1448407915.24;(0.7264498233795166, 0.7525553385416667);83.5005340576;0.693233001514;;;;;;;;;;;;;;0;31,73;0;0;0;0;0;0;0;();(-2000.0, -2000.0);
12:15:56:733;12:15:56:697;1448407915.24;(0.7264498233795166, 0.7525553385416667);83.5005340576;0.693233001514;;;;;;;;;;;;;;0;31,73;0;0;0;0;0;0;0;();(-2000.0, -2000.0);
12:15:56:766;12:15:56:762;1448407915.34;(0.7321141719818115, 0.752515008714464);84.9177246094;0.920445925592;;;;;;;;;;;;;;0;31,73;0;0;0;0;0;0;0;();(-2000.0, -2000.0);
12:15:56:783;12:15:56:762;1448407915.34;(0.7321141719818115, 0.752515008714464);84.9177246094;0.920445925592;;;;;;;;;;;;;;0;31,73;0;0;0;0;0;0;0;();(-2000.0, -2000.0);
12:15:56:801;12:15:56:762;1448407915.34;(0.7321141719818115, 0.752515008714464);84.9177246094;0.920445925592;;;;;;;;;;;;;;0;31,73;0;0;0;0;0;0;0;();(-2000.0, -2000.0);
12:15:56:817;12:15:56:762;1448407915.34;(0.7321141719818115, 0.752515008714464);84.9177246094;0.920445925592;;;;;;;;;;;;;;0;31,73;0;0;0;0;0;0;0;();(-2000.0, -2000.0);
12:15:56:833;12:15:56:824;1448407915.4;(0.7285197734832763, 0.7645740085177951);90.4457244873;0.743581358971;;;;;;;;;;;;;;0;31,73;0;0;0;0;0;0;0;();(-2000.0, -2000.0);
12:15:56:867;12:15:56:824;1448407915.4;(0.7285197734832763, 0.7645740085177951);90.4457244873;0.743581358971;;;;;;;;;;;;;;0;31,73;0;0;0;0;0;0;0;();(-2000.0, -2000.0);
12:15:56:884;12:15:56:824;1448407915.4;(0.7285197734832763, 0.7645740085177951);90.4457244873;0.743581358971;;;;;;;;;;;;;;0;31,73;0;0;0;0;0;0;0;();(-2000.0, -2000.0);
12:15:56:900;12:15:56:893;1448407915.47;(0.7242213249206543, 0.7589445326063369);84.5951461792;0.747797382144;;;;;;;;;;;;;;0;31,73;0;0;0;0;0;0;0;();(-2000.0, -2000.0);
12:15:56:918;12:15:56:893;1448407915.47;(0.7242213249206543, 0.7589445326063369);84.5951461792;0.747797382144;;;;;;;;;;;;;;0;31,73;0;0;0;0;0;0;0;();(-2000.0, -2000.0);
12:15:56:934;12:15:56:893;1448407915.47;(0.7242213249206543, 0.7589445326063369);84.5951461792;0.747797382144;;;;;;;;;;;;;;0;31,73;0;0;0;0;0;0;0;();(-2000.0, -2000.0);
12:15:56:967;12:15:56:955;1448407915.5;(0.7218257427215576, 0.7594903733995226);84.4394836426;0.726401087423;;;;;;;;;;;;;;0;31,73;0;0;0;0;0;0;0;();(-2000.0, -2000.0);
12:15:56:983;12:15:56:955;1448407915.5;(0.7218257427215576, 0.7594903733995226);84.4394836426;0.726401087423;;;;;;;;;;;;;;0;31,73;0;0;0;0;0;0;0;();(-2000.0, -2000.0);
12:15:57:000;12:15:56:955;1448407915.5;(0.7218257427215576, 0.7594903733995226);84.4394836426;0.726401087423;;;;;;;;;;;;;;0;31,73;0;0;0;0;0;0;0;();(-2000.0, -2000.0);
12:15:57:017;12:15:56:955;1448407915.5;(0.7218257427215576, 0.7594903733995226);84.4394836426;0.726401087423;;;;;;;;;;;;;;0;31,73;0;0;0;0;0;0;0;();(-2000.0, -2000.0);
12:15:57:034;12:15:57:031;1448407915.6;(0, 0);0;0;;;;;;;;;;;;;;0;31,73;0;0;0;0;0;0;0;();(-2000.0, -2000.0);
12:15:57:067;12:15:57:031;1448407915.6;(0, 0);0;0;;;;;;;;;;;;;;0;31,73;0;0;0;0;0;0;0;();(-2000.0, -2000.0);
12:15:57:084;12:15:57:031;1448407915.6;(0, 0);0;0;;;;;;;;;;;;;;0;31,73;0;0;0;0;0;0;0;();(-2000.0, -2000.0);
12:15:57:100;12:15:57:093;1448407915.67;(0, 0);0;0;;;;;;;;;;;;;;0;31,73;0;0;0;0;0;0;0;();(-2000.0, -2000.0);
12:15:57:117;12:15:57:093;1448407915.67;(0, 0);0;0;;;;;;;;;;;;;;0;31,73;0;0;0;0;0;0;0;();(-2000.0, -2000.0);
12:15:57:133;12:15:57:093;1448407915.67;(0, 0);0;0;;;;;;;;;;;;;;0;31,73;0;0;0;0;0;0;0;();(-2000.0, -2000.0);
12:15:57:167;12:15:57:154;1448407915.7;(0, 0);0;0;;;;;;;;;;;;;;0;31,73;0;0;0;0;0;0;0;();(-2000.0, -2000.0);
12:15:57:184;12:15:57:154;1448407915.7;(0, 0);0;0;;;;;;;;;;;;;;0;31,73;0;0;0;0;0;0;0;();(-2000.0, -2000.0);
12:15:57:200;12:15:57:154;1448407915.7;(0, 0);0;0;;;;;;;;;;;;;;0;31,73;0;0;0;0;0;0;0;();(-2000.0, -2000.0);
12:15:57:217;12:15:57:154;1448407915.7;(0, 0);0;0;;;;;;;;;;;;;;0;31,73;0;0;0;0;0;0;0;();(-2000.0, -2000.0);
12:15:57:234;12:15:57:225;1448407915.8;(0, 0);0;0;;;;;;;;;;;;;;0;31,73;0;0;0;0;0;0;0;();(-2000.0, -2000.0);
12:15:57:267;12:15:57:225;1448407915.8;(0, 0);0;0;;;;;;;;;;;;;;0;31,73;0;0;0;0;0;0;0;();(-2000.0, -2000.0);
12:15:57:283;12:15:57:225;1448407915.8;(0, 0);0;0;;;;;;;;;;;;;;0;31,73;0;0;0;0;0;0;0;();(-2000.0, -2000.0);
12:15:57:301;12:15:57:286;1448407915.84;(0.778697156906128, 0.7676691691080729);84.102973938;0.777898972802;;;;;;;;;;;;;;0;31,73;0;0;0;0;0;0;0;();(-2000.0, -2000.0);
12:15:57:317;12:15:57:286;1448407915.84;(0.778697156906128, 0.7676691691080729);84.102973938;0.777898972802;;;;;;;;;;;;;;0;31,73;0;0;0;0;0;0;0;();(-2000.0, -2000.0);
12:15:57:334;12:15:57:286;1448407915.84;(0.778697156906128, 0.7676691691080729);84.102973938;0.777898972802;;;;;;;;;;;;;;0;31,73;0;0;0;0;0;0;0;();(-2000.0, -2000.0);
12:15:57:367;12:15:57:358;1448407915.94;(0.7661368370056152, 0.7789074579874674);81.432800293;0.902464823342;;;;;;;;;;;;;;0;31,73;0;0;0;0;0;0;0;();(-2000.0, -2000.0);
12:15:57:383;12:15:57:358;1448407915.94;(0.7661368370056152, 0.7789074579874674);81.432800293;0.902464823342;;;;;;;;;;;;;;0;31,73;0;0;0;0;0;0;0;();(-2000.0, -2000.0);
12:15:57:400;12:15:57:358;1448407915.94;(0.7661368370056152, 0.7789074579874674);81.432800293;0.902464823342;;;;;;;;;;;;;;0;31,73;0;0;0;0;0;0;0;();(-2000.0, -2000.0);
12:15:57:418;12:15:57:358;1448407915.94;(0.7661368370056152, 0.7789074579874674);81.432800293;0.902464823342;;;;;;;;;;;;;;0;31,73;0;0;0;0;0;0;0;();(-2000.0, -2000.0);
12:15:57:434;12:15:57:424;1448407916.0;(0.7581615447998047, 0.7831435521443685);81.4313049316;0.946676468846;;;;;;;;;;;;;;0;31,73;0;0;0;0;0;0;0;();(-2000.0, -2000.0);
12:15:57:468;12:15:57:424;1448407916.0;(0.7581615447998047, 0.7831435521443685);81.4313049316;0.946676468846;;;;;;;;;;;;;;0;31,73;0;0;0;0;0;0;0;();(-2000.0, -2000.0);
12:15:57:484;12:15:57:424;1448407916.0;(0.7581615447998047, 0.7831435521443685);81.4313049316;0.946676468846;;;;;;;;;;;;;;0;31,73;0;0;0;0;0;0;0;();(-2000.0, -2000.0);
12:15:57:500;12:15:57:493;1448407916.07;(0.7543883323669434, 0.7758303536309137);71.2124786377;0.70716166667;;;;;;;;;;;;;;0;31,73;0;0;0;0;0;0;0;();(-2000.0, -2000.0);
12:15:57:517;12:15:57:493;1448407916.07;(0.7543883323669434, 0.7758303536309137);71.2124786377;0.70716166667;;;;;;;;;;;;;;0;31,73;0;0;0;0;0;0;0;();(-2000.0, -2000.0);
12:15:57:534;12:15:57:493;1448407916.07;(0.7543883323669434, 0.7758303536309137);71.2124786377;0.70716166667;;;;;;;;;;;;;;0;31,73;0;0;0;0;0;0;0;();(-2000.0, -2000.0);
12:15:57:568;12:15:57:556;1448407916.14;(0.7469815731048584, 0.7835875405205621);77.0126037598;0.699915383835;;;;;;;;;;;;;;0;31,73;0;0;0;0;0;0;0;();(-2000.0, -2000.0);
12:15:57:584;12:15:57:556;1448407916.14;(0.7469815731048584, 0.7835875405205621);77.0126037598;0.699915383835;;;;;;;;;;;;;;0;31,73;0;0;0;0;0;0;0;();(-2000.0, -2000.0);
12:15:57:601;12:15:57:556;1448407916.14;(0.7469815731048584, 0.7835875405205621);77.0126037598;0.699915383835;;;;;;;;;;;;;;0;31,73;0;0;0;0;0;0;0;();(-2000.0, -2000.0);
12:15:57:617;12:15:57:556;1448407916.14;(0.7469815731048584, 0.7835875405205621);77.0126037598;0.699915383835;;;;;;;;;;;;;;0;31,73;0;0;0;0;0;0;0;();(-2000.0, -2000.0);
12:15:57:634;12:15:57:622;1448407916.2;(0.9039867401123047, 0.5207554711235893);26.8763256073;0.653267452388;;;;;;;;;;;;;;0;31,73;0;0;0;0;0;0;0;();(-2000.0, -2000.0);
12:15:57:668;12:15:57:622;1448407916.2;(0.9039867401123047, 0.5207554711235893);26.8763256073;0.653267452388;;;;;;;;;;;;;;0;31,73;0;0;0;0;0;0;0;();(-2000.0, -2000.0);
12:15:57:684;12:15:57:622;1448407916.2;(0.9039867401123047, 0.5207554711235893);26.8763256073;0.653267452388;;;;;;;;;;;;;;0;31,73;0;0;0;0;0;0;0;();(-2000.0, -2000.0);
12:15:57:701;12:15:57:688;1448407916.24;(0, 0);0;0;;;;;;;;;;;;;;0;31,73;0;0;0;0;0;0;0;();(-2000.0, -2000.0);
12:15:57:718;12:15:57:688;1448407916.24;(0, 0);0;0;;;;;;;;;;;;;;0;31,73;0;0;0;0;0;0;0;();(-2000.0, -2000.0);
12:15:57:734;12:15:57:688;1448407916.24;(0, 0);0;0;;;;;;;;;;;;;;0;31,73;0;0;0;0;0;0;0;();(-2000.0, -2000.0);
12:15:57:767;12:15:57:758;1448407916.34;(0.7426198482513428, 0.7935086356268989);83.8930664062;0.87932783159;;;;;;;;;;;;;;0;31,73;0;0;0;0;0;0;0;();(-2000.0, -2000.0);
12:15:57:784;12:15:57:758;1448407916.34;(0.7426198482513428, 0.7935086356268989);83.8930664062;0.87932783159;;;;;;;;;;;;;;0;31,73;0;0;0;0;0;0;0;();(-2000.0, -2000.0);
12:15:57:801;12:15:57:758;1448407916.34;(0.7426198482513428, 0.7935086356268989);83.8930664062;0.87932783159;;;;;;;;;;;;;;0;31,73;0;0;0;0;0;0;0;();(-2000.0, -2000.0);
12:15:57:818;12:15:57:758;1448407916.34;(0.7426198482513428, 0.7935086356268989);83.8930664062;0.87932783159;;;;;;;;;;;;;;0;31,73;0;0;0;0;0;0;0;();(-2000.0, -2000.0);
12:15:57:834;12:15:57:820;1448407916.37;(0.743191909790039, 0.7925056881374783);83.6371459961;0.893372205527;;;;;;;;;;;;;;0;31,73;0;0;0;0;0;0;0;();(-2000.0, -2000.0);
12:15:57:851;12:15:57:820;1448407916.37;(0.743191909790039, 0.7925056881374783);83.6371459961;0.893372205527;;;;;;;;;;;;;;0;31,73;0;0;0;0;0;0;0;();(-2000.0, -2000.0);
12:15:57:884;12:15:57:820;1448407916.37;(0.743191909790039, 0.7925056881374783);83.6371459961;0.893372205527;;;;;;;;;;;;;;0;31,73;0;0;0;0;0;0;0;();(-2000.0, -2000.0);
12:15:57:901;12:15:57:895;1448407916.47;(0.7422151088714599, 0.790387937757704);81.8497314453;0.699838493978;;;;;;;;;;;;;;0;31,73;0;0;0;0;0;0;0;();(-2000.0, -2000.0);
12:15:57:917;12:15:57:895;1448407916.47;(0.7422151088714599, 0.790387937757704);81.8497314453;0.699838493978;;;;;;;;;;;;;;0;31,73;0;0;0;0;0;0;0;();(-2000.0, -2000.0);
12:15:57:935;12:15:57:895;1448407916.47;(0.7422151088714599, 0.790387937757704);81.8497314453;0.699838493978;;;;;;;;;;;;;;0;31,73;0;0;0;0;0;0;0;();(-2000.0, -2000.0);
12:15:57:951;12:15:57:950;1448407916.5;(0, 0);0;0;;;;;;;;;;;;;;0;31,73;0;0;0;0;0;0;0;();(-2000.0, -2000.0);
12:15:57:984;12:15:57:951;1448407916.54;(0.9056683540344238, 0.5644574483235677);28.967048645;0.66782738166;;;;;;;;;;;;;;0;31,73;0;0;0;0;0;0;0;();(-2000.0, -2000.0);
12:15:58:001;12:15:57:951;1448407916.54;(0.9056683540344238, 0.5644574483235677);28.967048645;0.66782738166;;;;;;;;;;;;;;0;31,73;0;0;0;0;0;0;0;();(-2000.0, -2000.0);
12:15:58:018;12:15:57:951;1448407916.54;(0.9056683540344238, 0.5644574483235677);28.967048645;0.66782738166;;;;;;;;;;;;;;0;31,73;0;0;0;0;0;0;0;();(-2000.0, -2000.0);
12:15:58:034;12:15:58:021;1448407916.57;(0.6105710983276367, 0.7201513078477648);29.3462142944;0.856169529486;;;;;;;;;;;;;;0;31,73;0;0;0;0;0;0;0;();(-2000.0, -2000.0);
12:15:58:051;12:15:58:021;1448407916.57;(0.6105710983276367, 0.7201513078477648);29.3462142944;0.856169529486;;;;;;;;;;;;;;0;31,73;0;0;0;0;0;0;0;();(-2000.0, -2000.0);
12:15:58:084;12:15:58:082;1448407916.6;(0, 0);0;0;;;;;;;;;;;;;;0;31,73;0;0;0;0;0;0;0;();(-2000.0, -2000.0);
12:15:58:100;12:15:58:083;1448407916.64;(0.3282198190689087, 0.8498252656724719);47.1516609192;0.617423090771;;;;;;;;;;;;;;0;31,73;0;0;0;0;0;0;0;();(-2000.0, -2000.0);
12:15:58:118;12:15:58:083;1448407916.64;(0.3282198190689087, 0.8498252656724719);47.1516609192;0.617423090771;;;;;;;;;;;;;;0;31,73;0;0;0;0;0;0;0;();(-2000.0, -2000.0);
12:15:58:134;12:15:58:083;1448407916.64;(0.3282198190689087, 0.8498252656724719);47.1516609192;0.617423090771;;;;;;;;;;;;;;0;31,73;0;0;0;0;0;0;0;();(-2000.0, -2000.0);
12:15:58:151;12:15:58:150;1448407916.68;(0.5624003887176514, 0.8010574340820312);83.0415725708;0.737548894579;;;;;;;;;;;;;;0;31,73;0;0;0;0;0;0;0;();(-2000.0, -2000.0);
12:15:58:184;12:15:58:151;1448407916.73;(0, 0);0;0;;;;;;;;;;;;;;0;31,73;0;0;0;0;0;0;0;();(-2000.0, -2000.0);
12:15:58:201;12:15:58:151;1448407916.73;(0, 0);0;0;;;;;;;;;;;;;;0;31,73;0;0;0;0;0;0;0;();(-2000.0, -2000.0);
12:15:58:218;12:15:58:151;1448407916.73;(0, 0);0;0;;;;;;;;;;;;;;0;31,73;0;0;0;0;0;0;0;();(-2000.0, -2000.0);
12:15:58:234;12:15:58:222;1448407916.77;(0.5933120727539063, 0.7894169489542643);83.6437759399;0.777007101973;;;;;;;;;;;;;;0;31,73;0;0;0;0;0;0;0;();(-2000.0, -2000.0);
12:15:58:251;12:15:58:222;1448407916.77;(0.5933120727539063, 0.7894169489542643);83.6437759399;0.777007101973;;;;;;;;;;;;;;0;31,73;0;0;0;0;0;0;0;();(-2000.0, -2000.0);
12:15:58:284;12:15:58:282;1448407916.8;(0.6021461009979248, 0.7859867519802517);85.2273635864;0.923535409585;;;;;;;;;;;;;;0;31,73;0;0;0;0;0;0;0;();(-2000.0, -2000.0);
12:15:58:302;12:15:58:282;1448407916.8;(0.6021461009979248, 0.7859867519802517);85.2273635864;0.923535409585;;;;;;;;;;;;;;0;31,73;0;0;0;0;0;0;0;();(-2000.0, -2000.0);
12:15:58:318;12:15:58:282;1448407916.8;(0.6021461009979248, 0.7859867519802517);85.2273635864;0.923535409585;;;;;;;;;;;;;;0;31,73;0;0;0;0;0;0;0;();(-2000.0, -2000.0);
12:15:58:335;12:15:58:282;1448407916.8;(0.6021461009979248, 0.7859867519802517);85.2273635864;0.923535409585;;;;;;;;;;;;;;0;31,73;0;0;0;0;0;0;0;();(-2000.0, -2000.0);
12:15:58:351;12:15:58:282;1448407916.8;(0.6021461009979248, 0.7859867519802517);85.2273635864;0.923535409585;;;;;;;;;;;;;;0;31,73;0;0;0;0;0;0;0;();(-2000.0, -2000.0);
12:15:58:385;12:15:58:365;1448407916.9;(0.6033683300018311, 0.7597310172186957);84.073059082;0.739789457769;;;;;;;;;;;;;;0;31,73;0;0;0;0;0;0;0;();(-2000.0, -2000.0);
12:15:58:401;12:15:58:365;1448407916.9;(0.6033683300018311, 0.7597310172186957);84.073059082;0.739789457769;;;;;;;;;;;;;;0;31,73;0;0;0;0;0;0;0;();(-2000.0, -2000.0);
12:15:58:418;12:15:58:416;1448407916.97;(0.6108698368072509, 0.7558645672268338);87.6685562134;0.631741096692;;;;;;;;;;;;;;0;31,73;0;0;0;0;0;0;0;();(-2000.0, -2000.0);
12:15:58:434;12:15:58:416;1448407916.97;(0.6108698368072509, 0.7558645672268338);87.6685562134;0.631741096692;;;;;;;;;;;;;;0;31,73;0;0;0;0;0;0;0;();(-2000.0, -2000.0);
12:15:58:451;12:15:58:416;1448407916.97;(0.6108698368072509, 0.7558645672268338);87.6685562134;0.631741096692;;;;;;;;;;;;;;0;31,73;0;0;0;0;0;0;0;();(-2000.0, -2000.0);
12:15:58:485;12:15:58:482;1448407917.0;(0.6122642993927002, 0.7559067832099067);85.5780715942;0.935259454156;;;;;;;;;;;;;;0;31,73;0;0;0;0;0;0;0;();(-2000.0, -2000.0);
12:15:58:501;12:15:58:482;1448407917.0;(0.6122642993927002, 0.7559067832099067);85.5780715942;0.935259454156;;;;;;;;;;;;;;0;31,73;0;0;0;0;0;0;0;();(-2000.0, -2000.0);
12:15:58:518;12:15:58:482;1448407917.0;(0.6122642993927002, 0.7559067832099067);85.5780715942;0.935259454156;;;;;;;;;;;;;;0;31,73;0;0;0;0;0;0;0;();(-2000.0, -2000.0);
12:15:58:535;12:15:58:482;1448407917.0;(0.6122642993927002, 0.7559067832099067);85.5780715942;0.935259454156;;;;;;;;;;;;;;0;31,73;0;0;0;0;0;0;0;();(-2000.0, -2000.0);
12:15:58:551;12:15:58:550;1448407917.04;(0.6131051540374756, 0.7576898786756727);84.5895843506;0.9748893864;;;;;;;;;;;;;;0;31,73;0;0;0;0;0;0;0;();(-2000.0, -2000.0);
12:15:58:585;12:15:58:556;1448407917.1;(0.6160962581634521, 0.7585026635064019);84.267616272;0.749572815937;;;;;;;;;;;;;;0;31,73;0;0;0;0;0;0;0;();(-2000.0, -2000.0);
12:15:58:601;12:15:58:556;1448407917.1;(0.6160962581634521, 0.7585026635064019);84.267616272;0.749572815937;;;;;;;;;;;;;;0;31,73;0;0;0;0;0;0;0;();(-2000.0, -2000.0);
12:15:58:618;12:15:58:617;1448407917.2;(0.35981462001800535, 0.6529284371270074);23.0332736969;0.764572229364;;;;;;;;;;;;;;0;31,73;0;0;0;0;0;0;0;();(-2000.0, -2000.0);
12:15:58:635;12:15:58:617;1448407917.2;(0.35981462001800535, 0.6529284371270074);23.0332736969;0.764572229364;;;;;;;;;;;;;;0;31,73;0;0;0;0;0;0;0;();(-2000.0, -2000.0);
12:15:58:651;12:15:58:617;1448407917.2;(0.35981462001800535, 0.6529284371270074);23.0332736969;0.764572229364;;;;;;;;;;;;;;0;31,73;0;0;0;0;0;0;0;();(-2000.0, -2000.0);
12:15:58:684;12:15:58:682;1448407917.24;(0.2958958148956299, 0.800272634294298);19.4120121002;0.635781350503;;;;;;;;;;;;;;0;31,73;0;0;0;0;0;0;0;();(-2000.0, -2000.0);
12:15:58:701;12:15:58:682;1448407917.24;(0.2958958148956299, 0.800272634294298);19.4120121002;0.635781350503;;;;;;;;;;;;;;0;31,73;0;0;0;0;0;0;0;();(-2000.0, -2000.0);
12:15:58:718;12:15:58:682;1448407917.24;(0.2958958148956299, 0.800272634294298);19.4120121002;0.635781350503;;;;;;;;;;;;;;0;31,73;0;0;0;0;0;0;0;();(-2000.0, -2000.0);
12:15:58:735;12:15:58:682;1448407917.24;(0.2958958148956299, 0.800272634294298);19.4120121002;0.635781350503;;;;;;;;;;;;;;0;31,73;0;0;0;0;0;0;0;();(-2000.0, -2000.0);
12:15:58:751;12:15:58:748;1448407917.3;(0, 0);0;0;;;;;;;;;;;;;;0;31,73;0;0;0;0;0;0;0;();(-2000.0, -2000.0);
12:15:58:785;12:15:58:748;1448407917.3;(0, 0);0;0;;;;;;;;;;;;;;0;31,73;0;0;0;0;0;0;0;();(-2000.0, -2000.0);
12:15:58:802;12:15:58:748;1448407917.3;(0, 0);0;0;;;;;;;;;;;;;;0;31,73;0;0;0;0;0;0;0;();(-2000.0, -2000.0);
12:15:58:818;12:15:58:816;1448407917.37;(0, 0);0;0;;;;;;;;;;;;;;0;31,73;0;0;0;0;0;0;0;();(-2000.0, -2000.0);
12:15:58:836;12:15:58:816;1448407917.37;(0, 0);0;0;;;;;;;;;;;;;;0;31,73;0;0;0;0;0;0;0;();(-2000.0, -2000.0);
12:15:58:852;12:15:58:816;1448407917.37;(0, 0);0;0;;;;;;;;;;;;;;0;31,73;0;0;0;0;0;0;0;();(-2000.0, -2000.0);
12:15:58:885;12:15:58:882;1448407917.4;(0.6231626510620117, 0.7885161293877496);81.8234939575;0.936474445178;;;;;;;;;;;;;;0;31,73;0;0;0;0;0;0;0;();(-2000.0, -2000.0);
12:15:58:902;12:15:58:885;1448407917.44;(0.6234113216400147, 0.7989782015482585);80.9770584106;0.753884053669;;;;;;;;;;;;;;0;31,73;0;0;0;0;0;0;0;();(-2000.0, -2000.0);
12:15:58:918;12:15:58:885;1448407917.44;(0.6234113216400147, 0.7989782015482585);80.9770584106;0.753884053669;;;;;;;;;;;;;;0;31,73;0;0;0;0;0;0;0;();(-2000.0, -2000.0);
12:15:58:935;12:15:58:885;1448407917.44;(0.6234113216400147, 0.7989782015482585);80.9770584106;0.753884053669;;;;;;;;;;;;;;0;31,73;0;0;0;0;0;0;0;();(-2000.0, -2000.0);
12:15:58:952;12:15:58:948;1448407917.5;(0, 0);0;0;;;;;;;;;;;;;;0;31,73;0;0;0;0;0;0;0;();(-2000.0, -2000.0);
12:15:58:985;12:15:58:948;1448407917.5;(0, 0);0;0;;;;;;;;;;;;;;0;31,73;0;0;0;0;0;0;0;();(-2000.0, -2000.0);
12:15:59:001;12:15:58:948;1448407917.5;(0, 0);0;0;;;;;;;;;;;;;;0;31,73;0;0;0;0;0;0;0;();(-2000.0, -2000.0);
12:15:59:018;12:15:59:015;1448407917.57;(0, 0);0;0;;;;;;;;;;;;;;0;31,73;0;0;0;0;0;0;0;();(-2000.0, -2000.0);
12:15:59:035;12:15:59:015;1448407917.57;(0, 0);0;0;;;;;;;;;;;;;;0;31,73;0;0;0;0;0;0;0;();(-2000.0, -2000.0);
12:15:59:052;12:15:59:015;1448407917.57;(0, 0);0;0;;;;;;;;;;;;;;0;31,73;0;0;0;0;0;0;0;();(-2000.0, -2000.0);
12:15:59:086;12:15:59:081;1448407917.64;(0, 0);0;0;;;;;;;;;;;;;;0;31,73;0;0;0;0;0;0;0;();(-2000.0, -2000.0);
12:15:59:101;12:15:59:081;1448407917.64;(0, 0);0;0;;;;;;;;;;;;;;0;31,73;0;0;0;0;0;0;0;();(-2000.0, -2000.0);
12:15:59:118;12:15:59:081;1448407917.64;(0, 0);0;0;;;;;;;;;;;;;;0;31,73;0;0;0;0;0;0;0;();(-2000.0, -2000.0);
12:15:59:135;12:15:59:081;1448407917.64;(0, 0);0;0;;;;;;;;;;;;;;0;31,73;0;0;0;0;0;0;0;();(-2000.0, -2000.0);
12:15:59:152;12:15:59:149;1448407917.74;(0.8995485305786133, 0.5184483422173394);27.83959198;0.601854792627;;;;;;;;;;;;;;0;31,73;0;0;0;0;0;0;0;();(-2000.0, -2000.0);
12:15:59:185;12:15:59:149;1448407917.74;(0.8995485305786133, 0.5184483422173394);27.83959198;0.601854792627;;;;;;;;;;;;;;0;31,73;0;0;0;0;0;0;0;();(-2000.0, -2000.0);
12:15:59:202;12:15:59:149;1448407917.74;(0.8995485305786133, 0.5184483422173394);27.83959198;0.601854792627;;;;;;;;;;;;;;0;31,73;0;0;0;0;0;0;0;();(-2000.0, -2000.0);
12:15:59:219;12:15:59:216;1448407917.8;(0.6237244129180908, 0.8198358429802789);81.7637939453;0.830457020913;;;;;;;;;;;;;;0;31,73;0;0;0;0;0;0;0;();(-2000.0, -2000.0);
12:15:59:236;12:15:59:216;1448407917.8;(0.6237244129180908, 0.8198358429802789);81.7637939453;0.830457020913;;;;;;;;;;;;;;0;31,73;0;0;0;0;0;0;0;();(-2000.0, -2000.0);
12:15:59:252;12:15:59:216;1448407917.8;(0.6237244129180908, 0.8198358429802789);81.7637939453;0.830457020913;;;;;;;;;;;;;;0;31,73;0;0;0;0;0;0;0;();(-2000.0, -2000.0);
12:15:59:285;12:15:59:278;1448407917.84;(0.6183309555053711, 0.8226019859313964);82.1600875854;0.834198192392;;;;;;;;;;;;;;0;31,73;0;0;0;0;0;0;0;();(-2000.0, -2000.0);
12:15:59:302;12:15:59:278;1448407917.84;(0.6183309555053711, 0.8226019859313964);82.1600875854;0.834198192392;;;;;;;;;;;;;;0;31,73;0;0;0;0;0;0;0;();(-2000.0, -2000.0);
12:15:59:319;12:15:59:278;1448407917.84;(0.6183309555053711, 0.8226019859313964);82.1600875854;0.834198192392;;;;;;;;;;;;;;0;31,73;0;0;0;0;0;0;0;();(-2000.0, -2000.0);
12:15:59:335;12:15:59:278;1448407917.84;(0.6183309555053711, 0.8226019859313964);82.1600875854;0.834198192392;;;;;;;;;;;;;;0;31,73;0;0;0;0;0;0;0;();(-2000.0, -2000.0);
12:15:59:352;12:15:59:350;1448407917.94;(0, 0);0;0;;;;;;;;;;;;;;0;31,73;0;0;0;0;0;0;0;();(-2000.0, -2000.0);
12:15:59:386;12:15:59:350;1448407917.94;(0, 0);0;0;;;;;;;;;;;;;;0;31,73;0;0;0;0;0;0;0;();(-2000.0, -2000.0);
12:15:59:403;12:15:59:350;1448407917.94;(0, 0);0;0;;;;;;;;;;;;;;0;31,73;0;0;0;0;0;0;0;();(-2000.0, -2000.0);
12:15:59:419;12:15:59:413;1448407918.0;(0, 0);0;0;;;;;;;;;;;;;;0;31,73;0;0;0;0;0;0;0;();(-2000.0, -2000.0);
12:15:59:435;12:15:59:413;1448407918.0;(0, 0);0;0;;;;;;;;;;;;;;0;31,73;0;0;0;0;0;0;0;();(-2000.0, -2000.0);
12:15:59:452;12:15:59:413;1448407918.0;(0, 0);0;0;;;;;;;;;;;;;;0;31,73;0;0;0;0;0;0;0;();(-2000.0, -2000.0);
12:15:59:486;12:15:59:479;1448407918.04;(0.5834688186645508, 0.5479741838243273);19.9532928467;0.806921055772;;;;;;;;;;;;;;0;31,73;0;0;0;0;0;0;0;();(-2000.0, -2000.0);
12:15:59:502;12:15:59:479;1448407918.04;(0.5834688186645508, 0.5479741838243273);19.9532928467;0.806921055772;;;;;;;;;;;;;;0;31,73;0;0;0;0;0;0;0;();(-2000.0, -2000.0);
12:15:59:519;12:15:59:479;1448407918.04;(0.5834688186645508, 0.5479741838243273);19.9532928467;0.806921055772;;;;;;;;;;;;;;0;31,73;0;0;0;0;0;0;0;();(-2000.0, -2000.0);
12:15:59:536;12:15:59:479;1448407918.04;(0.5834688186645508, 0.5479741838243273);19.9532928467;0.806921055772;;;;;;;;;;;;;;0;31,73;0;0;0;0;0;0;0;();(-2000.0, -2000.0);
12:15:59:552;12:15:59:479;1448407918.04;(0.5834688186645508, 0.5479741838243273);19.9532928467;0.806921055772;;;;;;;;;;;;;;0;31,73;0;0;0;0;0;0;0;();(-2000.0, -2000.0);
12:15:59:586;12:15:59:557;1448407918.1;(0, 0);0;0;;;;;;;;;;;;;;0;31,73;0;0;0;0;0;0;0;();(-2000.0, -2000.0);
12:15:59:602;12:15:59:557;1448407918.1;(0, 0);0;0;;;;;;;;;;;;;;0;31,73;0;0;0;0;0;0;0;();(-2000.0, -2000.0);
12:15:59:619;12:15:59:610;1448407918.14;(0.6642585754394531, 0.6365915298461914);87.3850097656;0.665481077777;;;;;;;;;;;;;;0;31,73;0;0;0;0;0;0;0;();(-2000.0, -2000.0);
12:15:59:636;12:15:59:610;1448407918.14;(0.6642585754394531, 0.6365915298461914);87.3850097656;0.665481077777;;;;;;;;;;;;;;0;31,73;0;0;0;0;0;0;0;();(-2000.0, -2000.0);
12:15:59:653;12:15:59:610;1448407918.14;(0.6642585754394531, 0.6365915298461914);87.3850097656;0.665481077777;;;;;;;;;;;;;;0;31,73;0;0;0;0;0;0;0;();(-2000.0, -2000.0);
12:15:59:686;12:15:59:678;1448407918.18;(0.8528025627136231, 0.6814208136664497);20.8797550201;0.844162689483;;;;;;;;;;;;;;0;31,73;0;0;0;0;0;0;0;();(-2000.0, -2000.0);
12:15:59:702;12:15:59:678;1448407918.18;(0.8528025627136231, 0.6814208136664497);20.8797550201;0.844162689483;;;;;;;;;;;;;;0;31,73;0;0;0;0;0;0;0;();(-2000.0, -2000.0);
12:15:59:719;12:15:59:678;1448407918.18;(0.8528025627136231, 0.6814208136664497);20.8797550201;0.844162689483;;;;;;;;;;;;;;0;31,73;0;0;0;0;0;0;0;();(-2000.0, -2000.0);
12:15:59:736;12:15:59:678;1448407918.18;(0.8528025627136231, 0.6814208136664497);20.8797550201;0.844162689483;;;;;;;;;;;;;;0;31,73;0;0;0;0;0;0;0;();(-2000.0, -2000.0);
12:15:59:752;12:15:59:743;1448407918.29;(0.8564848899841309, 0.7241585201687283);34.4468765259;0.622696533044;;;;;;;;;;;;;;0;31,73;0;0;0;0;0;0;0;();(-2000.0, -2000.0);
12:15:59:786;12:15:59:743;1448407918.29;(0.8564848899841309, 0.7241585201687283);34.4468765259;0.622696533044;;;;;;;;;;;;;;0;31,73;0;0;0;0;0;0;0;();(-2000.0, -2000.0);
12:15:59:802;12:15:59:743;1448407918.29;(0.8564848899841309, 0.7241585201687283);34.4468765259;0.622696533044;;;;;;;;;;;;;;0;31,73;0;0;0;0;0;0;0;();(-2000.0, -2000.0);
12:15:59:819;12:15:59:810;1448407918.34;(0.66011061668396, 0.6412884606255425);80.6206283569;0.705245742248;;;;;;;;;;;;;;0;31,73;0;0;0;0;0;0;0;();(-2000.0, -2000.0);
12:15:59:836;12:15:59:810;1448407918.34;(0.66011061668396, 0.6412884606255425);80.6206283569;0.705245742248;;;;;;;;;;;;;;0;31,73;0;0;0;0;0;0;0;();(-2000.0, -2000.0);
12:15:59:853;12:15:59:810;1448407918.34;(0.66011061668396, 0.6412884606255425);80.6206283569;0.705245742248;;;;;;;;;;;;;;0;31,73;0;0;0;0;0;0;0;();(-2000.0, -2000.0);
12:15:59:886;12:15:59:879;1448407918.37;(0.6609928131103515, 0.6468989478217231);81.3737869263;0.741639936108;;;;;;;;;;;;;;0;31,73;0;0;0;0;0;0;0;();(-2000.0, -2000.0);
12:15:59:902;12:15:59:879;1448407918.37;(0.6609928131103515, 0.6468989478217231);81.3737869263;0.741639936108;;;;;;;;;;;;;;0;31,73;0;0;0;0;0;0;0;();(-2000.0, -2000.0);
12:15:59:919;12:15:59:879;1448407918.37;(0.6609928131103515, 0.6468989478217231);81.3737869263;0.741639936108;;;;;;;;;;;;;;0;31,73;0;0;0;0;0;0;0;();(-2000.0, -2000.0);
12:15:59:936;12:15:59:879;1448407918.37;(0.6609928131103515, 0.6468989478217231);81.3737869263;0.741639936108;;;;;;;;;;;;;;0;31,73;0;0;0;0;0;0;0;();(-2000.0, -2000.0);
12:15:59:952;12:15:59:943;1448407918.49;(0.6621729850769043, 0.6485498640272352);82.0611724854;0.818239727427;;;;;;;;;;;;;;0;31,73;0;0;0;0;0;0;0;();(-2000.0, -2000.0);
12:15:59:986;12:15:59:943;1448407918.49;(0.6621729850769043, 0.6485498640272352);82.0611724854;0.818239727427;;;;;;;;;;;;;;0;31,73;0;0;0;0;0;0;0;();(-2000.0, -2000.0);
12:16:00:003;12:15:59:943;1448407918.49;(0.6621729850769043, 0.6485498640272352);82.0611724854;0.818239727427;;;;;;;;;;;;;;0;31,73;0;0;0;0;0;0;0;();(-2000.0, -2000.0);
12:16:00:019;12:16:00:010;1448407918.5;(0.6651056289672852, 0.6440867741902669);83.0690307617;0.659872545454;;;;;;;;;;;;;;0;31,73;0;0;0;0;0;0;0;();(-2000.0, -2000.0);
12:16:00:036;12:16:00:010;1448407918.5;(0.6651056289672852, 0.6440867741902669);83.0690307617;0.659872545454;;;;;;;;;;;;;;0;31,73;0;0;0;0;0;0;0;();(-2000.0, -2000.0);
12:16:00:052;12:16:00:010;1448407918.5;(0.6651056289672852, 0.6440867741902669);83.0690307617;0.659872545454;;;;;;;;;;;;;;0;31,73;0;0;0;0;0;0;0;();(-2000.0, -2000.0);
12:16:00:086;12:16:00:075;1448407918.62;(0, 0);0;0;;;;;;;;;;;;;;0;31,73;0;0;0;0;0;0;0;();(-2000.0, -2000.0);
12:16:00:102;12:16:00:075;1448407918.62;(0, 0);0;0;;;;;;;;;;;;;;0;31,73;0;0;0;0;0;0;0;();(-2000.0, -2000.0);
12:16:00:120;12:16:00:075;1448407918.62;(0, 0);0;0;;;;;;;;;;;;;;0;31,73;0;0;0;0;0;0;0;();(-2000.0, -2000.0);
12:16:00:136;12:16:00:075;1448407918.62;(0, 0);0;0;;;;;;;;;;;;;;0;31,73;0;0;0;0;0;0;0;();(-2000.0, -2000.0);
12:16:00:152;12:16:00:142;1448407918.64;(0.6642704010009766, 0.6389074113633897);82.6671295166;0.882182674109;;;;;;;;;;;;;;0;31,73;0;0;0;0;0;0;0;();(-2000.0, -2000.0);
12:16:00:186;12:16:00:142;1448407918.64;(0.6642704010009766, 0.6389074113633897);82.6671295166;0.882182674109;;;;;;;;;;;;;;0;31,73;0;0;0;0;0;0;0;();(-2000.0, -2000.0);
12:16:00:203;12:16:00:142;1448407918.64;(0.6642704010009766, 0.6389074113633897);82.6671295166;0.882182674109;;;;;;;;;;;;;;0;31,73;0;0;0;0;0;0;0;();(-2000.0, -2000.0);
12:16:00:219;12:16:00:210;1448407918.71;(0.6626818656921387, 0.6416853586832683);83.1885681152;0.887659046646;;;;;;;;;;;;;;0;31,73;0;0;0;0;0;0;0;();(-2000.0, -2000.0);
12:16:00:236;12:16:00:210;1448407918.71;(0.6626818656921387, 0.6416853586832683);83.1885681152;0.887659046646;;;;;;;;;;;;;;0;31,73;0;0;0;0;0;0;0;();(-2000.0, -2000.0);
12:16:00:253;12:16:00:210;1448407918.71;(0.6626818656921387, 0.6416853586832683);83.1885681152;0.887659046646;;;;;;;;;;;;;;0;31,73;0;0;0;0;0;0;0;();(-2000.0, -2000.0);
12:16:00:286;12:16:00:274;1448407918.78;(0.6616117477416992, 0.6442072550455729);84.4105911255;0.778791885067;;;;;;;;;;;;;;0;31,73;0;0;0;0;0;0;0;();(-2000.0, -2000.0);
12:16:00:303;12:16:00:274;1448407918.78;(0.6616117477416992, 0.6442072550455729);84.4105911255;0.778791885067;;;;;;;;;;;;;;0;31,73;0;0;0;0;0;0;0;();(-2000.0, -2000.0);
12:16:00:320;12:16:00:274;1448407918.78;(0.6616117477416992, 0.6442072550455729);84.4105911255;0.778791885067;;;;;;;;;;;;;;0;31,73;0;0;0;0;0;0;0;();(-2000.0, -2000.0);
12:16:00:336;12:16:00:274;1448407918.78;(0.6616117477416992, 0.6442072550455729);84.4105911255;0.778791885067;;;;;;;;;;;;;;0;31,73;0;0;0;0;0;0;0;();(-2000.0, -2000.0);
12:16:00:353;12:16:00:344;1448407918.88;(0.6597474575042724, 0.6459355036417643);87.3585281372;0.799077950024;;;;;;;;;;;;;;0;31,73;0;0;0;0;0;0;0;();(-2000.0, -2000.0);
12:16:00:387;12:16:00:344;1448407918.88;(0.6597474575042724, 0.6459355036417643);87.3585281372;0.799077950024;;;;;;;;;;;;;;0;31,73;0;0;0;0;0;0;0;();(-2000.0, -2000.0);
12:16:00:403;12:16:00:344;1448407918.88;(0.6597474575042724, 0.6459355036417643);87.3585281372;0.799077950024;;;;;;;;;;;;;;0;31,73;0;0;0;0;0;0;0;();(-2000.0, -2000.0);
12:16:00:420;12:16:00:407;1448407918.93;(0, 0);0;0;;;;;;;;;;;;;;0;31,73;0;0;0;0;0;0;0;();(-2000.0, -2000.0);
12:16:00:436;12:16:00:407;1448407918.93;(0, 0);0;0;;;;;;;;;;;;;;0;31,73;0;0;0;0;0;0;0;();(-2000.0, -2000.0);
12:16:00:453;12:16:00:407;1448407918.93;(0, 0);0;0;;;;;;;;;;;;;;0;31,73;0;0;0;0;0;0;0;();(-2000.0, -2000.0);
12:16:00:486;12:16:00:474;1448407918.95;(0.6736918926239014, 0.6450623406304253);83.315788269;0.906592458564;;;;;;;;;;;;;;0;31,73;0;0;0;0;0;0;0;();(-2000.0, -2000.0);
12:16:00:503;12:16:00:474;1448407918.95;(0.6736918926239014, 0.6450623406304253);83.315788269;0.906592458564;;;;;;;;;;;;;;0;31,73;0;0;0;0;0;0;0;();(-2000.0, -2000.0);
12:16:00:520;12:16:00:474;1448407918.95;(0.6736918926239014, 0.6450623406304253);83.315788269;0.906592458564;;;;;;;;;;;;;;0;31,73;0;0;0;0;0;0;0;();(-2000.0, -2000.0);
12:16:00:537;12:16:00:474;1448407918.95;(0.6736918926239014, 0.6450623406304253);83.315788269;0.906592458564;;;;;;;;;;;;;;0;31,73;0;0;0;0;0;0;0;();(-2000.0, -2000.0);
12:16:00:553;12:16:00:542;1448407919.02;(0.43217954635620115, 0.7421617719862197);26.1771907806;0.731920586289;;;;;;;;;;;;;;0;31,73;0;0;0;0;0;0;0;();(-2000.0, -2000.0);
12:16:00:586;12:16:00:542;1448407919.02;(0.43217954635620115, 0.7421617719862197);26.1771907806;0.731920586289;;;;;;;;;;;;;;0;31,73;0;0;0;0;0;0;0;();(-2000.0, -2000.0);
12:16:00:603;12:16:00:542;1448407919.02;(0.43217954635620115, 0.7421617719862197);26.1771907806;0.731920586289;;;;;;;;;;;;;;0;31,73;0;0;0;0;0;0;0;();(-2000.0, -2000.0);
12:16:00:620;12:16:00:542;1448407919.02;(0.43217954635620115, 0.7421617719862197);26.1771907806;0.731920586289;;;;;;;;;;;;;;0;31,73;0;0;0;0;0;0;0;();(-2000.0, -2000.0);
12:16:00:637;12:16:00:622;1448407919.08;(0.6685303688049317, 0.647284656100803);84.4699401855;0.792658157711;;;;;;;;;;;;;;0;31,73;0;0;0;0;0;0;0;();(-2000.0, -2000.0);
12:16:00:653;12:16:00:622;1448407919.08;(0.6685303688049317, 0.647284656100803);84.4699401855;0.792658157711;;;;;;;;;;;;;;0;31,73;0;0;0;0;0;0;0;();(-2000.0, -2000.0);
12:16:00:686;12:16:00:675;1448407919.22;(0.6950887203216553, 0.6313869900173611);81.7804641724;0.60815003235;;;;;;;;;;;;;;0;31,73;0;0;0;0;0;0;0;();(-2000.0, -2000.0);
12:16:00:703;12:16:00:675;1448407919.22;(0.6950887203216553, 0.6313869900173611);81.7804641724;0.60815003235;;;;;;;;;;;;;;0;31,73;0;0;0;0;0;0;0;();(-2000.0, -2000.0);
12:16:00:720;12:16:00:675;1448407919.22;(0.6950887203216553, 0.6313869900173611);81.7804641724;0.60815003235;;;;;;;;;;;;;;0;31,73;0;0;0;0;0;0;0;();(-2000.0, -2000.0);
12:16:00:737;12:16:00:675;1448407919.22;(0.6950887203216553, 0.6313869900173611);81.7804641724;0.60815003235;;;;;;;;;;;;;;0;31,73;0;0;0;0;0;0;0;();(-2000.0, -2000.0);
12:16:00:754;12:16:00:675;1448407919.22;(0.6950887203216553, 0.6313869900173611);81.7804641724;0.60815003235;;;;;;;;;;;;;;0;31,73;0;0;0;0;0;0;0;();(-2000.0, -2000.0);
12:16:00:787;12:16:00:675;1448407919.22;(0.6950887203216553, 0.6313869900173611);81.7804641724;0.60815003235;;;;;;;;;;;;;;0;31,73;0;0;0;0;0;0;0;();(-2000.0, -2000.0);
12:16:00:804;12:16:00:675;1448407919.22;(0.6950887203216553, 0.6313869900173611);81.7804641724;0.60815003235;;;;;;;;;;;;;;0;31,73;0;0;0;0;0;0;0;();(-2000.0, -2000.0);
12:16:00:820;12:16:00:807;1448407919.27;(0.688127851486206, 0.6410381105211046);83.6029052734;0.836828472814;;;;;;;;;;;;;;0;31,73;0;0;0;0;0;0;0;();(-2000.0, -2000.0);
12:16:00:837;12:16:00:807;1448407919.27;(0.688127851486206, 0.6410381105211046);83.6029052734;0.836828472814;;;;;;;;;;;;;;0;31,73;0;0;0;0;0;0;0;();(-2000.0, -2000.0);
12:16:00:853;12:16:00:807;1448407919.27;(0.688127851486206, 0.6410381105211046);83.6029052734;0.836828472814;;;;;;;;;;;;;;0;31,73;0;0;0;0;0;0;0;();(-2000.0, -2000.0);
12:16:00:887;12:16:00:871;1448407919.36;(0.6819297313690186, 0.6493603388468425);85.0587692261;0.849059508778;;;;;;;;;;;;;;0;31,73;0;0;0;0;0;0;0;();(-2000.0, -2000.0);
12:16:00:904;12:16:00:871;1448407919.36;(0.6819297313690186, 0.6493603388468425);85.0587692261;0.849059508778;;;;;;;;;;;;;;0;31,73;0;0;0;0;0;0;0;();(-2000.0, -2000.0);
12:16:00:920;12:16:00:871;1448407919.36;(0.6819297313690186, 0.6493603388468425);85.0587692261;0.849059508778;;;;;;;;;;;;;;0;31,73;0;0;0;0;0;0;0;();(-2000.0, -2000.0);
12:16:00:937;12:16:00:871;1448407919.36;(0.6819297313690186, 0.6493603388468425);85.0587692261;0.849059508778;;;;;;;;;;;;;;0;31,73;0;0;0;0;0;0;0;();(-2000.0, -2000.0);
12:16:00:953;12:16:00:939;1448407919.42;(0.6804713249206543, 0.6497029834323459);85.7018508911;0.792171479868;;;;;;;;;;;;;;0;31,73;0;0;0;0;0;0;0;();(-2000.0, -2000.0);
12:16:00:987;12:16:00:939;1448407919.42;(0.6804713249206543, 0.6497029834323459);85.7018508911;0.792171479868;;;;;;;;;;;;;;0;31,73;0;0;0;0;0;0;0;();(-2000.0, -2000.0);
12:16:01:003;12:16:00:939;1448407919.42;(0.6804713249206543, 0.6497029834323459);85.7018508911;0.792171479868;;;;;;;;;;;;;;0;31,73;0;0;0;0;0;0;0;();(-2000.0, -2000.0);
12:16:01:021;12:16:01:008;1448407919.5;(0.6804128170013428, 0.6496156692504883);85.9944610596;0.826343305269;;;;;;;;;;;;;;0;31,73;0;0;0;0;0;0;0;();(-2000.0, -2000.0);
12:16:01:037;12:16:01:008;1448407919.5;(0.6804128170013428, 0.6496156692504883);85.9944610596;0.826343305269;;;;;;;;;;;;;;0;31,73;0;0;0;0;0;0;0;();(-2000.0, -2000.0);
12:16:01:054;12:16:01:008;1448407919.5;(0.6804128170013428, 0.6496156692504883);85.9944610596;0.826343305269;;;;;;;;;;;;;;0;31,73;0;0;0;0;0;0;0;();(-2000.0, -2000.0);
12:16:01:087;12:16:01:071;1448407919.57;(0.6602166652679443, 0.6611018922593859);87.3044052124;0.770708406577;;;;;;;;;;;;;;0;31,73;0;0;0;0;0;0;0;();(-2000.0, -2000.0);
12:16:01:104;12:16:01:071;1448407919.57;(0.6602166652679443, 0.6611018922593859);87.3044052124;0.770708406577;;;;;;;;;;;;;;0;31,73;0;0;0;0;0;0;0;();(-2000.0, -2000.0);
12:16:01:121;12:16:01:071;1448407919.57;(0.6602166652679443, 0.6611018922593859);87.3044052124;0.770708406577;;;;;;;;;;;;;;0;31,73;0;0;0;0;0;0;0;();(-2000.0, -2000.0);
12:16:01:137;12:16:01:071;1448407919.57;(0.6602166652679443, 0.6611018922593859);87.3044052124;0.770708406577;;;;;;;;;;;;;;0;31,73;0;0;0;0;0;0;0;();(-2000.0, -2000.0);
12:16:01:154;12:16:01:141;1448407919.62;(0.6593672752380371, 0.6591233783298068);85.7214813232;0.902121704991;;;;;;;;;;;;;;0;31,73;0;0;0;0;0;0;0;();(-2000.0, -2000.0);
12:16:01:187;12:16:01:141;1448407919.62;(0.6593672752380371, 0.6591233783298068);85.7214813232;0.902121704991;;;;;;;;;;;;;;0;31,73;0;0;0;0;0;0;0;();(-2000.0, -2000.0);
12:16:01:204;12:16:01:141;1448407919.62;(0.6593672752380371, 0.6591233783298068);85.7214813232;0.902121704991;;;;;;;;;;;;;;0;31,73;0;0;0;0;0;0;0;();(-2000.0, -2000.0);
12:16:01:220;12:16:01:141;1448407919.62;(0.6593672752380371, 0.6591233783298068);85.7214813232;0.902121704991;;;;;;;;;;;;;;0;31,73;0;0;0;0;0;0;0;();(-2000.0, -2000.0);
12:16:01:237;12:16:01:141;1448407919.62;(0.6593672752380371, 0.6591233783298068);85.7214813232;0.902121704991;;;;;;;;;;;;;;0;31,73;0;0;0;0;0;0;0;();(-2000.0, -2000.0);
12:16:01:254;12:16:01:141;1448407919.62;(0.6593672752380371, 0.6591233783298068);85.7214813232;0.902121704991;;;;;;;;;;;;;;0;31,73;0;0;0;0;0;0;0;();(-2000.0, -2000.0);
12:16:01:287;12:16:01:277;1448407919.84;(0.666148042678833, 0.652079709370931);87.3553466797;1.0;;;;;;;;;;;;;;0;31,73;0;0;0;0;0;0;0;();(-2000.0, -2000.0);
12:16:01:303;12:16:01:277;1448407919.84;(0.666148042678833, 0.652079709370931);87.3553466797;1.0;;;;;;;;;;;;;;0;31,73;0;0;0;0;0;0;0;();(-2000.0, -2000.0);
12:16:01:321;12:16:01:277;1448407919.84;(0.666148042678833, 0.652079709370931);87.3553466797;1.0;;;;;;;;;;;;;;0;31,73;0;0;0;0;0;0;0;();(-2000.0, -2000.0);
12:16:01:337;12:16:01:277;1448407919.84;(0.666148042678833, 0.652079709370931);87.3553466797;1.0;;;;;;;;;;;;;;0;31,73;0;0;0;0;0;0;0;();(-2000.0, -2000.0);
12:16:01:353;12:16:01:342;1448407919.9;(0.660209321975708, 0.6530112160576714);86.5788574219;0.987967179629;;;;;;;;;;;;;;0;31,73;0;0;0;0;0;0;0;();(-2000.0, -2000.0);
12:16:01:387;12:16:01:342;1448407919.9;(0.660209321975708, 0.6530112160576714);86.5788574219;0.987967179629;;;;;;;;;;;;;;0;31,73;0;0;0;0;0;0;0;();(-2000.0, -2000.0);
12:16:01:404;12:16:01:342;1448407919.9;(0.660209321975708, 0.6530112160576714);86.5788574219;0.987967179629;;;;;;;;;;;;;;0;31,73;0;0;0;0;0;0;0;();(-2000.0, -2000.0);
12:16:01:420;12:16:01:404;1448407919.97;(0.6587987422943116, 0.6534894519382053);87.1437683105;1.0;;;;;;;;;;;;;;0;31,73;0;0;0;0;0;0;0;();(-2000.0, -2000.0);
12:16:01:437;12:16:01:404;1448407919.97;(0.6587987422943116, 0.6534894519382053);87.1437683105;1.0;;;;;;;;;;;;;;0;31,73;0;0;0;0;0;0;0;();(-2000.0, -2000.0);
12:16:01:454;12:16:01:404;1448407919.97;(0.6587987422943116, 0.6534894519382053);87.1437683105;1.0;;;;;;;;;;;;;;0;31,73;0;0;0;0;0;0;0;();(-2000.0, -2000.0);
12:16:01:488;12:16:01:471;1448407920.0;(0.6585685253143311, 0.6535449769761827);87.2671356201;1.0;;;;;;;;;;;;;;0;31,73;0;0;0;0;0;0;0;();(-2000.0, -2000.0);
12:16:01:504;12:16:01:471;1448407920.0;(0.6585685253143311, 0.6535449769761827);87.2671356201;1.0;;;;;;;;;;;;;;0;31,73;0;0;0;0;0;0;0;();(-2000.0, -2000.0);
12:16:01:521;12:16:01:471;1448407920.0;(0.6585685253143311, 0.6535449769761827);87.2671356201;1.0;;;;;;;;;;;;;;0;31,73;0;0;0;0;0;0;0;();(-2000.0, -2000.0);
12:16:01:538;12:16:01:471;1448407920.0;(0.6585685253143311, 0.6535449769761827);87.2671356201;1.0;;;;;;;;;;;;;;0;31,73;0;0;0;0;0;0;0;();(-2000.0, -2000.0);
12:16:01:554;12:16:01:543;1448407920.1;(0.9083407402038575, 0.6411980311075847);30.2658309937;0.613702498179;;;;;;;;;;;;;;0;31,73;0;0;0;0;0;0;0;();(-2000.0, -2000.0);
12:16:01:571;12:16:01:543;1448407920.1;(0.9083407402038575, 0.6411980311075847);30.2658309937;0.613702498179;;;;;;;;;;;;;;0;31,73;0;0;0;0;0;0;0;();(-2000.0, -2000.0);
12:16:01:604;12:16:01:603;1448407920.12;(0.6886863708496094, 0.6451427671644423);87.2853775024;0.893777003766;;;;;;;;;;;;;;0;31,73;0;0;0;0;0;0;0;();(-2000.0, -2000.0);
12:16:01:621;12:16:01:603;1448407920.12;(0.6886863708496094, 0.6451427671644423);87.2853775024;0.893777003766;;;;;;;;;;;;;;0;31,73;0;0;0;0;0;0;0;();(-2000.0, -2000.0);
12:16:01:638;12:16:01:603;1448407920.12;(0.6886863708496094, 0.6451427671644423);87.2853775024;0.893777003766;;;;;;;;;;;;;;0;31,73;0;0;0;0;0;0;0;();(-2000.0, -2000.0);
12:16:01:654;12:16:01:603;1448407920.12;(0.6886863708496094, 0.6451427671644423);87.2853775024;0.893777003766;;;;;;;;;;;;;;0;31,73;0;0;0;0;0;0;0;();(-2000.0, -2000.0);
12:16:01:688;12:16:01:673;1448407920.24;(0.6865511417388916, 0.6420819812350803);87.6418380737;0.876111216712;;;;;;;;;;;;;;0;31,73;0;0;0;0;0;0;0;();(-2000.0, -2000.0);
12:16:01:704;12:16:01:673;1448407920.24;(0.6865511417388916, 0.6420819812350803);87.6418380737;0.876111216712;;;;;;;;;;;;;;0;31,73;0;0;0;0;0;0;0;();(-2000.0, -2000.0);
12:16:01:721;12:16:01:673;1448407920.24;(0.6865511417388916, 0.6420819812350803);87.6418380737;0.876111216712;;;;;;;;;;;;;;0;31,73;0;0;0;0;0;0;0;();(-2000.0, -2000.0);
12:16:01:738;12:16:01:673;1448407920.24;(0.6865511417388916, 0.6420819812350803);87.6418380737;0.876111216712;;;;;;;;;;;;;;0;31,73;0;0;0;0;0;0;0;();(-2000.0, -2000.0);
12:16:01:754;12:16:01:673;1448407920.24;(0.6865511417388916, 0.6420819812350803);87.6418380737;0.876111216712;;;;;;;;;;;;;;0;31,73;0;0;0;0;0;0;0;();(-2000.0, -2000.0);
12:16:01:787;12:16:01:673;1448407920.24;(0.6865511417388916, 0.6420819812350803);87.6418380737;0.876111216712;;;;;;;;;;;;;;0;31,73;0;0;0;0;0;0;0;();(-2000.0, -2000.0);
12:16:01:804;12:16:01:802;1448407920.27;(0.6867362499237061, 0.6386793560451931);89.9996490479;0.910333284048;;;;;;;;;;;;;;0;31,73;0;0;0;0;0;0;0;();(-2000.0, -2000.0);
12:16:01:821;12:16:01:804;1448407920.38;(0.8198764801025391, 0.5518033345540365);19.3234195709;0.833919533942;;;;;;;;;;;;;;0;31,73;0;0;0;0;0;0;0;();(-2000.0, -2000.0);
12:16:01:837;12:16:01:804;1448407920.38;(0.8198764801025391, 0.5518033345540365);19.3234195709;0.833919533942;;;;;;;;;;;;;;0;31,73;0;0;0;0;0;0;0;();(-2000.0, -2000.0);
12:16:01:854;12:16:01:804;1448407920.38;(0.8198764801025391, 0.5518033345540365);19.3234195709;0.833919533942;;;;;;;;;;;;;;0;31,73;0;0;0;0;0;0;0;();(-2000.0, -2000.0);
12:16:01:888;12:16:01:870;1448407920.44;(0.6298107147216797, 0.8436707920498319);86.5289001465;0.638882888808;;;;;;;;;;;;;;0;31,73;0;0;0;0;0;0;0;();(-2000.0, -2000.0);
12:16:01:904;12:16:01:870;1448407920.44;(0.6298107147216797, 0.8436707920498319);86.5289001465;0.638882888808;;;;;;;;;;;;;;0;31,73;0;0;0;0;0;0;0;();(-2000.0, -2000.0);
12:16:01:921;12:16:01:870;1448407920.44;(0.6298107147216797, 0.8436707920498319);86.5289001465;0.638882888808;;;;;;;;;;;;;;0;31,73;0;0;0;0;0;0;0;();(-2000.0, -2000.0);
12:16:01:937;12:16:01:935;1448407920.5;(0.6303236961364747, 0.8192378891838922);88.1859054565;0.706100369207;;;;;;;;;;;;;;0;31,73;0;0;0;0;0;0;0;();(-2000.0, -2000.0);
12:16:01:954;12:16:01:935;1448407920.5;(0.6303236961364747, 0.8192378891838922);88.1859054565;0.706100369207;;;;;;;;;;;;;;0;31,73;0;0;0;0;0;0;0;();(-2000.0, -2000.0);
12:16:01:988;12:16:01:935;1448407920.5;(0.6303236961364747, 0.8192378891838922);88.1859054565;0.706100369207;;;;;;;;;;;;;;0;31,73;0;0;0;0;0;0;0;();(-2000.0, -2000.0);
12:16:02:004;12:16:02:002;1448407920.54;(0.9000259399414062, 0.5109029134114583);22.7084712982;0.723311563458;;;;;;;;;;;;;;0;31,73;0;0;0;0;0;0;0;();(-2000.0, -2000.0);
12:16:02:021;12:16:02:004;1448407920.57;(0.6400986194610596, 0.8102977540757921);89.8414077759;0.687943763525;;;;;;;;;;;;;;0;31,73;0;0;0;0;0;0;0;();(-2000.0, -2000.0);
12:16:02:037;12:16:02:004;1448407920.57;(0.6400986194610596, 0.8102977540757921);89.8414077759;0.687943763525;;;;;;;;;;;;;;0;31,73;0;0;0;0;0;0;0;();(-2000.0, -2000.0);
12:16:02:054;12:16:02:004;1448407920.57;(0.6400986194610596, 0.8102977540757921);89.8414077759;0.687943763525;;;;;;;;;;;;;;0;31,73;0;0;0;0;0;0;0;();(-2000.0, -2000.0);
12:16:02:071;12:16:02:068;1448407920.64;(0, 0);0;0;;;;;;;;;;;;;;0;31,73;0;0;0;0;0;0;0;();(-2000.0, -2000.0);
12:16:02:104;12:16:02:068;1448407920.64;(0, 0);0;0;;;;;;;;;;;;;;0;31,73;0;0;0;0;0;0;0;();(-2000.0, -2000.0);
12:16:02:122;12:16:02:068;1448407920.64;(0, 0);0;0;;;;;;;;;;;;;;0;31,73;0;0;0;0;0;0;0;();(-2000.0, -2000.0);
12:16:02:138;12:16:02:136;1448407920.7;(0.3053609848022461, 0.8623554759555393);19.5565490723;0.723822105476;;;;;;;;;;;;;;0;31,73;0;0;0;0;0;0;0;();(-2000.0, -2000.0);
12:16:02:155;12:16:02:136;1448407920.7;(0.3053609848022461, 0.8623554759555393);19.5565490723;0.723822105476;;;;;;;;;;;;;;0;31,73;0;0;0;0;0;0;0;();(-2000.0, -2000.0);
12:16:02:171;12:16:02:136;1448407920.7;(0.3053609848022461, 0.8623554759555393);19.5565490723;0.723822105476;;;;;;;;;;;;;;0;31,73;0;0;0;0;0;0;0;();(-2000.0, -2000.0);
12:16:02:205;12:16:02:199;1448407920.77;(0.6386146068572998, 0.8005188835991753);88.3686218262;0.673377515208;;;;;;;;;;;;;;0;31,73;0;0;0;0;0;0;0;();(-2000.0, -2000.0);
12:16:02:222;12:16:02:199;1448407920.77;(0.6386146068572998, 0.8005188835991753);88.3686218262;0.673377515208;;;;;;;;;;;;;;0;31,73;0;0;0;0;0;0;0;();(-2000.0, -2000.0);
12:16:02:238;12:16:02:199;1448407920.77;(0.6386146068572998, 0.8005188835991753);88.3686218262;0.673377515208;;;;;;;;;;;;;;0;31,73;0;0;0;0;0;0;0;();(-2000.0, -2000.0);
12:16:02:254;12:16:02:199;1448407920.77;(0.6386146068572998, 0.8005188835991753);88.3686218262;0.673377515208;;;;;;;;;;;;;;0;31,73;0;0;0;0;0;0;0;();(-2000.0, -2000.0);
12:16:02:272;12:16:02:268;1448407920.84;(0.8929259300231933, 0.518588383992513);34.1568107605;0.630123254052;;;;;;;;;;;;;;0;31,73;0;0;0;0;0;0;0;();(-2000.0, -2000.0);
12:16:02:305;12:16:02:268;1448407920.84;(0.8929259300231933, 0.518588383992513);34.1568107605;0.630123254052;;;;;;;;;;;;;;0;31,73;0;0;0;0;0;0;0;();(-2000.0, -2000.0);
12:16:02:321;12:16:02:268;1448407920.84;(0.8929259300231933, 0.518588383992513);34.1568107605;0.630123254052;;;;;;;;;;;;;;0;31,73;0;0;0;0;0;0;0;();(-2000.0, -2000.0);
12:16:02:338;12:16:02:268;1448407920.84;(0.8929259300231933, 0.518588383992513);34.1568107605;0.630123254052;;;;;;;;;;;;;;0;31,73;0;0;0;0;0;0;0;();(-2000.0, -2000.0);
12:16:02:355;12:16:02:343;1448407920.9;(0, 0);0;0;;;;;;;;;;;;;;0;31,73;0;0;0;0;0;0;0;();(-2000.0, -2000.0);
12:16:02:371;12:16:02:343;1448407920.9;(0, 0);0;0;;;;;;;;;;;;;;0;31,73;0;0;0;0;0;0;0;();(-2000.0, -2000.0);
12:16:02:405;12:16:02:399;1448407920.97;(0, 0);0;0;;;;;;;;;;;;;;0;31,73;0;0;0;0;0;0;0;();(-2000.0, -2000.0);
12:16:02:421;12:16:02:399;1448407920.97;(0, 0);0;0;;;;;;;;;;;;;;0;31,73;0;0;0;0;0;0;0;();(-2000.0, -2000.0);
12:16:02:438;12:16:02:399;1448407920.97;(0, 0);0;0;;;;;;;;;;;;;;0;31,73;0;0;0;0;0;0;0;();(-2000.0, -2000.0);
12:16:02:455;12:16:02:399;1448407920.97;(0, 0);0;0;;;;;;;;;;;;;;0;31,73;0;0;0;0;0;0;0;();(-2000.0, -2000.0);
12:16:02:472;12:16:02:468;1448407921.04;(0.6361811637878418, 0.7905224270290798);83.3640899658;0.82110407836;;;;;;;;;;;;;;0;31,73;0;0;0;0;0;0;0;();(-2000.0, -2000.0);
12:16:02:505;12:16:02:468;1448407921.04;(0.6361811637878418, 0.7905224270290798);83.3640899658;0.82110407836;;;;;;;;;;;;;;0;31,73;0;0;0;0;0;0;0;();(-2000.0, -2000.0);
12:16:02:521;12:16:02:468;1448407921.04;(0.6361811637878418, 0.7905224270290798);83.3640899658;0.82110407836;;;;;;;;;;;;;;0;31,73;0;0;0;0;0;0;0;();(-2000.0, -2000.0);
12:16:02:538;12:16:02:532;1448407921.1;(0.6362873554229737, 0.7908202913072374);84.0791931152;0.801475318894;;;;;;;;;;;;;;0;31,73;0;0;0;0;0;0;0;();(-2000.0, -2000.0);
12:16:02:556;12:16:02:532;1448407921.1;(0.6362873554229737, 0.7908202913072374);84.0791931152;0.801475318894;;;;;;;;;;;;;;0;31,73,42,33;0;0;0;0;0;0;0;();(-2000.0, -2000.0);
12:16:02:571;12:16:02:532;1448407921.1;(0.6362873554229737, 0.7908202913072374);84.0791931152;0.801475318894;;;;;;;;;;;;;;0;31,73,42,33;0;0;0;0;0;0;0;();(-2000.0, -2000.0);
12:16:02:605;12:16:02:599;1448407921.17;(0.638698959350586, 0.7867238574557834);84.49949646;0.784215473902;;;;;;;;;;;;;;0;31,73,42,33;0;0;0;0;0;0;0;();(-2000.0, -2000.0);
12:16:02:621;12:16:02:599;1448407921.17;(0.638698959350586, 0.7867238574557834);84.49949646;0.784215473902;;;;;;;;;;;;;;0;31,73,42,33;0;0;0;0;0;0;0;();(-2000.0, -2000.0);
12:16:02:639;12:16:02:599;1448407921.17;(0.638698959350586, 0.7867238574557834);84.49949646;0.784215473902;;;;;;;;;;;;;;0;31,73,42,33;0;0;0;0;0;0;0;();(-2000.0, -2000.0);
12:16:02:655;12:16:02:599;1448407921.17;(0.638698959350586, 0.7867238574557834);84.49949646;0.784215473902;;;;;;;;;;;;;;0;31,73,42,33;0;0;0;0;0;0;0;();(-2000.0, -2000.0);
12:16:02:672;12:16:02:668;1448407921.24;(0.6449292659759521, 0.7839394039577908);84.8009567261;0.72615984976;;;;;;;;;;;;;;0;31,73,42,33;0;0;0;0;0;0;0;();(-2000.0, -2000.0);
12:16:02:705;12:16:02:668;1448407921.24;(0.6449292659759521, 0.7839394039577908);84.8009567261;0.72615984976;;;;;;;;;;;;;;0;31,73,42,33;0;0;0;0;0;0;0;();(-2000.0, -2000.0);
12:16:02:721;12:16:02:668;1448407921.24;(0.6449292659759521, 0.7839394039577908);84.8009567261;0.72615984976;;;;;;;;;;;;;;0;31,73,42,33;0;0;0;0;0;0;0;();(-2000.0, -2000.0);
12:16:02:738;12:16:02:732;1448407921.3;(0.6449049949645996, 0.7852689531114366);84.7614212036;0.804265716829;;;;;;;;;;;;;;0;31,73,42,33;0;0;0;0;0;0;0;();(-2000.0, -2000.0);
12:16:02:755;12:16:02:732;1448407921.3;(0.6449049949645996, 0.7852689531114366);84.7614212036;0.804265716829;;;;;;;;;;;;;;0;31,73,42,33;0;0;0;0;0;0;0;();(-2000.0, -2000.0);
12:16:02:772;12:16:02:732;1448407921.3;(0.6449049949645996, 0.7852689531114366);84.7614212036;0.804265716829;;;;;;;;;;;;;;0;31,73,42,33;0;0;0;0;0;0;0;();(-2000.0, -2000.0);
12:16:02:805;12:16:02:732;1448407921.3;(0.6449049949645996, 0.7852689531114366);84.7614212036;0.804265716829;;;;;;;;;;;;;;0;31,73,42,33;0;0;0;0;0;0;0;();(-2000.0, -2000.0);
12:16:02:822;12:16:02:816;1448407921.37;(0, 0);0;0;;;;;;;;;;;;;;0;31,73,42,33;0;0;0;0;0;0;0;();(-2000.0, -2000.0);
12:16:02:839;12:16:02:816;1448407921.37;(0, 0);0;0;;;;;;;;;;;;;;0;31,73,42,33;0;0;0;0;0;0;0;();(-2000.0, -2000.0);
12:16:02:855;12:16:02:816;1448407921.37;(0, 0);0;0;;;;;;;;;;;;;;0;31,73,42,33;0;0;0;0;0;0;0;();(-2000.0, -2000.0);
12:16:02:872;12:16:02:863;1448407921.44;(0.6434497833251953, 0.7853022045559354);85.433303833;0.77254402667;;;;;;;;;;;;;;0;31,73,42,33;0;0;0;0;0;0;0;();(-2000.0, -2000.0);
12:16:02:906;12:16:02:863;1448407921.44;(0.6434497833251953, 0.7853022045559354);85.433303833;0.77254402667;;;;;;;;;;;;;;0;31,73,42,33;0;0;0;0;0;0;0;();(-2000.0, -2000.0);
12:16:02:922;12:16:02:863;1448407921.44;(0.6434497833251953, 0.7853022045559354);85.433303833;0.77254402667;;;;;;;;;;;;;;0;31,73,42,33;0;0;0;0;0;0;0;();(-2000.0, -2000.0);
12:16:02:939;12:16:02:932;1448407921.5;(0.6435728549957276, 0.785054079691569);86.2519760132;0.894801554442;;;;;;;;;;;;;;0;31,73,42,33;0;0;0;0;0;0;0;();(-2000.0, -2000.0);
12:16:02:955;12:16:02:932;1448407921.5;(0.6435728549957276, 0.785054079691569);86.2519760132;0.894801554442;;;;;;;;;;;;;;0;31,73,42,33;0;0;0;0;0;0;0;();(-2000.0, -2000.0);
12:16:02:972;12:16:02:932;1448407921.5;(0.6435728549957276, 0.785054079691569);86.2519760132;0.894801554442;;;;;;;;;;;;;;0;31,73,42,33;0;0;0;0;0;0;0;();(-2000.0, -2000.0);
12:16:03:006;12:16:02:999;1448407921.54;(0.8937310218811035, 0.5124059041341146);33.1224746704;0.754974500887;;;;;;;;;;;;;;0;31,73,42,33;0;0;0;0;0;0;0;();(-2000.0, -2000.0);
12:16:03:022;12:16:02:999;1448407921.54;(0.8937310218811035, 0.5124059041341146);33.1224746704;0.754974500887;;;;;;;;;;;;;;0;31,73,42,33;0;0;0;0;0;0;0;();(-2000.0, -2000.0);
12:16:03:039;12:16:02:999;1448407921.54;(0.8937310218811035, 0.5124059041341146);33.1224746704;0.754974500887;;;;;;;;;;;;;;0;31,73,42,33;0;0;0;0;0;0;0;();(-2000.0, -2000.0);
12:16:03:056;12:16:02:999;1448407921.54;(0.8937310218811035, 0.5124059041341146);33.1224746704;0.754974500887;;;;;;;;;;;;;;0;31,73,42,33;0;0;0;0;0;0;0;();(-2000.0, -2000.0);
12:16:03:072;12:16:03:065;1448407921.64;(0.6429755210876464, 0.7841592152913411);86.6742248535;0.848816341064;;;;;;;;;;;;;;0;31,73,42,33;0;0;0;0;0;0;0;();(-2000.0, -2000.0);
12:16:03:106;12:16:03:065;1448407921.64;(0.6429755210876464, 0.7841592152913411);86.6742248535;0.848816341064;;;;;;;;;;;;;;0;31,73,42,33;0;0;0;0;0;0;0;();(-2000.0, -2000.0);
12:16:03:122;12:16:03:065;1448407921.64;(0.6429755210876464, 0.7841592152913411);86.6742248535;0.848816341064;;;;;;;;;;;;;;0;31,73,42,33;0;0;0;0;0;0;0;();(-2000.0, -2000.0);
12:16:03:139;12:16:03:133;1448407921.7;(0.6432398319244385, 0.7839947594536676);86.9102783203;0.85372281351;;;;;;;;;;;;;;0;31,73,42,33;0;0;0;0;0;0;0;();(-2000.0, -2000.0);
12:16:03:155;12:16:03:133;1448407921.7;(0.6432398319244385, 0.7839947594536676);86.9102783203;0.85372281351;;;;;;;;;;;;;;0;31,73,42,33;0;0;0;0;0;0;0;();(-2000.0, -2000.0);
12:16:03:172;12:16:03:133;1448407921.7;(0.6432398319244385, 0.7839947594536676);86.9102783203;0.85372281351;;;;;;;;;;;;;;0;31,73,42,33;0;0;0;0;0;0;0;();(-2000.0, -2000.0);
12:16:03:205;12:16:03:197;1448407921.77;(0.36052024364471436, 0.6874078114827473);20.7357177734;0.700424902582;;;;;;;;;;;;;;0;31,73,42,33;0;0;0;0;0;0;0;();(-2000.0, -2000.0);
12:16:03:222;12:16:03:197;1448407921.77;(0.36052024364471436, 0.6874078114827473);20.7357177734;0.700424902582;;;;;;;;;;;;;;0;31,73,42,33;0;0;0;0;0;0;0;();(-2000.0, -2000.0);
12:16:03:239;12:16:03:197;1448407921.77;(0.36052024364471436, 0.6874078114827473);20.7357177734;0.700424902582;;;;;;;;;;;;;;0;31,73,42,33;0;0;0;0;0;0;0;();(-2000.0, -2000.0);
12:16:03:256;12:16:03:197;1448407921.77;(0.36052024364471436, 0.6874078114827473);20.7357177734;0.700424902582;;;;;;;;;;;;;;0;31,73,42,33;0;0;0;0;0;0;0;();(-2000.0, -2000.0);
12:16:03:272;12:16:03:264;1448407921.84;(0.6432177543640136, 0.7845951292249891);87.3541641235;0.731427937162;;;;;;;;;;;;;;0;31,73,42,33;0;0;0;0;0;0;0;();(-2000.0, -2000.0);
12:16:03:305;12:16:03:264;1448407921.84;(0.6432177543640136, 0.7845951292249891);87.3541641235;0.731427937162;;;;;;;;;;;;;;0;31,73,42,33;0;0;0;0;0;0;0;();(-2000.0, -2000.0);
12:16:03:322;12:16:03:264;1448407921.84;(0.6432177543640136, 0.7845951292249891);87.3541641235;0.731427937162;;;;;;;;;;;;;;0;31,73,42,33;0;0;0;0;0;0;0;();(-2000.0, -2000.0);
12:16:03:339;12:16:03:331;1448407921.9;(0, 0);0;0;;;;;;;;;;;;;;0;31,73,42,33;0;0;0;0;0;0;0;();(-2000.0, -2000.0);
12:16:03:355;12:16:03:331;1448407921.9;(0, 0);0;0;;;;;;;;;;;;;;0;31,73,42,33;0;0;0;0;0;0;0;();(-2000.0, -2000.0);
12:16:03:372;12:16:03:331;1448407921.9;(0, 0);0;0;;;;;;;;;;;;;;0;31,73,42,33;0;0;0;0;0;0;0;();(-2000.0, -2000.0);
12:16:03:406;12:16:03:396;1448407921.97;(0, 0);0;0;;;;;;;;;;;;;;0;31,73,42,33;0;0;0;0;0;0;0;();(-2000.0, -2000.0);
12:16:03:422;12:16:03:396;1448407921.97;(0, 0);0;0;;;;;;;;;;;;;;0;31,73,42,33;0;0;0;0;0;0;0;();(-2000.0, -2000.0);
12:16:03:440;12:16:03:396;1448407921.97;(0, 0);0;0;;;;;;;;;;;;;;0;31,73,42,33;0;0;0;0;0;0;0;();(-2000.0, -2000.0);
12:16:03:456;12:16:03:396;1448407921.97;(0, 0);0;0;;;;;;;;;;;;;;0;31,73,42,33;0;0;0;0;0;0;0;();(-2000.0, -2000.0);
12:16:03:472;12:16:03:464;1448407922.0;(0.6471074104309082, 0.8020622571309408);97.4699020386;0.665159321069;;;;;;;;;;;;;;0;31,73,42,33;0;0;0;0;0;0;0;();(-2000.0, -2000.0);
12:16:03:505;12:16:03:464;1448407922.0;(0.6471074104309082, 0.8020622571309408);97.4699020386;0.665159321069;;;;;;;;;;;;;;0;31,73,42,33;0;0;0;0;0;0;0;();(-2000.0, -2000.0);
12:16:03:523;12:16:03:464;1448407922.0;(0.6471074104309082, 0.8020622571309408);97.4699020386;0.665159321069;;;;;;;;;;;;;;0;31,73,42,33;0;0;0;0;0;0;0;();(-2000.0, -2000.0);
12:16:03:539;12:16:03:529;1448407922.1;(0.6449859142303467, 0.7859407001071506);88.37449646;0.765162234607;;;;;;;;;;;;;;0;31,73,42,33;0;0;0;0;0;0;0;();(-2000.0, -2000.0);
12:16:03:556;12:16:03:529;1448407922.1;(0.6449859142303467, 0.7859407001071506);88.37449646;0.765162234607;;;;;;;;;;;;;;0;31,73,42,33;0;0;0;0;0;0;0;();(-2000.0, -2000.0);
12:16:03:573;12:16:03:529;1448407922.1;(0.6449859142303467, 0.7859407001071506);88.37449646;0.765162234607;;;;;;;;;;;;;;0;31,73,42,33;0;0;0;0;0;0;0;();(-2000.0, -2000.0);
12:16:03:606;12:16:03:596;1448407922.17;(0.6438779830932617, 0.7842912038167318);88.0153121948;0.625897865584;;;;;;;;;;;;;;0;31,73,42,33;0;0;0;0;0;0;0;();(-2000.0, -2000.0);
12:16:03:622;12:16:03:596;1448407922.17;(0.6438779830932617, 0.7842912038167318);88.0153121948;0.625897865584;;;;;;;;;;;;;;0;31,73,42,33;0;0;0;0;0;0;0;();(-2000.0, -2000.0);
12:16:03:639;12:16:03:596;1448407922.17;(0.6438779830932617, 0.7842912038167318);88.0153121948;0.625897865584;;;;;;;;;;;;;;0;31,73,42,33;0;0;0;0;0;0;0;();(-2000.0, -2000.0);
12:16:03:655;12:16:03:596;1448407922.17;(0.6438779830932617, 0.7842912038167318);88.0153121948;0.625897865584;;;;;;;;;;;;;;0;31,73,42,33;0;0;0;0;0;0;0;();(-2000.0, -2000.0);
12:16:03:673;12:16:03:664;1448407922.24;(0.8989222526550293, 0.506015396118164);27.9299907684;0.63327253265;;;;;;;;;;;;;;0;31,73,42,33;0;0;0;0;0;0;0;();(-2000.0, -2000.0);
12:16:03:706;12:16:03:664;1448407922.24;(0.8989222526550293, 0.506015396118164);27.9299907684;0.63327253265;;;;;;;;;;;;;;0;31,73,42,33;0;0;0;0;0;0;0;();(-2000.0, -2000.0);
12:16:03:722;12:16:03:664;1448407922.24;(0.8989222526550293, 0.506015396118164);27.9299907684;0.63327253265;;;;;;;;;;;;;;0;31,73,42,33;0;0;0;0;0;0;0;();(-2000.0, -2000.0);
12:16:03:739;12:16:03:728;1448407922.3;(0.39244058132171633, 0.9078899595472548);24.508731842;0.658401442893;;;;;;;;;;;;;;0;31,73,42,33;0;0;0;0;0;0;0;();(-2000.0, -2000.0);
12:16:03:756;12:16:03:728;1448407922.3;(0.39244058132171633, 0.9078899595472548);24.508731842;0.658401442893;;;;;;;;;;;;;;0;31,73,42,33;0;0;0;0;0;0;0;();(-2000.0, -2000.0);
12:16:03:772;12:16:03:728;1448407922.3;(0.39244058132171633, 0.9078899595472548);24.508731842;0.658401442893;;;;;;;;;;;;;;0;31,73,42,33;0;0;0;0;0;0;0;();(-2000.0, -2000.0);
12:16:03:806;12:16:03:796;1448407922.37;(0.7738715171813965, 0.8965807384914822);39.8730430603;0.618097682238;;;;;;;;;;;;;;0;31,73,42,33;0;0;0;0;0;0;0;();(-2000.0, -2000.0);
12:16:03:822;12:16:03:796;1448407922.37;(0.7738715171813965, 0.8965807384914822);39.8730430603;0.618097682238;;;;;;;;;;;;;;0;31,73,42,33;0;0;0;0;0;0;0;();(-2000.0, -2000.0);
12:16:03:839;12:16:03:796;1448407922.37;(0.7738715171813965, 0.8965807384914822);39.8730430603;0.618097682238;;;;;;;;;;;;;;0;31,73,42,33;0;0;0;0;0;0;0;();(-2000.0, -2000.0);
12:16:03:856;12:16:03:796;1448407922.37;(0.7738715171813965, 0.8965807384914822);39.8730430603;0.618097682238;;;;;;;;;;;;;;0;31,73,42,33;0;0;0;0;0;0;0;();(-2000.0, -2000.0);
12:16:03:873;12:16:03:861;1448407922.44;(0.6458777904510498, 0.7878548304239908);88.4078826904;0.764039096828;;;;;;;;;;;;;;0;31,73,42,33;0;0;0;0;0;0;0;();(-2000.0, -2000.0);
12:16:03:906;12:16:03:861;1448407922.44;(0.6458777904510498, 0.7878548304239908);88.4078826904;0.764039096828;;;;;;;;;;;;;;0;31,73,42,33;0;0;0;0;0;0;0;();(-2000.0, -2000.0);
12:16:03:922;12:16:03:861;1448407922.44;(0.6458777904510498, 0.7878548304239908);88.4078826904;0.764039096828;;;;;;;;;;;;;;0;31,73,42,33;0;0;0;0;0;0;0;();(-2000.0, -2000.0);
12:16:03:940;12:16:03:927;1448407922.5;(0.3891049861907959, 0.9008317523532443);19.7729167938;0.677957850658;;;;;;;;;;;;;;0;31,73,42,33;0;0;0;0;0;0;0;();(-2000.0, -2000.0);
12:16:03:956;12:16:03:927;1448407922.5;(0.3891049861907959, 0.9008317523532443);19.7729167938;0.677957850658;;;;;;;;;;;;;;0;31,73,42,33;0;0;0;0;0;0;0;();(-2000.0, -2000.0);
12:16:03:973;12:16:03:927;1448407922.5;(0.3891049861907959, 0.9008317523532443);19.7729167938;0.677957850658;;;;;;;;;;;;;;0;31,73,42,33;0;0;0;0;0;0;0;();(-2000.0, -2000.0);
12:16:04:007;12:16:03:991;1448407922.57;(0.89046630859375, 0.513790045844184);39.7478027344;0.668898321106;;;;;;;;;;;;;;0;31,73,42,33;0;0;0;0;0;0;0;();(-2000.0, -2000.0);
12:16:04:023;12:16:03:991;1448407922.57;(0.89046630859375, 0.513790045844184);39.7478027344;0.668898321106;;;;;;;;;;;;;;0;31,73,42,33;0;0;0;0;0;0;0;();(-2000.0, -2000.0);
12:16:04:040;12:16:03:991;1448407922.57;(0.89046630859375, 0.513790045844184);39.7478027344;0.668898321106;;;;;;;;;;;;;;0;31,73,42,33;0;0;0;0;0;0;0;();(-2000.0, -2000.0);
12:16:04:056;12:16:03:991;1448407922.57;(0.89046630859375, 0.513790045844184);39.7478027344;0.668898321106;;;;;;;;;;;;;;0;31,73,42,33;0;0;0;0;0;0;0;();(-2000.0, -2000.0);
12:16:04:073;12:16:04:060;1448407922.64;(0.6471385955810547, 0.7808485454983182);88.4956970215;0.806040440432;;;;;;;;;;;;;;0;31,73,42,33;0;0;0;0;0;0;0;();(-2000.0, -2000.0);
12:16:04:106;12:16:04:060;1448407922.64;(0.6471385955810547, 0.7808485454983182);88.4956970215;0.806040440432;;;;;;;;;;;;;;0;31,73,42,33;0;0;0;0;0;0;0;();(-2000.0, -2000.0);
12:16:04:123;12:16:04:060;1448407922.64;(0.6471385955810547, 0.7808485454983182);88.4956970215;0.806040440432;;;;;;;;;;;;;;0;31,73,42,33;0;0;0;0;0;0;0;();(-2000.0, -2000.0);
12:16:04:139;12:16:04:128;1448407922.7;(0.6480583667755127, 0.7793563842773438);88.4530944824;0.867120671798;;;;;;;;;;;;;;0;31,73,42,33;0;0;0;0;0;0;0;();(-2000.0, -2000.0);
12:16:04:156;12:16:04:128;1448407922.7;(0.6480583667755127, 0.7793563842773438);88.4530944824;0.867120671798;;;;;;;;;;;;;;0;31,73,42,33;0;0;0;0;0;0;0;();(-2000.0, -2000.0);
12:16:04:173;12:16:04:128;1448407922.7;(0.6480583667755127, 0.7793563842773438);88.4530944824;0.867120671798;;;;;;;;;;;;;;0;31,73,42,33;0;0;0;0;0;0;0;();(-2000.0, -2000.0);
12:16:04:206;12:16:04:190;1448407922.74;(0.9049207687377929, 0.5286624908447266);18.8017349243;0.833090533424;;;;;;;;;;;;;;0;31,73,42,33;0;0;0;0;0;0;0;();(-2000.0, -2000.0);
12:16:04:222;12:16:04:190;1448407922.74;(0.9049207687377929, 0.5286624908447266);18.8017349243;0.833090533424;;;;;;;;;;;;;;0;31,73,42,33;0;0;0;0;0;0;0;();(-2000.0, -2000.0);
12:16:04:240;12:16:04:190;1448407922.74;(0.9049207687377929, 0.5286624908447266);18.8017349243;0.833090533424;;;;;;;;;;;;;;0;31,73,42,33;0;0;0;0;0;0;0;();(-2000.0, -2000.0);
12:16:04:257;12:16:04:190;1448407922.74;(0.9049207687377929, 0.5286624908447266);18.8017349243;0.833090533424;;;;;;;;;;;;;;0;31,73,42,33;0;0;0;0;0;0;0;();(-2000.0, -2000.0);
12:16:04:273;12:16:04:262;1448407922.8;(0.6501551151275635, 0.7769269731309678);88.0053482056;0.849639359881;;;;;;;;;;;;;;0;31,73,42,33;0;0;0;0;0;0;0;();(-2000.0, -2000.0);
12:16:04:307;12:16:04:262;1448407922.8;(0.6501551151275635, 0.7769269731309678);88.0053482056;0.849639359881;;;;;;;;;;;;;;0;31,73,42,33;0;0;0;0;0;0;0;();(-2000.0, -2000.0);
12:16:04:323;12:16:04:262;1448407922.8;(0.6501551151275635, 0.7769269731309678);88.0053482056;0.849639359881;;;;;;;;;;;;;;0;31,73,42,33;0;0;0;0;0;0;0;();(-2000.0, -2000.0);
12:16:04:340;12:16:04:331;1448407922.87;(0.6518019199371338, 0.7765591091579861);88.8209915161;0.831227476237;;;;;;;;;;;;;;0;31,73,42,33;0;0;0;0;0;0;0;();(-2000.0, -2000.0);
12:16:04:357;12:16:04:331;1448407922.87;(0.6518019199371338, 0.7765591091579861);88.8209915161;0.831227476237;;;;;;;;;;;;;;0;31,73,42,33;0;0;0;0;0;0;0;();(-2000.0, -2000.0);
12:16:04:373;12:16:04:331;1448407922.87;(0.6518019199371338, 0.7765591091579861);88.8209915161;0.831227476237;;;;;;;;;;;;;;0;31,73,42,33;0;0;0;0;0;0;0;();(-2000.0, -2000.0);
12:16:04:406;12:16:04:395;1448407922.97;(0.6553853988647461, 0.7742190255059136);89.0746765137;0.910143155951;;;;;;;;;;;;;;0;31,73,42,33;0;0;0;0;0;0;0;();(-2000.0, -2000.0);
12:16:04:423;12:16:04:395;1448407922.97;(0.6553853988647461, 0.7742190255059136);89.0746765137;0.910143155951;;;;;;;;;;;;;;0;31,73,42,33;0;0;0;0;0;0;0;();(-2000.0, -2000.0);
12:16:04:440;12:16:04:395;1448407922.97;(0.6553853988647461, 0.7742190255059136);89.0746765137;0.910143155951;;;;;;;;;;;;;;0;31,73,42,33;0;0;0;0;0;0;0;();(-2000.0, -2000.0);
12:16:04:457;12:16:04:395;1448407922.97;(0.6553853988647461, 0.7742190255059136);89.0746765137;0.910143155951;;;;;;;;;;;;;;0;31,73,42,33;0;0;0;0;0;0;0;();(-2000.0, -2000.0);
12:16:04:473;12:16:04:462;1448407923.04;(0.9023536682128906, 0.60665283203125);27.6673469543;0.701223187623;;;;;;;;;;;;;;0;31,73,42,33;0;0;0;0;0;0;0;();(-2000.0, -2000.0);
12:16:04:506;12:16:04:462;1448407923.04;(0.9023536682128906, 0.60665283203125);27.6673469543;0.701223187623;;;;;;;;;;;;;;0;31,73,42,33;0;0;0;0;0;0;0;();(-2000.0, -2000.0);
12:16:04:524;12:16:04:523;1448407923.07;(0, 0);0;0;;;;;;;;;;;;;;0;31,73,42,33;0;0;0;0;0;0;0;();(-2000.0, -2000.0);
12:16:04:540;12:16:04:523;1448407923.07;(0, 0);0;0;;;;;;;;;;;;;;0;31,73,42,33;0;0;0;0;0;0;0;();(-2000.0, -2000.0);
12:16:04:556;12:16:04:523;1448407923.07;(0, 0);0;0;;;;;;;;;;;;;;0;31,73,42,33;0;0;0;0;0;0;0;();(-2000.0, -2000.0);
12:16:04:573;12:16:04:523;1448407923.07;(0, 0);0;0;;;;;;;;;;;;;;0;31,73,42,33;0;0;0;0;0;0;0;();(-2000.0, -2000.0);
12:16:04:607;12:16:04:593;1448407923.17;(0, 0);0;0;;;;;;;;;;;;;;0;31,73,42,33;0;0;0;0;0;0;0;();(-2000.0, -2000.0);
12:16:04:624;12:16:04:593;1448407923.17;(0, 0);0;0;;;;;;;;;;;;;;0;31,73,42,33;0;0;0;0;0;0;0;();(-2000.0, -2000.0);
12:16:04:640;12:16:04:593;1448407923.17;(0, 0);0;0;;;;;;;;;;;;;;0;31,73,42,33;0;0;0;0;0;0;0;();(-2000.0, -2000.0);
12:16:04:657;12:16:04:655;1448407923.2;(0.6402764797210694, 0.8513795852661132);88.384475708;0.750213061736;;;;;;;;;;;;;;0;31,73,42,33;0;0;0;0;0;0;0;();(-2000.0, -2000.0);
12:16:04:673;12:16:04:656;1448407923.24;(0.7796374320983886, 0.9049178123474121);26.7686023712;0.71965708572;;;;;;;;;;;;;;0;31,73,42,33;0;0;0;0;0;0;0;();(-2000.0, -2000.0);
12:16:04:707;12:16:04:656;1448407923.24;(0.7796374320983886, 0.9049178123474121);26.7686023712;0.71965708572;;;;;;;;;;;;;;0;31,73,42,33;0;0;0;0;0;0;0;();(-2000.0, -2000.0);
12:16:04:724;12:16:04:723;1448407923.27;(0, 0);0;0;;;;;;;;;;;;;;0;31,73,42,33;0;0;0;0;0;0;0;();(-2000.0, -2000.0);
12:16:04:740;12:16:04:724;1448407923.3;(0, 0);0;0;;;;;;;;;;;;;;0;31,73,42,33;0;0;0;0;0;0;0;();(-2000.0, -2000.0);
12:16:04:757;12:16:04:724;1448407923.3;(0, 0);0;0;;;;;;;;;;;;;;0;31,73,42,33;0;0;0;0;0;0;0;();(-2000.0, -2000.0);
12:16:04:774;12:16:04:724;1448407923.3;(0, 0);0;0;;;;;;;;;;;;;;0;31,73,42,33;0;0;0;0;0;0;0;();(-2000.0, -2000.0);
12:16:04:807;12:16:04:792;1448407923.37;(0.7485107898712158, 0.5270283593071832);20.1867141724;0.654693808922;;;;;;;;;;;;;;0;31,73,42,33;0;0;0;0;0;0;0;();(-2000.0, -2000.0);
12:16:04:823;12:16:04:792;1448407923.37;(0.7485107898712158, 0.5270283593071832);20.1867141724;0.654693808922;;;;;;;;;;;;;;0;31,73,42,33;0;0;0;0;0;0;0;();(-2000.0, -2000.0);
12:16:04:840;12:16:04:792;1448407923.37;(0.7485107898712158, 0.5270283593071832);20.1867141724;0.654693808922;;;;;;;;;;;;;;0;31,73,42,33;0;0;0;0;0;0;0;();(-2000.0, -2000.0);
12:16:04:857;12:16:04:855;1448407923.44;(0.8932039260864257, 0.5363240136040581);41.241065979;0.692054157261;;;;;;;;;;;;;;0;31,73,42,33;0;0;0;0;0;0;0;();(-2000.0, -2000.0);
12:16:04:873;12:16:04:855;1448407923.44;(0.8932039260864257, 0.5363240136040581);41.241065979;0.692054157261;;;;;;;;;;;;;;0;31,73,42,33;0;0;0;0;0;0;0;();(-2000.0, -2000.0);
12:16:04:907;12:16:04:855;1448407923.44;(0.8932039260864257, 0.5363240136040581);41.241065979;0.692054157261;;;;;;;;;;;;;;0;31,73,42,33;0;0;0;0;0;0;0;();(-2000.0, -2000.0);
12:16:04:923;12:16:04:855;1448407923.44;(0.8932039260864257, 0.5363240136040581);41.241065979;0.692054157261;;;;;;;;;;;;;;0;31,73,42,33;0;0;0;0;0;0;0;();(-2000.0, -2000.0);
12:16:04:940;12:16:04:923;1448407923.5;(0, 0);0;0;;;;;;;;;;;;;;0;31,73,42,33;0;0;0;0;0;0;0;();(-2000.0, -2000.0);
12:16:04:957;12:16:04:923;1448407923.5;(0, 0);0;0;;;;;;;;;;;;;;0;31,73,42,33;0;0;0;0;0;0;0;();(-2000.0, -2000.0);
12:16:04:973;12:16:04:923;1448407923.5;(0, 0);0;0;;;;;;;;;;;;;;0;31,73,42,33;0;0;0;0;0;0;0;();(-2000.0, -2000.0);
12:16:05:007;12:16:04:988;1448407923.57;(0.6448385715484619, 0.8362905926174588);87.3808746338;0.640428612574;;;;;;;;;;;;;;0;31,73,42,33;0;0;0;0;0;0;0;();(-2000.0, -2000.0);
12:16:05:023;12:16:04:988;1448407923.57;(0.6448385715484619, 0.8362905926174588);87.3808746338;0.640428612574;;;;;;;;;;;;;;0;31,73,42,33;0;0;0;0;0;0;0;();(-2000.0, -2000.0);
12:16:05:040;12:16:04:988;1448407923.57;(0.6448385715484619, 0.8362905926174588);87.3808746338;0.640428612574;;;;;;;;;;;;;;0;31,73,42,33;0;0;0;0;0;0;0;();(-2000.0, -2000.0);
12:16:05:057;12:16:05:055;1448407923.6;(0.9019833564758301, 0.5251543680826822);27.2756309509;0.733912621708;;;;;;;;;;;;;;0;31,73,42,33;0;0;0;0;0;0;0;();(-2000.0, -2000.0);
12:16:05:074;12:16:05:056;1448407923.64;(0, 0);0;0;;;;;;;;;;;;;;0;31,73,42,33;0;0;0;0;0;0;0;();(-2000.0, -2000.0);
12:16:05:107;12:16:05:056;1448407923.64;(0, 0);0;0;;;;;;;;;;;;;;0;31,73,42,33;0;0;0;0;0;0;0;();(-2000.0, -2000.0);
12:16:05:123;12:16:05:056;1448407923.64;(0, 0);0;0;;;;;;;;;;;;;;0;31,73,42,33;0;0;0;0;0;0;0;();(-2000.0, -2000.0);
12:16:05:141;12:16:05:124;1448407923.7;(0, 0);0;0;;;;;;;;;;;;;;0;31,73,42,33;0;0;0;0;0;0;0;();(-2000.0, -2000.0);
12:16:05:157;12:16:05:124;1448407923.7;(0, 0);0;0;;;;;;;;;;;;;;0;31,73,42,33;0;0;0;0;0;0;0;();(-2000.0, -2000.0);
12:16:05:174;12:16:05:124;1448407923.7;(0, 0);0;0;;;;;;;;;;;;;;0;31,73,42,33;0;0;0;0;0;0;0;();(-2000.0, -2000.0);
12:16:05:207;12:16:05:186;1448407923.74;(0, 0);0;0;;;;;;;;;;;;;;0;31,73,42,33;0;0;0;0;0;0;0;();(-2000.0, -2000.0);
12:16:05:224;12:16:05:186;1448407923.74;(0, 0);0;0;;;;;;;;;;;;;;0;31,73,42,33;0;0;0;0;0;0;0;();(-2000.0, -2000.0);
12:16:05:241;12:16:05:186;1448407923.74;(0, 0);0;0;;;;;;;;;;;;;;0;31,73,42,33;0;0;0;0;0;0;0;();(-2000.0, -2000.0);
12:16:05:258;12:16:05:256;1448407923.8;(0.6116591930389405, 0.7666782591078016);88.9464416504;0.759586541531;;;;;;;;;;;;;;0;31,73,42,33;0;0;0;0;0;0;0;();(-2000.0, -2000.0);
12:16:05:274;12:16:05:256;1448407923.8;(0.6116591930389405, 0.7666782591078016);88.9464416504;0.759586541531;;;;;;;;;;;;;;0;31,73,42,33;0;0;0;0;0;0;0;();(-2000.0, -2000.0);
12:16:05:307;12:16:05:256;1448407923.8;(0.6116591930389405, 0.7666782591078016);88.9464416504;0.759586541531;;;;;;;;;;;;;;0;31,73,42,33;0;0;0;0;0;0;0;();(-2000.0, -2000.0);
12:16:05:324;12:16:05:320;1448407923.87;(0.39003586769104004, 0.8702591260274252);20.518447876;0.665596383389;;;;;;;;;;;;;;0;31,73,42,33;0;0;0;0;0;0;0;();(-2000.0, -2000.0);
12:16:05:341;12:16:05:320;1448407923.87;(0.39003586769104004, 0.8702591260274252);20.518447876;0.665596383389;;;;;;;;;;;;;;0;31,73,42,33;0;0;0;0;0;0;0;();(-2000.0, -2000.0);
12:16:05:357;12:16:05:320;1448407923.87;(0.39003586769104004, 0.8702591260274252);20.518447876;0.665596383389;;;;;;;;;;;;;;0;31,73,42,33;0;0;0;0;0;0;0;();(-2000.0, -2000.0);
12:16:05:374;12:16:05:320;1448407923.87;(0.39003586769104004, 0.8702591260274252);20.518447876;0.665596383389;;;;;;;;;;;;;;0;31,73,42,33;0;0;0;0;0;0;0;();(-2000.0, -2000.0);
12:16:05:407;12:16:05:387;1448407923.9;(0.6184330940246582, 0.7534990946451823);86.5369644165;0.881965087033;;;;;;;;;;;;;;0;31,73,42,33;0;0;0;0;0;0;0;();(-2000.0, -2000.0);
12:16:05:424;12:16:05:387;1448407923.9;(0.6184330940246582, 0.7534990946451823);86.5369644165;0.881965087033;;;;;;;;;;;;;;0;31,73,42,33;0;0;0;0;0;0;0;();(-2000.0, -2000.0);
12:16:05:441;12:16:05:387;1448407923.9;(0.6184330940246582, 0.7534990946451823);86.5369644165;0.881965087033;;;;;;;;;;;;;;0;31,73,42,33;0;0;0;0;0;0;0;();(-2000.0, -2000.0);
12:16:05:458;12:16:05:456;1448407924.0;(0, 0);0;0;;;;;;;;;;;;;;0;31,73,42,33;0;0;0;0;0;0;0;();(-2000.0, -2000.0);
12:16:05:474;12:16:05:457;1448407924.01;(0.6228344917297364, 0.7587607065836588);88.0925979614;0.886727907288;;;;;;;;;;;;;;0;31,73,42,33;0;0;0;0;0;0;0;();(-2000.0, -2000.0);
12:16:05:508;12:16:05:457;1448407924.01;(0.6228344917297364, 0.7587607065836588);88.0925979614;0.886727907288;;;;;;;;;;;;;;0;31,73,42,33;0;0;0;0;0;0;0;();(-2000.0, -2000.0);
12:16:05:524;12:16:05:519;1448407924.04;(0, 0);0;0;;;;;;;;;;;;;;0;31,73,42,33;0;0;0;0;0;0;0;();(-2000.0, -2000.0);
12:16:05:541;12:16:05:531;1448407924.07;(0.6188194274902343, 0.7523701985677084);87.5942230225;0.84302959141;;;;;;;;;;;;;;0;31,73,42,33;0;0;0;0;0;0;0;();(-2000.0, -2000.0);
12:16:05:557;12:16:05:531;1448407924.07;(0.6188194274902343, 0.7523701985677084);87.5942230225;0.84302959141;;;;;;;;;;;;;;0;31,73,42,33;0;0;0;0;0;0;0;();(-2000.0, -2000.0);
12:16:05:574;12:16:05:531;1448407924.07;(0.6188194274902343, 0.7523701985677084);87.5942230225;0.84302959141;;;;;;;;;;;;;;0;31,73,42,33;0;0;0;0;0;0;0;();(-2000.0, -2000.0);
12:16:05:607;12:16:05:590;1448407924.17;(0.6189393043518067, 0.7531340705023871);87.351524353;0.933697964689;;;;;;;;;;;;;;0;31,73,42,33;0;0;0;0;0;0;0;();(-2000.0, -2000.0);
12:16:05:625;12:16:05:590;1448407924.17;(0.6189393043518067, 0.7531340705023871);87.351524353;0.933697964689;;;;;;;;;;;;;;0;31,73,42,33;0;0;0;0;0;0;0;();(-2000.0, -2000.0);
12:16:05:641;12:16:05:590;1448407924.17;(0.6189393043518067, 0.7531340705023871);87.351524353;0.933697964689;;;;;;;;;;;;;;0;31,73,42,33;0;0;0;0;0;0;0;();(-2000.0, -2000.0);
12:16:05:658;12:16:05:652;1448407924.24;(0.619553518295288, 0.7543092939588758);86.2764587402;0.929837899575;;;;;;;;;;;;;;0;31,73,42,33;0;0;0;0;0;0;0;();(-2000.0, -2000.0);
12:16:05:674;12:16:05:652;1448407924.24;(0.619553518295288, 0.7543092939588758);86.2764587402;0.929837899575;;;;;;;;;;;;;;0;31,73,42,33;0;0;0;0;0;0;0;();(-2000.0, -2000.0);
12:16:05:691;12:16:05:652;1448407924.24;(0.619553518295288, 0.7543092939588758);86.2764587402;0.929837899575;;;;;;;;;;;;;;0;31,73,42,33;0;0;0;0;0;0;0;();(-2000.0, -2000.0);
12:16:05:724;12:16:05:720;1448407924.3;(0.6195467472076416, 0.7552787992689345);85.3538208008;0.853133252499;;;;;;;;;;;;;;0;31,73,42,33;0;0;0;0;0;0;0;();(-2000.0, -2000.0);
12:16:05:741;12:16:05:720;1448407924.3;(0.6195467472076416, 0.7552787992689345);85.3538208008;0.853133252499;;;;;;;;;;;;;;0;31,73,42,33;0;0;0;0;0;0;0;();(-2000.0, -2000.0);
12:16:05:758;12:16:05:720;1448407924.3;(0.6195467472076416, 0.7552787992689345);85.3538208008;0.853133252499;;;;;;;;;;;;;;0;31,73,42,33;0;0;0;0;0;0;0;();(-2000.0, -2000.0);
12:16:05:774;12:16:05:720;1448407924.3;(0.6195467472076416, 0.7552787992689345);85.3538208008;0.853133252499;;;;;;;;;;;;;;0;31,73,42,33;0;0;0;0;0;0;0;();(-2000.0, -2000.0);
12:16:05:791;12:16:05:787;1448407924.34;(0.6192590713500976, 0.7549670113457574);84.9889068604;0.907416635496;;;;;;;;;;;;;;0;31,73,42,33;0;0;0;0;0;0;0;();(-2000.0, -2000.0);
12:16:05:824;12:16:05:787;1448407924.34;(0.6192590713500976, 0.7549670113457574);84.9889068604;0.907416635496;;;;;;;;;;;;;;0;31,73,42,33;0;0;0;0;0;0;0;();(-2000.0, -2000.0);
12:16:05:841;12:16:05:787;1448407924.34;(0.6192590713500976, 0.7549670113457574);84.9889068604;0.907416635496;;;;;;;;;;;;;;0;31,73,42,33;0;0;0;0;0;0;0;();(-2000.0, -2000.0);
12:16:05:858;12:16:05:853;1448407924.44;(0.624303150177002, 0.7572279612223307);84.6016693115;0.940631435264;;;;;;;;;;;;;;0;31,73,42,33;0;0;0;0;0;0;0;();(-2000.0, -2000.0);
12:16:05:874;12:16:05:853;1448407924.44;(0.624303150177002, 0.7572279612223307);84.6016693115;0.940631435264;;;;;;;;;;;;;;0;31,73,42,33;0;0;0;0;0;0;0;();(-2000.0, -2000.0);
12:16:05:891;12:16:05:853;1448407924.44;(0.624303150177002, 0.7572279612223307);84.6016693115;0.940631435264;;;;;;;;;;;;;;0;31,73,42,33;0;0;0;0;0;0;0;();(-2000.0, -2000.0);
12:16:05:925;12:16:05:853;1448407924.44;(0.624303150177002, 0.7572279612223307);84.6016693115;0.940631435264;;;;;;;;;;;;;;0;31,73,42,33;0;0;0;0;0;0;0;();(-2000.0, -2000.0);
12:16:05:942;12:16:05:924;1448407924.47;(0.6237822055816651, 0.7577351464165581);83.7940597534;0.880061964048;;;;;;;;;;;;;;0;31,73,42,33;0;0;0;0;0;0;0;();(-2000.0, -2000.0);
12:16:05:958;12:16:05:924;1448407924.47;(0.6237822055816651, 0.7577351464165581);83.7940597534;0.880061964048;;;;;;;;;;;;;;0;31,73,42,33;0;0;0;0;0;0;0;();(-2000.0, -2000.0);
12:16:05:975;12:16:05:924;1448407924.47;(0.6237822055816651, 0.7577351464165581);83.7940597534;0.880061964048;;;;;;;;;;;;;;0;31,73,42,33;0;0;0;0;0;0;0;();(-2000.0, -2000.0);
12:16:05:991;12:16:05:985;1448407924.57;(0, 0);0;0;;;;;;;;;;;;;;0;31,73,42,33;0;0;0;0;0;0;0;();(-2000.0, -2000.0);
12:16:06:025;12:16:05:985;1448407924.57;(0, 0);0;0;;;;;;;;;;;;;;0;31,73,42,33;0;0;0;0;0;0;0;();(-2000.0, -2000.0);
