%Timestamp,timestamp_write;timestamp_gotpupil;eyeTrackerTime;normPos;diameter;confidence;timestamp_gotbitdata;CRC;SEQ;AnalogOutp1;AnalogOutp2;AnalogOutp3;AnalogOutp4;AnalogOutp5;AnalogOutp6;DigitalOutp1;DigitalOutp2;DigitalOutp3;DigitalOutp4;nplanes;listofAirplanesonScreen;lastAction;lastActionDetails;lastActionAirplaneNumber;calculatedScore;positiveScore;negativeScore;collidedAirplaneNumbers;targetPositions;collisionPoint
03:30:11:084;03:30:11:067;1448461805.85;(0, 0);0;0;;;;;;;;;;;;;;0;0;0;0;0;0;0;0;0;();(-2000.0, -2000.0);
03:30:11:096;03:30:11:067;1448461805.85;(0, 0);0;0;;;;;;;;;;;;;;0;0;0;0;0;0;0;0;0;();(-2000.0, -2000.0);
03:30:11:099;03:30:11:067;1448461805.85;(0, 0);0;0;;;;;;;;;;;;;;0;0;0;0;0;0;0;0;0;();(-2000.0, -2000.0);
03:30:11:102;03:30:11:067;1448461805.85;(0, 0);0;0;;;;;;;;;;;;;;0;0;0;0;0;0;0;0;0;();(-2000.0, -2000.0);
03:30:11:105;03:30:11:067;1448461805.85;(0, 0);0;0;;;;;;;;;;;;;;0;0;0;0;0;0;0;0;0;();(-2000.0, -2000.0);
03:30:11:108;03:30:11:067;1448461805.85;(0, 0);0;0;;;;;;;;;;;;;;0;0;0;0;0;0;0;0;0;();(-2000.0, -2000.0);
03:30:11:112;03:30:11:108;1448461805.89;(0.34704716205596925, 0.28189620971679685);57.2767028809;0.693698294348;;;;;;;;;;;;;;0;0;0;0;0;0;0;0;0;();(-2000.0, -2000.0);
03:30:11:115;03:30:11:108;1448461805.89;(0.34704716205596925, 0.28189620971679685);57.2767028809;0.693698294348;;;;;;;;;;;;;;0;0;0;0;0;0;0;0;0;();(-2000.0, -2000.0);
03:30:11:118;03:30:11:108;1448461805.89;(0.34704716205596925, 0.28189620971679685);57.2767028809;0.693698294348;;;;;;;;;;;;;;0;0;0;0;0;0;0;0;0;();(-2000.0, -2000.0);
03:30:11:121;03:30:11:108;1448461805.89;(0.34704716205596925, 0.28189620971679685);57.2767028809;0.693698294348;;;;;;;;;;;;;;0;0;0;0;0;0;0;0;0;();(-2000.0, -2000.0);
03:30:11:124;03:30:11:108;1448461805.89;(0.34704716205596925, 0.28189620971679685);57.2767028809;0.693698294348;;;;;;;;;;;;;;0;0;0;0;0;0;0;0;0;();(-2000.0, -2000.0);
03:30:11:127;03:30:11:108;1448461805.89;(0.34704716205596925, 0.28189620971679685);57.2767028809;0.693698294348;;;;;;;;;;;;;;0;0;0;0;0;0;0;0;0;();(-2000.0, -2000.0);
03:30:11:130;03:30:11:108;1448461805.89;(0.34704716205596925, 0.28189620971679685);57.2767028809;0.693698294348;;;;;;;;;;;;;;0;0;0;0;0;0;0;0;0;();(-2000.0, -2000.0);
03:30:11:133;03:30:11:108;1448461805.89;(0.34704716205596925, 0.28189620971679685);57.2767028809;0.693698294348;;;;;;;;;;;;;;0;0;0;0;0;0;0;0;0;();(-2000.0, -2000.0);
03:30:11:136;03:30:11:108;1448461805.89;(0.34704716205596925, 0.28189620971679685);57.2767028809;0.693698294348;;;;;;;;;;;;;;0;0;0;0;0;0;0;0;0;();(-2000.0, -2000.0);
03:30:11:139;03:30:11:108;1448461805.89;(0.34704716205596925, 0.28189620971679685);57.2767028809;0.693698294348;;;;;;;;;;;;;;0;0;0;0;0;0;0;0;0;();(-2000.0, -2000.0);
03:30:11:142;03:30:11:108;1448461805.89;(0.34704716205596925, 0.28189620971679685);57.2767028809;0.693698294348;;;;;;;;;;;;;;0;0;0;0;0;0;0;0;0;();(-2000.0, -2000.0);
03:30:11:146;03:30:11:108;1448461805.89;(0.34704716205596925, 0.28189620971679685);57.2767028809;0.693698294348;;;;;;;;;;;;;;0;0;0;0;0;0;0;0;0;();(-2000.0, -2000.0);
03:30:11:149;03:30:11:108;1448461805.89;(0.34704716205596925, 0.28189620971679685);57.2767028809;0.693698294348;;;;;;;;;;;;;;0;0;0;0;0;0;0;0;0;();(-2000.0, -2000.0);
03:30:11:153;03:30:11:152;1448461805.92;(0.3483477354049683, 0.2928947872585721);64.829498291;0.914073348326;;;;;;;;;;;;;;0;0;0;0;0;0;0;0;0;();(-2000.0, -2000.0);
03:30:11:169;03:30:11:153;1448461805.95;(0.34878242015838623, 0.2951426188151042);64.2860336304;0.818152071033;;;;;;;;;;;;;;0;0;0;0;0;0;0;0;0;();(-2000.0, -2000.0);
03:30:11:234;03:30:11:231;1448461806.02;(0.3489903450012207, 0.2953615400526258);64.258026123;1.0;;;;;;;;;;;;;;0;0;0;0;0;0;0;0;0;();(-2000.0, -2000.0);
03:30:11:238;03:30:11:231;1448461806.02;(0.3489903450012207, 0.2953615400526258);64.258026123;1.0;;;;;;;;;;;;;;0;0;0;0;0;0;0;0;0;();(-2000.0, -2000.0);
03:30:11:241;03:30:11:231;1448461806.02;(0.3489903450012207, 0.2953615400526258);64.258026123;1.0;;;;;;;;;;;;;;0;0;0;0;0;0;0;0;0;();(-2000.0, -2000.0);
03:30:13:916;03:30:13:887;1448461808.69;(0.38588848114013674, 0.29193467034233944);58.1838493347;1.0;;;;;;;;;;;;;;0;0;0;0;0;0;0;0;0;();(-2000.0, -2000.0);
03:30:13:920;03:30:13:887;1448461808.69;(0.38588848114013674, 0.29193467034233944);58.1838493347;1.0;;;;;;;;;;;;;;0;0;0;0;0;0;0;0;0;();(-2000.0, -2000.0);
03:30:13:923;03:30:13:887;1448461808.69;(0.38588848114013674, 0.29193467034233944);58.1838493347;1.0;;;;;;;;;;;;;;0;0;0;0;0;0;0;0;0;();(-2000.0, -2000.0);
03:30:13:926;03:30:13:887;1448461808.69;(0.38588848114013674, 0.29193467034233944);58.1838493347;1.0;;;;;;;;;;;;;;0;0;0;0;0;0;0;0;0;();(-2000.0, -2000.0);
03:30:13:930;03:30:13:927;1448461808.72;(0.3860021591186523, 0.29198684692382815);58.2830085754;1.0;;;;;;;;;;;;;;0;0;0;0;0;0;0;0;0;();(-2000.0, -2000.0);
03:30:13:934;03:30:13:927;1448461808.72;(0.3860021591186523, 0.29198684692382815);58.2830085754;1.0;;;;;;;;;;;;;;0;0;0;0;0;0;0;0;0;();(-2000.0, -2000.0);
03:30:13:936;03:30:13:927;1448461808.72;(0.3860021591186523, 0.29198684692382815);58.2830085754;1.0;;;;;;;;;;;;;;0;0;0;0;0;0;0;0;0;();(-2000.0, -2000.0);
03:30:13:939;03:30:13:927;1448461808.72;(0.3860021591186523, 0.29198684692382815);58.2830085754;1.0;;;;;;;;;;;;;;0;0;0;0;0;0;0;0;0;();(-2000.0, -2000.0);
03:30:13:942;03:30:13:927;1448461808.72;(0.3860021591186523, 0.29198684692382815);58.2830085754;1.0;;;;;;;;;;;;;;0;0;0;0;0;0;0;0;0;();(-2000.0, -2000.0);
03:30:13:946;03:30:13:927;1448461808.72;(0.3860021591186523, 0.29198684692382815);58.2830085754;1.0;;;;;;;;;;;;;;0;0;0;0;0;0;0;0;0;();(-2000.0, -2000.0);
03:30:13:949;03:30:13:927;1448461808.72;(0.3860021591186523, 0.29198684692382815);58.2830085754;1.0;;;;;;;;;;;;;;0;0;0;0;0;0;0;0;0;();(-2000.0, -2000.0);
03:30:13:951;03:30:13:927;1448461808.72;(0.3860021591186523, 0.29198684692382815);58.2830085754;1.0;;;;;;;;;;;;;;0;0;0;0;0;0;0;0;0;();(-2000.0, -2000.0);
03:30:13:954;03:30:13:927;1448461808.72;(0.3860021591186523, 0.29198684692382815);58.2830085754;1.0;;;;;;;;;;;;;;0;0;0;0;0;0;0;0;0;();(-2000.0, -2000.0);
03:30:13:957;03:30:13:927;1448461808.72;(0.3860021591186523, 0.29198684692382815);58.2830085754;1.0;;;;;;;;;;;;;;0;0;0;0;0;0;0;0;0;();(-2000.0, -2000.0);
03:30:13:960;03:30:13:927;1448461808.72;(0.3860021591186523, 0.29198684692382815);58.2830085754;1.0;;;;;;;;;;;;;;0;0;0;0;0;0;0;0;0;();(-2000.0, -2000.0);
03:30:13:964;03:30:13:927;1448461808.72;(0.3860021591186523, 0.29198684692382815);58.2830085754;1.0;;;;;;;;;;;;;;0;0;0;0;0;0;0;0;0;();(-2000.0, -2000.0);
03:30:13:968;03:30:13:927;1448461808.72;(0.3860021591186523, 0.29198684692382815);58.2830085754;1.0;;;;;;;;;;;;;;0;0;0;0;0;0;0;0;0;();(-2000.0, -2000.0);
03:30:13:973;03:30:13:971;1448461808.75;(0.38605623245239257, 0.29173177083333335);58.6024093628;1.0;;;;;;;;;;;;;;0;0;0;0;0;0;0;0;0;();(-2000.0, -2000.0);
03:30:13:979;03:30:13:973;1448461808.79;(0.3858412504196167, 0.29162245856391056);58.3125495911;1.0;;;;;;;;;;;;;;0;0;0;0;0;0;0;0;0;();(-2000.0, -2000.0);
03:30:13:984;03:30:13:973;1448461808.79;(0.3858412504196167, 0.29162245856391056);58.3125495911;1.0;;;;;;;;;;;;;;0;0;0;0;0;0;0;0;0;();(-2000.0, -2000.0);
03:30:14:002;03:30:13:973;1448461808.79;(0.3858412504196167, 0.29162245856391056);58.3125495911;1.0;;;;;;;;;;;;;;0;0;0;0;0;0;0;0;0;();(-2000.0, -2000.0);
03:30:14:019;03:30:14:011;1448461808.82;(0.3858975887298584, 0.2915628221299913);58.6898574829;1.0;;;;;;;;;;;;;;0;0;0;0;0;0;0;0;0;();(-2000.0, -2000.0);
03:30:14:053;03:30:14:011;1448461808.82;(0.3858975887298584, 0.2915628221299913);58.6898574829;1.0;;;;;;;;;;;;;;0;0;0;0;0;0;0;0;0;();(-2000.0, -2000.0);
03:30:14:069;03:30:14:055;1448461808.85;(0.38582687377929686, 0.2914908938937717);58.5227851868;1.0;;;;;;;;;;;;;;0;0;0;0;0;0;0;0;0;();(-2000.0, -2000.0);
03:30:14:086;03:30:14:055;1448461808.85;(0.38582687377929686, 0.2914908938937717);58.5227851868;1.0;;;;;;;;;;;;;;0;0;0;0;0;0;0;0;0;();(-2000.0, -2000.0);
03:30:14:103;03:30:14:095;1448461808.89;(0.39059650897979736, 0.29748658074273004);58.2932777405;1.0;;;;;;;;;;;;;;0;0;0;0;0;0;0;0;0;();(-2000.0, -2000.0);
03:30:14:122;03:30:14:095;1448461808.89;(0.39059650897979736, 0.29748658074273004);58.2932777405;1.0;;;;;;;;;;;;;;0;0;0;0;0;0;0;0;0;();(-2000.0, -2000.0);
03:30:14:155;03:30:14:141;1448461808.95;(0.4021947383880615, 0.3084123823377821);57.8948020935;1.0;;;;;;;;;;;;;;0;0;0;0;0;0;0;0;0;();(-2000.0, -2000.0);
03:30:14:170;03:30:14:141;1448461808.95;(0.4021947383880615, 0.3084123823377821);57.8948020935;1.0;;;;;;;;;;;;;;0;0;0;0;0;0;0;0;0;();(-2000.0, -2000.0);
03:30:14:188;03:30:14:179;1448461808.99;(0.402092719078064, 0.3084434085422092);57.9898910522;1.0;;;;;;;;;;;;;;0;0;0;0;0;0;0;0;0;();(-2000.0, -2000.0);
03:30:14:203;03:30:14:179;1448461808.99;(0.402092719078064, 0.3084434085422092);57.9898910522;1.0;;;;;;;;;;;;;;0;0;0;0;0;0;0;0;0;();(-2000.0, -2000.0);
03:30:14:221;03:30:14:219;1448461809.02;(0.4019035577774048, 0.30842013888888886);58.2134780884;1.0;;;;;;;;;;;;;;0;0;0;0;0;0;0;0;0;();(-2000.0, -2000.0);
03:30:14:253;03:30:14:219;1448461809.02;(0.4019035577774048, 0.30842013888888886);58.2134780884;1.0;;;;;;;;;;;;;;0;0;0;0;0;0;0;0;0;();(-2000.0, -2000.0);
03:30:14:270;03:30:14:268;1448461809.05;(0.4017140865325928, 0.3087402767605252);58.0759086609;1.0;;;;;;;;;;;;;;0;0;0;0;0;0;0;0;0;();(-2000.0, -2000.0);
03:30:14:287;03:30:14:268;1448461809.05;(0.4017140865325928, 0.3087402767605252);58.0759086609;1.0;;;;;;;;;;;;;;0;0;0;0;0;0;0;0;0;();(-2000.0, -2000.0);
03:30:14:305;03:30:14:303;1448461809.09;(0.40153558254241944, 0.3085720062255859);58.3837966919;1.0;;;;;;;;;;;;;;0;0;0;0;0;0;0;0;0;();(-2000.0, -2000.0);
03:30:14:320;03:30:14:303;1448461809.09;(0.40153558254241944, 0.3085720062255859);58.3837966919;1.0;;;;;;;;;;;;;;0;0;0;0;0;0;0;0;0;();(-2000.0, -2000.0);
03:30:14:354;03:30:14:349;1448461809.15;(0.401246976852417, 0.3083931393093533);58.5007629395;1.0;;;;;;;;;;;;;;0;0;0;0;0;0;0;0;0;();(-2000.0, -2000.0);
03:30:14:371;03:30:14:349;1448461809.15;(0.401246976852417, 0.3083931393093533);58.5007629395;1.0;;;;;;;;;;;;;;0;0;0;0;0;0;0;0;0;();(-2000.0, -2000.0);
03:30:14:387;03:30:14:349;1448461809.15;(0.401246976852417, 0.3083931393093533);58.5007629395;1.0;;;;;;;;;;;;;;0;0;0;0;0;0;0;0;0;();(-2000.0, -2000.0);
03:30:14:404;03:30:14:387;1448461809.19;(0.40242595672607423, 0.30816535949707036);58.4719352722;1.0;;;;;;;;;;;;;;0;0;0;0;0;0;0;0;0;();(-2000.0, -2000.0);
03:30:14:421;03:30:14:387;1448461809.19;(0.40242595672607423, 0.30816535949707036);58.4719352722;1.0;;;;;;;;;;;;;;0;0;0;0;0;0;0;0;0;();(-2000.0, -2000.0);
03:30:14:438;03:30:14:428;1448461809.22;(0.4093027591705322, 0.3069960700141059);57.5962791443;1.0;;;;;;;;;;;;;;0;0;0;0;0;0;0;0;0;();(-2000.0, -2000.0);
03:30:14:471;03:30:14:467;1448461809.25;(0.40933229923248293, 0.3072699652777777);57.6614685059;1.0;;;;;;;;;;;;;;0;0;0;0;0;0;0;0;0;();(-2000.0, -2000.0);
03:30:14:488;03:30:14:467;1448461809.25;(0.40933229923248293, 0.3072699652777777);57.6614685059;1.0;;;;;;;;;;;;;;0;0;0;0;0;0;0;0;0;();(-2000.0, -2000.0);
03:30:14:505;03:30:14:467;1448461809.25;(0.40933229923248293, 0.3072699652777777);57.6614685059;1.0;;;;;;;;;;;;;;0;0;0;0;0;0;0;0;0;();(-2000.0, -2000.0);
03:30:14:522;03:30:14:514;1448461809.32;(0.4088528394699097, 0.307754389444987);57.4347991943;1.0;;;;;;;;;;;;;;0;0;0;0;0;0;0;0;0;();(-2000.0, -2000.0);
03:30:14:555;03:30:14:551;1448461809.35;(0.40834865570068357, 0.3075448777940538);57.5533485413;1.0;;;;;;;;;;;;;;0;0;0;0;0;0;0;0;0;();(-2000.0, -2000.0);
03:30:14:573;03:30:14:551;1448461809.35;(0.40834865570068357, 0.3075448777940538);57.5533485413;1.0;;;;;;;;;;;;;;0;0;0;0;0;0;0;0;0;();(-2000.0, -2000.0);
03:30:14:589;03:30:14:551;1448461809.35;(0.40834865570068357, 0.3075448777940538);57.5533485413;1.0;;;;;;;;;;;;;;0;0;0;0;0;0;0;0;0;();(-2000.0, -2000.0);
03:30:15:132;03:30:15:092;1448461809.89;(0, 0);0;0;03:30:15:130;0;9;-1.5;2.07085020242915;1.46627565982405;0;0;0;1;1;1;1;0;0;0;0;0;0;0;0;0;();(-2000.0, -2000.0);
03:30:15:135;03:30:15:092;1448461809.89;(0, 0);0;0;03:30:15:135;0;9;-1.5;2.07085020242915;1.46627565982405;0;0;0;1;1;1;1;0;0;0;0;0;0;0;0;0;();(-2000.0, -2000.0);
03:30:15:139;03:30:15:136;1448461809.92;(0.37059166431427004, 0.29548556009928384);62.3044052124;1.0;03:30:15:139;0;9;-1.5;2.07085020242915;1.46627565982405;0;0;0;1;1;1;1;0;0;0;0;0;0;0;0;0;();(-2000.0, -2000.0);
03:30:15:143;03:30:15:136;1448461809.92;(0.37059166431427004, 0.29548556009928384);62.3044052124;1.0;03:30:15:143;0;9;-1.5;2.07085020242915;1.46627565982405;0;0;0;1;1;1;1;0;0;0;0;0;0;0;0;0;();(-2000.0, -2000.0);
03:30:15:146;03:30:15:136;1448461809.92;(0.37059166431427004, 0.29548556009928384);62.3044052124;1.0;03:30:15:146;0;9;-1.5;2.07085020242915;1.46627565982405;0;0;0;1;1;1;1;0;0;0;0;0;0;0;0;0;();(-2000.0, -2000.0);
03:30:15:150;03:30:15:136;1448461809.92;(0.37059166431427004, 0.29548556009928384);62.3044052124;1.0;03:30:15:150;0;9;-1.5;2.07085020242915;1.46627565982405;0;0;0;1;1;1;1;0;0;0;0;0;0;0;0;0;();(-2000.0, -2000.0);
03:30:15:154;03:30:15:136;1448461809.92;(0.37059166431427004, 0.29548556009928384);62.3044052124;1.0;03:30:15:154;0;7;-1.5;1.98640776699029;1.36852394916911;0;0;0;1;1;1;1;0;0;0;0;0;0;0;0;0;();(-2000.0, -2000.0);
03:30:15:158;03:30:15:136;1448461809.92;(0.37059166431427004, 0.29548556009928384);62.3044052124;1.0;03:30:15:158;0;0;-1.5;1.93383742911153;1.36852394916911;0;0;0;1;1;1;1;0;0;0;0;0;0;0;0;0;();(-2000.0, -2000.0);
03:30:15:161;03:30:15:136;1448461809.92;(0.37059166431427004, 0.29548556009928384);62.3044052124;1.0;03:30:15:161;0;10;-1.5;2.0501002004008;1.46627565982405;0;0;0;1;1;1;1;0;0;0;0;0;0;0;0;0;();(-2000.0, -2000.0);
03:30:15:164;03:30:15:136;1448461809.92;(0.37059166431427004, 0.29548556009928384);62.3044052124;1.0;03:30:15:164;0;10;-1.5;2.0501002004008;1.46627565982405;0;0;0;1;1;1;1;0;0;0;0;0;0;0;0;0;();(-2000.0, -2000.0);
03:30:15:168;03:30:15:136;1448461809.92;(0.37059166431427004, 0.29548556009928384);62.3044052124;1.0;03:30:15:168;0;10;-1.5;2.0501002004008;1.46627565982405;0;0;0;1;1;1;1;0;0;0;0;0;0;0;0;0;();(-2000.0, -2000.0);
03:30:15:171;03:30:15:136;1448461809.92;(0.37059166431427004, 0.29548556009928384);62.3044052124;1.0;03:30:15:171;0;5;-1.5;1.97109826589595;1.36852394916911;0;0;0;1;1;1;1;0;0;0;0;0;0;0;0;0;();(-2000.0, -2000.0);
03:30:15:174;03:30:15:136;1448461809.92;(0.37059166431427004, 0.29548556009928384);62.3044052124;1.0;03:30:15:174;0;5;-1.5;1.97109826589595;1.36852394916911;0;0;0;1;1;1;1;0;0;0;0;0;0;0;0;0;();(-2000.0, -2000.0);
03:30:15:178;03:30:15:136;1448461809.92;(0.37059166431427004, 0.29548556009928384);62.3044052124;1.0;03:30:15:178;0;5;-1.5;1.97109826589595;1.36852394916911;0;0;0;1;1;1;1;0;0;0;0;0;0;0;0;0;();(-2000.0, -2000.0);
03:30:15:182;03:30:15:180;1448461809.95;(0.3710846185684204, 0.29516491360134545);62.2693901062;1.0;03:30:15:182;0;5;-1.5;1.97109826589595;1.36852394916911;0;0;0;1;1;1;1;0;0;0;0;0;0;0;0;0;();(-2000.0, -2000.0);
03:30:15:186;03:30:15:181;1448461809.99;(0.37120010852813723, 0.2948799557156033);62.0013198853;1.0;03:30:15:186;0;5;-1.5;1.97109826589595;1.36852394916911;0;0;0;1;1;1;1;0;0;0;0;0;0;0;0;0;();(-2000.0, -2000.0);
03:30:15:189;03:30:15:181;1448461809.99;(0.37120010852813723, 0.2948799557156033);62.0013198853;1.0;03:30:15:189;0;0;-1.5;1.94117647058824;1.36852394916911;0;0;0;1;1;1;1;0;0;0;0;0;0;0;0;0;();(-2000.0, -2000.0);
03:30:15:193;03:30:15:181;1448461809.99;(0.37120010852813723, 0.2948799557156033);62.0013198853;1.0;03:30:15:193;0;10;-1.5;1.97109826589595;1.36852394916911;0;0;0;1;1;1;1;0;0;0;0;0;0;0;0;0;();(-2000.0, -2000.0);
03:30:15:197;03:30:15:181;1448461809.99;(0.37120010852813723, 0.2948799557156033);62.0013198853;1.0;03:30:15:197;0;10;-1.5;1.97109826589595;1.36852394916911;0;0;0;1;1;1;1;0;0;0;0;0;0;0;0;0;();(-2000.0, -2000.0);
03:30:15:201;03:30:15:181;1448461809.99;(0.37120010852813723, 0.2948799557156033);62.0013198853;1.0;03:30:15:200;0;10;-1.5;1.97109826589595;1.36852394916911;0;0;0;1;1;1;1;0;0;0;0;0;0;0;0;0;();(-2000.0, -2000.0);
03:30:15:204;03:30:15:181;1448461809.99;(0.37120010852813723, 0.2948799557156033);62.0013198853;1.0;03:30:15:204;0;10;-1.5;1.97109826589595;1.36852394916911;0;0;0;1;1;1;1;0;0;0;0;0;0;0;0;0;();(-2000.0, -2000.0);
03:30:15:226;03:30:15:215;1448461810.02;(0.37153794765472414, 0.2942325592041015);62.116355896;1.0;03:30:15:226;0;9;-1.5;1.94117647058824;1.46627565982405;0;0;0;1;1;1;1;0;0;0;0;0;0;0;0;0;();(-2000.0, -2000.0);
03:30:15:260;03:30:15:255;1448461810.05;(0.37167184352874755, 0.2943987952338325);61.5108947754;1.0;03:30:15:260;0;10;-1.5;1.98640776699029;1.36852394916911;0;0;0;1;1;1;1;0;0;0;0;0;0;0;0;0;();(-2000.0, -2000.0);
03:30:15:277;03:30:15:255;1448461810.05;(0.37167184352874755, 0.2943987952338325);61.5108947754;1.0;03:30:15:277;0;15;-1.5;1.92655367231638;1.36852394916911;0;0;0;1;1;1;1;0;0;0;0;0;0;0;0;0;();(-2000.0, -2000.0);
03:30:15:294;03:30:15:255;1448461810.05;(0.37167184352874755, 0.2943987952338325);61.5108947754;1.0;03:30:15:294;0;9;-1.5;1.79789103690685;1.17302052785924;0;0;0;1;1;1;1;0;0;0;0;0;0;0;0;0;();(-2000.0, -2000.0);
03:30:15:310;03:30:15:306;1448461810.12;(0.37185680866241455, 0.2943287743462457);61.1712303162;1.0;03:30:15:310;0;4;-1.5;1.81705150976909;1.36852394916911;0;0;0;1;1;1;1;0;0;0;0;0;0;0;0;0;();(-2000.0, -2000.0);
03:30:15:327;03:30:15:306;1448461810.12;(0.37185680866241455, 0.2943287743462457);61.1712303162;1.0;03:30:15:327;0;10;-1.5;1.88745387453875;1.17302052785924;0;0;0;1;1;1;1;0;0;0;0;0;0;0;0;0;();(-2000.0, -2000.0);
03:30:15:360;03:30:15:343;1448461810.15;(0.3721418857574463, 0.2937572903103298);61.1223220825;1.0;03:30:15:360;0;10;-1.5;1.98640776699029;1.46627565982405;0;0;0;1;1;1;1;0;0;0;0;0;0;0;0;0;();(-2000.0, -2000.0);
03:30:15:377;03:30:15:343;1448461810.15;(0.3721418857574463, 0.2937572903103298);61.1223220825;1.0;03:30:15:377;0;4;-1.5;2.11801242236025;1.46627565982405;0;0;0;1;1;1;1;0;0;0;0;0;0;0;0;0;();(-2000.0, -2000.0);
03:30:15:394;03:30:15:383;1448461810.19;(0.3722491502761841, 0.2935220506456163);61.0345726013;1.0;03:30:15:394;0;9;-1.5;2.13125;1.46627565982405;0;0;0;1;1;1;1;0;0;0;0;0;0;0;0;0;();(-2000.0, -2000.0);
03:30:15:410;03:30:15:383;1448461810.19;(0.3722491502761841, 0.2935220506456163);61.0345726013;1.0;03:30:15:410;0;0;-1.5;2.13125;1.66177908113392;0;0;0;1;1;1;1;0;0;0;0;0;0;0;0;0;();(-2000.0, -2000.0);
03:30:15:427;03:30:15:383;1448461810.19;(0.3722491502761841, 0.2935220506456163);61.0345726013;1.0;03:30:15:427;0;10;-1.5;2.30925507900677;2.34604105571848;0;0;0;1;1;1;1;0;0;0;0;0;0;0;0;0;();(-2000.0, -2000.0);
03:30:15:461;03:30:15:429;1448461810.22;(0.3729080677032471, 0.2935354868570964);61.0342674255;1.0;03:30:15:461;0;9;-1.5;2.24835164835165;1.46627565982405;0;0;0;1;1;1;1;0;0;0;0;0;0;0;0;0;();(-2000.0, -2000.0);
03:30:15:478;03:30:15:467;1448461810.25;(0.3948299169540405, 0.3053408728705512);59.519153595;1.0;03:30:15:478;0;0;-1.5;2.36805555555556;1.66177908113392;0;0;0;1;1;1;1;0;0;0;0;0;0;0;0;0;();(-2000.0, -2000.0);
03:30:15:494;03:30:15:467;1448461810.25;(0.3948299169540405, 0.3053408728705512);59.519153595;1.0;03:30:15:494;0;5;-1.5;2.27839643652561;1.46627565982405;0;0;0;1;1;1;1;0;0;0;0;0;0;0;0;0;();(-2000.0, -2000.0);
03:30:15:511;03:30:15:507;1448461810.29;(0.39909203052520753, 0.30559370252821183);59.2900009155;1.0;03:30:15:511;0;15;-1.5;2.46506024096386;1.85728250244379;0;0;0;1;1;1;1;0;0;0;0;0;0;0;0;0;();(-2000.0, -2000.0);
03:30:15:528;03:30:15:507;1448461810.29;(0.39909203052520753, 0.30559370252821183);59.2900009155;1.0;03:30:15:528;0;4;-1.5;2.36805555555556;1.95503421309873;0;0;0;1;1;1;1;0;0;0;0;0;0;0;0;0;();(-2000.0, -2000.0);
03:30:15:545;03:30:15:507;1448461810.29;(0.39909203052520753, 0.30559370252821183);59.2900009155;1.0;03:30:15:545;0;15;-1.5;2.35172413793103;1.85728250244379;0;0;0;1;1;1;1;0;0;0;0;0;0;0;0;0;();(-2000.0, -2000.0);
03:30:15:579;03:30:15:551;1448461810.32;(0.3994619846343994, 0.3053262498643663);59.5952453613;1.0;03:30:15:579;0;10;-1.5;2.25330396475771;1.85728250244379;0;0;0;1;1;1;1;0;0;0;0;0;0;0;0;0;();(-2000.0, -2000.0);
03:30:15:595;03:30:15:593;1448461810.39;(0.39928231239318845, 0.30402340359157987);59.4823493958;1.0;03:30:15:595;0;4;-1.5;2.2;1.46627565982405;0;0;0;1;1;1;1;0;0;0;0;0;0;0;0;0;();(-2000.0, -2000.0);
03:30:15:612;03:30:15:593;1448461810.39;(0.39928231239318845, 0.30402340359157987);59.4823493958;1.0;03:30:15:612;0;9;-1.5;2.16737288135593;2.1505376344086;0;0;0;1;1;1;1;0;0;0;0;0;0;0;0;0;();(-2000.0, -2000.0);
03:30:15:629;03:30:15:593;1448461810.39;(0.39928231239318845, 0.30402340359157987);59.4823493958;1.0;03:30:15:629;0;15;-1.5;2.20950323974082;1.46627565982405;0;0;0;1;1;1;1;0;0;0;0;0;0;0;0;0;();(-2000.0, -2000.0);
03:30:15:645;03:30:15:636;1448461810.45;(0.39964244365692136, 0.3024098714192708);59.6274375916;1.0;03:30:15:645;0;10;-1.5;2.325;1.66177908113392;0;0;0;1;1;1;1;0;0;0;0;0;0;0;0;0;();(-2000.0, -2000.0);
03:30:15:679;03:30:15:675;1448461810.49;(0.4002328157424927, 0.3012953016493055);59.4302177429;1.0;03:30:15:679;0;10;-1.5;2.30405405405405;1.66177908113392;0;0;0;1;1;1;1;0;0;0;0;0;0;0;0;0;();(-2000.0, -2000.0);
03:30:15:696;03:30:15:675;1448461810.49;(0.4002328157424927, 0.3012953016493055);59.4302177429;1.0;03:30:15:696;0;14;-1.5;2.21428571428571;1.46627565982405;0;0;0;1;1;1;1;0;0;0;0;0;0;0;0;0;();(-2000.0, -2000.0);
03:30:15:712;03:30:15:675;1448461810.49;(0.4002328157424927, 0.3012953016493055);59.4302177429;1.0;03:30:15:712;0;10;-1.5;2.0501002004008;1.46627565982405;0;0;0;1;1;1;1;0;0;0;0;0;0;0;0;0;();(-2000.0, -2000.0);
03:30:15:729;03:30:15:715;1448461810.52;(0.4142860174179077, 0.29472011990017366);58.5301971436;1.0;03:30:15:729;0;15;-1.5;1.69370860927152;0.684261974584555;0;0;0;1;1;1;1;0;0;0;0;0;0;0;0;0;();(-2000.0, -2000.0);
03:30:15:746;03:30:15:715;1448461810.52;(0.4142860174179077, 0.29472011990017366);58.5301971436;1.0;03:30:15:746;0;10;-1.5;2.24835164835165;1.85728250244379;0;0;0;1;1;1;1;0;0;0;0;0;0;0;0;0;();(-2000.0, -2000.0);
03:30:15:779;03:30:15:759;1448461810.55;(0.413332200050354, 0.29316402011447484);58.2919616699;0.925788187305;03:30:15:779;0;9;-1.5;2.41843971631206;1.85728250244379;0;0;0;1;1;1;1;0;0;0;0;0;0;0;0;0;();(-2000.0, -2000.0);
03:30:15:796;03:30:15:759;1448461810.55;(0.413332200050354, 0.29316402011447484);58.2919616699;0.925788187305;03:30:15:796;0;8;-1.5;2.64341085271318;2.1505376344086;0;0;0;1;1;1;1;0;0;0;0;0;0;0;0;0;();(-2000.0, -2000.0);
03:30:15:813;03:30:15:799;1448461810.59;(0.4121405839920044, 0.2934924655490452);58.0077018738;1.0;03:30:15:813;0;10;-1.5;2.64341085271318;2.1505376344086;0;0;0;1;1;1;1;0;0;0;0;0;0;0;0;0;();(-2000.0, -2000.0);
03:30:15:830;03:30:15:799;1448461810.59;(0.4121405839920044, 0.2934924655490452);58.0077018738;1.0;03:30:15:830;0;15;-1.5;2.50735294117647;2.34604105571848;0;0;0;1;1;1;1;0;0;0;0;0;0;0;0;0;();(-2000.0, -2000.0);
03:30:15:847;03:30:15:841;1448461810.65;(0.4109898567199707, 0.29322319030761723);57.7244110107;1.0;03:30:15:847;0;4;-1.5;2.50122249388753;2.34604105571848;0;0;0;1;1;1;1;0;0;0;0;0;0;0;0;0;();(-2000.0, -2000.0);
03:30:15:880;03:30:15:841;1448461810.65;(0.4109898567199707, 0.29322319030761723);57.7244110107;1.0;03:30:15:880;0;5;-1.5;2.41843971631206;1.85728250244379;0;0;0;1;1;1;1;0;0;0;0;0;0;0;0;0;();(-2000.0, -2000.0);
03:30:15:897;03:30:15:884;1448461810.69;(0.41035029888153074, 0.29187575446234804);57.8008804321;1.0;03:30:15:897;0;15;-1.5;2.36805555555556;2.1505376344086;0;0;0;1;1;1;1;0;0;0;0;0;0;0;0;0;();(-2000.0, -2000.0);
03:30:15:914;03:30:15:884;1448461810.69;(0.41035029888153074, 0.29187575446234804);57.8008804321;1.0;03:30:15:914;0;4;-1.5;2.28348214285714;1.66177908113392;0;0;0;1;1;1;1;0;0;0;0;0;0;0;0;0;();(-2000.0, -2000.0);
03:30:15:930;03:30:15:923;1448461810.72;(0.4092787504196167, 0.29099049038357205);57.8284339905;1.0;03:30:15:930;0;9;-1.5;2.35172413793103;1.66177908113392;0;0;0;1;1;1;1;0;0;0;0;0;0;0;0;0;();(-2000.0, -2000.0);
03:30:15:947;03:30:15:923;1448461810.72;(0.4092787504196167, 0.29099049038357205);57.8284339905;1.0;03:30:15:947;0;0;-1.5;2.07926829268293;1.85728250244379;0;0;0;1;1;1;1;0;0;0;0;0;0;0;0;0;();(-2000.0, -2000.0);
03:30:15:981;03:30:15:963;1448461810.75;(0.40906100273132323, 0.2888708750406901);58.4740867615;1.0;03:30:15:981;0;15;-1.5;2.21428571428571;1.46627565982405;0;0;0;1;1;1;1;0;0;0;0;0;0;0;0;0;();(-2000.0, -2000.0);
03:30:15:998;03:30:15:963;1448461810.75;(0.40906100273132323, 0.2888708750406901);58.4740867615;1.0;03:30:15:998;0;10;-1.5;2.35172413793103;1.66177908113392;0;0;0;1;1;1;1;0;0;0;0;0;0;0;0;0;();(-2000.0, -2000.0);
03:30:16:014;03:30:16:007;1448461810.79;(0.4467945098876953, 0.26362898084852426);58.7898139954;1.0;03:30:16:014;0;15;-1.5;2.58333333333333;1.85728250244379;0;0;0;1;1;1;1;0;0;0;0;0;0;0;0;0;();(-2000.0, -2000.0);
03:30:16:032;03:30:16:007;1448461810.79;(0.4467945098876953, 0.26362898084852426);58.7898139954;1.0;03:30:16:032;0;9;-1.5;2.65714285714286;2.1505376344086;0;0;0;1;1;1;1;0;0;0;0;0;0;0;0;0;();(-2000.0, -2000.0);
03:30:16:049;03:30:16:047;1448461810.82;(0.44629578590393065, 0.25646472507052953);56.9942436218;1.0;03:30:16:049;0;0;-1.5;2.58333333333333;1.95503421309873;0;0;0;1;1;1;1;0;0;0;0;0;0;0;0;0;();(-2000.0, -2000.0);
03:30:16:081;03:30:16:049;1448461810.85;(0.4452062606811523, 0.256777106391059);57.2876167297;1.0;03:30:16:081;0;15;-1.5;2.77235772357724;2.34604105571848;0;0;0;1;1;1;1;0;0;0;0;0;0;0;0;0;();(-2000.0, -2000.0);
03:30:16:099;03:30:16:091;1448461810.89;(0.44437074661254883, 0.25560565524631074);57.0000495911;1.0;03:30:16:099;0;9;-1.5;2.36805555555556;1.66177908113392;0;0;0;1;1;1;1;0;0;0;0;0;0;0;0;0;();(-2000.0, -2000.0);
03:30:16:115;03:30:16:091;1448461810.89;(0.44437074661254883, 0.25560565524631074);57.0000495911;1.0;03:30:16:115;0;0;-1.5;2.53846153846154;2.63929618768328;0;0;0;1;1;1;1;0;0;0;0;0;0;0;0;0;();(-2000.0, -2000.0);
03:30:16:131;03:30:16:091;1448461810.89;(0.44437074661254883, 0.25560565524631074);57.0000495911;1.0;03:30:16:131;0;10;-1.5;2.64341085271318;2.1505376344086;0;0;0;1;1;1;1;0;0;0;0;0;0;0;0;0;();(-2000.0, -2000.0);
03:30:16:148;03:30:16:131;1448461810.92;(0.4417844772338867, 0.2538777669270833);56.5944023132;0.926998495088;03:30:16:148;0;15;-1.5;2.77989130434783;2.34604105571848;0;0;0;1;1;1;1;0;0;0;0;0;0;0;0;0;();(-2000.0, -2000.0);
03:30:16:165;03:30:16:131;1448461810.92;(0.4417844772338867, 0.2538777669270833);56.5944023132;0.926998495088;03:30:16:165;0;4;-1.5;3.1671826625387;2.73704789833822;0;0;0;1;1;1;1;0;0;0;0;0;0;0;0;0;();(-2000.0, -2000.0);
03:30:16:199;03:30:16:171;1448461810.95;(0.6336390495300293, 0.12684495713975696);26.4677391052;0.856407541388;03:30:16:199;0;5;-1.5;2.72074468085106;2.34604105571848;0;0;0;1;1;1;1;0;0;0;0;0;0;0;0;0;();(-2000.0, -2000.0);
03:30:16:215;03:30:16:171;1448461810.95;(0.6336390495300293, 0.12684495713975696);26.4677391052;0.856407541388;03:30:16:215;0;10;-1.5;2.81043956043956;2.34604105571848;0;0;0;1;1;1;1;0;0;0;0;0;0;0;0;0;();(-2000.0, -2000.0);
03:30:16:232;03:30:16:220;1448461811.02;(0.5779497623443604, 0.1942425198025174);19.8786811829;0.827038291901;03:30:16:232;0;4;-1.5;2.6640625;2.34604105571848;0;0;0;1;1;1;1;0;0;0;0;0;0;0;0;0;();(-2000.0, -2000.0);
03:30:16:249;03:30:16:220;1448461811.02;(0.5779497623443604, 0.1942425198025174);19.8786811829;0.827038291901;03:30:16:249;0;15;-1.5;2.99122807017544;2.34604105571848;0;0;0;1;1;1;1;0;0;0;0;0;0;0;0;0;();(-2000.0, -2000.0);
03:30:16:267;03:30:16:255;1448461811.05;(0.37119326591491697, 0.27600233289930554);60.4959220886;0.631990029482;03:30:16:267;0;4;-1.5;2.77989130434783;2.34604105571848;0;0;0;1;1;1;1;0;0;0;0;0;0;0;0;0;();(-2000.0, -2000.0);
03:30:16:299;03:30:16:295;1448461811.09;(0.37572550773620605, 0.2704712761773004);60.0273399353;0.99003713745;03:30:16:299;0;5;-1.5;2.6640625;2.1505376344086;0;0;0;1;1;1;1;0;0;0;0;0;0;0;0;0;();(-2000.0, -2000.0);
03:30:16:316;03:30:16:295;1448461811.09;(0.37572550773620605, 0.2704712761773004);60.0273399353;0.99003713745;03:30:16:316;0;9;-1.5;2.61636828644501;1.95503421309873;0;0;0;1;1;1;1;0;0;0;0;0;0;0;0;0;();(-2000.0, -2000.0);
03:30:16:333;03:30:16:295;1448461811.09;(0.37572550773620605, 0.2704712761773004);60.0273399353;0.99003713745;03:30:16:333;0;15;-1.5;2.6640625;2.1505376344086;0;0;0;1;1;1;1;0;0;0;0;0;0;0;0;0;();(-2000.0, -2000.0);
03:30:16:350;03:30:16:341;1448461811.15;(0.37809205055236816, 0.2687441931830512);60.5013961792;0.81113290961;03:30:16:350;0;9;-1.5;3.03560830860534;2.93255131964809;0;0;0;1;1;1;1;0;0;0;0;0;0;0;0;0;();(-2000.0, -2000.0);
03:30:16:366;03:30:16:341;1448461811.15;(0.37809205055236816, 0.2687441931830512);60.5013961792;0.81113290961;03:30:16:366;0;5;-1.5;3.33224755700326;2.73704789833822;0;0;0;1;1;1;1;0;0;0;0;0;0;0;0;0;();(-2000.0, -2000.0);
03:30:16:400;03:30:16:341;1448461811.15;(0.37809205055236816, 0.2687441931830512);60.5013961792;0.81113290961;03:30:16:400;0;15;-1.5;2.16737288135593;1.46627565982405;0;0;0;1;1;1;1;0;0;0;0;0;0;0;0;0;();(-2000.0, -2000.0);
03:30:16:417;03:30:16:341;1448461811.15;(0.37809205055236816, 0.2687441931830512);60.5013961792;0.81113290961;03:30:16:417;0;4;-1.5;2.325;1.85728250244379;0;0;0;1;1;1;1;0;0;0;0;0;0;0;0;0;();(-2000.0, -2000.0);
03:30:16:434;03:30:16:424;1448461811.22;(0.3823330163955688, 0.266607920328776);61.1613121033;0.839222562421;03:30:16:434;0;0;-1.5;2.89801699716714;2.34604105571848;0;0;0;1;1;1;1;0;0;0;0;0;0;0;0;0;();(-2000.0, -2000.0);
03:30:16:450;03:30:16:424;1448461811.22;(0.3823330163955688, 0.266607920328776);61.1613121033;0.839222562421;03:30:16:450;0;5;-1.5;2.88169014084507;2.34604105571848;0;0;0;1;1;1;1;0;0;0;0;0;0;0;0;0;();(-2000.0, -2000.0);
03:30:16:467;03:30:16:463;1448461811.25;(0.38524832725524905, 0.2672102186414931);60.8743934631;1.0;03:30:16:467;0;15;-1.5;3.10942249240122;2.44379276637341;0;0;0;1;1;1;1;0;0;0;0;0;0;0;0;0;();(-2000.0, -2000.0);
03:30:16:500;03:30:16:463;1448461811.25;(0.38524832725524905, 0.2672102186414931);60.8743934631;1.0;03:30:16:500;0;4;-1.5;2.84958217270195;2.34604105571848;0;0;0;1;1;1;1;0;0;0;0;0;0;0;0;0;();(-2000.0, -2000.0);
03:30:16:518;03:30:16:503;1448461811.29;(0.3867631196975708, 0.268256590101454);61.1854248047;0.808522726652;03:30:16:518;0;5;-1.5;2.93965517241379;2.73704789833822;0;0;0;1;1;1;1;0;0;0;0;0;0;0;0;0;();(-2000.0, -2000.0);
03:30:16:534;03:30:16:503;1448461811.29;(0.3867631196975708, 0.268256590101454);61.1854248047;0.808522726652;03:30:16:534;0;0;-1.5;2.90625;2.34604105571848;0;0;0;1;1;1;1;0;0;0;0;0;0;0;0;0;();(-2000.0, -2000.0);
03:30:16:552;03:30:16:550;1448461811.35;(0.39044373035430907, 0.27171677483452694);61.4406814575;0.917179888986;03:30:16:551;0;4;-1.5;2.72074468085106;2.34604105571848;0;0;0;1;1;1;1;0;0;0;0;0;0;0;0;0;();(-2000.0, -2000.0);
03:30:16:568;03:30:16:550;1448461811.35;(0.39044373035430907, 0.27171677483452694);61.4406814575;0.917179888986;03:30:16:568;0;1;-1.5;2.97383720930233;2.34604105571848;0;0;0;1;1;1;1;0;0;0;0;0;0;0;0;0;();(-2000.0, -2000.0);
03:30:16:602;03:30:16:588;1448461811.39;(0.3914011240005493, 0.27328762478298607);61.4021568298;1.0;03:30:16:602;0;10;-1.5;2.84958217270195;2.73704789833822;0;0;0;1;1;1;1;0;0;0;0;0;0;0;0;0;();(-2000.0, -2000.0);
03:30:16:618;03:30:16:588;1448461811.39;(0.3914011240005493, 0.27328762478298607);61.4021568298;1.0;03:30:16:618;0;5;-1.5;2.77989130434783;2.34604105571848;0;0;0;1;1;1;1;0;0;0;0;0;0;0;0;0;();(-2000.0, -2000.0);
03:30:16:635;03:30:16:627;1448461811.42;(0.39050705432891847, 0.2735400729709201);61.7226982117;1.0;03:30:16:635;0;10;-1.5;2.47101449275362;1.85728250244379;0;0;0;1;1;1;1;0;0;0;0;0;0;0;0;0;();(-2000.0, -2000.0);
03:30:16:651;03:30:16:627;1448461811.42;(0.39050705432891847, 0.2735400729709201);61.7226982117;1.0;03:30:16:651;0;4;-1.5;2.84958217270195;2.34604105571848;0;0;0;1;1;1;1;0;0;0;0;0;0;0;0;0;();(-2000.0, -2000.0);
03:30:16:668;03:30:16:627;1448461811.42;(0.39050705432891847, 0.2735400729709201);61.7226982117;1.0;03:30:16:668;0;9;-1.5;2.84958217270195;2.34604105571848;0;0;0;1;1;1;1;0;0;0;0;0;0;0;0;0;();(-2000.0, -2000.0);
03:30:16:685;03:30:16:672;1448461811.45;(0.3752700090408325, 0.26750272115071616);62.8631362915;1.0;03:30:16:685;0;5;-1.5;3.01769911504425;2.34604105571848;0;0;0;1;1;1;1;0;0;0;0;0;0;0;0;0;();(-2000.0, -2000.0);
03:30:16:718;03:30:16:712;1448461811.52;(0.3758256435394287, 0.26936450534396705);63.3203582764;1.0;03:30:16:718;0;4;-1.5;2.89801699716714;2.73704789833822;0;0;0;1;1;1;1;0;0;0;0;0;0;0;0;0;();(-2000.0, -2000.0);
03:30:16:735;03:30:16:712;1448461811.52;(0.3758256435394287, 0.26936450534396705);63.3203582764;1.0;03:30:16:735;0;9;-1.5;3.08132530120482;2.44379276637341;0;0;0;1;1;1;1;0;0;0;0;0;0;0;0;0;();(-2000.0, -2000.0);
03:30:16:752;03:30:16:712;1448461811.52;(0.3758256435394287, 0.26936450534396705);63.3203582764;1.0;03:30:16:752;0;4;-1.5;2.84958217270195;2.73704789833822;0;0;0;1;1;1;1;0;0;0;0;0;0;0;0;0;();(-2000.0, -2000.0);
03:30:16:770;03:30:16:755;1448461811.55;(0.3759655714035034, 0.2697119818793403);63.7387428284;1.0;03:30:16:770;0;10;-1.5;3.20689655172414;2.73704789833822;0;0;0;1;1;1;1;0;0;0;0;0;0;0;0;0;();(-2000.0, -2000.0);
03:30:16:786;03:30:16:755;1448461811.55;(0.3759655714035034, 0.2697119818793403);63.7387428284;1.0;03:30:16:786;0;0;-1.5;3.36513157894737;2.93255131964809;0;0;0;1;1;1;1;0;0;0;0;0;0;0;0;0;();(-2000.0, -2000.0);
03:30:16:819;03:30:16:795;1448461811.59;(0.37622432708740233, 0.26998354593912766);64.0307693481;1.0;03:30:16:819;0;15;-1.5;3.20689655172414;2.73704789833822;0;0;0;1;1;1;1;0;0;0;0;0;0;0;0;0;();(-2000.0, -2000.0);
03:30:16:837;03:30:16:836;1448461811.62;(0.3763955354690552, 0.27051984998914935);64.0060348511;1.0;03:30:16:837;0;5;-1.5;2.97383720930233;2.34604105571848;0;0;0;1;1;1;1;0;0;0;0;0;0;0;0;0;();(-2000.0, -2000.0);
03:30:16:853;03:30:16:836;1448461811.62;(0.3763955354690552, 0.27051984998914935);64.0060348511;1.0;03:30:16:853;0;0;-1.5;3.12844036697248;2.44379276637341;0;0;0;1;1;1;1;0;0;0;0;0;0;0;0;0;();(-2000.0, -2000.0);
03:30:16:870;03:30:16:836;1448461811.62;(0.3763955354690552, 0.27051984998914935);64.0060348511;1.0;03:30:16:870;0;4;-1.5;2.72074468085106;2.93255131964809;0;0;0;1;1;1;1;0;0;0;0;0;0;0;0;0;();(-2000.0, -2000.0);
03:30:16:886;03:30:16:880;1448461811.69;(0.3766481876373291, 0.2721249898274739);64.2565231323;1.0;03:30:16:886;0;15;-1.5;2.61636828644501;1.95503421309873;0;0;0;1;1;1;1;0;0;0;0;0;0;0;0;0;();(-2000.0, -2000.0);
03:30:16:920;03:30:16:880;1448461811.69;(0.3766481876373291, 0.2721249898274739);64.2565231323;1.0;03:30:16:920;0;0;-1.5;2.84958217270195;2.34604105571848;0;0;0;1;1;1;1;0;0;0;0;0;0;0;0;0;();(-2000.0, -2000.0);
03:30:16:938;03:30:16:920;1448461811.72;(0.37684557437896726, 0.27314487033420143);64.3332748413;1.0;03:30:16:938;0;5;-1.5;2.93965517241379;2.34604105571848;0;0;0;1;1;1;1;0;0;0;0;0;0;0;0;0;();(-2000.0, -2000.0);
03:30:16:953;03:30:16:920;1448461811.72;(0.37684557437896726, 0.27314487033420143);64.3332748413;1.0;03:30:16:953;0;15;-1.5;3.05373134328358;2.34604105571848;0;0;0;1;1;1;1;0;0;0;0;0;0;0;0;0;();(-2000.0, -2000.0);
03:30:16:970;03:30:16:959;1448461811.75;(0.3773233890533447, 0.27423002454969614);64.4438858032;1.0;03:30:16:970;0;4;-1.5;2.6640625;2.1505376344086;0;0;0;1;1;1;1;0;0;0;0;0;0;0;0;0;();(-2000.0, -2000.0);
03:30:16:987;03:30:16:959;1448461811.75;(0.3773233890533447, 0.27423002454969614);64.4438858032;1.0;03:30:16:987;0;10;-1.5;3.01769911504425;2.34604105571848;0;0;0;1;1;1;1;0;0;0;0;0;0;0;0;0;();(-2000.0, -2000.0);
03:30:17:020;03:30:16:959;1448461811.75;(0.3773233890533447, 0.27423002454969614);64.4438858032;1.0;03:30:17:020;0;0;-1.5;2.88169014084507;2.73704789833822;0;0;0;1;1;1;1;0;0;0;0;0;0;0;0;0;();(-2000.0, -2000.0);
03:30:17:037;03:30:16:959;1448461811.75;(0.3773233890533447, 0.27423002454969614);64.4438858032;1.0;03:30:17:037;0;15;-1.5;2.90625;2.34604105571848;0;0;0;1;1;1;1;0;0;0;0;0;0;0;0;0;();(-2000.0, -2000.0);
03:30:17:054;03:30:17:043;1448461811.79;(0.3895742893218994, 0.27711838616265194);63.9902038574;0.880579702441;03:30:17:054;0;9;-1.5;2.77235772357724;2.34604105571848;0;0;0;1;1;1;1;0;0;0;0;0;0;0;0;0;();(-2000.0, -2000.0);
03:30:17:071;03:30:17:043;1448461811.79;(0.3895742893218994, 0.27711838616265194);63.9902038574;0.880579702441;03:30:17:071;0;0;-1.5;2.56390977443609;1.85728250244379;0;0;0;1;1;1;1;0;0;0;0;0;0;0;0;0;();(-2000.0, -2000.0);
03:30:17:087;03:30:17:083;1448461811.87;(0.41229045391082764, 0.281199476453993);62.6010322571;1.0;03:30:17:087;0;10;-1.5;2.0625;1.46627565982405;0;0;0;1;1;1;1;0;0;0;0;0;0;0;0;0;();(-2000.0, -2000.0);
03:30:17:121;03:30:17:083;1448461811.87;(0.41229045391082764, 0.281199476453993);62.6010322571;1.0;03:30:17:121;0;4;-1.5;2.77235772357724;2.34604105571848;0;0;0;1;1;1;1;0;0;0;0;0;0;0;0;0;();(-2000.0, -2000.0);
03:30:17:139;03:30:17:130;1448461811.92;(0.4113960266113281, 0.28404151068793404);62.9380607605;1.0;03:30:17:139;0;15;-1.5;2.77989130434783;2.34604105571848;0;0;0;1;1;1;1;0;0;0;0;0;0;0;0;0;();(-2000.0, -2000.0);
03:30:17:154;03:30:17:130;1448461811.92;(0.4113960266113281, 0.28404151068793404);62.9380607605;1.0;03:30:17:154;0;10;-1.5;2.77235772357724;2.34604105571848;0;0;0;1;1;1;1;0;0;0;0;0;0;0;0;0;();(-2000.0, -2000.0);
03:30:17:171;03:30:17:167;1448461811.95;(0.4108947038650513, 0.28481559753417973);62.6630439758;1.0;03:30:17:171;0;0;-1.5;2.71352785145889;2.93255131964809;0;0;0;1;1;1;1;0;0;0;0;0;0;0;0;0;();(-2000.0, -2000.0);
03:30:17:188;03:30:17:167;1448461811.95;(0.4108947038650513, 0.28481559753417973);62.6630439758;1.0;03:30:17:188;0;4;-1.5;2.75741239892183;2.34604105571848;0;0;0;1;1;1;1;0;0;0;0;0;0;0;0;0;();(-2000.0, -2000.0);
03:30:17:205;03:30:17:167;1448461811.95;(0.4108947038650513, 0.28481559753417973);62.6630439758;1.0;03:30:17:205;0;15;-1.5;2.53846153846154;1.85728250244379;0;0;0;1;1;1;1;0;0;0;0;0;0;0;0;0;();(-2000.0, -2000.0);
03:30:17:238;03:30:17:212;1448461812.02;(0.4103210210800171, 0.28607529534233944);62.5733451843;1.0;03:30:17:238;0;0;-1.5;2.46506024096386;1.85728250244379;0;0;0;1;1;1;1;0;0;0;0;0;0;0;0;0;();(-2000.0, -2000.0);
03:30:17:255;03:30:17:251;1448461812.05;(0.41005649566650393, 0.2864078945583768);62.6230354309;1.0;03:30:17:255;0;10;-1.5;2.58333333333333;1.85728250244379;0;0;0;1;1;1;1;0;0;0;0;0;0;0;0;0;();(-2000.0, -2000.0);
03:30:17:273;03:30:17:251;1448461812.05;(0.41005649566650393, 0.2864078945583768);62.6230354309;1.0;03:30:17:272;0;0;-1.5;2.53846153846154;2.44379276637341;0;0;0;1;1;1;1;0;0;0;0;0;0;0;0;0;();(-2000.0, -2000.0);
03:30:17:290;03:30:17:251;1448461812.05;(0.41005649566650393, 0.2864078945583768);62.6230354309;1.0;03:30:17:290;0;4;-1.5;2.33561643835616;1.95503421309873;0;0;0;1;1;1;1;0;0;0;0;0;0;0;0;0;();(-2000.0, -2000.0);
03:30:17:305;03:30:17:291;1448461812.09;(0.4096123695373535, 0.2866182539198133);62.6126251221;1.0;03:30:17:305;0;15;-1.5;2.22391304347826;1.85728250244379;0;0;0;1;1;1;1;0;0;0;0;0;0;0;0;0;();(-2000.0, -2000.0);
03:30:17:340;03:30:17:335;1448461812.12;(0.40929906368255614, 0.28723695543077254);62.4718475342;1.0;03:30:17:340;0;10;-1.5;1.95229007633588;1.36852394916911;0;0;0;1;1;1;1;0;0;0;0;0;0;0;0;0;();(-2000.0, -2000.0);
03:30:17:357;03:30:17:335;1448461812.12;(0.40929906368255614, 0.28723695543077254);62.4718475342;1.0;03:30:17:357;0;15;-1.5;2.16737288135593;1.66177908113392;0;0;0;1;1;1;1;0;0;0;0;0;0;0;0;0;();(-2000.0, -2000.0);
03:30:17:372;03:30:17:335;1448461812.12;(0.40929906368255614, 0.28723695543077254);62.4718475342;1.0;03:30:17:372;0;15;-1.5;2.16737288135593;1.66177908113392;0;0;0;1;1;1;1;0;0;0;0;0;0;0;0;0;();(-2000.0, -2000.0);
03:30:17:389;03:30:17:375;1448461812.15;(0.4130396366119385, 0.28752941555447054);63.5520706177;1.0;03:30:17:389;0;4;-1.5;2.24835164835165;1.46627565982405;0;0;0;1;1;1;1;0;0;0;0;0;0;0;0;0;();(-2000.0, -2000.0);
03:30:17:406;03:30:17:375;1448461812.15;(0.4130396366119385, 0.28752941555447054);63.5520706177;1.0;03:30:17:406;0;10;-1.5;2.325;1.66177908113392;0;0;0;1;1;1;1;0;0;0;0;0;0;0;0;0;();(-2000.0, -2000.0);
03:30:17:440;03:30:17:415;1448461812.19;(0.42646691799163816, 0.2869743347167969);61.4887809753;1.0;03:30:17:440;0;4;-1.5;2.56390977443609;1.85728250244379;0;0;0;1;1;1;1;0;0;0;0;0;0;0;0;0;();(-2000.0, -2000.0);
03:30:17:456;03:30:17:415;1448461812.19;(0.42646691799163816, 0.2869743347167969);61.4887809753;1.0;03:30:17:456;0;15;-1.5;2.44152744630072;2.1505376344086;0;0;0;1;1;1;1;0;0;0;0;0;0;0;0;0;();(-2000.0, -2000.0);
03:30:17:473;03:30:17:460;1448461812.25;(0.42544167041778563, 0.2883451249864366);61.6499252319;1.0;03:30:17:473;0;10;-1.5;2.58333333333333;2.34604105571848;0;0;0;1;1;1;1;0;0;0;0;0;0;0;0;0;();(-2000.0, -2000.0);
03:30:17:492;03:30:17:460;1448461812.25;(0.42544167041778563, 0.2883451249864366);61.6499252319;1.0;03:30:17:492;0;5;-1.5;2.61636828644501;2.34604105571848;0;0;0;1;1;1;1;0;0;0;0;0;0;0;0;0;();(-2000.0, -2000.0);
03:30:17:508;03:30:17:499;1448461812.29;(0.42483742237091066, 0.2892721388075087);61.6070289612;1.0;03:30:17:507;0;11;-1.5;2.58333333333333;2.34604105571848;0;0;0;1;1;1;1;0;0;0;0;0;0;0;0;0;();(-2000.0, -2000.0);
03:30:17:540;03:30:17:499;1448461812.29;(0.42483742237091066, 0.2892721388075087);61.6070289612;1.0;03:30:17:540;0;4;-1.5;2.28348214285714;1.66177908113392;0;0;0;1;1;1;1;0;0;0;0;0;0;0;0;0;();(-2000.0, -2000.0);
03:30:17:557;03:30:17:544;1448461812.35;(0.4240835189819336, 0.29046745300292964);61.7678909302;1.0;03:30:17:557;0;0;-1.5;2.37906976744186;1.66177908113392;0;0;0;1;1;1;1;0;0;0;0;0;0;0;0;0;();(-2000.0, -2000.0);
03:30:17:574;03:30:17:544;1448461812.35;(0.4240835189819336, 0.29046745300292964);61.7678909302;1.0;03:30:17:574;0;5;-1.5;2.325;2.34604105571848;0;0;0;1;1;1;1;0;0;0;0;0;0;0;0;0;();(-2000.0, -2000.0);
03:30:17:590;03:30:17:583;1448461812.39;(0.423991322517395, 0.2909483167860243);62.0102424622;1.0;03:30:17:590;0;15;-1.5;2.41843971631206;1.85728250244379;0;0;0;1;1;1;1;0;0;0;0;0;0;0;0;0;();(-2000.0, -2000.0);
03:30:17:607;03:30:17:583;1448461812.39;(0.423991322517395, 0.2909483167860243);62.0102424622;1.0;03:30:17:607;0;4;-1.5;2.22391304347826;1.46627565982405;0;0;0;1;1;1;1;0;0;0;0;0;0;0;0;0;();(-2000.0, -2000.0);
03:30:17:642;03:30:17:624;1448461812.42;(0.42399001121520996, 0.291230731540256);61.9883003235;1.0;03:30:17:642;0;5;-1.5;2.07085020242915;1.56402737047898;0;0;0;1;1;1;1;0;0;0;0;0;0;0;0;0;();(-2000.0, -2000.0);
03:30:17:658;03:30:17:624;1448461812.42;(0.42399001121520996, 0.291230731540256);61.9883003235;1.0;03:30:17:658;0;0;-1.5;2.28348214285714;1.85728250244379;0;0;0;1;1;1;1;0;0;0;0;0;0;0;0;0;();(-2000.0, -2000.0);
03:30:17:674;03:30:17:667;1448461812.45;(0.4241506338119507, 0.2915586259629991);61.9297943115;1.0;03:30:17:674;0;4;-1.5;2.19057815845824;2.1505376344086;0;0;0;1;1;1;1;0;0;0;0;0;0;0;0;0;();(-2000.0, -2000.0);
03:30:17:691;03:30:17:667;1448461812.45;(0.4241506338119507, 0.2915586259629991);61.9297943115;1.0;03:30:17:691;0;9;-1.5;1.998046875;1.36852394916911;0;0;0;1;1;1;1;0;0;0;0;0;0;0;0;0;();(-2000.0, -2000.0);
03:30:17:709;03:30:17:707;1448461812.49;(0.42435297966003416, 0.291567611694336);61.978843689;1.0;03:30:17:708;0;5;-1.5;2.07926829268293;1.56402737047898;0;0;0;1;1;1;1;0;0;0;0;0;0;0;0;0;();(-2000.0, -2000.0);
03:30:17:725;03:30:17:707;1448461812.49;(0.42435297966003416, 0.291567611694336);61.978843689;1.0;03:30:17:725;0;10;-1.5;2.35172413793103;1.66177908113392;0;0;0;1;1;1;1;0;0;0;0;0;0;0;0;0;();(-2000.0, -2000.0);
03:30:17:758;03:30:17:707;1448461812.49;(0.42435297966003416, 0.291567611694336);61.978843689;1.0;03:30:17:758;0;10;-1.5;2.36805555555556;2.1505376344086;0;0;0;1;1;1;1;0;0;0;0;0;0;0;0;0;();(-2000.0, -2000.0);
03:30:17:775;03:30:17:707;1448461812.49;(0.42435297966003416, 0.291567611694336);61.978843689;1.0;03:30:17:775;0;10;-1.5;2.36805555555556;2.1505376344086;0;0;0;1;1;1;1;0;0;0;0;0;0;0;0;0;();(-2000.0, -2000.0);
03:30:17:793;03:30:17:792;1448461812.52;(0.41461634635925293, 0.2897257063123915);60.9631385803;0.889977040326;03:30:17:793;0;9;-1.5;2.11801242236025;1.46627565982405;0;0;0;1;1;1;1;0;0;0;0;0;0;0;0;0;();(-2000.0, -2000.0);
03:30:17:808;03:30:17:792;1448461812.52;(0.41461634635925293, 0.2897257063123915);60.9631385803;0.889977040326;03:30:17:808;0;5;-1.5;1.73389830508475;1.17302052785924;0;0;0;1;1;1;1;0;0;0;0;0;0;0;0;0;();(-2000.0, -2000.0);
03:30:17:825;03:30:17:792;1448461812.52;(0.41461634635925293, 0.2897257063123915);60.9631385803;0.889977040326;03:30:17:825;0;10;-1.5;1.80742049469965;1.17302052785924;0;0;0;1;1;1;1;0;0;0;0;0;0;0;0;0;();(-2000.0, -2000.0);
03:30:17:859;03:30:17:832;1448461812.65;(0.3981266975402832, 0.28421791924370665);63.0419044495;1.0;03:30:17:859;0;10;-1.5;2.13125;1.46627565982405;0;0;0;1;1;1;1;0;0;0;0;0;0;0;0;0;();(-2000.0, -2000.0);
03:30:17:877;03:30:17:876;1448461812.66;(0.39770610332489015, 0.284561284383138);63.3176994324;1.0;03:30:17:877;0;0;-1.5;2.24835164835165;1.46627565982405;0;0;0;1;1;1;1;0;0;0;0;0;0;0;0;0;();(-2000.0, -2000.0);
03:30:17:892;03:30:17:877;1448461812.69;(0.397309398651123, 0.2855098724365235);63.2854194641;1.0;03:30:17:892;0;10;-1.5;2.16279069767442;1.46627565982405;0;0;0;1;1;1;1;0;0;0;0;0;0;0;0;0;();(-2000.0, -2000.0);
03:30:17:909;03:30:17:877;1448461812.69;(0.397309398651123, 0.2855098724365235);63.2854194641;1.0;03:30:17:909;0;15;-1.5;2.36258660508083;1.66177908113392;0;0;0;1;1;1;1;0;0;0;0;0;0;0;0;0;();(-2000.0, -2000.0);
03:30:17:926;03:30:17:915;1448461812.72;(0.39726526737213136, 0.28623831007215716);63.2693367004;1.0;03:30:17:926;0;10;-1.5;2.16737288135593;1.46627565982405;0;0;0;1;1;1;1;0;0;0;0;0;0;0;0;0;();(-2000.0, -2000.0);
03:30:17:959;03:30:17:955;1448461812.75;(0.397256064414978, 0.2865139007568359);63.2930679321;1.0;03:30:17:959;0;5;-1.5;2.19057815845824;1.46627565982405;0;0;0;1;1;1;1;0;0;0;0;0;0;0;0;0;();(-2000.0, -2000.0);
03:30:17:976;03:30:17:955;1448461812.75;(0.397256064414978, 0.2865139007568359);63.2930679321;1.0;03:30:17:976;0;15;-1.5;2.21428571428571;1.46627565982405;0;0;0;1;1;1;1;0;0;0;0;0;0;0;0;0;();(-2000.0, -2000.0);
03:30:17:993;03:30:17:955;1448461812.75;(0.397256064414978, 0.2865139007568359);63.2930679321;1.0;03:30:17:993;0;4;-1.5;2.21428571428571;1.46627565982405;0;0;0;1;1;1;1;0;0;0;0;0;0;0;0;0;();(-2000.0, -2000.0);
03:30:18:011;03:30:17:999;1448461812.79;(0.3970186233520508, 0.286352793375651);63.6006202698;1.0;03:30:18:011;0;9;-1.5;2.24835164835165;2.34604105571848;0;0;0;1;1;1;1;0;0;0;0;0;0;0;0;0;();(-2000.0, -2000.0);
03:30:18:026;03:30:17:999;1448461812.79;(0.3970186233520508, 0.286352793375651);63.6006202698;1.0;03:30:18:026;0;5;-1.5;2.24835164835165;1.46627565982405;0;0;0;1;1;1;1;0;0;0;0;0;0;0;0;0;();(-2000.0, -2000.0);
03:30:18:060;03:30:18:039;1448461812.82;(0.39710900783538816, 0.28008516099717884);62.6853561401;1.0;03:30:18:060;0;15;-1.5;2.25330396475771;1.46627565982405;0;0;0;1;1;1;1;0;0;0;0;0;0;0;0;0;();(-2000.0, -2000.0);
03:30:18:077;03:30:18:039;1448461812.82;(0.39710900783538816, 0.28008516099717884);62.6853561401;1.0;03:30:18:077;0;15;-1.5;2.25330396475771;1.46627565982405;0;0;0;1;1;1;1;0;0;0;0;0;0;0;0;0;();(-2000.0, -2000.0);
03:30:18:094;03:30:18:083;1448461812.85;(0.5916105747222901, 0.2021853976779514);33.8013801575;0.666379469684;03:30:18:094;0;15;-1.5;2.16737288135593;1.46627565982405;0;0;0;1;1;1;1;0;0;0;0;0;0;0;0;0;();(-2000.0, -2000.0);
03:30:18:110;03:30:18:083;1448461812.85;(0.5916105747222901, 0.2021853976779514);33.8013801575;0.666379469684;03:30:18:110;0;10;-1.5;2.36258660508083;1.85728250244379;0;0;0;1;1;1;1;0;0;0;0;0;0;0;0;0;();(-2000.0, -2000.0);
03:30:18:127;03:30:18:125;1448461812.92;(0, 0);0;0;03:30:18:127;0;15;-1.5;2.41843971631206;1.85728250244379;0;0;0;1;1;1;1;0;0;0;0;0;0;0;0;0;();(-2000.0, -2000.0);
03:30:18:161;03:30:18:125;1448461812.92;(0, 0);0;0;03:30:18:161;0;4;-1.5;2.28348214285714;2.34604105571848;0;0;0;1;1;1;1;0;0;0;0;0;0;0;0;0;();(-2000.0, -2000.0);
03:30:18:178;03:30:18:165;1448461812.95;(0, 0);0;0;03:30:18:178;0;9;-1.5;2.47101449275362;1.85728250244379;0;0;0;1;1;1;1;0;0;0;0;0;0;0;0;0;();(-2000.0, -2000.0);
03:30:18:195;03:30:18:165;1448461812.95;(0, 0);0;0;03:30:18:195;0;0;-1.5;2.37906976744186;1.66177908113392;0;0;0;1;1;1;1;0;0;0;0;0;0;0;0;0;();(-2000.0, -2000.0);
03:30:18:212;03:30:18:208;1448461812.99;(0.37967467308044434, 0.2831877814398871);63.7591896057;0.876230659088;03:30:18:212;0;5;-1.5;2.55112219451372;2.34604105571848;0;0;0;1;1;1;1;0;0;0;0;0;0;0;0;0;();(-2000.0, -2000.0);
03:30:18:230;03:30:18:208;1448461812.99;(0.37967467308044434, 0.2831877814398871);63.7591896057;0.876230659088;03:30:18:230;0;15;-1.5;2.48300970873786;1.85728250244379;0;0;0;1;1;1;1;0;0;0;0;0;0;0;0;0;();(-2000.0, -2000.0);
03:30:18:262;03:30:18:248;1448461813.02;(0.3791899919509888, 0.28659786648220487);64.1665115356;1.0;03:30:18:262;0;15;-1.5;2.36805555555556;1.66177908113392;0;0;0;1;1;1;1;0;0;0;0;0;0;0;0;0;();(-2000.0, -2000.0);
03:30:18:279;03:30:18:248;1448461813.02;(0.3791899919509888, 0.28659786648220487);64.1665115356;1.0;03:30:18:279;0;9;-1.5;2.28348214285714;1.46627565982405;0;0;0;1;1;1;1;0;0;0;0;0;0;0;0;0;();(-2000.0, -2000.0);
03:30:18:296;03:30:18:289;1448461813.09;(0.3799742221832275, 0.28695153130425344);64.1006393433;1.0;03:30:18:296;0;0;-1.5;2.19057815845824;1.85728250244379;0;0;0;1;1;1;1;0;0;0;0;0;0;0;0;0;();(-2000.0, -2000.0);
03:30:18:313;03:30:18:289;1448461813.09;(0.3799742221832275, 0.28695153130425344);64.1006393433;1.0;03:30:18:313;0;4;-1.5;2.36805555555556;1.66177908113392;0;0;0;1;1;1;1;0;0;0;0;0;0;0;0;0;();(-2000.0, -2000.0);
03:30:18:329;03:30:18:289;1448461813.09;(0.3799742221832275, 0.28695153130425344);64.1006393433;1.0;03:30:18:329;0;10;-1.5;2.39018691588785;1.66177908113392;0;0;0;1;1;1;1;0;0;0;0;0;0;0;0;0;();(-2000.0, -2000.0);
03:30:18:346;03:30:18:332;1448461813.12;(0.3803539752960205, 0.28686858283148875);64.0353240967;1.0;03:30:18:346;0;4;-1.5;2.24835164835165;1.46627565982405;0;0;0;1;1;1;1;0;0;0;0;0;0;0;0;0;();(-2000.0, -2000.0);
03:30:18:380;03:30:18:373;1448461813.19;(0.3811931133270264, 0.2873879750569661);64.2779159546;1.0;03:30:18:380;0;15;-1.5;2.41843971631206;1.85728250244379;0;0;0;1;1;1;1;0;0;0;0;0;0;0;0;0;();(-2000.0, -2000.0);
03:30:18:397;03:30:18:373;1448461813.19;(0.3811931133270264, 0.2873879750569661);64.2779159546;1.0;03:30:18:397;0;10;-1.5;2.16737288135593;1.46627565982405;0;0;0;1;1;1;1;0;0;0;0;0;0;0;0;0;();(-2000.0, -2000.0);
03:30:18:413;03:30:18:373;1448461813.19;(0.3811931133270264, 0.2873879750569661);64.2779159546;1.0;03:30:18:413;0;4;-1.5;2.30405405405405;1.66177908113392;0;0;0;1;1;1;1;0;0;0;0;0;0;0;0;0;();(-2000.0, -2000.0);
03:30:18:430;03:30:18:413;1448461813.22;(0.38148069381713867, 0.2874402787950304);64.3230361938;1.0;03:30:18:430;0;9;-1.5;2.16737288135593;1.46627565982405;0;0;0;1;1;1;1;0;0;0;0;0;0;0;0;0;();(-2000.0, -2000.0);
03:30:18:447;03:30:18:413;1448461813.22;(0.38148069381713867, 0.2874402787950304);64.3230361938;1.0;03:30:18:447;0;5;-1.5;2.24835164835165;1.46627565982405;0;0;0;1;1;1;1;0;0;0;0;0;0;0;0;0;();(-2000.0, -2000.0);
03:30:18:480;03:30:18:456;1448461813.25;(0.3816488265991211, 0.2871774461534288);64.2537307739;1.0;03:30:18:480;0;15;-1.5;2.39018691588785;2.1505376344086;0;0;0;1;1;1;1;0;0;0;0;0;0;0;0;0;();(-2000.0, -2000.0);
03:30:18:498;03:30:18:497;1448461813.29;(0.3819237470626831, 0.28723470899793835);64.2512207031;1.0;03:30:18:498;0;10;-1.5;2.50735294117647;1.85728250244379;0;0;0;1;1;1;1;0;0;0;0;0;0;0;0;0;();(-2000.0, -2000.0);
03:30:18:514;03:30:18:497;1448461813.29;(0.3819237470626831, 0.28723470899793835);64.2512207031;1.0;03:30:18:514;0;0;-1.5;2.13125;1.66177908113392;0;0;0;1;1;1;1;0;0;0;0;0;0;0;0;0;();(-2000.0, -2000.0);
03:30:18:531;03:30:18:497;1448461813.29;(0.3819237470626831, 0.28723470899793835);64.2512207031;1.0;03:30:18:531;0;10;-1.5;1.88745387453875;1.46627565982405;0;0;0;1;1;1;1;0;0;0;0;0;0;0;0;0;();(-2000.0, -2000.0);
03:30:18:547;03:30:18:542;1448461813.35;(0.3820011138916016, 0.28693220350477433);64.8492431641;1.0;03:30:18:547;0;0;-1.5;2.10493827160494;1.46627565982405;0;0;0;1;1;1;1;0;0;0;0;0;0;0;0;0;();(-2000.0, -2000.0);
03:30:18:582;03:30:18:581;1448461813.39;(0.38204596042633054, 0.2869613223605686);65.024269104;1.0;03:30:18:582;0;15;-1.5;2.47101449275362;1.85728250244379;0;0;0;1;1;1;1;0;0;0;0;0;0;0;0;0;();(-2000.0, -2000.0);
03:30:18:598;03:30:18:581;1448461813.39;(0.38204596042633054, 0.2869613223605686);65.024269104;1.0;03:30:18:598;0;10;-1.5;2.6640625;2.1505376344086;0;0;0;1;1;1;1;0;0;0;0;0;0;0;0;0;();(-2000.0, -2000.0);
03:30:18:614;03:30:18:581;1448461813.39;(0.38204596042633054, 0.2869613223605686);65.024269104;1.0;03:30:18:614;0;0;-1.5;2.55112219451372;2.73704789833822;0;0;0;1;1;1;1;0;0;0;0;0;0;0;0;0;();(-2000.0, -2000.0);
03:30:18:631;03:30:18:620;1448461813.42;(0.3882110357284546, 0.2830008188883464);64.93384552;1.0;03:30:18:631;0;4;-1.5;2.44152744630072;2.34604105571848;0;0;0;1;1;1;1;0;0;0;0;0;0;0;0;0;();(-2000.0, -2000.0);
03:30:18:648;03:30:18:620;1448461813.42;(0.3882110357284546, 0.2830008188883464);64.93384552;1.0;03:30:18:648;0;15;-1.5;2.28348214285714;1.66177908113392;0;0;0;1;1;1;1;0;0;0;0;0;0;0;0;0;();(-2000.0, -2000.0);
03:30:18:681;03:30:18:665;1448461813.45;(0.3883781671524048, 0.28225118849012587);65.2107162476;1.0;03:30:18:681;0;0;-1.5;2.48300970873786;1.85728250244379;0;0;0;1;1;1;1;0;0;0;0;0;0;0;0;0;();(-2000.0, -2000.0);
03:30:18:699;03:30:18:665;1448461813.45;(0.3883781671524048, 0.28225118849012587);65.2107162476;1.0;03:30:18:699;0;4;-1.5;2.28348214285714;1.85728250244379;0;0;0;1;1;1;1;0;0;0;0;0;0;0;0;0;();(-2000.0, -2000.0);
03:30:18:715;03:30:18:706;1448461813.52;(0.38859665393829346, 0.2819804297553168);65.1517715454;1.0;03:30:18:715;0;15;-1.5;2.28348214285714;1.85728250244379;0;0;0;1;1;1;1;0;0;0;0;0;0;0;0;0;();(-2000.0, -2000.0);
03:30:18:732;03:30:18:706;1448461813.52;(0.38859665393829346, 0.2819804297553168);65.1517715454;1.0;03:30:18:732;0;15;-1.5;2.13125;1.46627565982405;0;0;0;1;1;1;1;0;0;0;0;0;0;0;0;0;();(-2000.0, -2000.0);
03:30:18:749;03:30:18:744;1448461813.55;(0.3886563777923584, 0.2820982191297743);65.2589645386;1.0;03:30:18:749;0;10;-1.5;2.35172413793103;1.66177908113392;0;0;0;1;1;1;1;0;0;0;0;0;0;0;0;0;();(-2000.0, -2000.0);
03:30:18:782;03:30:18:744;1448461813.55;(0.3886563777923584, 0.2820982191297743);65.2589645386;1.0;03:30:18:782;0;10;-1.5;2.325;1.66177908113392;0;0;0;1;1;1;1;0;0;0;0;0;0;0;0;0;();(-2000.0, -2000.0);
03:30:18:799;03:30:18:788;1448461813.59;(0.388643741607666, 0.28209444681803386);65.1425247192;1.0;03:30:18:799;0;4;-1.5;2.44152744630072;1.85728250244379;0;0;0;1;1;1;1;0;0;0;0;0;0;0;0;0;();(-2000.0, -2000.0);
03:30:18:816;03:30:18:788;1448461813.59;(0.388643741607666, 0.28209444681803386);65.1425247192;1.0;03:30:18:816;0;9;-1.5;2.37906976744186;1.66177908113392;0;0;0;1;1;1;1;0;0;0;0;0;0;0;0;0;();(-2000.0, -2000.0);
03:30:18:833;03:30:18:829;1448461813.62;(0.3888793230056763, 0.2823856777615017);65.1344223022;1.0;03:30:18:833;0;4;-1.5;2.22391304347826;1.85728250244379;0;0;0;1;1;1;1;0;0;0;0;0;0;0;0;0;();(-2000.0, -2000.0);
03:30:18:849;03:30:18:829;1448461813.62;(0.3888793230056763, 0.2823856777615017);65.1344223022;1.0;03:30:18:849;0;10;-1.5;2.30405405405405;1.66177908113392;0;0;0;1;1;1;1;0;0;0;0;0;0;0;0;0;();(-2000.0, -2000.0);
