%Timestamp,timestamp_write;timestamp_gotpupil;eyeTrackerTime;normPos;diameter;confidence;timestamp_gotbitdata;CRC;SEQ;AnalogOutp1;AnalogOutp2;AnalogOutp3;AnalogOutp4;AnalogOutp5;AnalogOutp6;DigitalOutp1;DigitalOutp2;DigitalOutp3;DigitalOutp4;nplanes;listofAirplanesonScreen;lastAction;lastActionDetails;lastActionAirplaneNumber;calculatedScore;positiveScore;negativeScore;collidedAirplaneNumbers;targetPositions;collisionPoint
03:35:46:031;03:35:46:024;1448462140.8;(0.4040504455566406, 0.26568539937337243);61.4218902588;1.0;;;;;;;;;;;;;;0;10,23;0;0;0;0;0;0;0;();(0.0, 0.0);
03:35:46:052;03:35:46:031;1448462140.84;(0.4037846803665161, 0.2651780446370443);61.4531784058;1.0;;;;;;;;;;;;;;0;10,23;0;0;0;0;0;0;0;();(-2000.0, -2000.0);
03:35:46:060;03:35:46:031;1448462140.84;(0.4037846803665161, 0.2651780446370443);61.4531784058;1.0;;;;;;;;;;;;;;0;0;0;0;0;10;2;0;0;();(-2000.0, -2000.0);
03:35:46:066;03:35:46:031;1448462140.84;(0.4037846803665161, 0.2651780446370443);61.4531784058;1.0;;;;;;;;;;;;;;0;0;0;0;0;10;2;0;0;();(-2000.0, -2000.0);
03:35:46:072;03:35:46:064;1448462140.87;(0.40308992862701415, 0.26493928697374136);61.5156745911;1.0;;;;;;;;;;;;;;0;0;0;0;0;10;2;0;0;();(-2000.0, -2000.0);
03:35:46:077;03:35:46:064;1448462140.87;(0.40308992862701415, 0.26493928697374136);61.5156745911;1.0;;;;;;;;;;;;;;0;0;0;0;0;10;2;0;0;();(-2000.0, -2000.0);
03:35:46:081;03:35:46:064;1448462140.87;(0.40308992862701415, 0.26493928697374136);61.5156745911;1.0;;;;;;;;;;;;;;0;0;0;0;0;10;2;0;0;();(-2000.0, -2000.0);
03:35:46:083;03:35:46:064;1448462140.87;(0.40308992862701415, 0.26493928697374136);61.5156745911;1.0;;;;;;;;;;;;;;0;0;0;0;0;10;2;0;0;();(-2000.0, -2000.0);
03:35:46:086;03:35:46:064;1448462140.87;(0.40308992862701415, 0.26493928697374136);61.5156745911;1.0;;;;;;;;;;;;;;0;0;0;0;0;10;2;0;0;();(-2000.0, -2000.0);
03:35:46:090;03:35:46:064;1448462140.87;(0.40308992862701415, 0.26493928697374136);61.5156745911;1.0;;;;;;;;;;;;;;0;0;0;0;0;10;2;0;0;();(-2000.0, -2000.0);
03:35:46:092;03:35:46:064;1448462140.87;(0.40308992862701415, 0.26493928697374136);61.5156745911;1.0;;;;;;;;;;;;;;0;0;0;0;0;10;2;0;0;();(-2000.0, -2000.0);
03:35:46:096;03:35:46:064;1448462140.87;(0.40308992862701415, 0.26493928697374136);61.5156745911;1.0;;;;;;;;;;;;;;0;0;0;0;0;10;2;0;0;();(-2000.0, -2000.0);
03:35:46:098;03:35:46:064;1448462140.87;(0.40308992862701415, 0.26493928697374136);61.5156745911;1.0;;;;;;;;;;;;;;0;0;0;0;0;10;2;0;0;();(-2000.0, -2000.0);
03:35:46:101;03:35:46:064;1448462140.87;(0.40308992862701415, 0.26493928697374136);61.5156745911;1.0;;;;;;;;;;;;;;0;0;0;0;0;10;2;0;0;();(-2000.0, -2000.0);
03:35:46:105;03:35:46:064;1448462140.87;(0.40308992862701415, 0.26493928697374136);61.5156745911;1.0;;;;;;;;;;;;;;0;0;0;0;0;10;2;0;0;();(-2000.0, -2000.0);
03:35:46:108;03:35:46:103;1448462140.9;(0.4025049448013306, 0.2644501156277127);61.4432525635;1.0;;;;;;;;;;;;;;0;0;0;0;0;10;2;0;0;();(-2000.0, -2000.0);
03:35:46:112;03:35:46:103;1448462140.9;(0.4025049448013306, 0.2644501156277127);61.4432525635;1.0;;;;;;;;;;;;;;0;0;0;0;0;10;2;0;0;();(-2000.0, -2000.0);
03:35:46:116;03:35:46:103;1448462140.9;(0.4025049448013306, 0.2644501156277127);61.4432525635;1.0;;;;;;;;;;;;;;0;0;0;0;0;10;2;0;0;();(-2000.0, -2000.0);
03:35:46:120;03:35:46:103;1448462140.9;(0.4025049448013306, 0.2644501156277127);61.4432525635;1.0;;;;;;;;;;;;;;0;0;0;0;0;10;2;0;0;();(-2000.0, -2000.0);
03:35:46:123;03:35:46:103;1448462140.9;(0.4025049448013306, 0.2644501156277127);61.4432525635;1.0;;;;;;;;;;;;;;0;0;0;0;0;10;2;0;0;();(-2000.0, -2000.0);
03:35:46:127;03:35:46:103;1448462140.9;(0.4025049448013306, 0.2644501156277127);61.4432525635;1.0;;;;;;;;;;;;;;0;0;0;0;0;10;2;0;0;();(-2000.0, -2000.0);
03:35:46:130;03:35:46:103;1448462140.9;(0.4025049448013306, 0.2644501156277127);61.4432525635;1.0;;;;;;;;;;;;;;0;0;0;0;0;10;2;0;0;();(-2000.0, -2000.0);
03:35:46:133;03:35:46:103;1448462140.9;(0.4025049448013306, 0.2644501156277127);61.4432525635;1.0;;;;;;;;;;;;;;0;0;0;0;0;10;2;0;0;();(-2000.0, -2000.0);
03:35:46:136;03:35:46:103;1448462140.9;(0.4025049448013306, 0.2644501156277127);61.4432525635;1.0;;;;;;;;;;;;;;0;0;0;0;0;10;2;0;0;();(-2000.0, -2000.0);
03:35:48:859;03:35:48:843;1448462143.64;(0, 0);0;0;;;;;;;;;;;;;;0;0;0;0;0;10;2;0;0;();(-2000.0, -2000.0);
03:35:48:863;03:35:48:843;1448462143.64;(0, 0);0;0;;;;;;;;;;;;;;0;0;0;0;0;10;2;0;0;();(-2000.0, -2000.0);
03:35:48:867;03:35:48:843;1448462143.64;(0, 0);0;0;;;;;;;;;;;;;;0;0;0;0;0;10;2;0;0;();(-2000.0, -2000.0);
03:35:48:870;03:35:48:843;1448462143.64;(0, 0);0;0;;;;;;;;;;;;;;0;0;0;0;0;10;2;0;0;();(-2000.0, -2000.0);
03:35:48:874;03:35:48:843;1448462143.64;(0, 0);0;0;;;;;;;;;;;;;;0;0;0;0;0;10;2;0;0;();(-2000.0, -2000.0);
03:35:48:877;03:35:48:843;1448462143.64;(0, 0);0;0;;;;;;;;;;;;;;0;0;0;0;0;10;2;0;0;();(-2000.0, -2000.0);
03:35:48:881;03:35:48:843;1448462143.64;(0, 0);0;0;;;;;;;;;;;;;;0;0;0;0;0;10;2;0;0;();(-2000.0, -2000.0);
03:35:48:884;03:35:48:843;1448462143.64;(0, 0);0;0;;;;;;;;;;;;;;0;0;0;0;0;10;2;0;0;();(-2000.0, -2000.0);
03:35:48:889;03:35:48:883;1448462143.67;(0.40618960857391356, 0.2807360331217448);52.94972229;0.719587180727;;;;;;;;;;;;;;0;0;0;0;0;10;2;0;0;();(-2000.0, -2000.0);
03:35:48:893;03:35:48:883;1448462143.67;(0.40618960857391356, 0.2807360331217448);52.94972229;0.719587180727;;;;;;;;;;;;;;0;0;0;0;0;10;2;0;0;();(-2000.0, -2000.0);
03:35:48:897;03:35:48:883;1448462143.67;(0.40618960857391356, 0.2807360331217448);52.94972229;0.719587180727;;;;;;;;;;;;;;0;0;0;0;0;10;2;0;0;();(-2000.0, -2000.0);
03:35:48:899;03:35:48:883;1448462143.67;(0.40618960857391356, 0.2807360331217448);52.94972229;0.719587180727;;;;;;;;;;;;;;0;0;0;0;0;10;2;0;0;();(-2000.0, -2000.0);
03:35:48:902;03:35:48:883;1448462143.67;(0.40618960857391356, 0.2807360331217448);52.94972229;0.719587180727;;;;;;;;;;;;;;0;0;0;0;0;10;2;0;0;();(-2000.0, -2000.0);
03:35:48:904;03:35:48:883;1448462143.67;(0.40618960857391356, 0.2807360331217448);52.94972229;0.719587180727;;;;;;;;;;;;;;0;0;0;0;0;10;2;0;0;();(-2000.0, -2000.0);
03:35:48:907;03:35:48:883;1448462143.67;(0.40618960857391356, 0.2807360331217448);52.94972229;0.719587180727;;;;;;;;;;;;;;0;0;0;0;0;10;2;0;0;();(-2000.0, -2000.0);
03:35:48:909;03:35:48:883;1448462143.67;(0.40618960857391356, 0.2807360331217448);52.94972229;0.719587180727;;;;;;;;;;;;;;0;0;0;0;0;10;2;0;0;();(-2000.0, -2000.0);
03:35:48:911;03:35:48:883;1448462143.67;(0.40618960857391356, 0.2807360331217448);52.94972229;0.719587180727;;;;;;;;;;;;;;0;0;0;0;0;10;2;0;0;();(-2000.0, -2000.0);
03:35:48:914;03:35:48:883;1448462143.67;(0.40618960857391356, 0.2807360331217448);52.94972229;0.719587180727;;;;;;;;;;;;;;0;0;0;0;0;10;2;0;0;();(-2000.0, -2000.0);
03:35:48:917;03:35:48:883;1448462143.67;(0.40618960857391356, 0.2807360331217448);52.94972229;0.719587180727;;;;;;;;;;;;;;0;0;0;0;0;10;2;0;0;();(-2000.0, -2000.0);
03:35:48:920;03:35:48:883;1448462143.67;(0.40618960857391356, 0.2807360331217448);52.94972229;0.719587180727;;;;;;;;;;;;;;0;0;0;0;0;10;2;0;0;();(-2000.0, -2000.0);
03:35:48:947;03:35:48:930;1448462143.74;(0.4065681457519531, 0.3027448442247179);60.5516242981;1.0;;;;;;;;;;;;;;0;0;0;0;0;10;2;0;0;();(-2000.0, -2000.0);
03:35:48:995;03:35:48:967;1448462143.77;(0.4081655263900757, 0.3005084991455078);61.3856201172;0.861011441465;;;;;;;;;;;;;;0;0;0;0;0;10;2;0;0;();(-2000.0, -2000.0);
03:35:48:998;03:35:48:967;1448462143.77;(0.4081655263900757, 0.3005084991455078);61.3856201172;0.861011441465;;;;;;;;;;;;;;0;0;0;0;0;10;2;0;0;();(-2000.0, -2000.0);
03:35:49:003;03:35:48:967;1448462143.77;(0.4081655263900757, 0.3005084991455078);61.3856201172;0.861011441465;;;;;;;;;;;;;;0;0;0;0;0;10;2;0;0;();(-2000.0, -2000.0);
03:35:49:015;03:35:49:007;1448462143.8;(0.41036651134490965, 0.30862350463867183);61.4096107483;1.0;;;;;;;;;;;;;;0;0;0;0;0;10;2;0;0;();(-2000.0, -2000.0);
03:35:49:048;03:35:49:007;1448462143.8;(0.41036651134490965, 0.30862350463867183);61.4096107483;1.0;;;;;;;;;;;;;;0;0;0;0;0;10;2;0;0;();(-2000.0, -2000.0);
03:35:49:065;03:35:49:051;1448462143.84;(0.4109871625900269, 0.3096644507514106);61.8957214355;1.0;;;;;;;;;;;;;;0;0;0;0;0;10;2;0;0;();(-2000.0, -2000.0);
03:35:49:082;03:35:49:051;1448462143.84;(0.4109871625900269, 0.3096644507514106);61.8957214355;1.0;;;;;;;;;;;;;;0;0;0;0;0;10;2;0;0;();(-2000.0, -2000.0);
03:35:49:115;03:35:49:093;1448462143.9;(0.4123868703842163, 0.31153534783257375);62.153263092;1.0;;;;;;;;;;;;;;0;0;0;0;0;10;2;0;0;();(-2000.0, -2000.0);
03:35:49:118;03:35:49:093;1448462143.9;(0.4123868703842163, 0.31153534783257375);62.153263092;1.0;;;;;;;;;;;;;;0;0;0;0;0;10;2;0;0;();(-2000.0, -2000.0);
03:35:49:148;03:35:49:131;1448462143.93;(0.41248509883880613, 0.30927251180013016);62.2324485779;0.972648342827;;;;;;;;;;;;;;0;0;0;0;0;10;2;0;0;();(-2000.0, -2000.0);
03:35:49:180;03:35:49:176;1448462143.97;(0.41349077224731445, 0.32371364169650607);61.7757911682;1.0;;;;;;;;;;;;;;0;0;0;0;0;10;2;0;0;();(-2000.0, -2000.0);
03:35:49:183;03:35:49:176;1448462143.97;(0.41349077224731445, 0.32371364169650607);61.7757911682;1.0;;;;;;;;;;;;;;0;0;0;0;0;10;2;0;0;();(-2000.0, -2000.0);
03:35:49:199;03:35:49:176;1448462143.97;(0.41349077224731445, 0.32371364169650607);61.7757911682;1.0;;;;;;;;;;;;;;0;0;0;0;0;10;2;0;0;();(-2000.0, -2000.0);
03:35:49:215;03:35:49:176;1448462143.97;(0.41349077224731445, 0.32371364169650607);61.7757911682;1.0;;;;;;;;;;;;;;0;0;0;0;0;10;2;0;0;();(-2000.0, -2000.0);
03:35:49:232;03:35:49:215;1448462144.0;(0.4173886775970459, 0.335189225938585);62.4042015076;1.0;;;;;;;;;;;;;;0;0;0;0;0;10;2;0;0;();(-2000.0, -2000.0);
03:35:49:267;03:35:49:261;1448462144.07;(0.417936372756958, 0.3377003987630208);63.2702331543;1.0;;;;;;;;;;;;;;0;0;0;0;0;10;2;0;0;();(-2000.0, -2000.0);
03:35:49:282;03:35:49:261;1448462144.07;(0.417936372756958, 0.3377003987630208);63.2702331543;1.0;;;;;;;;;;;;;;0;0;0;0;0;10;2;0;0;();(-2000.0, -2000.0);
03:35:49:299;03:35:49:261;1448462144.07;(0.417936372756958, 0.3377003987630208);63.2702331543;1.0;;;;;;;;;;;;;;0;0;0;0;0;10;2;0;0;();(-2000.0, -2000.0);
03:35:49:316;03:35:49:300;1448462144.1;(0.41740233898162843, 0.33748007880316844);63.1751899719;1.0;;;;;;;;;;;;;;0;0;0;0;0;10;2;0;0;();(-2000.0, -2000.0);
03:35:49:333;03:35:49:300;1448462144.1;(0.41740233898162843, 0.33748007880316844);63.1751899719;1.0;;;;;;;;;;;;;;0;0;0;0;0;10;2;0;0;();(-2000.0, -2000.0);
03:35:49:366;03:35:49:339;1448462144.13;(0.4168076992034912, 0.33729905022515194);63.5279502869;1.0;;;;;;;;;;;;;;0;0;0;0;0;10;2;0;0;();(-2000.0, -2000.0);
03:35:49:383;03:35:49:339;1448462144.13;(0.4168076992034912, 0.33729905022515194);63.5279502869;1.0;;;;;;;;;;;;;;0;0;0;0;0;10;2;0;0;();(-2000.0, -2000.0);
03:35:49:401;03:35:49:387;1448462144.2;(0.41566147804260256, 0.33456306457519536);63.1868209839;1.0;;;;;;;;;;;;;;0;0;0;0;0;10;2;0;0;();(-2000.0, -2000.0);
03:35:49:418;03:35:49:387;1448462144.2;(0.41566147804260256, 0.33456306457519536);63.1868209839;1.0;;;;;;;;;;;;;;0;0;0;0;0;10;2;0;0;();(-2000.0, -2000.0);
03:35:49:433;03:35:49:423;1448462144.23;(0.4146636247634888, 0.3333522372775608);63.1032676697;1.0;;;;;;;;;;;;;;0;0;0;0;0;10;2;0;0;();(-2000.0, -2000.0);
03:35:49:468;03:35:49:463;1448462144.27;(0.41363632678985596, 0.33216739230685766);62.9598770142;0.983991597437;;;;;;;;;;;;;;0;0;0;0;0;10;2;0;0;();(-2000.0, -2000.0);
03:35:49:484;03:35:49:463;1448462144.27;(0.41363632678985596, 0.33216739230685766);62.9598770142;0.983991597437;;;;;;;;;;;;;;0;0;0;0;0;10;2;0;0;();(-2000.0, -2000.0);
03:35:49:500;03:35:49:463;1448462144.27;(0.41363632678985596, 0.33216739230685766);62.9598770142;0.983991597437;;;;;;;;;;;;;;0;0;0;0;0;10;2;0;0;();(-2000.0, -2000.0);
03:35:49:518;03:35:49:508;1448462144.3;(0.4128148317337036, 0.331365966796875);62.8653106689;1.0;;;;;;;;;;;;;;0;0;0;0;0;10;2;0;0;();(-2000.0, -2000.0);
03:35:49:551;03:35:49:547;1448462144.33;(0.4121408224105835, 0.3314538743760851);62.8851089478;1.0;;;;;;;;;;;;;;0;0;0;0;0;10;2;0;0;();(-2000.0, -2000.0);
03:35:54:562;03:35:54:523;1448462149.33;(0.3986569166183472, 0.28835038079155817);61.1024742126;1.0;;;;;;;;;;;;;;0;0;0;0;0;10;2;0;0;();(-2000.0, -2000.0);
03:35:54:567;03:35:54:523;1448462149.33;(0.3986569166183472, 0.28835038079155817);61.1024742126;1.0;;;;;;;;;;;;;;0;0;0;0;0;10;2;0;0;();(-2000.0, -2000.0);
03:35:54:574;03:35:54:568;1448462149.37;(0.39768271446228026, 0.28900222778320317);60.9570579529;1.0;;;;;;;;;;;;;;0;0;0;0;0;10;2;0;0;();(-2000.0, -2000.0);
03:35:54:580;03:35:54:568;1448462149.37;(0.39768271446228026, 0.28900222778320317);60.9570579529;1.0;;;;;;;;;;;;;;0;0;0;0;0;10;2;0;0;();(-2000.0, -2000.0);
03:35:54:587;03:35:54:568;1448462149.37;(0.39768271446228026, 0.28900222778320317);60.9570579529;1.0;;;;;;;;;;;;;;0;0;0;0;0;10;2;0;0;();(-2000.0, -2000.0);
03:35:54:595;03:35:54:568;1448462149.37;(0.39768271446228026, 0.28900222778320317);60.9570579529;1.0;;;;;;;;;;;;;;0;0;0;0;0;10;2;0;0;();(-2000.0, -2000.0);
03:35:54:599;03:35:54:568;1448462149.37;(0.39768271446228026, 0.28900222778320317);60.9570579529;1.0;;;;;;;;;;;;;;0;0;0;0;0;10;2;0;0;();(-2000.0, -2000.0);
03:35:54:602;03:35:54:568;1448462149.37;(0.39768271446228026, 0.28900222778320317);60.9570579529;1.0;;;;;;;;;;;;;;0;0;0;0;0;10;2;0;0;();(-2000.0, -2000.0);
03:35:54:604;03:35:54:568;1448462149.37;(0.39768271446228026, 0.28900222778320317);60.9570579529;1.0;;;;;;;;;;;;;;0;0;0;0;0;10;2;0;0;();(-2000.0, -2000.0);
03:35:54:608;03:35:54:568;1448462149.37;(0.39768271446228026, 0.28900222778320317);60.9570579529;1.0;;;;;;;;;;;;;;0;0;0;0;0;10;2;0;0;();(-2000.0, -2000.0);
03:35:54:611;03:35:54:607;1448462149.4;(0, 0);0;0;;;;;;;;;;;;;;0;0;0;0;0;10;2;0;0;();(-2000.0, -2000.0);
03:35:54:613;03:35:54:607;1448462149.4;(0, 0);0;0;;;;;;;;;;;;;;0;0;0;0;0;10;2;0;0;();(-2000.0, -2000.0);
03:35:54:615;03:35:54:607;1448462149.4;(0, 0);0;0;;;;;;;;;;;;;;0;0;0;0;0;10;2;0;0;();(-2000.0, -2000.0);
03:35:54:617;03:35:54:607;1448462149.4;(0, 0);0;0;;;;;;;;;;;;;;0;0;0;0;0;10;2;0;0;();(-2000.0, -2000.0);
03:35:54:619;03:35:54:607;1448462149.4;(0, 0);0;0;;;;;;;;;;;;;;0;0;0;0;0;10;2;0;0;();(-2000.0, -2000.0);
03:35:54:621;03:35:54:607;1448462149.4;(0, 0);0;0;;;;;;;;;;;;;;0;0;0;0;0;10;2;0;0;();(-2000.0, -2000.0);
03:35:54:624;03:35:54:607;1448462149.4;(0, 0);0;0;;;;;;;;;;;;;;0;0;0;0;0;10;2;0;0;();(-2000.0, -2000.0);
03:35:54:626;03:35:54:607;1448462149.4;(0, 0);0;0;;;;;;;;;;;;;;0;0;0;0;0;10;2;0;0;();(-2000.0, -2000.0);
03:35:54:629;03:35:54:607;1448462149.4;(0, 0);0;0;;;;;;;;;;;;;;0;0;0;0;0;10;2;0;0;();(-2000.0, -2000.0);
03:35:54:631;03:35:54:607;1448462149.4;(0, 0);0;0;;;;;;;;;;;;;;0;0;0;0;0;10;2;0;0;();(-2000.0, -2000.0);
03:35:54:635;03:35:54:607;1448462149.4;(0, 0);0;0;;;;;;;;;;;;;;0;0;0;0;0;10;2;0;0;();(-2000.0, -2000.0);
03:35:54:681;03:35:54:651;1448462149.43;(0, 0);0;0;;;;;;;;;;;;;;0;0;0;0;0;10;2;0;0;();(-2000.0, -2000.0);
03:35:54:684;03:35:54:651;1448462149.43;(0, 0);0;0;;;;;;;;;;;;;;0;0;0;0;0;10;2;0;0;();(-2000.0, -2000.0);
03:35:54:698;03:35:54:692;1448462149.5;(0.3802796363830566, 0.3241296132405599);61.6682891846;1.0;;;;;;;;;;;;;;0;0;0;0;0;10;2;0;0;();(-2000.0, -2000.0);
03:35:54:711;03:35:54:692;1448462149.5;(0.3802796363830566, 0.3241296132405599);61.6682891846;1.0;;;;;;;;;;;;;;0;0;0;0;0;10;2;0;0;();(-2000.0, -2000.0);
03:35:54:743;03:35:54:731;1448462149.53;(0.38174798488616946, 0.3244295756022135);62.5637435913;1.0;;;;;;;;;;;;;;0;0;0;0;0;10;2;0;0;();(-2000.0, -2000.0);
03:35:54:760;03:35:54:731;1448462149.53;(0.38174798488616946, 0.3244295756022135);62.5637435913;1.0;;;;;;;;;;;;;;0;0;0;0;0;10;2;0;0;();(-2000.0, -2000.0);
03:35:54:776;03:35:54:731;1448462149.53;(0.38174798488616946, 0.3244295756022135);62.5637435913;1.0;;;;;;;;;;;;;;0;0;0;0;0;10;2;0;0;();(-2000.0, -2000.0);
03:35:54:793;03:35:54:775;1448462149.57;(0.3825103521347046, 0.32458390129937065);62.7557601929;1.0;;;;;;;;;;;;;;0;0;0;0;0;10;2;0;0;();(-2000.0, -2000.0);
03:35:54:824;03:35:54:817;1448462149.63;(0.38353729248046875, 0.3242380777994792);63.2720298767;1.0;;;;;;;;;;;;;;0;0;0;0;0;10;2;0;0;();(-2000.0, -2000.0);
03:35:54:838;03:35:54:817;1448462149.63;(0.38353729248046875, 0.3242380777994792);63.2720298767;1.0;;;;;;;;;;;;;;0;0;0;0;0;10;2;0;0;();(-2000.0, -2000.0);
03:35:54:854;03:35:54:817;1448462149.63;(0.38353729248046875, 0.3242380777994792);63.2720298767;1.0;;;;;;;;;;;;;;0;0;0;0;0;10;2;0;0;();(-2000.0, -2000.0);
03:35:54:870;03:35:54:855;1448462149.67;(0.3828108787536621, 0.3243946923149956);63.6948204041;1.0;;;;;;;;;;;;;;0;0;0;0;0;10;2;0;0;();(-2000.0, -2000.0);
03:35:54:901;03:35:54:899;1448462149.7;(0.35456759929656984, 0.3345703972710503);65.3443450928;1.0;;;;;;;;;;;;;;0;0;0;0;0;10;2;0;0;();(-2000.0, -2000.0);
03:35:54:917;03:35:54:899;1448462149.7;(0.35456759929656984, 0.3345703972710503);65.3443450928;1.0;;;;;;;;;;;;;;0;0;0;0;0;10;2;0;0;();(-2000.0, -2000.0);
03:35:54:934;03:35:54:899;1448462149.7;(0.35456759929656984, 0.3345703972710503);65.3443450928;1.0;;;;;;;;;;;;;;0;0;0;0;0;10;2;0;0;();(-2000.0, -2000.0);
03:35:54:950;03:35:54:939;1448462149.73;(0.3540816783905029, 0.33484251234266493);65.4860610962;1.0;;;;;;;;;;;;;;0;0;0;0;0;10;2;0;0;();(-2000.0, -2000.0);
03:35:55:001;03:35:54:984;1448462149.8;(0.3551950931549072, 0.33446905348036027);65.8659591675;1.0;;;;;;;;;;;;;;0;0;0;0;0;10;2;0;0;();(-2000.0, -2000.0);
03:35:55:004;03:35:54:984;1448462149.8;(0.3551950931549072, 0.33446905348036027);65.8659591675;1.0;;;;;;;;;;;;;;0;0;0;0;0;10;2;0;0;();(-2000.0, -2000.0);
03:35:55:018;03:35:54:984;1448462149.8;(0.3551950931549072, 0.33446905348036027);65.8659591675;1.0;;;;;;;;;;;;;;0;0;0;0;0;10;2;0;0;();(-2000.0, -2000.0);
03:35:55:034;03:35:55:023;1448462149.83;(0.35568714141845703, 0.33422292073567705);66.0820236206;1.0;;;;;;;;;;;;;;0;0;0;0;0;10;2;0;0;();(-2000.0, -2000.0);
03:35:55:052;03:35:55:023;1448462149.83;(0.35568714141845703, 0.33422292073567705);66.0820236206;1.0;;;;;;;;;;;;;;0;0;0;0;0;10;2;0;0;();(-2000.0, -2000.0);
03:35:55:086;03:35:55:063;1448462149.87;(0.35629987716674805, 0.3339338090684679);66.0203399658;1.0;;;;;;;;;;;;;;0;0;0;0;0;10;2;0;0;();(-2000.0, -2000.0);
03:35:55:101;03:35:55:063;1448462149.87;(0.35629987716674805, 0.3339338090684679);66.0203399658;1.0;;;;;;;;;;;;;;0;0;0;0;0;10;2;0;0;();(-2000.0, -2000.0);
03:35:55:118;03:35:55:107;1448462149.9;(0.3569496631622314, 0.3332647535536024);65.9991912842;1.0;;;;;;;;;;;;;;0;0;0;0;0;10;2;0;0;();(-2000.0, -2000.0);
03:35:55:135;03:35:55:107;1448462149.9;(0.3569496631622314, 0.3332647535536024);65.9991912842;1.0;;;;;;;;;;;;;;0;0;0;0;0;10;2;0;0;();(-2000.0, -2000.0);
03:35:55:152;03:35:55:148;1448462149.97;(0.35879366397857665, 0.33247066073947484);66.4963150024;1.0;;;;;;;;;;;;;;0;0;0;0;0;10;2;0;0;();(-2000.0, -2000.0);
03:35:55:186;03:35:55:148;1448462149.97;(0.35879366397857665, 0.33247066073947484);66.4963150024;1.0;;;;;;;;;;;;;;0;0;0;0;0;10;2;0;0;();(-2000.0, -2000.0);
03:35:55:203;03:35:55:187;1448462150.0;(0.3594252109527588, 0.3320486280653212);66.3412628174;1.0;;;;;;;;;;;;;;0;0;0;0;0;10;2;0;0;();(-2000.0, -2000.0);
03:35:55:219;03:35:55:187;1448462150.0;(0.3594252109527588, 0.3320486280653212);66.3412628174;1.0;;;;;;;;;;;;;;0;0;0;0;0;10;2;0;0;();(-2000.0, -2000.0);
03:35:55:235;03:35:55:187;1448462150.0;(0.3594252109527588, 0.3320486280653212);66.3412628174;1.0;;;;;;;;;;;;;;0;0;0;0;0;10;2;0;0;();(-2000.0, -2000.0);
03:35:55:252;03:35:55:187;1448462150.0;(0.3594252109527588, 0.3320486280653212);66.3412628174;1.0;;;;;;;;;;;;;;0;0;0;0;0;10;2;0;0;();(-2000.0, -2000.0);
03:35:55:286;03:35:55:272;1448462150.07;(0.3521363973617554, 0.33301569620768234);66.8604431152;0.801325719957;;;;;;;;;;;;;;0;0;0;0;0;10;2;0;0;();(-2000.0, -2000.0);
03:35:55:303;03:35:55:272;1448462150.07;(0.3521363973617554, 0.33301569620768234);66.8604431152;0.801325719957;;;;;;;;;;;;;;0;0;0;0;0;10;2;0;0;();(-2000.0, -2000.0);
03:35:55:319;03:35:55:317;1448462150.13;(0.3521628141403198, 0.3326171451144748);66.6520767212;1.0;;;;;;;;;;;;;;0;0;0;0;0;10;2;0;0;();(-2000.0, -2000.0);
03:35:55:336;03:35:55:317;1448462150.13;(0.3521628141403198, 0.3326171451144748);66.6520767212;1.0;;;;;;;;;;;;;;0;0;0;0;0;10;2;0;0;();(-2000.0, -2000.0);
03:35:55:354;03:35:55:317;1448462150.13;(0.3521628141403198, 0.3326171451144748);66.6520767212;1.0;;;;;;;;;;;;;;0;0;0;0;0;10;2;0;0;();(-2000.0, -2000.0);
03:35:55:370;03:35:55:355;1448462150.17;(0.3523471593856812, 0.332182354397244);66.5120925903;1.0;;;;;;;;;;;;;;0;0;0;0;0;10;2;0;0;();(-2000.0, -2000.0);
03:35:55:403;03:35:55:395;1448462150.2;(0.352486252784729, 0.33243603176540804);66.8974990845;1.0;;;;;;;;;;;;;;0;0;0;0;0;10;2;0;0;();(-2000.0, -2000.0);
03:35:55:420;03:35:55:395;1448462150.2;(0.352486252784729, 0.33243603176540804);66.8974990845;1.0;;;;;;;;;;;;;;0;0;0;0;0;10;2;0;0;();(-2000.0, -2000.0);
03:35:55:437;03:35:55:395;1448462150.2;(0.352486252784729, 0.33243603176540804);66.8974990845;1.0;;;;;;;;;;;;;;0;0;0;0;0;10;2;0;0;();(-2000.0, -2000.0);
03:35:55:453;03:35:55:440;1448462150.23;(0.3526220560073853, 0.33230272928873694);66.6948242188;1.0;;;;;;;;;;;;;;0;0;0;0;0;10;2;0;0;();(-2000.0, -2000.0);
03:35:55:470;03:35:55:440;1448462150.23;(0.3526220560073853, 0.33230272928873694);66.6948242188;1.0;;;;;;;;;;;;;;0;0;0;0;0;10;2;0;0;();(-2000.0, -2000.0);
03:35:55:504;03:35:55:480;1448462150.27;(0.35259184837341306, 0.3324279361300998);66.8717498779;1.0;;;;;;;;;;;;;;0;0;0;0;0;10;2;0;0;();(-2000.0, -2000.0);
03:35:55:522;03:35:55:520;1448462150.33;(0.3519073486328125, 0.3318913353814019);66.9269638062;1.0;;;;;;;;;;;;;;0;0;0;0;0;10;2;0;0;();(-2000.0, -2000.0);
03:35:55:538;03:35:55:520;1448462150.33;(0.3519073486328125, 0.3318913353814019);66.9269638062;1.0;;;;;;;;;;;;;;0;0;0;0;0;10;2;0;0;();(-2000.0, -2000.0);
03:35:55:554;03:35:55:520;1448462150.33;(0.3519073486328125, 0.3318913353814019);66.9269638062;1.0;;;;;;;;;;;;;;0;0;0;0;0;10;2;0;0;();(-2000.0, -2000.0);
03:35:55:571;03:35:55:563;1448462150.37;(0.35149612426757815, 0.3314715491400825);66.8200531006;1.0;;;;;;;;;;;;;;0;0;0;0;0;10;2;0;0;();(-2000.0, -2000.0);
03:35:55:604;03:35:55:563;1448462150.37;(0.35149612426757815, 0.3314715491400825);66.8200531006;1.0;;;;;;;;;;;;;;0;0;0;0;0;10;2;0;0;();(-2000.0, -2000.0);
03:35:55:621;03:35:55:604;1448462150.4;(0.3511571168899536, 0.33134333292643225);66.9560852051;1.0;;;;;;;;;;;;;;0;0;0;0;0;10;2;0;0;();(-2000.0, -2000.0);
03:35:55:638;03:35:55:604;1448462150.4;(0.3511571168899536, 0.33134333292643225);66.9560852051;1.0;;;;;;;;;;;;;;0;0;0;0;0;10;2;0;0;();(-2000.0, -2000.0);
03:35:55:656;03:35:55:648;1448462150.47;(0.34946379661560056, 0.33196860419379337);66.8361587524;1.0;;;;;;;;;;;;;;0;0;0;0;0;10;2;0;0;();(-2000.0, -2000.0);
03:35:55:671;03:35:55:648;1448462150.47;(0.34946379661560056, 0.33196860419379337);66.8361587524;1.0;;;;;;;;;;;;;;0;0;0;0;0;10;2;0;0;();(-2000.0, -2000.0);
03:35:55:705;03:35:55:687;1448462150.5;(0.3494271993637085, 0.33208885192871096);67.2964935303;1.0;;;;;;;;;;;;;;0;0;0;0;0;10;2;0;0;();(-2000.0, -2000.0);
03:35:55:722;03:35:55:687;1448462150.5;(0.3494271993637085, 0.33208885192871096);67.2964935303;1.0;;;;;;;;;;;;;;0;0;0;0;0;10;2;0;0;();(-2000.0, -2000.0);
03:35:55:738;03:35:55:727;1448462150.53;(0.34946744441986083, 0.3321637471516927);67.2590942383;1.0;;;;;;;;;;;;;;0;0;0;0;0;10;2;0;0;();(-2000.0, -2000.0);
03:35:55:756;03:35:55:727;1448462150.53;(0.34946744441986083, 0.3321637471516927);67.2590942383;1.0;;;;;;;;;;;;;;0;0;0;0;0;10;2;0;0;();(-2000.0, -2000.0);
03:35:55:774;03:35:55:771;1448462150.57;(0.34946837425231936, 0.3320050981309679);66.9912872314;1.0;;;;;;;;;;;;;;0;0;0;0;0;10;2;0;0;();(-2000.0, -2000.0);
03:35:55:807;03:35:55:771;1448462150.57;(0.34946837425231936, 0.3320050981309679);66.9912872314;1.0;;;;;;;;;;;;;;0;0;0;0;0;10;2;0;0;();(-2000.0, -2000.0);
03:35:55:823;03:35:55:812;1448462150.63;(0.3492646932601929, 0.33194766574435763);66.8125839233;1.0;;;;;;;;;;;;;;0;0;0;0;0;10;2;0;0;();(-2000.0, -2000.0);
03:35:55:839;03:35:55:812;1448462150.63;(0.3492646932601929, 0.33194766574435763);66.8125839233;1.0;;;;;;;;;;;;;;0;0;0;0;0;10;2;0;0;();(-2000.0, -2000.0);
03:35:55:857;03:35:55:851;1448462150.67;(0.3494296073913574, 0.3325152503119575);66.6905899048;1.0;;;;;;;;;;;;;;0;0;0;0;0;10;2;0;0;();(-2000.0, -2000.0);
03:35:55:873;03:35:55:851;1448462150.67;(0.3494296073913574, 0.3325152503119575);66.6905899048;1.0;;;;;;;;;;;;;;0;0;0;0;0;10;2;0;0;();(-2000.0, -2000.0);
03:35:55:906;03:35:55:896;1448462150.7;(0.3497320652008057, 0.3331822289360894);66.5019836426;1.0;;;;;;;;;;;;;;0;0;0;0;0;10;2;0;0;();(-2000.0, -2000.0);
03:35:55:923;03:35:55:896;1448462150.7;(0.3497320652008057, 0.3331822289360894);66.5019836426;1.0;;;;;;;;;;;;;;0;0;0;0;0;10;2;0;0;();(-2000.0, -2000.0);
03:35:55:941;03:35:55:935;1448462150.73;(0.3498173952102661, 0.33353602091471357);66.5119247437;1.0;;;;;;;;;;;;;;0;0;0;0;0;10;2;0;0;();(-2000.0, -2000.0);
03:35:55:957;03:35:55:935;1448462150.73;(0.3498173952102661, 0.33353602091471357);66.5119247437;1.0;;;;;;;;;;;;;;0;0;0;0;0;10;2;0;0;();(-2000.0, -2000.0);
03:35:55:974;03:35:55:935;1448462150.73;(0.3498173952102661, 0.33353602091471357);66.5119247437;1.0;;;;;;;;;;;;;;0;0;0;0;0;10;2;0;0;();(-2000.0, -2000.0);
03:35:56:007;03:35:55:980;1448462150.8;(0.35012040138244627, 0.33394593132866757);65.9499969482;1.0;;;;;;;;;;;;;;0;0;0;0;0;10;2;0;0;();(-2000.0, -2000.0);
03:35:56:024;03:35:56:019;1448462150.83;(0.35031344890594485, 0.33450588650173607);66.1117858887;1.0;;;;;;;;;;;;;;0;0;0;0;0;10;2;0;0;();(-2000.0, -2000.0);
03:35:56:040;03:35:56:019;1448462150.83;(0.35031344890594485, 0.33450588650173607);66.1117858887;1.0;;;;;;;;;;;;;;0;0;0;0;0;10;2;0;0;();(-2000.0, -2000.0);
03:35:56:057;03:35:56:019;1448462150.83;(0.35031344890594485, 0.33450588650173607);66.1117858887;1.0;;;;;;;;;;;;;;0;0;0;0;0;10;2;0;0;();(-2000.0, -2000.0);
03:35:56:075;03:35:56:060;1448462150.87;(0.35037617683410643, 0.334306886461046);66.0729446411;1.0;;;;;;;;;;;;;;0;0;0;0;0;10;2;0;0;();(-2000.0, -2000.0);
03:35:56:091;03:35:56:060;1448462150.87;(0.35037617683410643, 0.334306886461046);66.0729446411;1.0;;;;;;;;;;;;;;0;0;0;0;0;10;2;0;0;();(-2000.0, -2000.0);
03:35:56:124;03:35:56:103;1448462150.9;(0.35002741813659666, 0.33450609842936196);65.7877502441;1.0;;;;;;;;;;;;;;0;0;0;0;0;10;2;0;0;();(-2000.0, -2000.0);
03:35:56:141;03:35:56:103;1448462150.9;(0.35002741813659666, 0.33450609842936196);65.7877502441;1.0;;;;;;;;;;;;;;0;0;0;0;0;10;2;0;0;();(-2000.0, -2000.0);
03:35:56:158;03:35:56:144;1448462150.93;(0.35659701824188234, 0.3329775068495009);69.0635452271;0.782576143546;;;;;;;;;;;;;;0;0;0;0;0;10;2;0;0;();(-2000.0, -2000.0);
03:35:56:220;03:35:56:183;1448462150.97;(0, 0);0;0;;;;;;;;;;;;;;0;0;0;0;0;10;2;0;0;();(-2000.0, -2000.0);
03:35:56:223;03:35:56:183;1448462150.97;(0, 0);0;0;;;;;;;;;;;;;;0;0;0;0;0;10;2;0;0;();(-2000.0, -2000.0);
03:35:56:226;03:35:56:183;1448462150.97;(0, 0);0;0;;;;;;;;;;;;;;0;0;0;0;0;10;2;0;0;();(-2000.0, -2000.0);
03:35:56:229;03:35:56:227;1448462151.0;(0.5930120468139648, 0.2495860629611545);37.0170631409;0.665064117562;;;;;;;;;;;;;;0;0;0;0;0;10;2;0;0;();(-2000.0, -2000.0);
03:35:56:259;03:35:56:227;1448462151.0;(0.5930120468139648, 0.2495860629611545);37.0170631409;0.665064117562;;;;;;;;;;;;;;0;0;0;0;0;10;2;0;0;();(-2000.0, -2000.0);
03:35:56:276;03:35:56:270;1448462151.07;(0.4333871603012085, 0.3364520602756076);87.353187561;0.676311131516;;;;;;;;;;;;;;0;0;0;0;0;10;2;0;0;();(-2000.0, -2000.0);
03:35:56:292;03:35:56:270;1448462151.07;(0.4333871603012085, 0.3364520602756076);87.353187561;0.676311131516;;;;;;;;;;;;;;0;0;0;0;0;10;2;0;0;();(-2000.0, -2000.0);
03:35:56:326;03:35:56:307;1448462151.1;(0.43303210735321046, 0.28395618862575955);59.678981781;0.925142801804;;;;;;;;;;;;;;0;0;0;0;0;10;2;0;0;();(-2000.0, -2000.0);
03:35:56:342;03:35:56:307;1448462151.1;(0.43303210735321046, 0.28395618862575955);59.678981781;0.925142801804;;;;;;;;;;;;;;0;0;0;0;0;10;2;0;0;();(-2000.0, -2000.0);
03:35:56:359;03:35:56:352;1448462151.17;(0.4301389455795288, 0.2863852183024088);60.8443717957;1.0;;;;;;;;;;;;;;0;0;0;0;0;10;2;0;0;();(-2000.0, -2000.0);
03:35:56:376;03:35:56:352;1448462151.17;(0.4301389455795288, 0.2863852183024088);60.8443717957;1.0;;;;;;;;;;;;;;0;0;0;0;0;10;2;0;0;();(-2000.0, -2000.0);
03:35:56:392;03:35:56:391;1448462151.2;(0.42901480197906494, 0.28725017971462674);60.8158378601;1.0;;;;;;;;;;;;;;0;0;0;0;0;10;2;0;0;();(-2000.0, -2000.0);
03:35:56:426;03:35:56:391;1448462151.2;(0.42901480197906494, 0.28725017971462674);60.8158378601;1.0;;;;;;;;;;;;;;0;0;0;0;0;10;2;0;0;();(-2000.0, -2000.0);
03:35:56:444;03:35:56:431;1448462151.23;(0.4282927751541138, 0.28706665039062496);60.5081710815;1.0;;;;;;;;;;;;;;0;0;0;0;0;10;2;0;0;();(-2000.0, -2000.0);
03:35:56:460;03:35:56:431;1448462151.23;(0.4282927751541138, 0.28706665039062496);60.5081710815;1.0;;;;;;;;;;;;;;0;0;0;0;0;10;2;0;0;();(-2000.0, -2000.0);
03:35:56:476;03:35:56:475;1448462151.27;(0.42743864059448244, 0.2868760850694444);60.2344436646;1.0;;;;;;;;;;;;;;0;0;0;0;0;10;2;0;0;();(-2000.0, -2000.0);
03:35:56:494;03:35:56:475;1448462151.27;(0.42743864059448244, 0.2868760850694444);60.2344436646;1.0;;;;;;;;;;;;;;0;0;0;0;0;10;2;0;0;();(-2000.0, -2000.0);
03:35:56:510;03:35:56:475;1448462151.27;(0.42743864059448244, 0.2868760850694444);60.2344436646;1.0;;;;;;;;;;;;;;0;0;0;0;0;10;2;0;0;();(-2000.0, -2000.0);
03:35:56:543;03:35:56:516;1448462151.33;(0.4264313459396362, 0.287486818101671);59.8940391541;1.0;;;;;;;;;;;;;;0;0;0;0;0;10;2;0;0;();(-2000.0, -2000.0);
03:35:56:561;03:35:56:559;1448462151.37;(0.42535645961761476, 0.28689880371093746);59.7974357605;1.0;;;;;;;;;;;;;;0;0;0;0;0;10;2;0;0;();(-2000.0, -2000.0);
03:35:56:594;03:35:56:559;1448462151.37;(0.42535645961761476, 0.28689880371093746);59.7974357605;1.0;;;;;;;;;;;;;;0;0;0;0;0;10;2;0;0;();(-2000.0, -2000.0);
03:35:56:598;03:35:56:559;1448462151.37;(0.42535645961761476, 0.28689880371093746);59.7974357605;1.0;;;;;;;;;;;;;;0;0;0;0;0;10;2;0;0;();(-2000.0, -2000.0);
03:35:56:611;03:35:56:599;1448462151.4;(0.4243622779846191, 0.2866128709581163);60.0652580261;1.0;;;;;;;;;;;;;;0;0;0;0;0;10;2;0;0;();(-2000.0, -2000.0);
03:35:56:644;03:35:56:639;1448462151.43;(0.42309601306915284, 0.28658307393391924);59.9365577698;1.0;;;;;;;;;;;;;;0;0;0;0;0;10;2;0;0;();(-2000.0, -2000.0);
03:35:56:661;03:35:56:639;1448462151.43;(0.42309601306915284, 0.28658307393391924);59.9365577698;1.0;;;;;;;;;;;;;;0;0;0;0;0;10;2;0;0;();(-2000.0, -2000.0);
03:35:56:678;03:35:56:639;1448462151.43;(0.42309601306915284, 0.28658307393391924);59.9365577698;1.0;;;;;;;;;;;;;;0;0;0;0;0;10;2;0;0;();(-2000.0, -2000.0);
03:35:56:694;03:35:56:684;1448462151.5;(0.42003061771392824, 0.2848049587673611);60.0376625061;0.845837240359;;;;;;;;;;;;;;0;0;0;0;0;10;2;0;0;();(-2000.0, -2000.0);
03:35:56:711;03:35:56:684;1448462151.5;(0.42003061771392824, 0.2848049587673611);60.0376625061;0.845837240359;;;;;;;;;;;;;;0;0;0;0;0;10;2;0;0;();(-2000.0, -2000.0);
03:35:56:745;03:35:56:723;1448462151.53;(0.418349289894104, 0.28453394571940105);60.2783622742;0.893594712878;;;;;;;;;;;;;;0;0;0;0;0;10;2;0;0;();(-2000.0, -2000.0);
03:35:56:762;03:35:56:723;1448462151.53;(0.418349289894104, 0.28453394571940105);60.2783622742;0.893594712878;;;;;;;;;;;;;;0;0;0;0;0;10;2;0;0;();(-2000.0, -2000.0);
03:35:56:778;03:35:56:763;1448462151.57;(0.4167677879333496, 0.28589591979980467);60.6629829407;0.895923539218;;;;;;;;;;;;;;0;0;0;0;0;10;2;0;0;();(-2000.0, -2000.0);
03:35:56:796;03:35:56:763;1448462151.57;(0.4167677879333496, 0.28589591979980467);60.6629829407;0.895923539218;;;;;;;;;;;;;;0;0;0;0;0;10;2;0;0;();(-2000.0, -2000.0);
03:35:56:812;03:35:56:807;1448462151.6;(0.415256404876709, 0.28525310092502165);60.5645370483;0.938983086548;;;;;;;;;;;;;;0;0;0;0;0;10;2;0;0;();(-2000.0, -2000.0);
03:35:56:846;03:35:56:807;1448462151.6;(0.415256404876709, 0.28525310092502165);60.5645370483;0.938983086548;;;;;;;;;;;;;;0;0;0;0;0;10;2;0;0;();(-2000.0, -2000.0);
03:35:56:879;03:35:56:847;1448462151.63;(0.4131921291351318, 0.28212119208441844);61.0445899963;1.0;;;;;;;;;;;;;;0;0;0;0;0;10;2;0;0;();(-2000.0, -2000.0);
03:35:56:883;03:35:56:847;1448462151.63;(0.4131921291351318, 0.28212119208441844);61.0445899963;1.0;;;;;;;;;;;;;;0;0;0;0;0;10;2;0;0;();(-2000.0, -2000.0);
03:35:56:895;03:35:56:891;1448462151.67;(0.2405919075012207, 0.3377201504177517);18.0579338074;0.674567808684;;;;;;;;;;;;;;0;0;0;0;0;10;2;0;0;();(-2000.0, -2000.0);
03:35:56:912;03:35:56:891;1448462151.67;(0.2405919075012207, 0.3377201504177517);18.0579338074;0.674567808684;;;;;;;;;;;;;;0;0;0;0;0;10;2;0;0;();(-2000.0, -2000.0);
03:35:56:946;03:35:56:931;1448462151.7;(0.386405348777771, 0.24560724894205732);63.0190238953;1.0;;;;;;;;;;;;;;0;0;0;0;0;10;2;0;0;();(-2000.0, -2000.0);
03:35:56:963;03:35:56:931;1448462151.7;(0.386405348777771, 0.24560724894205732);63.0190238953;1.0;;;;;;;;;;;;;;0;0;0;0;0;10;2;0;0;();(-2000.0, -2000.0);
03:35:56:979;03:35:56:972;1448462151.77;(0.38232712745666503, 0.2430727640787761);63.4692802429;0.939167488609;;;;;;;;;;;;;;0;0;0;0;0;10;2;0;0;();(-2000.0, -2000.0);
03:35:56:996;03:35:56:972;1448462151.77;(0.38232712745666503, 0.2430727640787761);63.4692802429;0.939167488609;;;;;;;;;;;;;;0;0;0;0;0;10;2;0;0;();(-2000.0, -2000.0);
03:35:57:013;03:35:56:972;1448462151.77;(0.38232712745666503, 0.2430727640787761);63.4692802429;0.939167488609;;;;;;;;;;;;;;0;0;0;0;0;10;2;0;0;();(-2000.0, -2000.0);
03:35:57:031;03:35:57:018;1448462151.83;(0.3812412261962891, 0.24429677327473953);63.0525512695;1.0;;;;;;;;;;;;;;0;0;0;0;0;10;2;0;0;();(-2000.0, -2000.0);
03:35:57:063;03:35:57:055;1448462151.87;(0.38123259544372556, 0.2454831441243489);62.9201583862;1.0;;;;;;;;;;;;;;0;0;0;0;0;10;2;0;0;();(-2000.0, -2000.0);
03:35:57:081;03:35:57:055;1448462151.87;(0.38123259544372556, 0.2454831441243489);62.9201583862;1.0;;;;;;;;;;;;;;0;0;0;0;0;10;2;0;0;();(-2000.0, -2000.0);
03:35:57:097;03:35:57:095;1448462151.9;(0, 0);0;0;;;;;;;;;;;;;;0;0;0;0;0;10;2;0;0;();(-2000.0, -2000.0);
03:35:57:114;03:35:57:095;1448462151.9;(0, 0);0;0;;;;;;;;;;;;;;0;0;0;0;0;10;2;0;0;();(-2000.0, -2000.0);
03:35:57:131;03:35:57:095;1448462151.9;(0, 0);0;0;;;;;;;;;;;;;;0;0;0;0;0;10;2;0;0;();(-2000.0, -2000.0);
03:35:57:164;03:35:57:139;1448462151.93;(0, 0);0;0;;;;;;;;;;;;;;0;0;0;0;0;10;2;0;0;();(-2000.0, -2000.0);
03:35:57:181;03:35:57:179;1448462151.97;(0, 0);0;0;;;;;;;;;;;;;;0;0;0;0;0;10;2;0;0;();(-2000.0, -2000.0);
03:35:57:198;03:35:57:179;1448462151.97;(0, 0);0;0;;;;;;;;;;;;;;0;0;0;0;0;10;2;0;0;();(-2000.0, -2000.0);
03:35:57:214;03:35:57:179;1448462151.97;(0, 0);0;0;;;;;;;;;;;;;;0;0;0;0;0;10;2;0;0;();(-2000.0, -2000.0);
03:35:57:231;03:35:57:224;1448462152.03;(0.38988747596740725, 0.27352748446994357);62.3151855469;1.0;;;;;;;;;;;;;;0;0;0;0;0;10;2;0;0;();(-2000.0, -2000.0);
03:35:57:267;03:35:57:263;1448462152.07;(0.39095239639282225, 0.2743025885687934);62.3724479675;0.998258414658;;;;;;;;;;;;;;0;0;0;0;0;10;2;0;0;();(-2000.0, -2000.0);
03:35:57:281;03:35:57:263;1448462152.07;(0.39095239639282225, 0.2743025885687934);62.3724479675;0.998258414658;;;;;;;;;;;;;;0;0;0;0;0;10;2;0;0;();(-2000.0, -2000.0);
03:35:57:298;03:35:57:263;1448462152.07;(0.39095239639282225, 0.2743025885687934);62.3724479675;0.998258414658;;;;;;;;;;;;;;0;0;0;0;0;10;2;0;0;();(-2000.0, -2000.0);
03:35:57:316;03:35:57:303;1448462152.1;(0.3919754266738892, 0.2750434875488281);62.4718093872;1.0;;;;;;;;;;;;;;0;0;0;0;0;10;2;0;0;();(-2000.0, -2000.0);
03:35:57:333;03:35:57:303;1448462152.1;(0.3919754266738892, 0.2750434875488281);62.4718093872;1.0;;;;;;;;;;;;;;0;0;0;0;0;10;2;0;0;();(-2000.0, -2000.0);
03:35:57:365;03:35:57:348;1448462152.17;(0.39336237907409666, 0.2772825453016493);62.4232406616;1.0;;;;;;;;;;;;;;0;0;0;0;0;10;2;0;0;();(-2000.0, -2000.0);
03:35:57:382;03:35:57:348;1448462152.17;(0.39336237907409666, 0.2772825453016493);62.4232406616;1.0;;;;;;;;;;;;;;0;0;0;0;0;10;2;0;0;();(-2000.0, -2000.0);
03:35:57:399;03:35:57:387;1448462152.2;(0.39389848709106445, 0.27765676710340714);62.5517539978;1.0;;;;;;;;;;;;;;0;0;0;0;0;10;2;0;0;();(-2000.0, -2000.0);
03:35:57:415;03:35:57:387;1448462152.2;(0.39389848709106445, 0.27765676710340714);62.5517539978;1.0;;;;;;;;;;;;;;0;0;0;0;0;10;2;0;0;();(-2000.0, -2000.0);
03:35:57:432;03:35:57:427;1448462152.23;(0.39432682991027834, 0.27869644165039065);62.507068634;1.0;;;;;;;;;;;;;;0;0;0;0;0;10;2;0;0;();(-2000.0, -2000.0);
03:35:57:466;03:35:57:427;1448462152.23;(0.39432682991027834, 0.27869644165039065);62.507068634;1.0;;;;;;;;;;;;;;0;0;0;0;0;10;2;0;0;();(-2000.0, -2000.0);
03:35:57:483;03:35:57:471;1448462152.27;(0.394527792930603, 0.2792691548665365);62.3932151794;1.0;;;;;;;;;;;;;;0;0;0;0;0;10;2;0;0;();(-2000.0, -2000.0);
03:35:57:499;03:35:57:471;1448462152.27;(0.394527792930603, 0.2792691548665365);62.3932151794;1.0;;;;;;;;;;;;;;0;0;0;0;0;10;2;0;0;();(-2000.0, -2000.0);
03:35:57:516;03:35:57:511;1448462152.3;(0.3941725015640259, 0.27958759731716576);62.8365020752;1.0;;;;;;;;;;;;;;0;0;0;0;0;10;2;0;0;();(-2000.0, -2000.0);
03:35:57:532;03:35:57:511;1448462152.3;(0.3941725015640259, 0.27958759731716576);62.8365020752;1.0;;;;;;;;;;;;;;0;0;0;0;0;10;2;0;0;();(-2000.0, -2000.0);
03:35:57:550;03:35:57:511;1448462152.3;(0.3941725015640259, 0.27958759731716576);62.8365020752;1.0;;;;;;;;;;;;;;0;0;0;0;0;10;2;0;0;();(-2000.0, -2000.0);
03:35:57:583;03:35:57:557;1448462152.37;(0.39392480850219724, 0.2787078857421875);63.0966529846;1.0;;;;;;;;;;;;;;0;0;0;0;0;10;2;0;0;();(-2000.0, -2000.0);
03:35:57:601;03:35:57:595;1448462152.4;(0.39364397525787354, 0.2779276529947917);63.6600723267;1.0;;;;;;;;;;;;;;0;0;0;0;0;10;2;0;0;();(-2000.0, -2000.0);
03:35:57:617;03:35:57:595;1448462152.4;(0.39364397525787354, 0.2779276529947917);63.6600723267;1.0;;;;;;;;;;;;;;0;0;0;0;0;10;2;0;0;();(-2000.0, -2000.0);
03:35:57:634;03:35:57:595;1448462152.4;(0.39364397525787354, 0.2779276529947917);63.6600723267;1.0;;;;;;;;;;;;;;0;0;0;0;0;10;2;0;0;();(-2000.0, -2000.0);
03:35:57:650;03:35:57:635;1448462152.43;(0.39360842704772947, 0.2774940490722656);63.604850769;1.0;;;;;;;;;;;;;;0;0;0;0;0;10;2;0;0;();(-2000.0, -2000.0);
03:35:57:684;03:35:57:681;1448462152.5;(0.39371206760406496, 0.27784428066677513);64.0450592041;1.0;;;;;;;;;;;;;;0;0;0;0;0;10;2;0;0;();(-2000.0, -2000.0);
03:35:57:700;03:35:57:681;1448462152.5;(0.39371206760406496, 0.27784428066677513);64.0450592041;1.0;;;;;;;;;;;;;;0;0;0;0;0;10;2;0;0;();(-2000.0, -2000.0);
03:35:57:717;03:35:57:681;1448462152.5;(0.39371206760406496, 0.27784428066677513);64.0450592041;1.0;;;;;;;;;;;;;;0;0;0;0;0;10;2;0;0;();(-2000.0, -2000.0);
03:35:57:734;03:35:57:719;1448462152.53;(0.39367926120758057, 0.27832590738932295);64.1870498657;1.0;;;;;;;;;;;;;;0;0;0;0;0;10;2;0;0;();(-2000.0, -2000.0);
03:35:57:751;03:35:57:719;1448462152.53;(0.39367926120758057, 0.27832590738932295);64.1870498657;1.0;;;;;;;;;;;;;;0;0;0;0;0;10;2;0;0;();(-2000.0, -2000.0);
03:35:57:784;03:35:57:759;1448462152.57;(0.3938155651092529, 0.27825126647949217);64.2136077881;1.0;;;;;;;;;;;;;;0;0;0;0;0;10;2;0;0;();(-2000.0, -2000.0);
03:35:57:802;03:35:57:759;1448462152.57;(0.3938155651092529, 0.27825126647949217);64.2136077881;1.0;;;;;;;;;;;;;;0;0;0;0;0;10;2;0;0;();(-2000.0, -2000.0);
03:35:57:818;03:35:57:803;1448462152.6;(0.3828828573226929, 0.25533489651150176);65.7996444702;1.0;;;;;;;;;;;;;;0;0;0;0;0;10;2;0;0;();(-2000.0, -2000.0);
03:35:57:835;03:35:57:803;1448462152.6;(0.3828828573226929, 0.25533489651150176);65.7996444702;1.0;;;;;;;;;;;;;;0;0;0;0;0;10;2;0;0;();(-2000.0, -2000.0);
03:35:57:851;03:35:57:843;1448462152.63;(0.38276689052581786, 0.2544080098470052);65.4786300659;1.0;;;;;;;;;;;;;;0;0;0;0;0;10;2;0;0;();(-2000.0, -2000.0);
03:35:57:885;03:35:57:843;1448462152.63;(0.38276689052581786, 0.2544080098470052);65.4786300659;1.0;;;;;;;;;;;;;;0;0;0;0;0;10;2;0;0;();(-2000.0, -2000.0);
03:35:57:902;03:35:57:892;1448462152.7;(0.38221638202667235, 0.2551378885904948);65.6578674316;1.0;;;;;;;;;;;;;;0;0;0;0;0;10;2;0;0;();(-2000.0, -2000.0);
03:35:57:919;03:35:57:892;1448462152.7;(0.38221638202667235, 0.2551378885904948);65.6578674316;1.0;;;;;;;;;;;;;;0;0;0;0;0;10;2;0;0;();(-2000.0, -2000.0);
03:35:57:935;03:35:57:927;1448462152.73;(0.38227717876434325, 0.25527589586046007);65.6281051636;1.0;;;;;;;;;;;;;;0;0;0;0;0;10;2;0;0;();(-2000.0, -2000.0);
03:35:57:952;03:35:57:927;1448462152.73;(0.38227717876434325, 0.25527589586046007);65.6281051636;1.0;;;;;;;;;;;;;;0;0;0;0;0;10;2;0;0;();(-2000.0, -2000.0);
03:35:57:985;03:35:57:967;1448462152.77;(0.38223719596862793, 0.25541822645399304);65.5466308594;1.0;;;;;;;;;;;;;;0;0;0;0;0;10;2;0;0;();(-2000.0, -2000.0);
03:35:58:003;03:35:57:967;1448462152.77;(0.38223719596862793, 0.25541822645399304);65.5466308594;1.0;;;;;;;;;;;;;;0;0;0;0;0;10;2;0;0;();(-2000.0, -2000.0);
03:35:58:020;03:35:58:012;1448462152.83;(0.38210885524749755, 0.25669072469075516);65.1290969849;1.0;;;;;;;;;;;;;;0;0;0;0;0;10;2;0;0;();(-2000.0, -2000.0);
03:35:58:036;03:35:58:012;1448462152.83;(0.38210885524749755, 0.25669072469075516);65.1290969849;1.0;;;;;;;;;;;;;;0;0;0;0;0;10;2;0;0;();(-2000.0, -2000.0);
03:35:58:054;03:35:58:051;1448462152.87;(0.3822826623916626, 0.2572284274631076);65.2109680176;1.0;;;;;;;;;;;;;;0;0;0;0;0;10;2;0;0;();(-2000.0, -2000.0);
03:35:58:070;03:35:58:051;1448462152.87;(0.3822826623916626, 0.2572284274631076);65.2109680176;1.0;;;;;;;;;;;;;;0;0;0;0;0;10;2;0;0;();(-2000.0, -2000.0);
03:35:58:103;03:35:58:091;1448462152.9;(0.3824085474014282, 0.2580368889702691);65.3429870605;1.0;;;;;;;;;;;;;;0;0;0;0;0;10;2;0;0;();(-2000.0, -2000.0);
03:35:58:120;03:35:58:091;1448462152.9;(0.3824085474014282, 0.2580368889702691);65.3429870605;1.0;;;;;;;;;;;;;;0;0;0;0;0;10;2;0;0;();(-2000.0, -2000.0);
03:35:58:136;03:35:58:135;1448462152.93;(0.38235318660736084, 0.2583206176757813);65.3398666382;1.0;;;;;;;;;;;;;;0;0;0;0;0;10;2;0;0;();(-2000.0, -2000.0);
03:35:58:154;03:35:58:135;1448462152.93;(0.38235318660736084, 0.2583206176757813);65.3398666382;1.0;;;;;;;;;;;;;;0;0;0;0;0;10;2;0;0;();(-2000.0, -2000.0);
03:35:58:219;03:35:58:135;1448462152.93;(0.38235318660736084, 0.2583206176757813);65.3398666382;1.0;;;;;;;;;;;;;;0;0;0;0;0;10;2;0;0;();(-2000.0, -2000.0);
03:35:58:225;03:35:58:220;1448462153.0;(0.3819889545440674, 0.2588673909505208);65.3817443848;1.0;;;;;;;;;;;;;;0;0;0;0;0;10;2;0;0;();(-2000.0, -2000.0);
03:35:58:230;03:35:58:225;1448462153.03;(0.38181047439575194, 0.25885815090603304);65.419593811;1.0;;;;;;;;;;;;;;0;0;0;0;0;10;2;0;0;();(-2000.0, -2000.0);
03:35:58:234;03:35:58:225;1448462153.03;(0.38181047439575194, 0.25885815090603304);65.419593811;1.0;;;;;;;;;;;;;;0;0;0;0;0;10;2;0;0;();(-2000.0, -2000.0);
03:35:58:254;03:35:58:225;1448462153.03;(0.38181047439575194, 0.25885815090603304);65.419593811;1.0;;;;;;;;;;;;;;0;0;0;0;0;10;2;0;0;();(-2000.0, -2000.0);
03:35:58:271;03:35:58:259;1448462153.07;(0, 0);0;0;;;;;;;;;;;;;;0;0;0;0;0;10;2;0;0;();(-2000.0, -2000.0);
03:35:58:304;03:35:58:299;1448462153.1;(0.4938681125640869, 0.18311013115776908);24.1934871674;0.603821416657;;;;;;;;;;;;;;0;0;0;0;0;10;2;0;0;();(-2000.0, -2000.0);
03:35:58:321;03:35:58:299;1448462153.1;(0.4938681125640869, 0.18311013115776908);24.1934871674;0.603821416657;;;;;;;;;;;;;;0;0;0;0;0;10;2;0;0;();(-2000.0, -2000.0);
03:35:58:338;03:35:58:299;1448462153.1;(0.4938681125640869, 0.18311013115776908);24.1934871674;0.603821416657;;;;;;;;;;;;;;0;0;0;0;0;10;2;0;0;();(-2000.0, -2000.0);
03:35:58:354;03:35:58:339;1448462153.13;(0.5522102355957031, 0.2018650478786892);22.9550437927;0.651655257246;;;;;;;;;;;;;;0;0;0;0;0;10;2;0;0;();(-2000.0, -2000.0);
03:35:58:371;03:35:58:339;1448462153.13;(0.5522102355957031, 0.2018650478786892);22.9550437927;0.651655257246;;;;;;;;;;;;;;0;0;0;0;0;10;2;0;0;();(-2000.0, -2000.0);
03:35:58:405;03:35:58:384;1448462153.17;(0.48605523109436033, 0.17383600870768234);48.1813278198;0.646165696369;;;;;;;;;;;;;;0;0;0;0;0;10;2;0;0;();(-2000.0, -2000.0);
03:35:58:422;03:35:58:384;1448462153.17;(0.48605523109436033, 0.17383600870768234);48.1813278198;0.646165696369;;;;;;;;;;;;;;0;0;0;0;0;10;2;0;0;();(-2000.0, -2000.0);
03:35:58:438;03:35:58:384;1448462153.17;(0.48605523109436033, 0.17383600870768234);48.1813278198;0.646165696369;;;;;;;;;;;;;;0;0;0;0;0;10;2;0;0;();(-2000.0, -2000.0);
03:35:58:455;03:35:58:384;1448462153.17;(0.48605523109436033, 0.17383600870768234);48.1813278198;0.646165696369;;;;;;;;;;;;;;0;0;0;0;0;10;2;0;0;();(-2000.0, -2000.0);
03:35:58:472;03:35:58:467;1448462153.21;(0.4879144191741943, 0.17073627048068574);58.943145752;0.923999628422;;;;;;;;;;;;;;0;0;0;0;0;10;2;0;0;();(-2000.0, -2000.0);
03:35:58:489;03:35:58:467;1448462153.21;(0.4879144191741943, 0.17073627048068574);58.943145752;0.923999628422;;;;;;;;;;;;;;0;0;0;0;0;10;2;0;0;();(-2000.0, -2000.0);
03:35:58:522;03:35:58:510;1448462153.31;(0.48275089263916016, 0.1763764275444879);57.9296875;0.902647035343;;;;;;;;;;;;;;0;0;0;0;0;10;2;0;0;();(-2000.0, -2000.0);
03:35:58:539;03:35:58:510;1448462153.31;(0.48275089263916016, 0.1763764275444879);57.9296875;0.902647035343;;;;;;;;;;;;;;0;0;0;0;0;10;2;0;0;();(-2000.0, -2000.0);
03:35:58:557;03:35:58:510;1448462153.31;(0.48275089263916016, 0.1763764275444879);57.9296875;0.902647035343;;;;;;;;;;;;;;0;0;0;0;0;10;2;0;0;();(-2000.0, -2000.0);
03:35:58:572;03:35:58:510;1448462153.31;(0.48275089263916016, 0.1763764275444879);57.9296875;0.902647035343;;;;;;;;;;;;;;0;0;0;0;0;10;2;0;0;();(-2000.0, -2000.0);
03:35:58:590;03:35:58:510;1448462153.31;(0.48275089263916016, 0.1763764275444879);57.9296875;0.902647035343;;;;;;;;;;;;;;0;0;0;0;0;10;2;0;0;();(-2000.0, -2000.0);
03:35:58:623;03:35:58:591;1448462153.33;(0.48002872467041013, 0.18129569159613712);59.7858505249;0.948087206848;;;;;;;;;;;;;;0;0;0;0;0;10;2;0;0;();(-2000.0, -2000.0);
03:35:58:640;03:35:58:631;1448462153.41;(0.475142765045166, 0.1871729532877604);61.4906158447;0.947178594444;;;;;;;;;;;;;;0;0;0;0;0;10;2;0;0;();(-2000.0, -2000.0);
03:35:58:657;03:35:58:631;1448462153.41;(0.475142765045166, 0.1871729532877604);61.4906158447;0.947178594444;;;;;;;;;;;;;;0;0;0;0;0;10;2;0;0;();(-2000.0, -2000.0);
03:35:58:673;03:35:58:631;1448462153.41;(0.475142765045166, 0.1871729532877604);61.4906158447;0.947178594444;;;;;;;;;;;;;;0;0;0;0;0;10;2;0;0;();(-2000.0, -2000.0);
03:35:58:690;03:35:58:631;1448462153.41;(0.475142765045166, 0.1871729532877604);61.4906158447;0.947178594444;;;;;;;;;;;;;;0;0;0;0;0;10;2;0;0;();(-2000.0, -2000.0);
03:35:58:723;03:35:58:715;1448462153.46;(0.47408447265625, 0.18194113837348092);60.2344856262;0.929422544628;;;;;;;;;;;;;;0;0;0;0;0;10;2;0;0;();(-2000.0, -2000.0);
03:35:58:740;03:35:58:715;1448462153.46;(0.47408447265625, 0.18194113837348092);60.2344856262;0.929422544628;;;;;;;;;;;;;;0;0;0;0;0;10;2;0;0;();(-2000.0, -2000.0);
03:35:58:757;03:35:58:715;1448462153.46;(0.47408447265625, 0.18194113837348092);60.2344856262;0.929422544628;;;;;;;;;;;;;;0;0;0;0;0;10;2;0;0;();(-2000.0, -2000.0);
03:35:58:774;03:35:58:715;1448462153.46;(0.47408447265625, 0.18194113837348092);60.2344856262;0.929422544628;;;;;;;;;;;;;;0;0;0;0;0;10;2;0;0;();(-2000.0, -2000.0);
03:35:58:791;03:35:58:715;1448462153.46;(0.47408447265625, 0.18194113837348092);60.2344856262;0.929422544628;;;;;;;;;;;;;;0;0;0;0;0;10;2;0;0;();(-2000.0, -2000.0);
03:35:58:825;03:35:58:715;1448462153.46;(0.47408447265625, 0.18194113837348092);60.2344856262;0.929422544628;;;;;;;;;;;;;;0;0;0;0;0;10;2;0;0;();(-2000.0, -2000.0);
03:35:58:841;03:35:58:839;1448462153.53;(0.4631323337554932, 0.17597673204210074);61.7358551025;0.874538352074;;;;;;;;;;;;;;0;0;0;0;0;10;2;0;0;();(-2000.0, -2000.0);
03:35:58:858;03:35:58:839;1448462153.53;(0.4631323337554932, 0.17597673204210074);61.7358551025;0.874538352074;;;;;;;;;;;;;;0;0;0;0;0;10;2;0;0;();(-2000.0, -2000.0);
03:35:58:874;03:35:58:839;1448462153.53;(0.4631323337554932, 0.17597673204210074);61.7358551025;0.874538352074;;;;;;;;;;;;;;0;0;0;0;0;10;2;0;0;();(-2000.0, -2000.0);
03:35:58:891;03:35:58:880;1448462153.64;(0.24713692665100098, 0.14344702826605904);25.4438247681;0.697218152265;;;;;;;;;;;;;;0;0;0;0;0;10;2;0;0;();(-2000.0, -2000.0);
03:35:58:925;03:35:58:923;1448462153.7;(0.46155428886413574, 0.17896991305881071);60.953830719;0.934182856787;;;;;;;;;;;;;;0;0;0;0;0;10;2;0;0;();(-2000.0, -2000.0);
03:35:58:942;03:35:58:923;1448462153.7;(0.46155428886413574, 0.17896991305881071);60.953830719;0.934182856787;;;;;;;;;;;;;;0;0;0;0;0;10;2;0;0;();(-2000.0, -2000.0);
03:35:58:958;03:35:58:923;1448462153.7;(0.46155428886413574, 0.17896991305881071);60.953830719;0.934182856787;;;;;;;;;;;;;;0;0;0;0;0;10;2;0;0;();(-2000.0, -2000.0);
03:35:58:975;03:35:58:966;1448462153.77;(0.46160888671875, 0.17872017754448788);60.9485092163;0.962065000899;;;;;;;;;;;;;;0;0;0;0;0;10;2;0;0;();(-2000.0, -2000.0);
03:35:58:992;03:35:58:966;1448462153.77;(0.46160888671875, 0.17872017754448788);60.9485092163;0.962065000899;;;;;;;;;;;;;;0;0;0;0;0;10;2;0;0;();(-2000.0, -2000.0);
03:35:59:009;03:35:58:966;1448462153.77;(0.46160888671875, 0.17872017754448788);60.9485092163;0.962065000899;;;;;;;;;;;;;;0;0;0;0;0;10;2;0;0;();(-2000.0, -2000.0);
03:35:59:042;03:35:58:966;1448462153.77;(0.46160888671875, 0.17872017754448788);60.9485092163;0.962065000899;;;;;;;;;;;;;;0;0;0;0;0;10;2;0;0;();(-2000.0, -2000.0);
03:35:59:059;03:35:59:048;1448462153.86;(0.5058178424835205, 0.1980461968315972);61.2259674072;1.0;;;;;;;;;;;;;;0;0;0;0;0;10;2;0;0;();(-2000.0, -2000.0);
03:35:59:075;03:35:59:048;1448462153.86;(0.5058178424835205, 0.1980461968315972);61.2259674072;1.0;;;;;;;;;;;;;;0;0;0;0;0;10;2;0;0;();(-2000.0, -2000.0);
03:35:59:092;03:35:59:088;1448462153.9;(0.508126974105835, 0.19863510131835938);62.0546340942;0.975251888444;;;;;;;;;;;;;;0;0;0;0;0;10;2;0;0;();(-2000.0, -2000.0);
03:35:59:109;03:35:59:088;1448462153.9;(0.508126974105835, 0.19863510131835938);62.0546340942;0.975251888444;;;;;;;;;;;;;;0;0;0;0;0;10;2;0;0;();(-2000.0, -2000.0);
03:35:59:143;03:35:59:127;1448462153.93;(0.5053194999694824, 0.2023640950520833);60.8160057068;1.0;;;;;;;;;;;;;;0;0;0;0;0;10;2;0;0;();(-2000.0, -2000.0);
03:35:59:159;03:35:59:127;1448462153.93;(0.5053194999694824, 0.2023640950520833);60.8160057068;1.0;;;;;;;;;;;;;;0;0;0;0;0;10;2;0;0;();(-2000.0, -2000.0);
03:35:59:177;03:35:59:171;1448462153.97;(0.5015103816986084, 0.20540356106228297);60.8551673889;1.0;;;;;;;;;;;;;;0;0;0;0;0;10;2;0;0;();(-2000.0, -2000.0);
03:35:59:193;03:35:59:171;1448462153.97;(0.5015103816986084, 0.20540356106228297);60.8551673889;1.0;;;;;;;;;;;;;;0;0;0;0;0;10;2;0;0;();(-2000.0, -2000.0);
03:35:59:211;03:35:59:171;1448462153.97;(0.5015103816986084, 0.20540356106228297);60.8551673889;1.0;;;;;;;;;;;;;;0;0;0;0;0;10;2;0;0;();(-2000.0, -2000.0);
03:35:59:243;03:35:59:211;1448462154.0;(0.5148631572723389, 0.19339506361219616);60.5070991516;1.0;;;;;;;;;;;;;;0;0;0;0;0;10;2;0;0;();(-2000.0, -2000.0);
03:35:59:260;03:35:59:254;1448462154.03;(0.5122601985931396, 0.1932875739203559);61.2117538452;1.0;;;;;;;;;;;;;;0;0;0;0;0;10;2;0;0;();(-2000.0, -2000.0);
03:35:59:277;03:35:59:254;1448462154.03;(0.5122601985931396, 0.1932875739203559);61.2117538452;1.0;;;;;;;;;;;;;;0;0;0;0;0;10;2;0;0;();(-2000.0, -2000.0);
03:35:59:293;03:35:59:254;1448462154.03;(0.5122601985931396, 0.1932875739203559);61.2117538452;1.0;;;;;;;;;;;;;;0;0;0;0;0;10;2;0;0;();(-2000.0, -2000.0);
03:35:59:311;03:35:59:297;1448462154.1;(0.5028666973114013, 0.2002213372124566);61.1012115479;1.0;;;;;;;;;;;;;;0;0;0;0;0;10;2;0;0;();(-2000.0, -2000.0);
03:35:59:345;03:35:59:297;1448462154.1;(0.5028666973114013, 0.2002213372124566);61.1012115479;1.0;;;;;;;;;;;;;;0;0;0;0;0;10;2;0;0;();(-2000.0, -2000.0);
03:35:59:363;03:35:59:297;1448462154.1;(0.5028666973114013, 0.2002213372124566);61.1012115479;1.0;;;;;;;;;;;;;;0;0;0;0;0;10;2;0;0;();(-2000.0, -2000.0);
03:35:59:379;03:35:59:297;1448462154.1;(0.5028666973114013, 0.2002213372124566);61.1012115479;1.0;;;;;;;;;;;;;;0;0;0;0;0;10;2;0;0;();(-2000.0, -2000.0);
03:35:59:395;03:35:59:383;1448462154.17;(0.4954092979431152, 0.2040534125434028);60.6862487793;1.0;;;;;;;;;;;;;;0;0;0;0;0;10;2;0;0;();(-2000.0, -2000.0);
03:35:59:412;03:35:59:383;1448462154.17;(0.4954092979431152, 0.2040534125434028);60.6862487793;1.0;;;;;;;;;;;;;;0;0;0;0;0;10;2;0;0;();(-2000.0, -2000.0);
03:35:59:445;03:35:59:420;1448462154.2;(0.4923579216003418, 0.20567050509982643);60.4274787903;1.0;;;;;;;;;;;;;;0;0;0;0;0;10;2;0;0;();(-2000.0, -2000.0);
03:35:59:462;03:35:59:460;1448462154.23;(0.4898502349853516, 0.20696436564127607);60.0960350037;1.0;;;;;;;;;;;;;;0;0;0;0;0;10;2;0;0;();(-2000.0, -2000.0);
03:35:59:479;03:35:59:462;1448462154.27;(0.4882399559020996, 0.20729675292968752);60.3849487305;0.806733324645;;;;;;;;;;;;;;0;0;0;0;0;10;2;0;0;();(-2000.0, -2000.0);
03:35:59:496;03:35:59:462;1448462154.27;(0.4882399559020996, 0.20729675292968752);60.3849487305;0.806733324645;;;;;;;;;;;;;;0;0;0;0;0;10;2;0;0;();(-2000.0, -2000.0);
03:35:59:512;03:35:59:504;1448462154.3;(0.49006023406982424, 0.19954749213324652);59.7741889954;1.0;;;;;;;;;;;;;;0;0;0;0;0;10;2;0;0;();(-2000.0, -2000.0);
03:35:59:563;03:35:59:545;1448462154.37;(0.4885855197906494, 0.20078286064995665);59.3218574524;1.0;;;;;;;;;;;;;;0;0;0;0;0;10;2;0;0;();(-2000.0, -2000.0);
03:35:59:566;03:35:59:545;1448462154.37;(0.4885855197906494, 0.20078286064995665);59.3218574524;1.0;;;;;;;;;;;;;;0;0;0;0;0;10;2;0;0;();(-2000.0, -2000.0);
03:35:59:583;03:35:59:545;1448462154.37;(0.4885855197906494, 0.20078286064995665);59.3218574524;1.0;;;;;;;;;;;;;;0;18,20;0;0;0;10;2;0;0;();(-2000.0, -2000.0);
03:35:59:707;03:35:59:667;1448462154.47;(0.48856115341186523, 0.20260281032986116);58.8308639526;1.0;;;;;;;;;;;;;;0;18,20;0;0;0;10;2;0;0;();(-2000.0, -2000.0);
03:35:59:711;03:35:59:667;1448462154.47;(0.48856115341186523, 0.20260281032986116);58.8308639526;1.0;;;;;;;;;;;;;;0;0;0;0;0;20;4;0;0;();(-2000.0, -2000.0);
03:35:59:716;03:35:59:711;1448462154.5;(0.4886070728302002, 0.20287950303819446);58.7791213989;1.0;;;;;;;;;;;;;;0;0;0;0;0;20;4;0;0;();(-2000.0, -2000.0);
03:35:59:719;03:35:59:711;1448462154.5;(0.4886070728302002, 0.20287950303819446);58.7791213989;1.0;;;;;;;;;;;;;;0;0;0;0;0;20;4;0;0;();(-2000.0, -2000.0);
03:35:59:721;03:35:59:711;1448462154.5;(0.4886070728302002, 0.20287950303819446);58.7791213989;1.0;;;;;;;;;;;;;;0;0;0;0;0;20;4;0;0;();(-2000.0, -2000.0);
03:35:59:723;03:35:59:711;1448462154.5;(0.4886070728302002, 0.20287950303819446);58.7791213989;1.0;;;;;;;;;;;;;;0;0;0;0;0;20;4;0;0;();(-2000.0, -2000.0);
03:35:59:726;03:35:59:711;1448462154.5;(0.4886070728302002, 0.20287950303819446);58.7791213989;1.0;;;;;;;;;;;;;;0;0;0;0;0;20;4;0;0;();(-2000.0, -2000.0);
03:35:59:731;03:35:59:711;1448462154.5;(0.4886070728302002, 0.20287950303819446);58.7791213989;1.0;;;;;;;;;;;;;;0;0;0;0;0;20;4;0;0;();(-2000.0, -2000.0);
03:35:59:765;03:35:59:753;1448462154.57;(0.4887109279632568, 0.20262730916341143);58.7860641479;1.0;;;;;;;;;;;;;;0;0;0;0;0;20;4;0;0;();(-2000.0, -2000.0);
03:35:59:781;03:35:59:753;1448462154.57;(0.4887109279632568, 0.20262730916341143);58.7860641479;1.0;;;;;;;;;;;;;;0;0;0;0;0;20;4;0;0;();(-2000.0, -2000.0);
03:35:59:800;03:35:59:792;1448462154.6;(0.48878979682922363, 0.20290807088216145);58.8004150391;1.0;;;;;;;;;;;;;;0;0;0;0;0;20;4;0;0;();(-2000.0, -2000.0);
03:35:59:815;03:35:59:792;1448462154.6;(0.48878979682922363, 0.20290807088216145);58.8004150391;1.0;;;;;;;;;;;;;;0;0;0;0;0;20;4;0;0;();(-2000.0, -2000.0);
03:35:59:832;03:35:59:792;1448462154.6;(0.48878979682922363, 0.20290807088216145);58.8004150391;1.0;;;;;;;;;;;;;;0;0;0;0;0;20;4;0;0;();(-2000.0, -2000.0);
03:35:59:865;03:35:59:836;1448462154.63;(0.4890309810638428, 0.20298834906684027);58.8138237;1.0;;;;;;;;;;;;;;0;0;0;0;0;20;4;0;0;();(-2000.0, -2000.0);
03:35:59:882;03:35:59:875;1448462154.67;(0.48949766159057617, 0.20313907199435766);59.0242156982;1.0;;;;;;;;;;;;;;0;0;0;0;0;20;4;0;0;();(-2000.0, -2000.0);
03:35:59:898;03:35:59:875;1448462154.67;(0.48949766159057617, 0.20313907199435766);59.0242156982;1.0;;;;;;;;;;;;;;0;0;0;0;0;20;4;0;0;();(-2000.0, -2000.0);
03:35:59:916;03:35:59:875;1448462154.67;(0.48949766159057617, 0.20313907199435766);59.0242156982;1.0;;;;;;;;;;;;;;0;0;0;0;0;20;4;0;0;();(-2000.0, -2000.0);
03:35:59:932;03:35:59:918;1448462154.73;(0.4910107612609863, 0.2037176344129774);58.979221344;0.93817172283;;;;;;;;;;;;;;0;0;0;0;0;20;4;0;0;();(-2000.0, -2000.0);
03:35:59:966;03:35:59:960;1448462154.77;(0.4943805694580078, 0.21004189385308158);58.9451522827;1.0;;;;;;;;;;;;;;0;0;0;0;0;20;4;0;0;();(-2000.0, -2000.0);
03:35:59:982;03:35:59:960;1448462154.77;(0.4943805694580078, 0.21004189385308158);58.9451522827;1.0;;;;;;;;;;;;;;0;0;0;0;0;20;4;0;0;();(-2000.0, -2000.0);
03:35:59:999;03:35:59:960;1448462154.77;(0.4943805694580078, 0.21004189385308158);58.9451522827;1.0;;;;;;;;;;;;;;0;0;0;0;0;20;4;0;0;();(-2000.0, -2000.0);
03:36:00:016;03:36:00:001;1448462154.8;(0.49469847679138185, 0.20980529785156254);58.9957733154;1.0;;;;;;;;;;;;;;0;0;0;0;0;20;4;0;0;();(-2000.0, -2000.0);
03:36:00:033;03:36:00:001;1448462154.8;(0.49469847679138185, 0.20980529785156254);58.9957733154;1.0;;;;;;;;;;;;;;0;0;0;0;0;20;4;0;0;();(-2000.0, -2000.0);
03:36:00:066;03:36:00:036;1448462154.83;(0.49500412940979005, 0.2095465766059028);59.2162704468;1.0;;;;;;;;;;;;;;0;0;0;0;0;20;4;0;0;();(-2000.0, -2000.0);
03:36:00:083;03:36:00:068;1448462154.87;(0.49504947662353516, 0.20956047905815978);59.3622589111;1.0;;;;;;;;;;;;;;0;0;0;0;0;20;4;0;0;();(-2000.0, -2000.0);
03:36:00:099;03:36:00:068;1448462154.87;(0.49504947662353516, 0.20956047905815978);59.3622589111;1.0;;;;;;;;;;;;;;0;0;0;0;0;20;4;0;0;();(-2000.0, -2000.0);
03:36:00:117;03:36:00:100;1448462154.9;(0.49509477615356445, 0.2096054077148437);59.3160476685;1.0;;;;;;;;;;;;;;0;0;0;0;0;20;4;0;0;();(-2000.0, -2000.0);
03:36:00:135;03:36:00:100;1448462154.9;(0.49509477615356445, 0.2096054077148437);59.3160476685;1.0;;;;;;;;;;;;;;0;0;0;0;0;20;4;0;0;();(-2000.0, -2000.0);
03:36:00:167;03:36:00:136;1448462154.93;(0.49500117301940916, 0.20985115898980033);59.315284729;1.0;;;;;;;;;;;;;;0;0;0;0;0;20;4;0;0;();(-2000.0, -2000.0);
03:36:00:357;03:36:00:136;1448462154.93;(0.49500117301940916, 0.20985115898980033);59.315284729;1.0;;;;;;;;;;;;;;0;0;0;0;0;20;4;0;0;();(-2000.0, -2000.0);
03:36:00:361;03:36:00:168;1448462154.97;(0.49521961212158205, 0.20982954237196183);59.5470542908;1.0;;;;;;;;;;;;;;0;0;0;0;0;20;4;0;0;();(-2000.0, -2000.0);
03:36:00:365;03:36:00:363;1448462155.03;(0.49556498527526854, 0.21000942654079857);59.5170059204;1.0;;;;;;;;;;;;;;0;0;0;0;0;20;4;0;0;();(-2000.0, -2000.0);
03:36:00:369;03:36:00:365;1448462155.07;(0.49585351943969724, 0.20958040025499136);59.4783782959;1.0;;;;;;;;;;;;;;0;0;0;0;0;20;4;0;0;();(-2000.0, -2000.0);
03:36:00:373;03:36:00:369;1448462155.1;(0.496187686920166, 0.20935219658745663);59.4569206238;1.0;;;;;;;;;;;;;;0;0;0;0;0;20;4;0;0;();(-2000.0, -2000.0);
03:36:00:378;03:36:00:374;1448462155.13;(0.4964179992675781, 0.20901752048068578);59.2283592224;1.0;;;;;;;;;;;;;;0;0;0;0;0;20;4;0;0;();(-2000.0, -2000.0);
03:36:00:381;03:36:00:375;1448462155.17;(0.4955147266387939, 0.2085419548882379);58.7076454163;1.0;;;;;;;;;;;;;;0;0;0;0;0;20;4;0;0;();(-2000.0, -2000.0);
03:36:00:383;03:36:00:375;1448462155.17;(0.4955147266387939, 0.2085419548882379);58.7076454163;1.0;;;;;;;;;;;;;;0;0;0;0;0;20;4;0;0;();(-2000.0, -2000.0);
03:36:00:386;03:36:00:375;1448462155.17;(0.4955147266387939, 0.2085419548882379);58.7076454163;1.0;;;;;;;;;;;;;;0;0;0;0;0;20;4;0;0;();(-2000.0, -2000.0);
03:36:00:388;03:36:00:375;1448462155.17;(0.4955147266387939, 0.2085419548882379);58.7076454163;1.0;;;;;;;;;;;;;;0;0;0;0;0;20;4;0;0;();(-2000.0, -2000.0);
03:36:00:391;03:36:00:375;1448462155.17;(0.4955147266387939, 0.2085419548882379);58.7076454163;1.0;;;;;;;;;;;;;;0;0;0;0;0;20;4;0;0;();(-2000.0, -2000.0);
03:36:00:393;03:36:00:375;1448462155.17;(0.4955147266387939, 0.2085419548882379);58.7076454163;1.0;;;;;;;;;;;;;;0;0;0;0;0;20;4;0;0;();(-2000.0, -2000.0);
03:36:00:418;03:36:00:403;1448462155.2;(0.47925148010253904, 0.23536758422851567);33.2468109131;0.680464520623;;;;;;;;;;;;;;0;0;0;0;0;20;4;0;0;();(-2000.0, -2000.0);
03:36:00:435;03:36:00:403;1448462155.2;(0.47925148010253904, 0.23536758422851567);33.2468109131;0.680464520623;;;;;;;;;;;;;;0;0;0;0;0;20;4;0;0;();(-2000.0, -2000.0);
03:36:00:452;03:36:00:436;1448462155.23;(0.6272188186645508, 0.1569842868381076);23.9322509766;0.673137125155;;;;;;;;;;;;;;0;0;0;0;0;20;4;0;0;();(-2000.0, -2000.0);
03:36:00:486;03:36:00:468;1448462155.27;(0, 0);0;0;;;;;;;;;;;;;;0;0;0;0;0;20;4;0;0;();(-2000.0, -2000.0);
03:36:00:502;03:36:00:468;1448462155.27;(0, 0);0;0;;;;;;;;;;;;;;0;0;0;0;0;20;4;0;0;();(-2000.0, -2000.0);
03:36:00:519;03:36:00:504;1448462155.3;(0.5574469089508056, 0.22702077229817708);21.8058490753;0.629422199499;;;;;;;;;;;;;;0;0;0;0;0;20;4;0;0;();(-2000.0, -2000.0);
03:36:00:536;03:36:00:504;1448462155.3;(0.5574469089508056, 0.22702077229817708);21.8058490753;0.629422199499;;;;;;;;;;;;;;0;0;0;0;0;20;4;0;0;();(-2000.0, -2000.0);
03:36:00:552;03:36:00:536;1448462155.33;(0, 0);0;0;;;;;;;;;;;;;;0;0;0;0;0;20;4;0;0;();(-2000.0, -2000.0);
03:36:00:586;03:36:00:567;1448462155.37;(0.3364755868911743, 0.2555046929253473);63.2514343262;1.0;;;;;;;;;;;;;;0;0;0;0;0;20;4;0;0;();(-2000.0, -2000.0);
03:36:00:604;03:36:00:567;1448462155.37;(0.3364755868911743, 0.2555046929253473);63.2514343262;1.0;;;;;;;;;;;;;;0;0;0;0;0;20;4;0;0;();(-2000.0, -2000.0);
03:36:00:620;03:36:00:604;1448462155.4;(0.34244046211242674, 0.25902108086480036);62.4768447876;1.0;;;;;;;;;;;;;;0;0;0;0;0;20;4;0;0;();(-2000.0, -2000.0);
03:36:00:636;03:36:00:604;1448462155.4;(0.34244046211242674, 0.25902108086480036);62.4768447876;1.0;;;;;;;;;;;;;;0;0;0;0;0;20;4;0;0;();(-2000.0, -2000.0);
03:36:00:654;03:36:00:636;1448462155.43;(0.3482236862182617, 0.26137356228298614);62.3362350464;1.0;;;;;;;;;;;;;;0;0;0;0;0;20;4;0;0;();(-2000.0, -2000.0);
03:36:00:670;03:36:00:636;1448462155.43;(0.3482236862182617, 0.26137356228298614);62.3362350464;1.0;;;;;;;;;;;;;;0;0;0;0;0;20;4;0;0;();(-2000.0, -2000.0);
03:36:00:703;03:36:00:673;1448462155.47;(0.3533661365509033, 0.26267704433865013);62.09349823;1.0;;;;;;;;;;;;;;0;0;0;0;0;20;4;0;0;();(-2000.0, -2000.0);
03:36:00:720;03:36:00:704;1448462155.5;(0.35814127922058103, 0.2630745781792535);62.0811080933;1.0;;;;;;;;;;;;;;0;0;0;0;0;20;4;0;0;();(-2000.0, -2000.0);
03:36:00:737;03:36:00:736;1448462155.53;(0.36279735565185545, 0.2631139543321398);61.8520507812;1.0;;;;;;;;;;;;;;0;0;0;0;0;20;4;0;0;();(-2000.0, -2000.0);
03:36:00:753;03:36:00:736;1448462155.53;(0.36279735565185545, 0.2631139543321398);61.8520507812;1.0;;;;;;;;;;;;;;0;0;0;0;0;20;4;0;0;();(-2000.0, -2000.0);
03:36:00:787;03:36:00:772;1448462155.57;(0.3672407388687134, 0.263129636976454);61.5727119446;1.0;;;;;;;;;;;;;;0;0;0;0;0;20;4;0;0;();(-2000.0, -2000.0);
03:36:00:805;03:36:00:772;1448462155.57;(0.3672407388687134, 0.263129636976454);61.5727119446;1.0;;;;;;;;;;;;;;0;0;0;0;0;20;4;0;0;();(-2000.0, -2000.0);
03:36:00:821;03:36:00:804;1448462155.6;(0.3712118864059448, 0.2638748592800564);61.6190643311;1.0;;;;;;;;;;;;;;0;0;0;0;0;20;4;0;0;();(-2000.0, -2000.0);
03:36:00:837;03:36:00:835;1448462155.63;(0.375158429145813, 0.2634949154324002);61.5223350525;1.0;;;;;;;;;;;;;;0;0;0;0;0;20;4;0;0;();(-2000.0, -2000.0);
03:36:00:854;03:36:00:835;1448462155.63;(0.375158429145813, 0.2634949154324002);61.5223350525;1.0;;;;;;;;;;;;;;0;0;0;0;0;20;4;0;0;();(-2000.0, -2000.0);
03:36:00:871;03:36:00:835;1448462155.63;(0.375158429145813, 0.2634949154324002);61.5223350525;1.0;;;;;;;;;;;;;;0;0;0;0;0;20;4;0;0;();(-2000.0, -2000.0);
03:36:00:904;03:36:00:872;1448462155.67;(0.3784867525100708, 0.2633856879340277);61.3646507263;1.0;;;;;;;;;;;;;;0;0;0;0;0;20;4;0;0;();(-2000.0, -2000.0);
03:36:00:921;03:36:00:904;1448462155.7;(0.38175177574157715, 0.26310009426540804);61.5828094482;1.0;;;;;;;;;;;;;;0;0;0;0;0;20;4;0;0;();(-2000.0, -2000.0);
03:36:00:938;03:36:00:904;1448462155.7;(0.38175177574157715, 0.26310009426540804);61.5828094482;1.0;;;;;;;;;;;;;;0;0;0;0;0;20;4;0;0;();(-2000.0, -2000.0);
03:36:00:955;03:36:00:904;1448462155.7;(0.38175177574157715, 0.26310009426540804);61.5828094482;1.0;;;;;;;;;;;;;;0;0;0;0;0;20;4;0;0;();(-2000.0, -2000.0);
03:36:00:972;03:36:00:904;1448462155.7;(0.38175177574157715, 0.26310009426540804);61.5828094482;1.0;;;;;;;;;;;;;;0;0;0;0;0;20;4;0;0;();(-2000.0, -2000.0);
03:36:01:006;03:36:01:005;1448462155.81;(0.3921361446380615, 0.24012035793728304);62.0585861206;1.0;;;;;;;;;;;;;;0;0;0;0;0;20;4;0;0;();(-2000.0, -2000.0);
03:36:01:022;03:36:01:005;1448462155.81;(0.3921361446380615, 0.24012035793728304);62.0585861206;1.0;;;;;;;;;;;;;;0;0;0;0;0;20;4;0;0;();(-2000.0, -2000.0);
03:36:01:039;03:36:01:005;1448462155.81;(0.3921361446380615, 0.24012035793728304);62.0585861206;1.0;;;;;;;;;;;;;;0;0;0;0;0;20;4;0;0;();(-2000.0, -2000.0);
03:36:01:056;03:36:01:040;1448462155.83;(0.393492317199707, 0.24043011135525172);62.2675056458;0.995378549468;;;;;;;;;;;;;;0;0;0;0;0;20;4;0;0;();(-2000.0, -2000.0);
03:36:01:072;03:36:01:040;1448462155.83;(0.393492317199707, 0.24043011135525172);62.2675056458;0.995378549468;;;;;;;;;;;;;;0;0;0;0;0;20;4;0;0;();(-2000.0, -2000.0);
03:36:01:106;03:36:01:103;1448462155.9;(0.3959262609481812, 0.24073384602864578);62.3684310913;1.0;;;;;;;;;;;;;;0;0;0;0;0;20;4;0;0;();(-2000.0, -2000.0);
03:36:01:122;03:36:01:103;1448462155.9;(0.3959262609481812, 0.24073384602864578);62.3684310913;1.0;;;;;;;;;;;;;;0;0;0;0;0;20;4;0;0;();(-2000.0, -2000.0);
03:36:01:139;03:36:01:103;1448462155.9;(0.3959262609481812, 0.24073384602864578);62.3684310913;1.0;;;;;;;;;;;;;;0;0;0;0;0;20;4;0;0;();(-2000.0, -2000.0);
03:36:01:156;03:36:01:140;1448462155.93;(0.39681758880615237, 0.2407861497667101);62.2512130737;1.0;;;;;;;;;;;;;;0;0;0;0;0;20;4;0;0;();(-2000.0, -2000.0);
03:36:01:173;03:36:01:171;1448462155.97;(0.3974976301193237, 0.24059761895073783);62.2910957336;1.0;;;;;;;;;;;;;;0;0;0;0;0;20;4;0;0;();(-2000.0, -2000.0);
03:36:01:206;03:36:01:171;1448462155.97;(0.3974976301193237, 0.24059761895073783);62.2910957336;1.0;;;;;;;;;;;;;;0;0;0;0;0;20;4;0;0;();(-2000.0, -2000.0);
03:36:01:224;03:36:01:208;1448462156.0;(0.398040771484375, 0.24039840698242188);62.494102478;1.0;;;;;;;;;;;;;;0;0;0;0;0;20;4;0;0;();(-2000.0, -2000.0);
03:36:01:240;03:36:01:208;1448462156.0;(0.398040771484375, 0.24039840698242188);62.494102478;1.0;;;;;;;;;;;;;;0;0;0;0;0;20;4;0;0;();(-2000.0, -2000.0);
03:36:01:257;03:36:01:240;1448462156.03;(0.39828243255615237, 0.2403393215603299);62.5617904663;1.0;;;;;;;;;;;;;;0;0;0;0;0;20;4;0;0;();(-2000.0, -2000.0);
03:36:01:273;03:36:01:240;1448462156.03;(0.39828243255615237, 0.2403393215603299);62.5617904663;1.0;;;;;;;;;;;;;;0;0;0;0;0;20;4;0;0;();(-2000.0, -2000.0);
03:36:01:290;03:36:01:272;1448462156.07;(0.39841935634613035, 0.24052318996853295);62.6506309509;1.0;;;;;;;;;;;;;;0;0;0;0;0;20;4;0;0;();(-2000.0, -2000.0);
03:36:01:324;03:36:01:309;1448462156.1;(0.3985732555389404, 0.24105241563585067);62.696144104;1.0;;;;;;;;;;;;;;0;0;0;0;0;20;4;0;0;();(-2000.0, -2000.0);
03:36:01:340;03:36:01:309;1448462156.1;(0.3985732555389404, 0.24105241563585067);62.696144104;1.0;;;;;;;;;;;;;;0;0;0;0;0;20;4;0;0;();(-2000.0, -2000.0);
03:36:01:357;03:36:01:339;1448462156.13;(0.39974024295806887, 0.24257626003689237);62.5319290161;0.95288749337;;;;;;;;;;;;;;0;0;0;0;0;20;4;0;0;();(-2000.0, -2000.0);
03:36:01:374;03:36:01:339;1448462156.13;(0.39974024295806887, 0.24257626003689237);62.5319290161;0.95288749337;;;;;;;;;;;;;;0;0;0;0;0;20;4;0;0;();(-2000.0, -2000.0);
03:36:01:391;03:36:01:339;1448462156.13;(0.39974024295806887, 0.24257626003689237);62.5319290161;0.95288749337;;;;;;;;;;;;;;0;0;0;0;0;20;4;0;0;();(-2000.0, -2000.0);
03:36:01:424;03:36:01:407;1448462156.17;(0.41607084274291994, 0.28639297485351567);61.340801239;1.0;;;;;;;;;;;;;;0;0;0;0;0;20;4;0;0;();(-2000.0, -2000.0);
03:36:01:443;03:36:01:439;1448462156.24;(0.42199246883392333, 0.3051520453559028);61.3053894043;1.0;;;;;;;;;;;;;;0;0;0;0;0;20;4;0;0;();(-2000.0, -2000.0);
03:36:01:458;03:36:01:439;1448462156.24;(0.42199246883392333, 0.3051520453559028);61.3053894043;1.0;;;;;;;;;;;;;;0;0;0;0;0;20;4;0;0;();(-2000.0, -2000.0);
03:36:01:474;03:36:01:472;1448462156.27;(0.42173047065734864, 0.30616696675618493);61.4234161377;1.0;;;;;;;;;;;;;;0;0;0;0;0;20;4;0;0;();(-2000.0, -2000.0);
03:36:01:491;03:36:01:472;1448462156.27;(0.42173047065734864, 0.30616696675618493);61.4234161377;1.0;;;;;;;;;;;;;;0;0;0;0;0;20;4;0;0;();(-2000.0, -2000.0);
03:36:01:525;03:36:01:507;1448462156.3;(0.4216069221496582, 0.3071851942274305);61.5597839355;1.0;;;;;;;;;;;;;;0;0;0;0;0;20;4;0;0;();(-2000.0, -2000.0);
03:36:01:542;03:36:01:540;1448462156.33;(0.4217479467391968, 0.30781644185384116);61.4869308472;1.0;;;;;;;;;;;;;;0;0;0;0;0;20;4;0;0;();(-2000.0, -2000.0);
03:36:01:559;03:36:01:540;1448462156.33;(0.4217479467391968, 0.30781644185384116);61.4869308472;1.0;;;;;;;;;;;;;;0;0;0;0;0;20;4;0;0;();(-2000.0, -2000.0);
03:36:01:589;03:36:01:576;1448462156.37;(0.42156219482421875, 0.3083262125651042);61.5379867554;1.0;;;;;;;;;;;;;;0;0;0;0;0;20;4;0;0;();(-2000.0, -2000.0);
03:36:01:605;03:36:01:576;1448462156.37;(0.42156219482421875, 0.3083262125651042);61.5379867554;1.0;;;;;;;;;;;;;;0;0;0;0;0;20;4;0;0;();(-2000.0, -2000.0);
03:36:01:621;03:36:01:608;1448462156.4;(0.4217003583908081, 0.3086968315972223);61.2932929993;1.0;;;;;;;;;;;;;;0;0;0;0;0;20;4;0;0;();(-2000.0, -2000.0);
03:36:01:637;03:36:01:608;1448462156.4;(0.4217003583908081, 0.3086968315972223);61.2932929993;1.0;;;;;;;;;;;;;;0;0;0;0;0;20;4;0;0;();(-2000.0, -2000.0);
03:36:01:652;03:36:01:640;1448462156.43;(0.42154688835144044, 0.3095272064208985);61.2372093201;1.0;;;;;;;;;;;;;;0;0;0;0;0;20;4;0;0;();(-2000.0, -2000.0);
03:36:01:683;03:36:01:676;1448462156.47;(0.42132043838500977, 0.31040683322482643);60.9520187378;1.0;;;;;;;;;;;;;;0;0;0;0;0;20;4;0;0;();(-2000.0, -2000.0);
03:36:01:699;03:36:01:676;1448462156.47;(0.42132043838500977, 0.31040683322482643);60.9520187378;1.0;;;;;;;;;;;;;;0;0;0;0;0;20;4;0;0;();(-2000.0, -2000.0);
03:36:01:715;03:36:01:708;1448462156.5;(0.42106192111968993, 0.31092753940158424);60.9587631226;1.0;;;;;;;;;;;;;;0;0;0;0;0;20;4;0;0;();(-2000.0, -2000.0);
03:36:01:747;03:36:01:740;1448462156.53;(0.420902419090271, 0.3118680318196615);60.7666969299;1.0;;;;;;;;;;;;;;0;0;0;0;0;20;4;0;0;();(-2000.0, -2000.0);
03:36:01:762;03:36:01:740;1448462156.53;(0.420902419090271, 0.3118680318196615);60.7666969299;1.0;;;;;;;;;;;;;;0;0;0;0;0;20;4;0;0;();(-2000.0, -2000.0);
03:36:01:779;03:36:01:776;1448462156.57;(0.420762038230896, 0.3125741322835286);60.797870636;1.0;;;;;;;;;;;;;;0;0;0;0;0;20;4;0;0;();(-2000.0, -2000.0);
03:36:01:794;03:36:01:776;1448462156.57;(0.420762038230896, 0.3125741322835286);60.797870636;1.0;;;;;;;;;;;;;;0;0;0;0;0;20;4;0;0;();(-2000.0, -2000.0);
03:36:01:810;03:36:01:807;1448462156.6;(0.42271263599395753, 0.30785200330946183);60.7382774353;1.0;;;;;;;;;;;;;;0;0;0;0;0;20;4;0;0;();(-2000.0, -2000.0);
03:36:01:844;03:36:01:807;1448462156.6;(0.42271263599395753, 0.30785200330946183);60.7382774353;1.0;;;;;;;;;;;;;;0;0;0;0;0;20;4;0;0;();(-2000.0, -2000.0);
03:36:01:862;03:36:01:844;1448462156.63;(0.45393171310424807, 0.24738354153103304);62.2532119751;0.820996983693;;;;;;;;;;;;;;0;0;0;0;0;20;4;0;0;();(-2000.0, -2000.0);
03:36:01:877;03:36:01:875;1448462156.67;(0.4696169853210449, 0.19743245442708335);61.7295799255;0.897839874066;;;;;;;;;;;;;;0;0;0;0;0;20;4;0;0;();(-2000.0, -2000.0);
03:36:01:894;03:36:01:875;1448462156.67;(0.4696169853210449, 0.19743245442708335);61.7295799255;0.897839874066;;;;;;;;;;;;;;0;0;0;0;0;20;4;0;0;();(-2000.0, -2000.0);
03:36:01:911;03:36:01:907;1448462156.7;(0.4753225803375244, 0.1711601257324219);60.2288627625;1.0;;;;;;;;;;;;;;0;0;0;0;0;20;4;0;0;();(-2000.0, -2000.0);
03:36:01:944;03:36:01:943;1448462156.73;(0.4743800163269043, 0.17283562554253473);60.603843689;1.0;;;;;;;;;;;;;;0;0;0;0;0;20;4;0;0;();(-2000.0, -2000.0);
03:36:01:961;03:36:01:943;1448462156.73;(0.4743800163269043, 0.17283562554253473);60.603843689;1.0;;;;;;;;;;;;;;0;0;0;0;0;20;4;0;0;();(-2000.0, -2000.0);
03:36:01:979;03:36:01:976;1448462156.77;(0.47350029945373534, 0.17446000840928821);60.7143211365;1.0;;;;;;;;;;;;;;0;0;0;0;0;20;4;0;0;();(-2000.0, -2000.0);
03:36:01:994;03:36:01:976;1448462156.77;(0.47350029945373534, 0.17446000840928821);60.7143211365;1.0;;;;;;;;;;;;;;0;0;0;0;0;20;4;0;0;();(-2000.0, -2000.0);
03:36:02:011;03:36:02:008;1448462156.8;(0.47290406227111814, 0.1754848056369358);60.4902267456;1.0;;;;;;;;;;;;;;0;0;0;0;0;20;4;0;0;();(-2000.0, -2000.0);
03:36:02:046;03:36:02:044;1448462156.83;(0.47260589599609376, 0.1765244377983941);60.280921936;1.0;;;;;;;;;;;;;;0;0;0;0;0;20;4;0;0;();(-2000.0, -2000.0);
03:36:02:061;03:36:02:044;1448462156.83;(0.47260589599609376, 0.1765244377983941);60.280921936;1.0;;;;;;;;;;;;;;0;0;0;0;0;20;4;0;0;();(-2000.0, -2000.0);
03:36:02:078;03:36:02:075;1448462156.87;(0.47205705642700196, 0.17721684773763025);60.7529067993;1.0;;;;;;;;;;;;;;0;0;0;0;0;20;4;0;0;();(-2000.0, -2000.0);
03:36:02:096;03:36:02:075;1448462156.87;(0.47205705642700196, 0.17721684773763025);60.7529067993;1.0;;;;;;;;;;;;;;0;0;0;0;0;20;4;0;0;();(-2000.0, -2000.0);
03:36:02:112;03:36:02:109;1448462156.9;(0.4715780258178711, 0.17799555460611982);60.6169395447;1.0;;;;;;;;;;;;;;0;0;0;0;0;20;4;0;0;();(-2000.0, -2000.0);
03:36:02:146;03:36:02:109;1448462156.9;(0.4715780258178711, 0.17799555460611982);60.6169395447;1.0;;;;;;;;;;;;;;0;0;0;0;0;20;4;0;0;();(-2000.0, -2000.0);
03:36:02:162;03:36:02:154;1448462156.97;(0.470946216583252, 0.18026860555013025);60.4020690918;1.0;;;;;;;;;;;;;;0;0;0;0;0;20;4;0;0;();(-2000.0, -2000.0);
03:36:02:188;03:36:02:154;1448462156.97;(0.470946216583252, 0.18026860555013025);60.4020690918;1.0;;;;;;;;;;;;;;0;0;0;0;0;20;4;0;0;();(-2000.0, -2000.0);
03:36:02:196;03:36:02:191;1448462157.0;(0.4706822395324707, 0.1808230929904514);60.1564064026;1.0;;;;;;;;;;;;;;0;0;0;0;0;20;4;0;0;();(-2000.0, -2000.0);
03:36:02:212;03:36:02:191;1448462157.0;(0.4706822395324707, 0.1808230929904514);60.1564064026;1.0;;;;;;;;;;;;;;0;0;0;0;0;20;4;0;0;();(-2000.0, -2000.0);
03:36:02:246;03:36:02:235;1448462157.03;(0.47054357528686525, 0.18093117607964415);60.0263748169;1.0;;;;;;;;;;;;;;0;0;0;0;0;20;4;0;0;();(-2000.0, -2000.0);
03:36:02:264;03:36:02:235;1448462157.03;(0.47054357528686525, 0.18093117607964415);60.0263748169;1.0;;;;;;;;;;;;;;0;0;0;0;0;20;4;0;0;();(-2000.0, -2000.0);
03:36:02:279;03:36:02:275;1448462157.07;(0.47021756172180174, 0.18137079874674478);59.9157905579;1.0;;;;;;;;;;;;;;0;0;0;0;0;20;4;0;0;();(-2000.0, -2000.0);
03:36:02:296;03:36:02:275;1448462157.07;(0.47021756172180174, 0.18137079874674478);59.9157905579;1.0;;;;;;;;;;;;;;0;0;0;0;0;20;4;0;0;();(-2000.0, -2000.0);
03:36:02:313;03:36:02:275;1448462157.07;(0.47021756172180174, 0.18137079874674478);59.9157905579;1.0;;;;;;;;;;;;;;0;0;0;0;0;20;4;0;0;();(-2000.0, -2000.0);
03:36:02:330;03:36:02:315;1448462157.1;(0.4694492816925049, 0.1810653686523438);59.7660598755;1.0;;;;;;;;;;;;;;0;0;0;0;0;20;4;0;0;();(-2000.0, -2000.0);
03:36:02:363;03:36:02:361;1448462157.17;(0.4650118350982666, 0.18023096720377607);59.68201828;1.0;;;;;;;;;;;;;;0;0;0;0;0;20;4;0;0;();(-2000.0, -2000.0);
03:36:02:381;03:36:02:361;1448462157.17;(0.4650118350982666, 0.18023096720377607);59.68201828;1.0;;;;;;;;;;;;;;0;0;0;0;0;20;4;0;0;();(-2000.0, -2000.0);
03:36:02:397;03:36:02:361;1448462157.17;(0.4650118350982666, 0.18023096720377607);59.68201828;1.0;;;;;;;;;;;;;;0;0;0;0;0;20;4;0;0;();(-2000.0, -2000.0);
03:36:02:414;03:36:02:399;1448462157.2;(0.4650160789489746, 0.18038135104709196);59.6133575439;1.0;;;;;;;;;;;;;;0;0;0;0;0;20;4;0;0;();(-2000.0, -2000.0);
03:36:02:431;03:36:02:399;1448462157.2;(0.4650160789489746, 0.18038135104709196);59.6133575439;1.0;;;;;;;;;;;;;;0;0;0;0;0;20;4;0;0;();(-2000.0, -2000.0);
03:36:02:464;03:36:02:443;1448462157.23;(0.4650742530822754, 0.18011881510416672);59.4526329041;1.0;;;;;;;;;;;;;;0;0;0;0;0;20;4;0;0;();(-2000.0, -2000.0);
03:36:02:481;03:36:02:443;1448462157.23;(0.4650742530822754, 0.18011881510416672);59.4526329041;1.0;;;;;;;;;;;;;;0;0;0;0;0;20;4;0;0;();(-2000.0, -2000.0);
03:36:02:497;03:36:02:487;1448462157.3;(0.46511082649230956, 0.1801191541883681);59.2024726868;1.0;;;;;;;;;;;;;;0;0;0;0;0;20;4;0;0;();(-2000.0, -2000.0);
03:36:02:514;03:36:02:487;1448462157.3;(0.46511082649230956, 0.1801191541883681);59.2024726868;1.0;;;;;;;;;;;;;;0;0;0;0;0;20;4;0;0;();(-2000.0, -2000.0);
03:36:02:531;03:36:02:523;1448462157.33;(0.46500368118286134, 0.179968516031901);59.3559379578;1.0;;;;;;;;;;;;;;0;0;0;0;0;20;4;0;0;();(-2000.0, -2000.0);
03:36:02:565;03:36:02:523;1448462157.33;(0.46500368118286134, 0.179968516031901);59.3559379578;1.0;;;;;;;;;;;;;;0;0;0;0;0;20;4;0;0;();(-2000.0, -2000.0);
03:36:02:582;03:36:02:568;1448462157.37;(0.46511216163635255, 0.1799818250868056);59.3484992981;1.0;;;;;;;;;;;;;;0;0;0;0;0;20;4;0;0;();(-2000.0, -2000.0);
03:36:02:598;03:36:02:568;1448462157.37;(0.46511216163635255, 0.1799818250868056);59.3484992981;1.0;;;;;;;;;;;;;;0;0;0;0;0;20;4;0;0;();(-2000.0, -2000.0);
03:36:02:615;03:36:02:607;1448462157.4;(0.4648336410522461, 0.18009677463107643);59.0477600098;1.0;;;;;;;;;;;;;;0;0;0;0;0;20;4;0;0;();(-2000.0, -2000.0);
03:36:02:632;03:36:02:607;1448462157.4;(0.4648336410522461, 0.18009677463107643);59.0477600098;1.0;;;;;;;;;;;;;;0;0;0;0;0;20;4;0;0;();(-2000.0, -2000.0);
03:36:02:666;03:36:02:647;1448462157.43;(0, 0);0;0;;;;;;;;;;;;;;0;0;0;0;0;20;4;0;0;();(-2000.0, -2000.0);
03:36:02:682;03:36:02:647;1448462157.43;(0, 0);0;0;;;;;;;;;;;;;;0;0;0;0;0;20;4;0;0;();(-2000.0, -2000.0);
03:36:02:699;03:36:02:693;1448462157.5;(0, 0);0;0;;;;;;;;;;;;;;0;0;0;0;0;20;4;0;0;();(-2000.0, -2000.0);
03:36:02:716;03:36:02:693;1448462157.5;(0, 0);0;0;;;;;;;;;;;;;;0;0;0;0;0;20;4;0;0;();(-2000.0, -2000.0);
03:36:02:732;03:36:02:731;1448462157.53;(0, 0);0;0;;;;;;;;;;;;;;0;0;0;0;0;20;4;0;0;();(-2000.0, -2000.0);
03:36:02:766;03:36:02:731;1448462157.53;(0, 0);0;0;;;;;;;;;;;;;;0;0;0;0;0;20;4;0;0;();(-2000.0, -2000.0);
03:36:02:783;03:36:02:772;1448462157.57;(0.3742369651794434, 0.31088595920138884);62.125038147;1.0;;;;;;;;;;;;;;0;0;0;0;0;20;4;0;0;();(-2000.0, -2000.0);
03:36:02:799;03:36:02:772;1448462157.57;(0.3742369651794434, 0.31088595920138884);62.125038147;1.0;;;;;;;;;;;;;;0;0;0;0;0;20;4;0;0;();(-2000.0, -2000.0);
03:36:02:816;03:36:02:772;1448462157.57;(0.3742369651794434, 0.31088595920138884);62.125038147;1.0;;;;;;;;;;;;;;0;0;0;0;0;20;4;0;0;();(-2000.0, -2000.0);
03:36:02:833;03:36:02:818;1448462157.63;(0.37713031768798827, 0.31242485046386714);62.5995483398;0.945897620746;;;;;;;;;;;;;;0;0;0;0;0;20;4;0;0;();(-2000.0, -2000.0);
03:36:02:851;03:36:02:818;1448462157.63;(0.37713031768798827, 0.31242485046386714);62.5995483398;0.945897620746;;;;;;;;;;;;;;0;0;0;0;0;20;4;0;0;();(-2000.0, -2000.0);
03:36:02:883;03:36:02:855;1448462157.67;(0.37815616130828855, 0.3127293480767144);62.1761703491;1.0;;;;;;;;;;;;;;0;0;0;0;0;20;4;0;0;();(-2000.0, -2000.0);
03:36:02:901;03:36:02:895;1448462157.7;(0.3789560794830322, 0.3129692077636719);62.237285614;1.0;;;;;;;;;;;;;;0;0;0;0;0;20;4;0;0;();(-2000.0, -2000.0);
03:36:02:917;03:36:02:895;1448462157.7;(0.3789560794830322, 0.3129692077636719);62.237285614;1.0;;;;;;;;;;;;;;0;0;0;0;0;20;4;0;0;();(-2000.0, -2000.0);
03:36:02:933;03:36:02:895;1448462157.7;(0.3789560794830322, 0.3129692077636719);62.237285614;1.0;;;;;;;;;;;;;;0;0;0;0;0;20;4;0;0;();(-2000.0, -2000.0);
03:36:02:950;03:36:02:939;1448462157.73;(0.3798687219619751, 0.31302413940429685);62.0762176514;1.0;;;;;;;;;;;;;;0;0;0;0;0;20;4;0;0;();(-2000.0, -2000.0);
03:36:02:984;03:36:02:981;1448462157.8;(0.38156039714813234, 0.31333126491970487);61.7403106689;1.0;;;;;;;;;;;;;;0;0;0;0;0;20;4;0;0;();(-2000.0, -2000.0);
03:36:03:001;03:36:02:981;1448462157.8;(0.38156039714813234, 0.31333126491970487);61.7403106689;1.0;;;;;;;;;;;;;;0;0;0;0;0;20;4;0;0;();(-2000.0, -2000.0);
03:36:03:018;03:36:02:981;1448462157.8;(0.38156039714813234, 0.31333126491970487);61.7403106689;1.0;;;;;;;;;;;;;;0;0;0;0;0;20;4;0;0;();(-2000.0, -2000.0);
03:36:03:034;03:36:03:023;1448462157.83;(0.3819989442825317, 0.31310068766276045);61.7382659912;1.0;;;;;;;;;;;;;;0;0;0;0;0;20;4;0;0;();(-2000.0, -2000.0);
03:36:03:052;03:36:03:023;1448462157.83;(0.3819989442825317, 0.31310068766276045);61.7382659912;1.0;;;;;;;;;;;;;;0;0;0;0;0;20;4;0;0;();(-2000.0, -2000.0);
03:36:03:086;03:36:03:063;1448462157.87;(0.3823829650878906, 0.3127699534098307);62.0515899658;1.0;;;;;;;;;;;;;;0;0;0;0;0;20;4;0;0;();(-2000.0, -2000.0);
03:36:03:101;03:36:03:063;1448462157.87;(0.3823829650878906, 0.3127699534098307);62.0515899658;1.0;;;;;;;;;;;;;;0;0;0;0;0;20;4;0;0;();(-2000.0, -2000.0);
03:36:03:119;03:36:03:103;1448462157.9;(0.38280882835388186, 0.31299349466959636);61.8112945557;1.0;;;;;;;;;;;;;;0;0;0;0;0;20;4;0;0;();(-2000.0, -2000.0);
03:36:03:135;03:36:03:103;1448462157.9;(0.38280882835388186, 0.31299349466959636);61.8112945557;1.0;;;;;;;;;;;;;;0;0;0;0;0;20;4;0;0;();(-2000.0, -2000.0);
03:36:03:151;03:36:03:148;1448462157.97;(0.383460545539856, 0.31261007520887585);61.8254127502;1.0;;;;;;;;;;;;;;0;0;0;0;0;20;4;0;0;();(-2000.0, -2000.0);
03:36:03:202;03:36:03:187;1448462158.0;(0.38396639823913575, 0.3123602973090278);62.231212616;1.0;;;;;;;;;;;;;;0;0;0;0;0;20;4;0;0;();(-2000.0, -2000.0);
03:36:03:205;03:36:03:187;1448462158.0;(0.38396639823913575, 0.3123602973090278);62.231212616;1.0;;;;;;;;;;;;;;0;0;0;0;0;20;4;0;0;();(-2000.0, -2000.0);
03:36:03:219;03:36:03:187;1448462158.0;(0.38396639823913575, 0.3123602973090278);62.231212616;1.0;;;;;;;;;;;;;;0;0;0;0;0;20;4;0;0;();(-2000.0, -2000.0);
03:36:03:235;03:36:03:231;1448462158.03;(0.38439021110534666, 0.3124846988254123);62.0796890259;1.0;;;;;;;;;;;;;;0;0;0;0;0;20;4;0;0;();(-2000.0, -2000.0);
03:36:03:252;03:36:03:231;1448462158.03;(0.38439021110534666, 0.3124846988254123);62.0796890259;1.0;;;;;;;;;;;;;;0;0;0;0;0;20;4;0;0;();(-2000.0, -2000.0);
03:36:03:286;03:36:03:272;1448462158.07;(0.38441162109375, 0.3120313008626302);62.4006080627;1.0;;;;;;;;;;;;;;0;0;0;0;0;20;4;0;0;();(-2000.0, -2000.0);
03:36:03:302;03:36:03:272;1448462158.07;(0.38441162109375, 0.3120313008626302);62.4006080627;1.0;;;;;;;;;;;;;;0;0;0;0;0;20;4;0;0;();(-2000.0, -2000.0);
03:36:03:319;03:36:03:313;1448462158.13;(0.38418333530426024, 0.3114250183105469);62.8005256653;1.0;;;;;;;;;;;;;;0;0;0;0;0;20;4;0;0;();(-2000.0, -2000.0);
03:36:03:336;03:36:03:313;1448462158.13;(0.38418333530426024, 0.3114250183105469);62.8005256653;1.0;;;;;;;;;;;;;;0;0;0;0;0;20;4;0;0;();(-2000.0, -2000.0);
03:36:03:354;03:36:03:313;1448462158.13;(0.38418333530426024, 0.3114250183105469);62.8005256653;1.0;;;;;;;;;;;;;;0;0;0;0;0;20;4;0;0;();(-2000.0, -2000.0);
03:36:03:386;03:36:03:355;1448462158.17;(0.3842213869094849, 0.3112620883517795);62.4262084961;1.0;;;;;;;;;;;;;;0;0;0;0;0;20;4;0;0;();(-2000.0, -2000.0);
03:36:03:404;03:36:03:396;1448462158.2;(0.38423924446105956, 0.3030482398139106);62.5574455261;1.0;;;;;;;;;;;;;;0;0;0;0;0;20;4;0;0;();(-2000.0, -2000.0);
03:36:03:420;03:36:03:396;1448462158.2;(0.38423924446105956, 0.3030482398139106);62.5574455261;1.0;;;;;;;;;;;;;;0;0;0;0;0;20;4;0;0;();(-2000.0, -2000.0);
03:36:03:436;03:36:03:396;1448462158.2;(0.38423924446105956, 0.3030482398139106);62.5574455261;1.0;;;;;;;;;;;;;;0;0;0;0;0;20;4;0;0;();(-2000.0, -2000.0);
03:36:03:453;03:36:03:435;1448462158.23;(0.3836569547653198, 0.28539462619357636);62.8072814941;1.0;;;;;;;;;;;;;;0;0;0;0;0;20;4;0;0;();(-2000.0, -2000.0);
03:36:03:471;03:36:03:435;1448462158.23;(0.3836569547653198, 0.28539462619357636);62.8072814941;1.0;;;;;;;;;;;;;;0;0;0;0;0;20;4;0;0;();(-2000.0, -2000.0);
03:36:03:504;03:36:03:482;1448462158.3;(0.382971453666687, 0.2854923248291016);63.0339355469;1.0;;;;;;;;;;;;;;0;0;0;0;0;20;4;0;0;();(-2000.0, -2000.0);
03:36:03:521;03:36:03:519;1448462158.33;(0.38292152881622316, 0.2859021080864801);63.2530059814;1.0;;;;;;;;;;;;;;0;0;0;0;0;20;4;0;0;();(-2000.0, -2000.0);
03:36:03:554;03:36:03:519;1448462158.33;(0.38292152881622316, 0.2859021080864801);63.2530059814;1.0;;;;;;;;;;;;;;0;0;0;0;0;20;4;0;0;();(-2000.0, -2000.0);
03:36:03:559;03:36:03:519;1448462158.33;(0.38292152881622316, 0.2859021080864801);63.2530059814;1.0;;;;;;;;;;;;;;0;0;0;0;0;20;4;0;0;();(-2000.0, -2000.0);
03:36:03:571;03:36:03:563;1448462158.37;(0.3826403856277466, 0.2855904897054037);63.0739936829;1.0;;;;;;;;;;;;;;0;0;0;0;0;20;4;0;0;();(-2000.0, -2000.0);
03:36:03:604;03:36:03:603;1448462158.4;(0.3828986406326294, 0.2859804365370009);63.0498657227;1.0;;;;;;;;;;;;;;0;0;0;0;0;20;4;0;0;();(-2000.0, -2000.0);
03:36:03:621;03:36:03:603;1448462158.4;(0.3828986406326294, 0.2859804365370009);63.0498657227;1.0;;;;;;;;;;;;;;0;0;0;0;0;20;4;0;0;();(-2000.0, -2000.0);
03:36:03:639;03:36:03:603;1448462158.4;(0.3828986406326294, 0.2859804365370009);63.0498657227;1.0;;;;;;;;;;;;;;0;0;0;0;0;20;4;0;0;();(-2000.0, -2000.0);
03:36:03:654;03:36:03:643;1448462158.43;(0.3827714443206787, 0.2861893124050564);63.0079498291;1.0;;;;;;;;;;;;;;0;0;0;0;0;20;4;0;0;();(-2000.0, -2000.0);
03:36:03:671;03:36:03:643;1448462158.43;(0.3827714443206787, 0.2861893124050564);63.0079498291;1.0;;;;;;;;;;;;;;0;0;0;0;0;20;4;0;0;();(-2000.0, -2000.0);
03:36:03:705;03:36:03:691;1448462158.5;(0.38300223350524903, 0.2863730960422092);62.954914093;1.0;;;;;;;;;;;;;;0;0;0;0;0;20;4;0;0;();(-2000.0, -2000.0);
03:36:03:722;03:36:03:691;1448462158.5;(0.38300223350524903, 0.2863730960422092);62.954914093;1.0;;;;;;;;;;;;;;0;0;0;0;0;20;4;0;0;();(-2000.0, -2000.0);
03:36:03:738;03:36:03:727;1448462158.53;(0.3832943677902222, 0.2862071990966797);63.0090103149;1.0;;;;;;;;;;;;;;0;0;0;0;0;20;4;0;0;();(-2000.0, -2000.0);
03:36:03:755;03:36:03:727;1448462158.53;(0.3832943677902222, 0.2862071990966797);63.0090103149;1.0;;;;;;;;;;;;;;0;0;0;0;0;20;4;0;0;();(-2000.0, -2000.0);
03:36:03:772;03:36:03:767;1448462158.57;(0.3835768699645996, 0.28611666361490884);63.2349777222;1.0;;;;;;;;;;;;;;0;0;0;0;0;20;4;0;0;();(-2000.0, -2000.0);
03:36:03:806;03:36:03:767;1448462158.57;(0.3835768699645996, 0.28611666361490884);63.2349777222;1.0;;;;;;;;;;;;;;0;0;0;0;0;20;4;0;0;();(-2000.0, -2000.0);
03:36:03:822;03:36:03:812;1448462158.6;(0.38380727767944334, 0.28628022935655384);62.885974884;1.0;;;;;;;;;;;;;;0;0;0;0;0;20;4;0;0;();(-2000.0, -2000.0);
03:36:03:839;03:36:03:812;1448462158.6;(0.38380727767944334, 0.28628022935655384);62.885974884;1.0;;;;;;;;;;;;;;0;0;0;0;0;20;4;0;0;();(-2000.0, -2000.0);
03:36:03:856;03:36:03:851;1448462158.63;(0.3744772672653198, 0.28040127224392364);65.9677963257;0.893045239526;;;;;;;;;;;;;;0;0;0;0;0;20;4;0;0;();(-2000.0, -2000.0);
03:36:03:872;03:36:03:851;1448462158.63;(0.3744772672653198, 0.28040127224392364);65.9677963257;0.893045239526;;;;;;;;;;;;;;0;0;0;0;0;20;4;0;0;();(-2000.0, -2000.0);
03:36:03:906;03:36:03:891;1448462158.67;(0.36153721809387207, 0.2725637647840712);64.5587844849;1.0;;;;;;;;;;;;;;0;0;0;0;0;20;4;0;0;();(-2000.0, -2000.0);
03:36:03:923;03:36:03:891;1448462158.67;(0.36153721809387207, 0.2725637647840712);64.5587844849;1.0;;;;;;;;;;;;;;0;0;0;0;0;20;4;0;0;();(-2000.0, -2000.0);
03:36:03:940;03:36:03:936;1448462158.73;(0.36126320362091063, 0.27252710130479596);64.6067962646;1.0;;;;;;;;;;;;;;0;0;0;0;0;20;4;0;0;();(-2000.0, -2000.0);
03:36:03:956;03:36:03:936;1448462158.73;(0.36126320362091063, 0.27252710130479596);64.6067962646;1.0;;;;;;;;;;;;;;0;0;0;0;0;20;4;0;0;();(-2000.0, -2000.0);
03:36:03:973;03:36:03:936;1448462158.73;(0.36126320362091063, 0.27252710130479596);64.6067962646;1.0;;;;;;;;;;;;;;0;0;0;0;0;20;4;0;0;();(-2000.0, -2000.0);
03:36:03:990;03:36:03:975;1448462158.77;(0.36156749725341797, 0.2729494730631511);64.8023071289;1.0;;;;;;;;;;;;;;0;0;0;0;0;20;4;0;0;();(-2000.0, -2000.0);
03:36:04:024;03:36:04:017;1448462158.83;(0.3622633218765259, 0.2738951365152995);64.9236831665;1.0;;;;;;;;;;;;;;0;0;0;0;0;20;4;0;0;();(-2000.0, -2000.0);
03:36:04:041;03:36:04:017;1448462158.83;(0.3622633218765259, 0.2738951365152995);64.9236831665;1.0;;;;;;;;;;;;;;0;0;0;0;0;20;4;0;0;();(-2000.0, -2000.0);
03:36:04:074;03:36:04:060;1448462158.87;(0.36299350261688235, 0.274398930867513);64.99584198;1.0;;;;;;;;;;;;;;0;0;0;0;0;20;4;0;0;();(-2000.0, -2000.0);
03:36:04:077;03:36:04:060;1448462158.87;(0.36299350261688235, 0.274398930867513);64.99584198;1.0;;;;;;;;;;;;;;0;0;0;0;0;20;4;0;0;();(-2000.0, -2000.0);
03:36:04:091;03:36:04:060;1448462158.87;(0.36299350261688235, 0.274398930867513);64.99584198;1.0;;;;;;;;;;;;;;0;0;0;0;0;20;4;0;0;();(-2000.0, -2000.0);
03:36:04:124;03:36:04:099;1448462158.9;(0.36334211826324464, 0.2745687696668837);64.8800735474;1.0;;;;;;;;;;;;;;0;0;0;0;0;20;4;0;0;();(-2000.0, -2000.0);
03:36:04:141;03:36:04:099;1448462158.9;(0.36334211826324464, 0.2745687696668837);64.8800735474;1.0;;;;;;;;;;;;;;0;0;0;0;0;20;4;0;0;();(-2000.0, -2000.0);
03:36:04:157;03:36:04:144;1448462158.93;(0.36372559070587157, 0.2749067518446181);64.9009170532;1.0;;;;;;;;;;;;;;0;0;0;0;0;20;4;0;0;();(-2000.0, -2000.0);
03:36:04:200;03:36:04:144;1448462158.93;(0.36372559070587157, 0.2749067518446181);64.9009170532;1.0;;;;;;;;;;;;;;0;0;0;0;0;20;4;0;0;();(-2000.0, -2000.0);
03:36:04:204;03:36:04:184;1448462158.97;(0.36417360305786134, 0.2754581875271267);64.8201675415;1.0;;;;;;;;;;;;;;0;0;0;0;0;20;4;0;0;();(-2000.0, -2000.0);
03:36:04:225;03:36:04:223;1448462159.0;(0.3642114162445068, 0.27560734219021266);65.1281890869;1.0;;;;;;;;;;;;;;0;0;0;0;0;20;4;0;0;();(-2000.0, -2000.0);
03:36:04:241;03:36:04:225;1448462159.03;(0.36421918869018555, 0.27604772779676645);65.1052322388;1.0;;;;;;;;;;;;;;0;0;0;0;0;20;4;0;0;();(-2000.0, -2000.0);
03:36:04:258;03:36:04:225;1448462159.03;(0.36421918869018555, 0.27604772779676645);65.1052322388;1.0;;;;;;;;;;;;;;0;0;0;0;0;20;4;0;0;();(-2000.0, -2000.0);
03:36:04:274;03:36:04:267;1448462159.07;(0.3640419960021973, 0.27624185350206165);65.3358154297;1.0;;;;;;;;;;;;;;0;0;0;0;0;20;4;0;0;();(-2000.0, -2000.0);
03:36:04:292;03:36:04:267;1448462159.07;(0.3640419960021973, 0.27624185350206165);65.3358154297;1.0;;;;;;;;;;;;;;0;0;0;0;0;20;4;0;0;();(-2000.0, -2000.0);
03:36:04:325;03:36:04:307;1448462159.1;(0.3659271478652954, 0.27271058824327254);64.2857589722;1.0;;;;;;;;;;;;;;0;0;0;0;0;20;4;0;0;();(-2000.0, -2000.0);
03:36:04:342;03:36:04:307;1448462159.1;(0.3659271478652954, 0.27271058824327254);64.2857589722;1.0;;;;;;;;;;;;;;0;0;0;0;0;20;4;0;0;();(-2000.0, -2000.0);
03:36:04:359;03:36:04:351;1448462159.13;(0, 0);0;0;;;;;;;;;;;;;;0;0;0;0;0;20;4;0;0;();(-2000.0, -2000.0);
03:36:04:375;03:36:04:351;1448462159.13;(0, 0);0;0;;;;;;;;;;;;;;0;0;0;0;0;20;4;0;0;();(-2000.0, -2000.0);
03:36:04:393;03:36:04:392;1448462159.2;(0, 0);0;0;;;;;;;;;;;;;;0;0;0;0;0;20;4;0;0;();(-2000.0, -2000.0);
03:36:04:426;03:36:04:392;1448462159.2;(0, 0);0;0;;;;;;;;;;;;;;0;0;0;0;0;20;4;0;0;();(-2000.0, -2000.0);
03:36:04:443;03:36:04:431;1448462159.23;(0, 0);0;0;;;;;;;;;;;;;;0;0;0;0;0;20;4;0;0;();(-2000.0, -2000.0);
03:36:04:459;03:36:04:431;1448462159.23;(0, 0);0;0;;;;;;;;;;;;;;0;0;0;0;0;20;4;0;0;();(-2000.0, -2000.0);
03:36:04:476;03:36:04:431;1448462159.23;(0, 0);0;0;;;;;;;;;;;;;;0;0;0;0;0;20;4;0;0;();(-2000.0, -2000.0);
03:36:04:493;03:36:04:476;1448462159.27;(0.5559928894042969, 0.33364351060655384);21.2103862762;0.680242909037;;;;;;;;;;;;;;0;0;0;0;0;20;4;0;0;();(-2000.0, -2000.0);
03:36:04:510;03:36:04:476;1448462159.27;(0.5559928894042969, 0.33364351060655384);21.2103862762;0.680242909037;;;;;;;;;;;;;;0;0;0;0;0;20;4;0;0;();(-2000.0, -2000.0);
03:36:04:543;03:36:04:515;1448462159.3;(0.36788005828857423, 0.2792384677463108);65.3294067383;1.0;;;;;;;;;;;;;;0;0;0;0;0;20;4;0;0;();(-2000.0, -2000.0);
03:36:04:560;03:36:04:557;1448462159.37;(0.3682438373565674, 0.2797848595513238);65.0858306885;1.0;;;;;;;;;;;;;;0;0;0;0;0;20;4;0;0;();(-2000.0, -2000.0);
03:36:04:577;03:36:04:557;1448462159.37;(0.3682438373565674, 0.2797848595513238);65.0858306885;1.0;;;;;;;;;;;;;;0;0;0;0;0;20;4;0;0;();(-2000.0, -2000.0);
03:36:04:594;03:36:04:557;1448462159.37;(0.3682438373565674, 0.2797848595513238);65.0858306885;1.0;;;;;;;;;;;;;;0;0;0;0;0;20;4;0;0;();(-2000.0, -2000.0);
03:36:04:627;03:36:04:599;1448462159.4;(0.36859884262084963, 0.2796107821994358);65.2604675293;1.0;;;;;;;;;;;;;;0;0;0;0;0;20;4;0;0;();(-2000.0, -2000.0);
03:36:04:644;03:36:04:639;1448462159.43;(0.3689704418182373, 0.2796243031819662);65.2368850708;1.0;;;;;;;;;;;;;;0;0;0;0;0;20;4;0;0;();(-2000.0, -2000.0);
03:36:04:661;03:36:04:639;1448462159.43;(0.3689704418182373, 0.2796243031819662);65.2368850708;1.0;;;;;;;;;;;;;;0;0;0;0;0;20;4;0;0;();(-2000.0, -2000.0);
03:36:04:677;03:36:04:639;1448462159.43;(0.3689704418182373, 0.2796243031819662);65.2368850708;1.0;;;;;;;;;;;;;;0;0;0;0;0;20;4;0;0;();(-2000.0, -2000.0);
03:36:04:694;03:36:04:687;1448462159.5;(0.3696942090988159, 0.27980622185601134);65.2318954468;1.0;;;;;;;;;;;;;;0;0;0;0;0;20;4;0;0;();(-2000.0, -2000.0);
03:36:04:714;03:36:04:687;1448462159.5;(0.3696942090988159, 0.27980622185601134);65.2318954468;1.0;;;;;;;;;;;;;;0;83,73;0;0;0;20;4;0;0;();(-2000.0, -2000.0);
03:36:04:744;03:36:04:723;1448462159.53;(0.3696680307388306, 0.27950045267740886);65.3232574463;1.0;;;;;;;;;;;;;;0;83,73;0;0;0;20;4;0;0;();(-2000.0, -2000.0);
03:36:04:762;03:36:04:723;1448462159.53;(0.3696680307388306, 0.27950045267740886);65.3232574463;1.0;;;;;;;;;;;;;;0;73;0;0;0;25;5;0;0;();(-2000.0, -2000.0);
03:36:04:779;03:36:04:763;1448462159.57;(0.37598838806152346, 0.2875873141818577);64.7640533447;1.0;;;;;;;;;;;;;;0;73;0;0;0;25;5;0;0;();(-2000.0, -2000.0);
03:36:04:796;03:36:04:763;1448462159.57;(0.37598838806152346, 0.2875873141818577);64.7640533447;1.0;;;;;;;;;;;;;;0;73;0;0;0;25;5;0;0;();(-2000.0, -2000.0);
03:36:04:813;03:36:04:807;1448462159.6;(0.3829800128936768, 0.29712270100911453);64.2124710083;1.0;;;;;;;;;;;;;;0;73;0;0;0;25;5;0;0;();(-2000.0, -2000.0);
03:36:04:846;03:36:04:807;1448462159.6;(0.3829800128936768, 0.29712270100911453);64.2124710083;1.0;;;;;;;;;;;;;;0;73;0;0;0;25;5;0;0;();(-2000.0, -2000.0);
03:36:04:863;03:36:04:850;1448462159.67;(0.38229272365570066, 0.29735395643446183);64.7832489014;1.0;;;;;;;;;;;;;;0;73;0;0;0;25;5;0;0;();(-2000.0, -2000.0);
03:36:04:880;03:36:04:850;1448462159.67;(0.38229272365570066, 0.29735395643446183);64.7832489014;1.0;;;;;;;;;;;;;;0;73;0;0;0;25;5;0;0;();(-2000.0, -2000.0);
03:36:04:895;03:36:04:887;1448462159.7;(0.3814005613327026, 0.2973376803927952);65.0078125;1.0;;;;;;;;;;;;;;0;73;0;0;0;25;5;0;0;();(-2000.0, -2000.0);
03:36:04:913;03:36:04:887;1448462159.7;(0.3814005613327026, 0.2973376803927952);65.0078125;1.0;;;;;;;;;;;;;;0;73;0;0;0;25;5;0;0;();(-2000.0, -2000.0);
03:36:04:947;03:36:04:931;1448462159.73;(0.3809752702713013, 0.2971675025092231);65.2900009155;1.0;;;;;;;;;;;;;;0;73;0;0;0;25;5;0;0;();(-2000.0, -2000.0);
03:36:04:962;03:36:04:931;1448462159.73;(0.3809752702713013, 0.2971675025092231);65.2900009155;1.0;;;;;;;;;;;;;;0;73;0;0;0;25;5;0;0;();(-2000.0, -2000.0);
03:36:04:980;03:36:04:971;1448462159.77;(0.380516505241394, 0.2971887376573351);65.2893371582;1.0;;;;;;;;;;;;;;0;73;0;0;0;25;5;0;0;();(-2000.0, -2000.0);
03:36:04:997;03:36:04:971;1448462159.77;(0.380516505241394, 0.2971887376573351);65.2893371582;1.0;;;;;;;;;;;;;;0;73;0;0;0;25;5;0;0;();(-2000.0, -2000.0);
03:36:05:014;03:36:05:011;1448462159.8;(0.38038370609283445, 0.2978251563178168);65.3055648804;1.0;;;;;;;;;;;;;;0;73;0;0;0;25;5;0;0;();(-2000.0, -2000.0);
03:36:05:031;03:36:05:011;1448462159.8;(0.38038370609283445, 0.2978251563178168);65.3055648804;1.0;;;;;;;;;;;;;;0;73;0;0;0;25;5;0;0;();(-2000.0, -2000.0);
03:36:05:064;03:36:05:055;1448462159.83;(0.3821485757827759, 0.3334130181206597);64.5542526245;0.835587162951;;;;;;;;;;;;;;0;73;0;0;0;25;5;0;0;();(-2000.0, -2000.0);
03:36:05:083;03:36:05:055;1448462159.83;(0.3821485757827759, 0.3334130181206597);64.5542526245;0.835587162951;;;;;;;;;;;;;;0;73;0;0;0;25;5;0;0;();(-2000.0, -2000.0);
03:36:05:098;03:36:05:095;1448462159.87;(0.38577895164489745, 0.338413323296441);64.0271835327;1.0;;;;;;;;;;;;;;0;73;0;0;0;25;5;0;0;();(-2000.0, -2000.0);
03:36:05:115;03:36:05:095;1448462159.87;(0.38577895164489745, 0.338413323296441);64.0271835327;1.0;;;;;;;;;;;;;;0;73;0;0;0;25;5;0;0;();(-2000.0, -2000.0);
03:36:05:132;03:36:05:095;1448462159.87;(0.38577895164489745, 0.338413323296441);64.0271835327;1.0;;;;;;;;;;;;;;0;73;0;0;0;25;5;0;0;();(-2000.0, -2000.0);
03:36:05:165;03:36:05:141;1448462159.93;(0.3863524436950684, 0.3393296983506945);64.8570632935;1.0;;;;;;;;;;;;;;0;73;0;0;0;25;5;0;0;();(-2000.0, -2000.0);
03:36:05:180;03:36:05:179;1448462159.97;(0.38630104064941406, 0.3399311065673828);64.5769577026;1.0;;;;;;;;;;;;;;0;73;0;0;0;25;5;0;0;();(-2000.0, -2000.0);
03:36:05:198;03:36:05:179;1448462159.97;(0.38630104064941406, 0.3399311065673828);64.5769577026;1.0;;;;;;;;;;;;;;0;73;0;0;0;25;5;0;0;();(-2000.0, -2000.0);
03:36:05:215;03:36:05:179;1448462159.97;(0.38630104064941406, 0.3399311065673828);64.5769577026;1.0;;;;;;;;;;;;;;0;73;0;0;0;25;5;0;0;();(-2000.0, -2000.0);
03:36:05:232;03:36:05:221;1448462160.03;(0.3862182378768921, 0.3399854024251302);64.4027328491;1.0;;;;;;;;;;;;;;0;73;0;0;0;25;5;0;0;();(-2000.0, -2000.0);
03:36:05:265;03:36:05:263;1448462160.07;(0.3862741470336914, 0.3403084648980035);64.0848007202;1.0;;;;;;;;;;;;;;0;73;0;0;0;25;5;0;0;();(-2000.0, -2000.0);
03:36:05:282;03:36:05:263;1448462160.07;(0.3862741470336914, 0.3403084648980035);64.0848007202;1.0;;;;;;;;;;;;;;0;73;0;0;0;25;5;0;0;();(-2000.0, -2000.0);
03:36:05:299;03:36:05:263;1448462160.07;(0.3862741470336914, 0.3403084648980035);64.0848007202;1.0;;;;;;;;;;;;;;0;73;0;0;0;25;5;0;0;();(-2000.0, -2000.0);
03:36:05:314;03:36:05:303;1448462160.1;(0.38605968952178954, 0.34031736585829);63.8749656677;1.0;;;;;;;;;;;;;;0;73;0;0;0;25;5;0;0;();(-2000.0, -2000.0);
03:36:05:331;03:36:05:303;1448462160.1;(0.38605968952178954, 0.34031736585829);63.8749656677;1.0;;;;;;;;;;;;;;0;73;0;0;0;25;5;0;0;();(-2000.0, -2000.0);
03:36:05:366;03:36:05:343;1448462160.13;(0.3858680725097656, 0.34056417677137585);63.3362884521;1.0;;;;;;;;;;;;;;0;73;0;0;0;25;5;0;0;();(-2000.0, -2000.0);
03:36:05:383;03:36:05:343;1448462160.13;(0.3858680725097656, 0.34056417677137585);63.3362884521;1.0;;;;;;;;;;;;;;0;73;0;0;0;25;5;0;0;();(-2000.0, -2000.0);
03:36:05:398;03:36:05:387;1448462160.17;(0.38967251777648926, 0.33906864590115016);63.5253791809;1.0;;;;;;;;;;;;;;0;73;0;0;0;25;5;0;0;();(-2000.0, -2000.0);
03:36:05:416;03:36:05:387;1448462160.17;(0.38967251777648926, 0.33906864590115016);63.5253791809;1.0;;;;;;;;;;;;;;0;73;0;0;0;25;5;0;0;();(-2000.0, -2000.0);
03:36:05:433;03:36:05:428;1448462160.23;(0.38929381370544436, 0.339254887898763);63.1911659241;1.0;;;;;;;;;;;;;;0;73;0;0;0;25;5;0;0;();(-2000.0, -2000.0);
03:36:05:465;03:36:05:428;1448462160.23;(0.38929381370544436, 0.339254887898763);63.1911659241;1.0;;;;;;;;;;;;;;0;73;0;0;0;25;5;0;0;();(-2000.0, -2000.0);
03:36:05:483;03:36:05:472;1448462160.27;(0.3890566349029541, 0.33910412258572054);63.0616760254;1.0;;;;;;;;;;;;;;0;73;0;0;0;25;5;0;0;();(-2000.0, -2000.0);
03:36:05:500;03:36:05:472;1448462160.27;(0.3890566349029541, 0.33910412258572054);63.0616760254;1.0;;;;;;;;;;;;;;0;73;0;0;0;25;5;0;0;();(-2000.0, -2000.0);
03:36:05:517;03:36:05:512;1448462160.33;(0.38903934955596925, 0.3388388315836589);62.7879104614;1.0;;;;;;;;;;;;;;0;73;0;0;0;25;5;0;0;();(-2000.0, -2000.0);
03:36:05:534;03:36:05:512;1448462160.33;(0.38903934955596925, 0.3388388315836589);62.7879104614;1.0;;;;;;;;;;;;;;0;73;0;0;0;25;5;0;0;();(-2000.0, -2000.0);
03:36:05:567;03:36:05:512;1448462160.33;(0.38903934955596925, 0.3388388315836589);62.7879104614;1.0;;;;;;;;;;;;;;0;73;0;0;0;25;5;0;0;();(-2000.0, -2000.0);
03:36:05:584;03:36:05:512;1448462160.33;(0.38903934955596925, 0.3388388315836589);62.7879104614;1.0;;;;;;;;;;;;;;0;73;0;0;0;25;5;0;0;();(-2000.0, -2000.0);
03:36:05:601;03:36:05:593;1448462160.4;(0.3885267019271851, 0.3386385175916884);62.9188728333;1.0;;;;;;;;;;;;;;0;73;0;0;0;25;5;0;0;();(-2000.0, -2000.0);
03:36:05:616;03:36:05:593;1448462160.4;(0.3885267019271851, 0.3386385175916884);62.9188728333;1.0;;;;;;;;;;;;;;0;73;0;0;0;25;5;0;0;();(-2000.0, -2000.0);
03:36:05:634;03:36:05:593;1448462160.4;(0.3885267019271851, 0.3386385175916884);62.9188728333;1.0;;;;;;;;;;;;;;0;73;0;0;0;25;5;0;0;();(-2000.0, -2000.0);
03:36:05:651;03:36:05:635;1448462160.43;(0.38220169544219973, 0.3300518883599175);62.3407363892;1.0;;;;;;;;;;;;;;0;73;0;0;0;25;5;0;0;();(-2000.0, -2000.0);
03:36:05:685;03:36:05:675;1448462160.47;(0.25268943309783937, 0.21702948676215272);19.2851982117;0.641610229809;;;;;;;;;;;;;;0;73;0;0;0;25;5;0;0;();(-2000.0, -2000.0);
03:36:05:701;03:36:05:675;1448462160.47;(0.25268943309783937, 0.21702948676215272);19.2851982117;0.641610229809;;;;;;;;;;;;;;0;73;0;0;0;25;5;0;0;();(-2000.0, -2000.0);
03:36:05:719;03:36:05:675;1448462160.47;(0.25268943309783937, 0.21702948676215272);19.2851982117;0.641610229809;;;;;;;;;;;;;;0;73;0;0;0;25;5;0;0;();(-2000.0, -2000.0);
03:36:05:736;03:36:05:719;1448462160.5;(0.28913614749908445, 0.8738859388563368);19.6895103455;0.686338471391;;;;;;;;;;;;;;0;73;0;0;0;25;5;0;0;();(-2000.0, -2000.0);
03:36:05:752;03:36:05:719;1448462160.5;(0.28913614749908445, 0.8738859388563368);19.6895103455;0.686338471391;;;;;;;;;;;;;;0;73;0;0;0;25;5;0;0;();(-2000.0, -2000.0);
03:36:05:786;03:36:05:759;1448462160.53;(0.31709377765655516, 0.24797337849934897);18.941362381;0.71414190248;;;;;;;;;;;;;;0;73;0;0;0;25;5;0;0;();(-2000.0, -2000.0);
03:36:05:802;03:36:05:759;1448462160.53;(0.31709377765655516, 0.24797337849934897);18.941362381;0.71414190248;;;;;;;;;;;;;;0;73;0;0;0;25;5;0;0;();(-2000.0, -2000.0);
03:36:05:819;03:36:05:759;1448462160.53;(0.31709377765655516, 0.24797337849934897);18.941362381;0.71414190248;;;;;;;;;;;;;;0;73;0;0;0;25;5;0;0;();(-2000.0, -2000.0);
03:36:05:834;03:36:05:759;1448462160.53;(0.31709377765655516, 0.24797337849934897);18.941362381;0.71414190248;;;;;;;;;;;;;;0;73;0;0;0;25;5;0;0;();(-2000.0, -2000.0);
03:36:05:852;03:36:05:759;1448462160.53;(0.31709377765655516, 0.24797337849934897);18.941362381;0.71414190248;;;;;;;;;;;;;;0;73;0;0;0;25;5;0;0;();(-2000.0, -2000.0);
03:36:05:886;03:36:05:883;1448462160.57;(0.3780315399169922, 0.21281594170464413);63.719329834;0.671856677124;;;;;;;;;;;;;;0;73;0;0;0;25;5;0;0;();(-2000.0, -2000.0);
03:36:05:901;03:36:05:883;1448462160.57;(0.3780315399169922, 0.21281594170464413);63.719329834;0.671856677124;;;;;;;;;;;;;;0;73;0;0;0;25;5;0;0;();(-2000.0, -2000.0);
03:36:05:919;03:36:05:883;1448462160.57;(0.3780315399169922, 0.21281594170464413);63.719329834;0.671856677124;;;;;;;;;;;;;;0;73;0;0;0;25;5;0;0;();(-2000.0, -2000.0);
03:36:05:936;03:36:05:883;1448462160.57;(0.3780315399169922, 0.21281594170464413);63.719329834;0.671856677124;;;;;;;;;;;;;;0;73;0;0;0;25;5;0;0;();(-2000.0, -2000.0);
03:36:05:953;03:36:05:883;1448462160.57;(0.3780315399169922, 0.21281594170464413);63.719329834;0.671856677124;;;;;;;;;;;;;;0;73;0;0;0;25;5;0;0;();(-2000.0, -2000.0);
03:36:05:986;03:36:05:967;1448462160.68;(0.3877852916717529, 0.2009975857204861);66.4254455566;0.646180964622;;;;;;;;;;;;;;0;73;0;0;0;25;5;0;0;();(-2000.0, -2000.0);
03:36:06:004;03:36:05:967;1448462160.68;(0.3877852916717529, 0.2009975857204861);66.4254455566;0.646180964622;;;;;;;;;;;;;;0;73;0;0;0;25;5;0;0;();(-2000.0, -2000.0);
03:36:06:037;03:36:05:967;1448462160.68;(0.3877852916717529, 0.2009975857204861);66.4254455566;0.646180964622;;;;;;;;;;;;;;0;73;0;0;0;25;5;0;0;();(-2000.0, -2000.0);
03:36:06:040;03:36:05:967;1448462160.68;(0.3877852916717529, 0.2009975857204861);66.4254455566;0.646180964622;;;;;;;;;;;;;;0;73;0;0;0;25;5;0;0;();(-2000.0, -2000.0);
03:36:06:054;03:36:06:053;1448462160.87;(0.41312313079833984, 0.36396259731716585);22.1633396149;0.847499913914;;;;;;;;;;;;;;0;73;0;0;0;25;5;0;0;();(-2000.0, -2000.0);
03:36:06:087;03:36:06:053;1448462160.87;(0.41312313079833984, 0.36396259731716585);22.1633396149;0.847499913914;;;;;;;;;;;;;;0;73;0;0;0;25;5;0;0;();(-2000.0, -2000.0);
03:36:06:104;03:36:06:093;1448462160.9;(0.41279311180114747, 0.36418465508355036);22.6157226562;0.820421278776;;;;;;;;;;;;;;0;73;0;0;0;25;5;0;0;();(-2000.0, -2000.0);
03:36:06:121;03:36:06:093;1448462160.9;(0.41279311180114747, 0.36418465508355036);22.6157226562;0.820421278776;;;;;;;;;;;;;;0;73;0;0;0;25;5;0;0;();(-2000.0, -2000.0);
03:36:06:137;03:36:06:131;1448462160.93;(0.37807459831237794, 0.19165522257486978);67.6285552979;0.903228048613;;;;;;;;;;;;;;0;73;0;0;0;25;5;0;0;();(-2000.0, -2000.0);
03:36:06:155;03:36:06:131;1448462160.93;(0.37807459831237794, 0.19165522257486978);67.6285552979;0.903228048613;;;;;;;;;;;;;;0;73;0;0;0;25;5;0;0;();(-2000.0, -2000.0);
03:36:06:171;03:36:06:131;1448462160.93;(0.37807459831237794, 0.19165522257486978);67.6285552979;0.903228048613;;;;;;;;;;;;;;0;73;0;0;0;25;5;0;0;();(-2000.0, -2000.0);
03:36:06:205;03:36:06:175;1448462160.97;(0.37753207683563234, 0.19155061509874127);67.2880172729;0.962456117375;;;;;;;;;;;;;;0;73;0;0;0;25;5;0;0;();(-2000.0, -2000.0);
03:36:06:238;03:36:06:215;1448462161.0;(0.37760100364685056, 0.19234017266167536);67.3826675415;0.980988632061;;;;;;;;;;;;;;0;73;0;0;0;25;5;0;0;();(-2000.0, -2000.0);
03:36:06:242;03:36:06:215;1448462161.0;(0.37760100364685056, 0.19234017266167536);67.3826675415;0.980988632061;;;;;;;;;;;;;;0;73;0;0;0;25;5;0;0;();(-2000.0, -2000.0);
03:36:06:253;03:36:06:215;1448462161.0;(0.37760100364685056, 0.19234017266167536);67.3826675415;0.980988632061;;;;;;;;;;;;;;0;73;0;0;0;25;5;0;0;();(-2000.0, -2000.0);
03:36:06:283;03:36:06:215;1448462161.0;(0.37760100364685056, 0.19234017266167536);67.3826675415;0.980988632061;;;;;;;;;;;;;;0;73;0;0;0;25;5;0;0;();(-2000.0, -2000.0);
03:36:06:299;03:36:06:215;1448462161.0;(0.37760100364685056, 0.19234017266167536);67.3826675415;0.980988632061;;;;;;;;;;;;;;0;73;0;0;0;25;5;0;0;();(-2000.0, -2000.0);
03:36:06:314;03:36:06:215;1448462161.0;(0.37760100364685056, 0.19234017266167536);67.3826675415;0.980988632061;;;;;;;;;;;;;;0;73;0;0;0;25;5;0;0;();(-2000.0, -2000.0);
03:36:06:345;03:36:06:339;1448462161.03;(0.37787024974822997, 0.19591445922851558);67.4213409424;0.9481312866;;;;;;;;;;;;;;0;73;0;0;0;25;5;0;0;();(-2000.0, -2000.0);
03:36:06:361;03:36:06:339;1448462161.03;(0.37787024974822997, 0.19591445922851558);67.4213409424;0.9481312866;;;;;;;;;;;;;;0;73;0;0;0;25;5;0;0;();(-2000.0, -2000.0);
03:36:06:376;03:36:06:339;1448462161.03;(0.37787024974822997, 0.19591445922851558);67.4213409424;0.9481312866;;;;;;;;;;;;;;0;73;0;0;0;25;5;0;0;();(-2000.0, -2000.0);
03:36:06:390;03:36:06:339;1448462161.03;(0.37787024974822997, 0.19591445922851558);67.4213409424;0.9481312866;;;;;;;;;;;;;;0;73;0;0;0;25;5;0;0;();(-2000.0, -2000.0);
03:36:06:423;03:36:06:339;1448462161.03;(0.37787024974822997, 0.19591445922851558);67.4213409424;0.9481312866;;;;;;;;;;;;;;0;73;0;0;0;25;5;0;0;();(-2000.0, -2000.0);
03:36:06:439;03:36:06:339;1448462161.03;(0.37787024974822997, 0.19591445922851558);67.4213409424;0.9481312866;;;;;;;;;;;;;;0;73;0;0;0;25;5;0;0;();(-2000.0, -2000.0);
03:36:06:456;03:36:06:339;1448462161.03;(0.37787024974822997, 0.19591445922851558);67.4213409424;0.9481312866;;;;;;;;;;;;;;0;73;0;0;0;25;5;0;0;();(-2000.0, -2000.0);
03:36:06:473;03:36:06:463;1448462161.16;(0.37973029613494874, 0.20757090250651045);67.0583724976;1.0;;;;;;;;;;;;;;0;73;0;0;0;25;5;0;0;();(-2000.0, -2000.0);
03:36:06:506;03:36:06:463;1448462161.16;(0.37973029613494874, 0.20757090250651045);67.0583724976;1.0;;;;;;;;;;;;;;0;73;0;0;0;25;5;0;0;();(-2000.0, -2000.0);
03:36:06:523;03:36:06:511;1448462161.32;(0.4068987131118774, 0.21907543606228297);64.3945007324;1.0;;;;;;;;;;;;;;0;73;0;0;0;25;5;0;0;();(-2000.0, -2000.0);
03:36:06:541;03:36:06:511;1448462161.32;(0.4068987131118774, 0.21907543606228297);64.3945007324;1.0;;;;;;;;;;;;;;0;73;0;0;0;25;5;0;0;();(-2000.0, -2000.0);
03:36:06:557;03:36:06:548;1448462161.37;(0.4054946660995483, 0.21784413655598955);64.6483764648;1.0;;;;;;;;;;;;;;0;73;0;0;0;25;5;0;0;();(-2000.0, -2000.0);
03:36:06:574;03:36:06:548;1448462161.37;(0.4054946660995483, 0.21784413655598955);64.6483764648;1.0;;;;;;;;;;;;;;0;73;0;0;0;25;5;0;0;();(-2000.0, -2000.0);
03:36:06:607;03:36:06:587;1448462161.4;(0.40476222038269044, 0.2183381822374132);64.6486816406;1.0;;;;;;;;;;;;;;0;73;0;0;0;25;5;0;0;();(-2000.0, -2000.0);
03:36:06:624;03:36:06:587;1448462161.4;(0.40476222038269044, 0.2183381822374132);64.6486816406;1.0;;;;;;;;;;;;;;0;73;0;0;0;25;5;0;0;();(-2000.0, -2000.0);
03:36:06:639;03:36:06:631;1448462161.43;(0.4044167518615723, 0.21905195448133685);64.7060852051;1.0;;;;;;;;;;;;;;0;73;0;0;0;25;5;0;0;();(-2000.0, -2000.0);
03:36:06:657;03:36:06:631;1448462161.43;(0.4044167518615723, 0.21905195448133685);64.7060852051;1.0;;;;;;;;;;;;;;0;73;0;0;0;25;5;0;0;();(-2000.0, -2000.0);
03:36:06:674;03:36:06:671;1448462161.47;(0.40421783924102783, 0.21993687947591145);64.6260452271;1.0;;;;;;;;;;;;;;0;73;0;0;0;25;5;0;0;();(-2000.0, -2000.0);
03:36:06:691;03:36:06:671;1448462161.47;(0.40421783924102783, 0.21993687947591145);64.6260452271;1.0;;;;;;;;;;;;;;0;73;0;0;0;25;5;0;0;();(-2000.0, -2000.0);
03:36:06:724;03:36:06:711;1448462161.5;(0.4040180444717407, 0.219972652859158);64.5751342773;1.0;;;;;;;;;;;;;;0;73;0;0;0;25;5;0;0;();(-2000.0, -2000.0);
03:36:06:741;03:36:06:711;1448462161.5;(0.4040180444717407, 0.219972652859158);64.5751342773;1.0;;;;;;;;;;;;;;0;73;0;0;0;25;5;0;0;();(-2000.0, -2000.0);
03:36:06:758;03:36:06:756;1448462161.57;(0.4014363050460815, 0.22060767279730897);64.8304290771;1.0;;;;;;;;;;;;;;0;73;0;0;0;25;5;0;0;();(-2000.0, -2000.0);
03:36:06:775;03:36:06:756;1448462161.57;(0.4014363050460815, 0.22060767279730897);64.8304290771;1.0;;;;;;;;;;;;;;0;73;0;0;0;25;5;0;0;();(-2000.0, -2000.0);
03:36:06:792;03:36:06:756;1448462161.57;(0.4014363050460815, 0.22060767279730897);64.8304290771;1.0;;;;;;;;;;;;;;0;73;0;0;0;25;5;0;0;();(-2000.0, -2000.0);
03:36:06:825;03:36:06:795;1448462161.6;(0.40074350833892824, 0.2205526563856337);64.9113540649;1.0;;;;;;;;;;;;;;0;73;0;0;0;25;5;0;0;();(-2000.0, -2000.0);
03:36:06:842;03:36:06:839;1448462161.63;(0.4002387046813965, 0.22025485568576386);64.979675293;1.0;;;;;;;;;;;;;;0;73;0;0;0;25;5;0;0;();(-2000.0, -2000.0);
03:36:06:858;03:36:06:839;1448462161.63;(0.4002387046813965, 0.22025485568576386);64.979675293;1.0;;;;;;;;;;;;;;0;73;0;0;0;25;5;0;0;();(-2000.0, -2000.0);
03:36:06:875;03:36:06:839;1448462161.63;(0.4002387046813965, 0.22025485568576386);64.979675293;1.0;;;;;;;;;;;;;;0;73;0;0;0;25;5;0;0;();(-2000.0, -2000.0);
03:36:06:892;03:36:06:881;1448462161.7;(0.39969511032104493, 0.2183987935384114);65.2229156494;1.0;;;;;;;;;;;;;;0;73;0;0;0;25;5;0;0;();(-2000.0, -2000.0);
03:36:06:924;03:36:06:919;1448462161.73;(0.39948091506958006, 0.2174292670355903);65.2496414185;1.0;;;;;;;;;;;;;;0;73;0;0;0;25;5;0;0;();(-2000.0, -2000.0);
03:36:06:942;03:36:06:919;1448462161.73;(0.39948091506958006, 0.2174292670355903);65.2496414185;1.0;;;;;;;;;;;;;;0;73;0;0;0;25;5;0;0;();(-2000.0, -2000.0);
03:36:06:959;03:36:06:919;1448462161.73;(0.39948091506958006, 0.2174292670355903);65.2496414185;1.0;;;;;;;;;;;;;;0;73;0;0;0;25;5;0;0;();(-2000.0, -2000.0);
03:36:06:976;03:36:06:963;1448462161.77;(0.42073075771331786, 0.2173286437988281);63.8157958984;1.0;;;;;;;;;;;;;;0;73;0;0;0;25;5;0;0;();(-2000.0, -2000.0);
03:36:06:991;03:36:06:963;1448462161.77;(0.42073075771331786, 0.2173286437988281);63.8157958984;1.0;;;;;;;;;;;;;;0;73;0;0;0;25;5;0;0;();(-2000.0, -2000.0);
03:36:07:026;03:36:07:003;1448462161.8;(0.4204872608184814, 0.21705949571397565);63.783908844;1.0;;;;;;;;;;;;;;0;73;0;0;0;25;5;0;0;();(-2000.0, -2000.0);
03:36:07:044;03:36:07:003;1448462161.8;(0.4204872608184814, 0.21705949571397565);63.783908844;1.0;;;;;;;;;;;;;;0;73;0;0;0;25;5;0;0;();(-2000.0, -2000.0);
03:36:07:060;03:36:07:043;1448462161.83;(0.4198057413101196, 0.21782624986436627);63.7253341675;1.0;;;;;;;;;;;;;;0;73;0;0;0;25;5;0;0;();(-2000.0, -2000.0);
03:36:07:077;03:36:07:043;1448462161.83;(0.4198057413101196, 0.21782624986436627);63.7253341675;1.0;;;;;;;;;;;;;;0;73;0;0;0;25;5;0;0;();(-2000.0, -2000.0);
03:36:07:093;03:36:07:088;1448462161.9;(0.41803913116455077, 0.21867056952582464);63.8607673645;1.0;;;;;;;;;;;;;;0;73;0;0;0;25;5;0;0;();(-2000.0, -2000.0);
03:36:07:127;03:36:07:088;1448462161.9;(0.41803913116455077, 0.21867056952582464);63.8607673645;1.0;;;;;;;;;;;;;;0;73;0;0;0;25;5;0;0;();(-2000.0, -2000.0);
03:36:07:142;03:36:07:127;1448462161.93;(0.4171565294265747, 0.2186798943413628);63.9912796021;1.0;;;;;;;;;;;;;;0;73;0;0;0;25;5;0;0;();(-2000.0, -2000.0);
03:36:07:160;03:36:07:127;1448462161.93;(0.4171565294265747, 0.2186798943413628);63.9912796021;1.0;;;;;;;;;;;;;;0;73;0;0;0;25;5;0;0;();(-2000.0, -2000.0);
03:36:07:177;03:36:07:171;1448462161.97;(0.4163949489593506, 0.21859859890407984);64.0510940552;1.0;;;;;;;;;;;;;;0;73;0;0;0;25;5;0;0;();(-2000.0, -2000.0);
03:36:07:194;03:36:07:171;1448462161.97;(0.4163949489593506, 0.21859859890407984);64.0510940552;1.0;;;;;;;;;;;;;;0;73;0;0;0;25;5;0;0;();(-2000.0, -2000.0);
03:36:07:227;03:36:07:214;1448462162.03;(0.41557021141052247, 0.21836352878146703);63.9780197144;1.0;;;;;;;;;;;;;;0;73;0;0;0;25;5;0;0;();(-2000.0, -2000.0);
03:36:07:244;03:36:07:214;1448462162.03;(0.41557021141052247, 0.21836352878146703);63.9780197144;1.0;;;;;;;;;;;;;;0;73;0;0;0;25;5;0;0;();(-2000.0, -2000.0);
03:36:07:261;03:36:07:214;1448462162.03;(0.41557021141052247, 0.21836352878146703);63.9780197144;1.0;;;;;;;;;;;;;;0;73;0;0;0;25;5;0;0;();(-2000.0, -2000.0);
03:36:07:278;03:36:07:214;1448462162.03;(0.41557021141052247, 0.21836352878146703);63.9780197144;1.0;;;;;;;;;;;;;;0;73;0;0;0;25;5;0;0;();(-2000.0, -2000.0);
03:36:07:294;03:36:07:214;1448462162.03;(0.41557021141052247, 0.21836352878146703);63.9780197144;1.0;;;;;;;;;;;;;;0;73;0;0;0;25;5;0;0;();(-2000.0, -2000.0);
03:36:07:311;03:36:07:298;1448462162.1;(0.42472712993621825, 0.21669294569227426);63.5112609863;1.0;;;;;;;;;;;;;;0;73;0;0;0;25;5;0;0;();(-2000.0, -2000.0);
03:36:07:345;03:36:07:335;1448462162.13;(0.42485523223876953, 0.21570646497938373);63.6282539368;1.0;;;;;;;;;;;;;;0;73;0;0;0;25;5;0;0;();(-2000.0, -2000.0);
03:36:07:361;03:36:07:335;1448462162.13;(0.42485523223876953, 0.21570646497938373);63.6282539368;1.0;;;;;;;;;;;;;;0;73;0;0;0;25;5;0;0;();(-2000.0, -2000.0);
03:36:07:378;03:36:07:375;1448462162.17;(0.42501187324523926, 0.2143425835503472);63.4069023132;1.0;;;;;;;;;;;;;;0;73;0;0;0;25;5;0;0;();(-2000.0, -2000.0);
03:36:07:395;03:36:07:375;1448462162.17;(0.42501187324523926, 0.2143425835503472);63.4069023132;1.0;;;;;;;;;;;;;;0;73;0;0;0;25;5;0;0;();(-2000.0, -2000.0);
03:36:07:412;03:36:07:375;1448462162.17;(0.42501187324523926, 0.2143425835503472);63.4069023132;1.0;;;;;;;;;;;;;;0;73;0;0;0;25;5;0;0;();(-2000.0, -2000.0);
03:36:07:445;03:36:07:422;1448462162.23;(0.42552890777587893, 0.21418389214409728);63.5288085938;1.0;;;;;;;;;;;;;;0;73;0;0;0;25;5;0;0;();(-2000.0, -2000.0);
03:36:07:462;03:36:07:459;1448462162.27;(0.42593338489532473, 0.21430884467230904);63.3911399841;1.0;;;;;;;;;;;;;;0;73;0;0;0;25;5;0;0;();(-2000.0, -2000.0);
03:36:07:479;03:36:07:459;1448462162.27;(0.42593338489532473, 0.21430884467230904);63.3911399841;1.0;;;;;;;;;;;;;;0;73;0;0;0;25;5;0;0;();(-2000.0, -2000.0);
03:36:07:496;03:36:07:459;1448462162.27;(0.42593338489532473, 0.21430884467230904);63.3911399841;1.0;;;;;;;;;;;;;;0;73;0;0;0;25;5;0;0;();(-2000.0, -2000.0);
03:36:07:512;03:36:07:499;1448462162.3;(0.41859514713287355, 0.261297861735026);61.3910446167;0.885054688545;;;;;;;;;;;;;;0;73;0;0;0;25;5;0;0;();(-2000.0, -2000.0);
03:36:07:563;03:36:07:543;1448462162.33;(0.39705715179443357, 0.31482887268066406);63.0960006714;1.0;;;;;;;;;;;;;;0;73;0;0;0;25;5;0;0;();(-2000.0, -2000.0);
03:36:07:566;03:36:07:543;1448462162.33;(0.39705715179443357, 0.31482887268066406);63.0960006714;1.0;;;;;;;;;;;;;;0;73;0;0;0;25;5;0;0;();(-2000.0, -2000.0);
03:36:07:580;03:36:07:543;1448462162.33;(0.39705715179443357, 0.31482887268066406);63.0960006714;1.0;;;;;;;;;;;;;;0;73;0;0;0;25;5;0;0;();(-2000.0, -2000.0);
03:36:07:596;03:36:07:583;1448462162.37;(0.39482951164245605, 0.32009561326768665);63.4011421204;1.0;;;;;;;;;;;;;;0;73;0;0;0;25;5;0;0;();(-2000.0, -2000.0);
03:36:07:613;03:36:07:583;1448462162.37;(0.39482951164245605, 0.32009561326768665);63.4011421204;1.0;;;;;;;;;;;;;;0;73;0;0;0;25;5;0;0;();(-2000.0, -2000.0);
03:36:07:630;03:36:07:627;1448462162.4;(0.3960507154464722, 0.31909311082628034);64.3947296143;1.0;;;;;;;;;;;;;;0;73;0;0;0;25;5;0;0;();(-2000.0, -2000.0);
03:36:07:663;03:36:07:630;1448462162.43;(0.3971449375152588, 0.317546632554796);63.9655990601;1.0;;;;;;;;;;;;;;0;73;0;0;0;25;5;0;0;();(-2000.0, -2000.0);
03:36:07:680;03:36:07:668;1448462162.47;(0.39795286655426027, 0.31641811794704866);64.1931762695;1.0;;;;;;;;;;;;;;0;73;0;0;0;25;5;0;0;();(-2000.0, -2000.0);
03:36:07:697;03:36:07:668;1448462162.47;(0.39795286655426027, 0.31641811794704866);64.1931762695;1.0;;;;;;;;;;;;;;0;73;0;0;0;25;5;0;0;();(-2000.0, -2000.0);
03:36:07:714;03:36:07:707;1448462162.5;(0.39839906692504884, 0.31567047966851125);64.2406311035;1.0;;;;;;;;;;;;;;0;73;0;0;0;25;5;0;0;();(-2000.0, -2000.0);
03:36:07:747;03:36:07:707;1448462162.5;(0.39839906692504884, 0.31567047966851125);64.2406311035;1.0;;;;;;;;;;;;;;0;73;0;0;0;25;5;0;0;();(-2000.0, -2000.0);
03:36:07:764;03:36:07:753;1448462162.57;(0.39654738903045655, 0.3205803765190972);64.4855117798;1.0;;;;;;;;;;;;;;0;73;0;0;0;25;5;0;0;();(-2000.0, -2000.0);
03:36:07:781;03:36:07:753;1448462162.57;(0.39654738903045655, 0.3205803765190972);64.4855117798;1.0;;;;;;;;;;;;;;0;73;0;0;0;25;5;0;0;();(-2000.0, -2000.0);
03:36:07:797;03:36:07:791;1448462162.6;(0.3962604522705078, 0.32079323662651915);64.0167541504;1.0;;;;;;;;;;;;;;0;73;0;0;0;25;5;0;0;();(-2000.0, -2000.0);
03:36:07:814;03:36:07:791;1448462162.6;(0.3962604522705078, 0.32079323662651915);64.0167541504;1.0;;;;;;;;;;;;;;0;73;0;0;0;25;5;0;0;();(-2000.0, -2000.0);
03:36:07:831;03:36:07:791;1448462162.6;(0.3962604522705078, 0.32079323662651915);64.0167541504;1.0;;;;;;;;;;;;;;0;73;0;0;0;25;5;0;0;();(-2000.0, -2000.0);
03:36:07:865;03:36:07:832;1448462162.63;(0.39591786861419676, 0.3218038347032335);63.5136413574;1.0;;;;;;;;;;;;;;0;73;0;0;0;25;5;0;0;();(-2000.0, -2000.0);
03:36:07:880;03:36:07:875;1448462162.67;(0.3959874391555786, 0.3234644995795356);63.2701148987;1.0;;;;;;;;;;;;;;0;73;0;0;0;25;5;0;0;();(-2000.0, -2000.0);
03:36:07:898;03:36:07:875;1448462162.67;(0.3959874391555786, 0.3234644995795356);63.2701148987;1.0;;;;;;;;;;;;;;0;73;0;0;0;25;5;0;0;();(-2000.0, -2000.0);
03:36:07:915;03:36:07:875;1448462162.67;(0.3959874391555786, 0.3234644995795356);63.2701148987;1.0;;;;;;;;;;;;;;0;73;0;0;0;25;5;0;0;();(-2000.0, -2000.0);
03:36:07:932;03:36:07:915;1448462162.7;(0.39587860107421874, 0.3246322207980685);62.9445037842;1.0;;;;;;;;;;;;;;0;73;0;0;0;25;5;0;0;();(-2000.0, -2000.0);
03:36:07:966;03:36:07:960;1448462162.77;(0.3927376508712769, 0.3238398657904731);63.3984031677;1.0;;;;;;;;;;;;;;0;73;0;0;0;25;5;0;0;();(-2000.0, -2000.0);
03:36:07:999;03:36:07:960;1448462162.77;(0.3927376508712769, 0.3238398657904731);63.3984031677;1.0;;;;;;;;;;;;;;0;73;0;0;0;25;5;0;0;();(-2000.0, -2000.0);
03:36:08:004;03:36:07:999;1448462162.8;(0.39326963424682615, 0.3239217122395833);62.7879257202;1.0;;;;;;;;;;;;;;0;73;0;0;0;25;5;0;0;();(-2000.0, -2000.0);
03:36:08:016;03:36:07:999;1448462162.8;(0.39326963424682615, 0.3239217122395833);62.7879257202;1.0;;;;;;;;;;;;;;0;73;0;0;0;25;5;0;0;();(-2000.0, -2000.0);
03:36:08:032;03:36:07:999;1448462162.8;(0.39326963424682615, 0.3239217122395833);62.7879257202;1.0;;;;;;;;;;;;;;0;73;0;0;0;25;5;0;0;();(-2000.0, -2000.0);
03:36:08:066;03:36:08:039;1448462162.83;(0.4021608829498291, 0.32424998813205297);62.2757148743;1.0;;;;;;;;;;;;;;0;73;0;0;0;25;5;0;0;();(-2000.0, -2000.0);
03:36:08:081;03:36:08:039;1448462162.83;(0.4021608829498291, 0.32424998813205297);62.2757148743;1.0;;;;;;;;;;;;;;0;73;0;0;0;25;5;0;0;();(-2000.0, -2000.0);
03:36:08:099;03:36:08:086;1448462162.9;(0.4021045446395874, 0.3248722924126519);62.4481658936;1.0;;;;;;;;;;;;;;0;73;0;0;0;25;5;0;0;();(-2000.0, -2000.0);
03:36:08:117;03:36:08:086;1448462162.9;(0.4021045446395874, 0.3248722924126519);62.4481658936;1.0;;;;;;;;;;;;;;0;73;0;0;0;25;5;0;0;();(-2000.0, -2000.0);
03:36:08:133;03:36:08:124;1448462162.93;(0.4025768041610718, 0.32446399264865455);62.2906417847;1.0;;;;;;;;;;;;;;0;73;0;0;0;25;5;0;0;();(-2000.0, -2000.0);
03:36:08:167;03:36:08:124;1448462162.93;(0.4025768041610718, 0.32446399264865455);62.2906417847;1.0;;;;;;;;;;;;;;0;73;0;0;0;25;5;0;0;();(-2000.0, -2000.0);
03:36:08:200;03:36:08:163;1448462162.97;(0.4027800321578979, 0.3247989230685764);62.664188385;1.0;;;;;;;;;;;;;;0;73;0;0;0;25;5;0;0;();(-2000.0, -2000.0);
03:36:08:203;03:36:08:163;1448462162.97;(0.4027800321578979, 0.3247989230685764);62.664188385;1.0;;;;;;;;;;;;;;0;73;0;0;0;25;5;0;0;();(-2000.0, -2000.0);
03:36:08:217;03:36:08:208;1448462163.0;(0.4031256675720215, 0.3249707963731554);62.6642913818;1.0;;;;;;;;;;;;;;0;73;0;0;0;25;5;0;0;();(-2000.0, -2000.0);
03:36:08:232;03:36:08:208;1448462163.0;(0.4031256675720215, 0.3249707963731554);62.6642913818;1.0;;;;;;;;;;;;;;0;73;0;0;0;25;5;0;0;();(-2000.0, -2000.0);
03:36:08:267;03:36:08:249;1448462163.07;(0.40380196571350097, 0.3273468441433377);63.0252113342;1.0;;;;;;;;;;;;;;0;73;0;0;0;25;5;0;0;();(-2000.0, -2000.0);
