%Timestamp,timestamp_write;timestamp_gotpupil;eyetrackertime;norm_pos;diameter;confidence;timestamp_gotbitdata;CRC;SEQ;AnalogOutp1;AnalogOutp2;AnalogOutp3;AnalogOutp4;AnalogOutp5;AnalogOutp6;DigitalOutp1;DigitalOutp2;igitalOutp3;DigitalOutp4;nplanes;lastaction;lastactiondetails;lastactionairplanenumber;positivescore;negativescore;collidedairplanenumbers;targetpositions;collision_point
09:12:08:700;1448051286.61;(0.4376994609832764, 0.4017458173963758);58.9028587341;1.0;;;;;;;;;;;;;;0;0;0;;0;0;();();(0.0, 0.0);
09:12:08:706;09:12:08:690;1448051286.64;(0.4384904861450195, 0.40288522508409286);59.503993988;0.988067377571;;;;;;;;;;;;;;0;0;0;;0;0;();();(-2000.0, -2000.0);
09:12:08:710;09:12:08:690;1448051286.64;(0.4384904861450195, 0.40288522508409286);59.503993988;0.988067377571;;;;;;;;;;;;;;0;0;0;;0;0;();();(-2000.0, -2000.0);
09:12:08:712;09:12:08:690;1448051286.64;(0.4384904861450195, 0.40288522508409286);59.503993988;0.988067377571;;;;;;;;;;;;;;0;0;0;;0;0;();();(-2000.0, -2000.0);
09:12:08:714;09:12:08:690;1448051286.64;(0.4384904861450195, 0.40288522508409286);59.503993988;0.988067377571;;;;;;;;;;;;;;0;0;0;;0;0;();();(-2000.0, -2000.0);
09:12:08:716;09:12:08:690;1448051286.64;(0.4384904861450195, 0.40288522508409286);59.503993988;0.988067377571;;;;;;;;;;;;;;0;0;0;;0;0;();();(-2000.0, -2000.0);
09:12:08:717;09:12:08:690;1448051286.64;(0.4384904861450195, 0.40288522508409286);59.503993988;0.988067377571;;;;;;;;;;;;;;0;0;0;;0;0;();();(-2000.0, -2000.0);
09:12:08:718;09:12:08:690;1448051286.64;(0.4384904861450195, 0.40288522508409286);59.503993988;0.988067377571;;;;;;;;;;;;;;0;0;0;;0;0;();();(-2000.0, -2000.0);
09:12:08:720;09:12:08:690;1448051286.64;(0.4384904861450195, 0.40288522508409286);59.503993988;0.988067377571;;;;;;;;;;;;;;0;0;0;;0;0;();();(-2000.0, -2000.0);
09:12:08:721;09:12:08:690;1448051286.64;(0.4384904861450195, 0.40288522508409286);59.503993988;0.988067377571;;;;;;;;;;;;;;0;0;0;;0;0;();();(-2000.0, -2000.0);
09:12:08:722;09:12:08:690;1448051286.64;(0.4384904861450195, 0.40288522508409286);59.503993988;0.988067377571;;;;;;;;;;;;;;0;0;0;;0;0;();();(-2000.0, -2000.0);
09:12:08:723;09:12:08:690;1448051286.64;(0.4384904861450195, 0.40288522508409286);59.503993988;0.988067377571;;;;;;;;;;;;;;0;0;0;;0;0;();();(-2000.0, -2000.0);
09:12:08:725;09:12:08:690;1448051286.64;(0.4384904861450195, 0.40288522508409286);59.503993988;0.988067377571;;;;;;;;;;;;;;0;0;0;;0;0;();();(-2000.0, -2000.0);
09:12:08:726;09:12:08:690;1448051286.64;(0.4384904861450195, 0.40288522508409286);59.503993988;0.988067377571;;;;;;;;;;;;;;0;0;0;;0;0;();();(-2000.0, -2000.0);
09:12:08:727;09:12:08:690;1448051286.64;(0.4384904861450195, 0.40288522508409286);59.503993988;0.988067377571;;;;;;;;;;;;;;0;0;0;;0;0;();();(-2000.0, -2000.0);
09:12:08:729;09:12:08:690;1448051286.64;(0.4384904861450195, 0.40288522508409286);59.503993988;0.988067377571;;;;;;;;;;;;;;0;0;0;;0;0;();();(-2000.0, -2000.0);
09:12:08:731;09:12:08:690;1448051286.64;(0.4384904861450195, 0.40288522508409286);59.503993988;0.988067377571;;;;;;;;;;;;;;0;0;0;;0;0;();();(-2000.0, -2000.0);
09:12:08:732;09:12:08:690;1448051286.64;(0.4384904861450195, 0.40288522508409286);59.503993988;0.988067377571;;;;;;;;;;;;;;0;0;0;;0;0;();();(-2000.0, -2000.0);
09:12:08:750;09:12:08:690;1448051286.64;(0.4384904861450195, 0.40288522508409286);59.503993988;0.988067377571;;;;;;;;;;;;;;0;0;0;;0;0;();();(-2000.0, -2000.0);
09:12:08:767;09:12:08:755;1448051286.71;(0.4400022029876709, 0.4059246910942925);60.1143341064;1.0;;;;;;;;;;;;;;0;0;0;;0;0;();();(-2000.0, -2000.0);
09:12:08:783;09:12:08:755;1448051286.71;(0.4400022029876709, 0.4059246910942925);60.1143341064;1.0;;;;;;;;;;;;;;0;0;0;;0;0;();();(-2000.0, -2000.0);
09:12:08:800;09:12:08:755;1448051286.71;(0.4400022029876709, 0.4059246910942925);60.1143341064;1.0;;;;;;;;;;;;;;0;0;0;;0;0;();();(-2000.0, -2000.0);
09:12:08:817;09:12:08:755;1448051286.71;(0.4400022029876709, 0.4059246910942925);60.1143341064;1.0;;;;;;;;;;;;;;0;0;0;;0;0;();();(-2000.0, -2000.0);
09:12:08:850;09:12:08:819;1448051286.77;(0.44030179977416994, 0.4087088690863715);60.5101661682;1.0;;;;;;;;;;;;;;0;0;0;;0;0;();();(-2000.0, -2000.0);
09:12:10:750;09:12:10:744;1448051288.67;(0.4689985752105713, 0.22827538384331603);25.353055954;0.627724429764;;;;;;;;;;;;;;0;0;0;;0;0;();();(-2000.0, -2000.0);
09:12:10:753;09:12:10:744;1448051288.67;(0.4689985752105713, 0.22827538384331603);25.353055954;0.627724429764;;;;;;;;;;;;;;0;0;0;;0;0;();();(-2000.0, -2000.0);
09:12:10:755;09:12:10:744;1448051288.67;(0.4689985752105713, 0.22827538384331603);25.353055954;0.627724429764;;;;;;;;;;;;;;0;0;0;;0;0;();();(-2000.0, -2000.0);
09:12:10:758;09:12:10:744;1448051288.67;(0.4689985752105713, 0.22827538384331603);25.353055954;0.627724429764;;;;;;;;;;;;;;0;0;0;;0;0;();();(-2000.0, -2000.0);
09:12:10:760;09:12:10:744;1448051288.67;(0.4689985752105713, 0.22827538384331603);25.353055954;0.627724429764;;;;;;;;;;;;;;0;0;0;;0;0;();();(-2000.0, -2000.0);
09:12:10:763;09:12:10:744;1448051288.67;(0.4689985752105713, 0.22827538384331603);25.353055954;0.627724429764;;;;;;;;;;;;;;0;0;0;;0;0;();();(-2000.0, -2000.0);
09:12:10:765;09:12:10:744;1448051288.67;(0.4689985752105713, 0.22827538384331603);25.353055954;0.627724429764;;;;;;;;;;;;;;0;0;0;;0;0;();();(-2000.0, -2000.0);
09:12:10:767;09:12:10:744;1448051288.67;(0.4689985752105713, 0.22827538384331603);25.353055954;0.627724429764;;;;;;;;;;;;;;0;0;0;;0;0;();();(-2000.0, -2000.0);
09:12:10:770;09:12:10:744;1448051288.67;(0.4689985752105713, 0.22827538384331603);25.353055954;0.627724429764;;;;;;;;;;;;;;0;0;0;;0;0;();();(-2000.0, -2000.0);
09:12:10:772;09:12:10:744;1448051288.67;(0.4689985752105713, 0.22827538384331603);25.353055954;0.627724429764;;;;;;;;;;;;;;0;0;0;;0;0;();();(-2000.0, -2000.0);
09:12:10:775;09:12:10:744;1448051288.67;(0.4689985752105713, 0.22827538384331603);25.353055954;0.627724429764;;;;;;;;;;;;;;0;0;0;;0;0;();();(-2000.0, -2000.0);
09:12:10:777;09:12:10:744;1448051288.67;(0.4689985752105713, 0.22827538384331603);25.353055954;0.627724429764;;;;;;;;;;;;;;0;0;0;;0;0;();();(-2000.0, -2000.0);
09:12:10:780;09:12:10:744;1448051288.67;(0.4689985752105713, 0.22827538384331603);25.353055954;0.627724429764;;;;;;;;;;;;;;0;0;0;;0;0;();();(-2000.0, -2000.0);
09:12:10:782;09:12:10:744;1448051288.67;(0.4689985752105713, 0.22827538384331603);25.353055954;0.627724429764;;;;;;;;;;;;;;0;0;0;;0;0;();();(-2000.0, -2000.0);
09:12:10:784;09:12:10:744;1448051288.67;(0.4689985752105713, 0.22827538384331603);25.353055954;0.627724429764;;;;;;;;;;;;;;0;0;0;;0;0;();();(-2000.0, -2000.0);
09:12:10:786;09:12:10:744;1448051288.67;(0.4689985752105713, 0.22827538384331603);25.353055954;0.627724429764;;;;;;;;;;;;;;0;0;0;;0;0;();();(-2000.0, -2000.0);
09:12:10:787;09:12:10:744;1448051288.67;(0.4689985752105713, 0.22827538384331603);25.353055954;0.627724429764;;;;;;;;;;;;;;0;0;0;;0;0;();();(-2000.0, -2000.0);
09:12:10:788;09:12:10:744;1448051288.67;(0.4689985752105713, 0.22827538384331603);25.353055954;0.627724429764;;;;;;;;;;;;;;0;0;0;;0;0;();();(-2000.0, -2000.0);
09:12:10:789;09:12:10:744;1448051288.67;(0.4689985752105713, 0.22827538384331603);25.353055954;0.627724429764;;;;;;;;;;;;;;0;0;0;;0;0;();();(-2000.0, -2000.0);
09:12:10:818;09:12:10:811;1448051288.71;(0.32440767288208006, 0.14498511420355897);26.6142139435;0.712362131538;;;;;;;;;;;;;;0;0;0;;0;0;();();(-2000.0, -2000.0);
09:12:10:835;09:12:10:811;1448051288.71;(0.32440767288208006, 0.14498511420355897);26.6142139435;0.712362131538;;;;;;;;;;;;;;0;0;0;;0;0;();();(-2000.0, -2000.0);
09:12:10:853;09:12:10:811;1448051288.71;(0.32440767288208006, 0.14498511420355897);26.6142139435;0.712362131538;;;;;;;;;;;;;;0;0;0;;0;0;();();(-2000.0, -2000.0);
09:12:10:869;09:12:10:811;1448051288.71;(0.32440767288208006, 0.14498511420355897);26.6142139435;0.712362131538;;;;;;;;;;;;;;0;0;0;;0;0;();();(-2000.0, -2000.0);
09:12:10:885;09:12:10:879;1448051288.78;(0.36721510887145997, 0.18983205159505212);20.1461162567;0.791397398477;;;;;;;;;;;;;;0;0;0;;0;0;();();(-2000.0, -2000.0);
09:12:10:919;09:12:10:879;1448051288.78;(0.36721510887145997, 0.18983205159505212);20.1461162567;0.791397398477;;;;;;;;;;;;;;0;0;0;;0;0;();();(-2000.0, -2000.0);
09:12:10:933;09:12:10:879;1448051288.78;(0.36721510887145997, 0.18983205159505212);20.1461162567;0.791397398477;;;;;;;;;;;;;;0;0;0;;0;0;();();(-2000.0, -2000.0);
09:12:10:952;09:12:10:944;1448051288.85;(0.2407224655151367, 0.12366494072808165);37.5801429749;0.637945150262;;;;;;;;;;;;;;0;0;0;;0;0;();();(-2000.0, -2000.0);
09:12:10:969;09:12:10:944;1448051288.85;(0.2407224655151367, 0.12366494072808165);37.5801429749;0.637945150262;;;;;;;;;;;;;;0;0;0;;0;0;();();(-2000.0, -2000.0);
09:12:10:985;09:12:10:944;1448051288.85;(0.2407224655151367, 0.12366494072808165);37.5801429749;0.637945150262;;;;;;;;;;;;;;0;0;0;;0;0;();();(-2000.0, -2000.0);
09:12:11:018;09:12:11:011;1448051288.97;(0, 0);0;0;;;;;;;;;;;;;;0;0;0;;0;0;();();(-2000.0, -2000.0);
09:12:11:035;09:12:11:011;1448051288.97;(0, 0);0;0;;;;;;;;;;;;;;0;0;0;;0;0;();();(-2000.0, -2000.0);
09:12:11:052;09:12:11:011;1448051288.97;(0, 0);0;0;;;;;;;;;;;;;;0;0;0;;0;0;();();(-2000.0, -2000.0);
09:12:11:067;09:12:11:011;1448051288.97;(0, 0);0;0;;;;;;;;;;;;;;0;0;0;;0;0;();();(-2000.0, -2000.0);
09:12:11:084;09:12:11:076;1448051289.04;(0, 0);0;0;;;;;;;;;;;;;;0;0;0;;0;0;();();(-2000.0, -2000.0);
09:12:11:118;09:12:11:076;1448051289.04;(0, 0);0;0;;;;;;;;;;;;;;0;0;0;;0;0;();();(-2000.0, -2000.0);
09:12:11:135;09:12:11:076;1448051289.04;(0, 0);0;0;;;;;;;;;;;;;;0;0;0;;0;0;();();(-2000.0, -2000.0);
09:12:11:152;09:12:11:144;1448051289.11;(0.4175973892211914, 0.4258614857991536);66.8507080078;0.983879215526;;;;;;;;;;;;;;0;0;0;;0;0;();();(-2000.0, -2000.0);
09:12:11:169;09:12:11:144;1448051289.11;(0.4175973892211914, 0.4258614857991536);66.8507080078;0.983879215526;;;;;;;;;;;;;;0;0;0;;0;0;();();(-2000.0, -2000.0);
09:12:11:185;09:12:11:144;1448051289.11;(0.4175973892211914, 0.4258614857991536);66.8507080078;0.983879215526;;;;;;;;;;;;;;0;0;0;;0;0;();();(-2000.0, -2000.0);
09:12:11:219;09:12:11:213;1448051289.17;(0.41760094165802003, 0.42903446621365016);66.6748046875;0.928370376973;;;;;;;;;;;;;;0;0;0;;0;0;();();(-2000.0, -2000.0);
09:12:11:235;09:12:11:213;1448051289.17;(0.41760094165802003, 0.42903446621365016);66.6748046875;0.928370376973;;;;;;;;;;;;;;0;0;0;;0;0;();();(-2000.0, -2000.0);
09:12:11:252;09:12:11:213;1448051289.17;(0.41760094165802003, 0.42903446621365016);66.6748046875;0.928370376973;;;;;;;;;;;;;;0;0;0;;0;0;();();(-2000.0, -2000.0);
09:12:11:269;09:12:11:213;1448051289.17;(0.41760094165802003, 0.42903446621365016);66.6748046875;0.928370376973;;;;;;;;;;;;;;0;0;0;;0;0;();();(-2000.0, -2000.0);
09:12:11:285;09:12:11:276;1448051289.24;(0.41865148544311526, 0.43083746168348525);67.6911392212;1.0;;;;;;;;;;;;;;0;0;0;;0;0;();();(-2000.0, -2000.0);
09:12:11:319;09:12:11:276;1448051289.24;(0.41865148544311526, 0.43083746168348525);67.6911392212;1.0;;;;;;;;;;;;;;0;0;0;;0;0;();();(-2000.0, -2000.0);
09:12:11:336;09:12:11:276;1448051289.24;(0.41865148544311526, 0.43083746168348525);67.6911392212;1.0;;;;;;;;;;;;;;0;0;0;;0;0;();();(-2000.0, -2000.0);
09:12:11:353;09:12:11:343;1448051289.31;(0.42067980766296387, 0.4277349683973525);68.2095718384;0.852351813171;;;;;;;;;;;;;;0;0;0;;0;0;();();(-2000.0, -2000.0);
09:12:11:369;09:12:11:343;1448051289.31;(0.42067980766296387, 0.4277349683973525);68.2095718384;0.852351813171;;;;;;;;;;;;;;0;0;0;;0;0;();();(-2000.0, -2000.0);
09:12:11:386;09:12:11:343;1448051289.31;(0.42067980766296387, 0.4277349683973525);68.2095718384;0.852351813171;;;;;;;;;;;;;;0;0;0;;0;0;();();(-2000.0, -2000.0);
09:12:11:419;09:12:11:343;1448051289.31;(0.42067980766296387, 0.4277349683973525);68.2095718384;0.852351813171;;;;;;;;;;;;;;0;0;0;;0;0;();();(-2000.0, -2000.0);
09:12:11:963;09:12:11:940;1448051289.91;(0.4379164695739746, 0.41187739902072484);59.6214904785;1.0;09:12:11:960;0;10;-1.30645161290323;1;1.17302052785924;0;0;0;1;1;1;1;0;0;0;;0;0;();();(-2000.0, -2000.0);
09:12:11:966;09:12:11:940;1448051289.91;(0.4379164695739746, 0.41187739902072484);59.6214904785;1.0;09:12:11:966;0;10;-1.30645161290323;1;1.17302052785924;0;0;0;1;1;1;1;0;0;0;;0;0;();();(-2000.0, -2000.0);
09:12:11:969;09:12:11:940;1448051289.91;(0.4379164695739746, 0.41187739902072484);59.6214904785;1.0;09:12:11:969;0;10;-1.30645161290323;1;1.17302052785924;0;0;0;1;1;1;1;0;0;0;;0;0;();();(-2000.0, -2000.0);
09:12:11:972;09:12:11:940;1448051289.91;(0.4379164695739746, 0.41187739902072484);59.6214904785;1.0;09:12:11:972;0;10;-1.30645161290323;1;1.17302052785924;0;0;0;1;1;1;1;0;0;0;;0;0;();();(-2000.0, -2000.0);
09:12:11:974;09:12:11:940;1448051289.91;(0.4379164695739746, 0.41187739902072484);59.6214904785;1.0;09:12:11:974;0;5;-1.24516129032258;1.00097847358121;1.46627565982405;0;0;0;1;1;1;1;0;0;0;;0;0;();();(-2000.0, -2000.0);
09:12:11:977;09:12:11:940;1448051289.91;(0.4379164695739746, 0.41187739902072484);59.6214904785;1.0;09:12:11:977;0;5;-1.24516129032258;1.00097847358121;1.46627565982405;0;0;0;1;1;1;1;0;0;0;;0;0;();();(-2000.0, -2000.0);
09:12:11:981;09:12:11:940;1448051289.91;(0.4379164695739746, 0.41187739902072484);59.6214904785;1.0;09:12:11:981;0;9;-1.2741935483871;1;1.17302052785924;0;0;0;1;1;1;1;0;0;0;;0;0;();();(-2000.0, -2000.0);
09:12:11:984;09:12:11:940;1448051289.91;(0.4379164695739746, 0.41187739902072484);59.6214904785;1.0;09:12:11:984;0;15;-1.2741935483871;1;1.17302052785924;0;0;0;1;1;1;1;0;0;0;;0;0;();();(-2000.0, -2000.0);
09:12:11:985;09:12:11:940;1448051289.91;(0.4379164695739746, 0.41187739902072484);59.6214904785;1.0;09:12:11:985;0;15;-1.2741935483871;1;1.17302052785924;0;0;0;1;1;1;1;0;0;0;;0;0;();();(-2000.0, -2000.0);
09:12:11:986;09:12:11:940;1448051289.91;(0.4379164695739746, 0.41187739902072484);59.6214904785;1.0;09:12:11:986;0;15;-1.2741935483871;1;1.17302052785924;0;0;0;1;1;1;1;0;0;0;;0;0;();();(-2000.0, -2000.0);
09:12:11:988;09:12:11:940;1448051289.91;(0.4379164695739746, 0.41187739902072484);59.6214904785;1.0;09:12:11:988;0;15;-1.2741935483871;1;1.17302052785924;0;0;0;1;1;1;1;0;0;0;;0;0;();();(-2000.0, -2000.0);
09:12:11:989;09:12:11:940;1448051289.91;(0.4379164695739746, 0.41187739902072484);59.6214904785;1.0;09:12:11:989;0;15;-1.2741935483871;1;1.17302052785924;0;0;0;1;1;1;1;0;0;0;;0;0;();();(-2000.0, -2000.0);
09:12:11:990;09:12:11:940;1448051289.91;(0.4379164695739746, 0.41187739902072484);59.6214904785;1.0;09:12:11:990;0;15;-1.2741935483871;1;1.17302052785924;0;0;0;1;1;1;1;0;0;0;;0;0;();();(-2000.0, -2000.0);
09:12:11:991;09:12:11:940;1448051289.91;(0.4379164695739746, 0.41187739902072484);59.6214904785;1.0;09:12:11:991;0;15;-1.2741935483871;1;1.17302052785924;0;0;0;1;1;1;1;0;0;0;;0;0;();();(-2000.0, -2000.0);
09:12:11:993;09:12:11:940;1448051289.91;(0.4379164695739746, 0.41187739902072484);59.6214904785;1.0;09:12:11:993;0;15;-1.2741935483871;1;1.17302052785924;0;0;0;1;1;1;1;0;0;0;;0;0;();();(-2000.0, -2000.0);
09:12:11:994;09:12:11:940;1448051289.91;(0.4379164695739746, 0.41187739902072484);59.6214904785;1.0;09:12:11:994;0;15;-1.2741935483871;1;1.17302052785924;0;0;0;1;1;1;1;0;0;0;;0;0;();();(-2000.0, -2000.0);
09:12:11:995;09:12:11:940;1448051289.91;(0.4379164695739746, 0.41187739902072484);59.6214904785;1.0;09:12:11:995;0;15;-1.2741935483871;1;1.17302052785924;0;0;0;1;1;1;1;0;0;0;;0;0;();();(-2000.0, -2000.0);
09:12:11:997;09:12:11:940;1448051289.91;(0.4379164695739746, 0.41187739902072484);59.6214904785;1.0;09:12:11:997;0;15;-1.2741935483871;1;1.17302052785924;0;0;0;1;1;1;1;0;0;0;;0;0;();();(-2000.0, -2000.0);
09:12:11:998;09:12:11:940;1448051289.91;(0.4379164695739746, 0.41187739902072484);59.6214904785;1.0;09:12:11:998;0;15;-1.2741935483871;1;1.17302052785924;0;0;0;1;1;1;1;0;0;0;;0;0;();();(-2000.0, -2000.0);
09:12:12:020;09:12:12:007;1448051289.97;(0.4363094329833984, 0.4141034868028429);59.7217750549;1.0;09:12:12:020;0;5;-1.30645161290323;1;1.17302052785924;0;0;0;1;1;1;1;0;0;0;;0;0;();();(-2000.0, -2000.0);
09:12:12:036;09:12:12:007;1448051289.97;(0.4363094329833984, 0.4141034868028429);59.7217750549;1.0;09:12:12:036;0;5;-1.30645161290323;1;1.17302052785924;0;0;0;1;1;1;1;0;0;0;;0;0;();();(-2000.0, -2000.0);
09:12:12:052;09:12:12:007;1448051289.97;(0.4363094329833984, 0.4141034868028429);59.7217750549;1.0;09:12:12:052;0;5;-1.24516129032258;1.00097847358121;1.46627565982405;0;0;0;1;1;1;1;0;0;0;;0;0;();();(-2000.0, -2000.0);
09:12:12:086;09:12:12:077;1448051290.04;(0.4355002880096436, 0.41386549207899304);59.6703071594;1.0;09:12:12:086;0;15;-1.3;1;0.879765395894428;0;0;0;1;1;1;1;0;0;0;;0;0;();();(-2000.0, -2000.0);
09:12:12:103;09:12:12:077;1448051290.04;(0.4355002880096436, 0.41386549207899304);59.6703071594;1.0;09:12:12:103;0;9;-1.34516129032258;1;0.684261974584555;0;0;0;1;1;1;1;0;0;0;;0;0;();();(-2000.0, -2000.0);
09:12:12:120;09:12:12:077;1448051290.04;(0.4355002880096436, 0.41386549207899304);59.6703071594;1.0;09:12:12:120;0;15;-1.39354838709677;1;0.586510263929619;0;0;0;1;1;1;1;0;0;0;;0;0;();();(-2000.0, -2000.0);
09:12:12:137;09:12:12:077;1448051290.04;(0.4355002880096436, 0.41386549207899304);59.6703071594;1.0;09:12:12:137;0;4;-1.45161290322581;1;0.0977517106549365;0;0;0;1;1;1;1;0;0;0;;0;0;();();(-2000.0, -2000.0);
09:12:12:153;09:12:12:140;1448051290.11;(0.43369858264923095, 0.4102961646185981);60.1574554443;1.0;09:12:12:153;0;15;-1.45483870967742;1;0.0977517106549365;0;0;0;1;1;1;1;0;0;0;;0;0;();();(-2000.0, -2000.0);
09:12:12:187;09:12:12:140;1448051290.11;(0.43369858264923095, 0.4102961646185981);60.1574554443;1.0;09:12:12:187;0;15;-1.5;1;0;0;0;0;1;1;1;1;0;0;0;;0;0;();();(-2000.0, -2000.0);
09:12:12:203;09:12:12:140;1448051290.11;(0.43369858264923095, 0.4102961646185981);60.1574554443;1.0;09:12:12:203;0;5;-1.5;1;0;0;0;0;1;1;1;1;0;0;0;;0;0;();();(-2000.0, -2000.0);
09:12:12:220;09:12:12:204;1448051290.17;(0.4231788396835327, 0.31074447631835933);38.2932891846;0.613889271687;09:12:12:220;0;10;-1.5;1;0;0;0;0;1;1;1;1;0;0;0;;0;0;();();(-2000.0, -2000.0);
09:12:12:237;09:12:12:204;1448051290.17;(0.4231788396835327, 0.31074447631835933);38.2932891846;0.613889271687;09:12:12:237;0;4;-1.5;1;0;0;0;0;1;1;1;1;0;0;0;;0;0;();();(-2000.0, -2000.0);
09:12:12:253;09:12:12:204;1448051290.17;(0.4231788396835327, 0.31074447631835933);38.2932891846;0.613889271687;09:12:12:253;0;15;-1.5;1;0;0;0;0;1;1;1;1;0;0;0;;0;0;();();(-2000.0, -2000.0);
09:12:12:286;09:12:12:271;1448051290.24;(0.4036136865615845, 0.4188886430528429);60.2274055481;0.816102143594;09:12:12:286;0;10;-1.5;1;0;0;0;0;1;1;1;1;0;0;0;;0;0;();();(-2000.0, -2000.0);
09:12:12:303;09:12:12:271;1448051290.24;(0.4036136865615845, 0.4188886430528429);60.2274055481;0.816102143594;09:12:12:303;0;4;-1.5;1;0;0;0;0;1;1;1;1;0;0;0;;0;0;();();(-2000.0, -2000.0);
09:12:12:320;09:12:12:271;1448051290.24;(0.4036136865615845, 0.4188886430528429);60.2274055481;0.816102143594;09:12:12:320;0;10;-1.5;1;0;0;0;0;1;1;1;1;0;0;0;;0;0;();();(-2000.0, -2000.0);
09:12:12:336;09:12:12:271;1448051290.24;(0.4036136865615845, 0.4188886430528429);60.2274055481;0.816102143594;09:12:12:336;0;15;-1.5;1;0;0;0;0;1;1;1;1;0;0;0;;0;0;();();(-2000.0, -2000.0);
09:12:12:351;09:12:12:339;1448051290.31;(0.4073699951171875, 0.4195094638400607);60.1450958252;0.896247906247;09:12:12:351;0;10;-1.5;1;0;0;0;0;1;1;1;1;0;0;0;;0;0;();();(-2000.0, -2000.0);
09:12:12:386;09:12:12:339;1448051290.31;(0.4073699951171875, 0.4195094638400607);60.1450958252;0.896247906247;09:12:12:386;0;10;-1.5;1;0;0;0;0;1;1;1;1;0;0;0;;0;0;();();(-2000.0, -2000.0);
09:12:12:404;09:12:12:403;1448051290.34;(0.4092526912689209, 0.42005420260959203);59.9373321533;0.836832623962;09:12:12:404;0;0;-1.5;1;0;0;0;0;1;1;1;1;0;0;0;;0;0;();();(-2000.0, -2000.0);
09:12:12:420;09:12:12:404;1448051290.37;(0.4111882209777832, 0.41949768066406246);59.9405784607;0.801656669654;09:12:12:420;0;0;-1.5;1;0;0;0;0;1;1;1;1;0;0;0;;0;0;();();(-2000.0, -2000.0);
09:12:12:436;09:12:12:404;1448051290.37;(0.4111882209777832, 0.41949768066406246);59.9405784607;0.801656669654;09:12:12:436;0;15;-1.5;1;0;0;0;0;1;1;1;1;0;0;0;;0;0;();();(-2000.0, -2000.0);
09:12:12:453;09:12:12:404;1448051290.37;(0.4111882209777832, 0.41949768066406246);59.9405784607;0.801656669654;09:12:12:453;0;10;-1.5;1;0;0;0;0;1;1;1;1;0;0;0;;0;0;();();(-2000.0, -2000.0);
09:12:12:470;09:12:12:404;1448051290.37;(0.4111882209777832, 0.41949768066406246);59.9405784607;0.801656669654;09:12:12:470;0;15;-1.5;1;0;0;0;0;1;1;1;1;0;0;0;;0;0;();();(-2000.0, -2000.0);
09:12:12:504;09:12:12:472;1448051290.41;(0.413266921043396, 0.4185025533040364);59.7030067444;0.815447088819;09:12:12:504;0;4;-1.5;1;0;0;0;0;1;1;1;1;0;0;0;;0;0;();();(-2000.0, -2000.0);
09:12:12:520;09:12:12:472;1448051290.41;(0.413266921043396, 0.4185025533040364);59.7030067444;0.815447088819;09:12:12:520;0;4;-1.5;1;0;0;0;0;1;1;1;1;0;0;0;;0;0;();();(-2000.0, -2000.0);
09:12:12:537;09:12:12:536;1448051290.47;(0.4174597501754761, 0.4144315507676867);59.4953422546;0.997940247935;09:12:12:537;0;4;-1.5;1;0;0;0;0;1;1;1;1;0;0;0;;0;0;();();(-2000.0, -2000.0);
09:12:12:553;09:12:12:536;1448051290.47;(0.4174597501754761, 0.4144315507676867);59.4953422546;0.997940247935;09:12:12:553;0;4;-1.5;1;0;0;0;0;1;1;1;1;0;0;0;;0;0;();();(-2000.0, -2000.0);
09:12:12:586;09:12:12:536;1448051290.47;(0.4174597501754761, 0.4144315507676867);59.4953422546;0.997940247935;09:12:12:586;0;4;-1.5;1;0;0;0;0;1;1;1;1;0;0;0;;0;0;();();(-2000.0, -2000.0);
09:12:12:603;09:12:12:536;1448051290.47;(0.4174597501754761, 0.4144315507676867);59.4953422546;0.997940247935;09:12:12:603;0;10;-1.5;1;0;0;0;0;1;1;1;1;0;0;0;;0;0;();();(-2000.0, -2000.0);
09:12:12:621;09:12:12:604;1448051290.57;(0.38084566593170166, 0.40856403774685335);60.3007926941;1.0;09:12:12:621;0;15;-1.5;1;0;0;0;0;1;1;1;1;0;0;0;;0;0;();();(-2000.0, -2000.0);
09:12:12:637;09:12:12:604;1448051290.57;(0.38084566593170166, 0.40856403774685335);60.3007926941;1.0;09:12:12:637;0;10;-1.5;1;0;0;0;0;1;1;1;1;0;0;0;;0;0;();();(-2000.0, -2000.0);
09:12:12:653;09:12:12:604;1448051290.57;(0.38084566593170166, 0.40856403774685335);60.3007926941;1.0;09:12:12:653;0;8;-1.5;1;0;0;0;0;1;1;1;1;0;0;0;;0;0;();();(-2000.0, -2000.0);
09:12:12:670;09:12:12:604;1448051290.57;(0.38084566593170166, 0.40856403774685335);60.3007926941;1.0;09:12:12:670;0;10;-1.5;1;0;0;0;0;1;1;1;1;0;0;0;;0;0;();();(-2000.0, -2000.0);
09:12:12:703;09:12:12:673;1448051290.64;(0.38677971363067626, 0.4096180386013455);61.2362442017;0.923435776493;09:12:12:703;0;10;-1.5;1;0;0;0;0;1;1;1;1;0;0;0;;0;0;();();(-2000.0, -2000.0);
09:12:12:720;09:12:12:673;1448051290.64;(0.38677971363067626, 0.4096180386013455);61.2362442017;0.923435776493;09:12:12:720;0;15;-1.5;1;0;0;0;0;1;1;1;1;0;0;0;;0;0;();();(-2000.0, -2000.0);
09:12:12:736;09:12:12:735;1448051290.71;(0.3889702320098877, 0.4107908036973741);60.7910957336;1.0;09:12:12:736;0;10;-1.5;1;0;0;0;0;1;1;1;1;0;0;0;;0;0;();();(-2000.0, -2000.0);
09:12:12:754;09:12:12:735;1448051290.71;(0.3889702320098877, 0.4107908036973741);60.7910957336;1.0;09:12:12:754;0;15;-1.5;1;0;0;0;0;1;1;1;1;0;0;0;;0;0;();();(-2000.0, -2000.0);
09:12:12:770;09:12:12:735;1448051290.71;(0.3889702320098877, 0.4107908036973741);60.7910957336;1.0;09:12:12:770;0;10;-1.5;1;0;0;0;0;1;1;1;1;0;0;0;;0;0;();();(-2000.0, -2000.0);
09:12:12:804;09:12:12:804;1448051290.77;(0.3893543004989624, 0.4106994205050998);60.5310134888;1.0;09:12:12:804;0;9;-1.5;1;0;0;0;0;1;1;1;1;0;0;0;;0;0;();();(-2000.0, -2000.0);
09:12:12:820;09:12:12:804;1448051290.77;(0.3893543004989624, 0.4106994205050998);60.5310134888;1.0;09:12:12:820;0;0;-1.5;1;0;0;0;0;1;1;1;1;0;0;0;;0;0;();();(-2000.0, -2000.0);
09:12:12:837;09:12:12:804;1448051290.77;(0.3893543004989624, 0.4106994205050998);60.5310134888;1.0;09:12:12:837;0;10;-1.5;1;0;0;0;0;1;1;1;1;0;0;0;;0;0;();();(-2000.0, -2000.0);
09:12:12:854;09:12:12:804;1448051290.77;(0.3893543004989624, 0.4106994205050998);60.5310134888;1.0;09:12:12:854;0;8;-1.5;1;0;0;0;0;1;1;1;1;0;0;0;;0;0;();();(-2000.0, -2000.0);
09:12:12:870;09:12:12:867;1448051290.84;(0, 0);0;0;09:12:12:870;0;4;-1.5;1;0;0;0;0;1;1;1;1;0;0;0;;0;0;();();(-2000.0, -2000.0);
09:12:12:904;09:12:12:867;1448051290.84;(0, 0);0;0;09:12:12:904;0;4;-1.5;1;0;0;0;0;1;1;1;1;0;0;0;;0;0;();();(-2000.0, -2000.0);
09:12:12:920;09:12:12:867;1448051290.84;(0, 0);0;0;09:12:12:920;0;15;-1.5;1;0;0;0;0;1;1;1;1;0;0;0;;0;0;();();(-2000.0, -2000.0);
09:12:12:936;09:12:12:936;1448051290.91;(0, 0);0;0;09:12:12:936;0;10;-1.5;1;0;0;0;0;1;1;1;1;0;0;0;;0;0;();();(-2000.0, -2000.0);
09:12:12:954;09:12:12:936;1448051290.91;(0, 0);0;0;09:12:12:954;0;15;-1.5;1;0;0;0;0;1;1;1;1;0;0;0;;0;0;();();(-2000.0, -2000.0);
09:12:12:970;09:12:12:936;1448051290.91;(0, 0);0;0;09:12:12:970;0;4;-1.5;1;0;0;0;0;1;1;1;1;0;0;0;;0;0;();();(-2000.0, -2000.0);
09:12:13:003;09:12:13:003;1448051290.94;(0.46364331245422363, 0.37829950120713973);56.5125465393;1.0;09:12:13:003;0;5;-1.5;1;0;0;0;0;1;1;1;1;0;0;0;;0;0;();();(-2000.0, -2000.0);
09:12:13:021;09:12:13:003;1448051290.97;(0.4625542640686035, 0.38200047810872395);56.8940162659;1.0;09:12:13:021;0;10;-1.5;1.38994565217391;0;0;0;0;1;1;1;1;0;0;0;;0;0;();();(-2000.0, -2000.0);
09:12:13:037;09:12:13:003;1448051290.97;(0.4625542640686035, 0.38200047810872395);56.8940162659;1.0;09:12:13:037;0;4;-1.5;170.5;0.684261974584555;0;0;0;1;1;1;1;0;0;0;;0;0;();();(-2000.0, -2000.0);
09:12:13:054;09:12:13:003;1448051290.97;(0.4625542640686035, 0.38200047810872395);56.8940162659;1.0;09:12:13:054;0;9;-1.5;170.5;0.684261974584555;0;0;0;1;1;1;1;0;0;0;;0;0;();();(-2000.0, -2000.0);
09:12:13:071;09:12:13:068;1448051291.04;(0.4602452278137207, 0.38759401109483504);57.0838470459;0.86976382232;09:12:13:071;0;5;-1.5;170.5;0.684261974584555;0;0;0;1;1;1;1;0;0;0;;0;0;();();(-2000.0, -2000.0);
09:12:13:103;09:12:13:068;1448051291.04;(0.4602452278137207, 0.38759401109483504);57.0838470459;0.86976382232;09:12:13:103;0;15;-1.5;85.2500000000001;1.17302052785924;0;0;0;1;1;1;1;0;0;0;;0;0;();();(-2000.0, -2000.0);
09:12:13:121;09:12:13:068;1448051291.04;(0.4602452278137207, 0.38759401109483504);57.0838470459;0.86976382232;09:12:13:121;0;10;-1.5;170.5;0.684261974584555;0;0;0;1;1;1;1;0;0;0;;0;0;();();(-2000.0, -2000.0);
09:12:13:137;09:12:13:135;1448051291.11;(0.457457160949707, 0.39154213799370663);57.3646354675;0.981339538588;09:12:13:137;0;0;-1.5;146.142857142857;0.684261974584555;0;0;0;1;1;1;1;0;0;0;;0;0;();();(-2000.0, -2000.0);
09:12:13:153;09:12:13:135;1448051291.11;(0.457457160949707, 0.39154213799370663);57.3646354675;0.981339538588;09:12:13:153;0;0;-1.5;146.142857142857;0.684261974584555;0;0;0;1;1;1;1;0;0;0;;0;0;();();(-2000.0, -2000.0);
09:12:13:171;09:12:13:135;1448051291.11;(0.457457160949707, 0.39154213799370663);57.3646354675;0.981339538588;09:12:13:171;0;5;-1.5;146.142857142857;0.684261974584555;0;0;0;1;1;1;1;0;0;0;;0;0;();();(-2000.0, -2000.0);
09:12:13:204;09:12:13:199;1448051291.17;(0.45477910041809083, 0.3932083977593316);57.7700958252;1.0;09:12:13:204;0;15;-1.5;146.142857142857;0.684261974584555;0;0;0;1;1;1;1;0;0;0;;0;0;();();(-2000.0, -2000.0);
09:12:13:221;09:12:13:199;1448051291.17;(0.45477910041809083, 0.3932083977593316);57.7700958252;1.0;09:12:13:221;0;5;-1.5;170.5;0.684261974584555;0;0;0;1;1;1;1;0;0;0;;0;0;();();(-2000.0, -2000.0);
09:12:13:237;09:12:13:199;1448051291.17;(0.45477910041809083, 0.3932083977593316);57.7700958252;1.0;09:12:13:237;0;15;-1.5;146.142857142857;0.684261974584555;0;0;0;1;1;1;1;0;0;0;;0;0;();();(-2000.0, -2000.0);
09:12:13:254;09:12:13:199;1448051291.17;(0.45477910041809083, 0.3932083977593316);57.7700958252;1.0;09:12:13:254;0;10;-1.5;170.5;0.684261974584555;0;0;0;1;1;1;1;0;0;0;;0;0;();();(-2000.0, -2000.0);
09:12:13:271;09:12:13:267;1448051291.21;(0.4537940979003906, 0.39451908535427516);58.5299491882;1.0;09:12:13:271;0;15;-1.5;170.5;0.684261974584555;0;0;0;1;1;1;1;0;0;0;;0;0;();();(-2000.0, -2000.0);
09:12:13:304;09:12:13:267;1448051291.21;(0.4537940979003906, 0.39451908535427516);58.5299491882;1.0;09:12:13:304;0;0;-1.5;1;0;0;0;0;1;1;1;1;0;0;0;;0;0;();();(-2000.0, -2000.0);
09:12:13:321;09:12:13:267;1448051291.21;(0.4537940979003906, 0.39451908535427516);58.5299491882;1.0;09:12:13:321;0;4;-1.5;1;0;0;0;0;1;1;1;1;0;0;0;;0;0;();();(-2000.0, -2000.0);
09:12:13:337;09:12:13:336;1448051291.31;(0.4509244918823242, 0.3958892822265625);59.8285064697;1.0;09:12:13:337;0;10;-1.5;1;0;0;0;0;1;1;1;1;0;0;0;;0;0;();();(-2000.0, -2000.0);
09:12:13:355;09:12:13:336;1448051291.31;(0.4509244918823242, 0.3958892822265625);59.8285064697;1.0;09:12:13:355;0;4;-1.5;1;0;0;0;0;1;1;1;1;0;0;0;;0;0;();();(-2000.0, -2000.0);
09:12:13:371;09:12:13:336;1448051291.31;(0.4509244918823242, 0.3958892822265625);59.8285064697;1.0;09:12:13:371;0;9;-1.5;1;0;0;0;0;1;1;1;1;0;0;0;;0;0;();();(-2000.0, -2000.0);
09:12:13:404;09:12:13:399;1448051291.34;(0.4500926971435547, 0.39613931443956163);60.499786377;1.0;09:12:13:404;0;10;-1.5;1;0;0;0;0;1;1;1;1;0;0;0;;0;0;();();(-2000.0, -2000.0);
09:12:13:421;09:12:13:399;1448051291.34;(0.4500926971435547, 0.39613931443956163);60.499786377;1.0;09:12:13:421;0;10;-1.5;1;0;0;0;0;1;1;1;1;0;0;0;;0;0;();();(-2000.0, -2000.0);
09:12:13:437;09:12:13:399;1448051291.34;(0.4500926971435547, 0.39613931443956163);60.499786377;1.0;09:12:13:437;0;9;-1.5;1;0;0;0;0;1;1;1;1;0;0;0;;0;0;();();(-2000.0, -2000.0);
09:12:13:454;09:12:13:399;1448051291.34;(0.4500926971435547, 0.39613931443956163);60.499786377;1.0;09:12:13:454;0;0;-1.5;1;0;0;0;0;1;1;1;1;0;0;0;;0;0;();();(-2000.0, -2000.0);
09:12:13:471;09:12:13:469;1448051291.41;(0.44951705932617186, 0.3969946119520399);60.9488868713;1.0;09:12:13:471;0;10;-1.5;1;0;0;0;0;1;1;1;1;0;0;0;;0;0;();();(-2000.0, -2000.0);
09:12:13:504;09:12:13:469;1448051291.41;(0.44951705932617186, 0.3969946119520399);60.9488868713;1.0;09:12:13:504;0;10;-1.5;1;0;0;0;0;1;1;1;1;0;0;0;;0;0;();();(-2000.0, -2000.0);
09:12:13:521;09:12:13:469;1448051291.41;(0.44951705932617186, 0.3969946119520399);60.9488868713;1.0;09:12:13:521;0;15;-1.5;170.5;0.684261974584555;0;0;0;1;1;1;1;0;0;0;;0;0;();();(-2000.0, -2000.0);
09:12:13:538;09:12:13:532;1448051291.49;(0.40543763637542723, 0.4078720516628689);62.4251022339;1.0;09:12:13:538;0;9;-1.5;170.5;0.684261974584555;0;0;0;1;1;1;1;0;0;0;;0;0;();();(-2000.0, -2000.0);
09:12:13:555;09:12:13:532;1448051291.49;(0.40543763637542723, 0.4078720516628689);62.4251022339;1.0;09:12:13:555;0;15;-1.5;170.5;0.684261974584555;0;0;0;1;1;1;1;0;0;0;;0;0;();();(-2000.0, -2000.0);
09:12:13:571;09:12:13:532;1448051291.49;(0.40543763637542723, 0.4078720516628689);62.4251022339;1.0;09:12:13:571;0;10;-1.5;170.5;0.684261974584555;0;0;0;1;1;1;1;0;0;0;;0;0;();();(-2000.0, -2000.0);
09:12:13:602;09:12:13:600;1448051291.57;(0.4062820911407471, 0.4107080671522353);63.2970581055;1.0;09:12:13:602;0;9;-1.5;170.5;0.684261974584555;0;0;0;1;1;1;1;0;0;0;;0;0;();();(-2000.0, -2000.0);
09:12:13:621;09:12:13:600;1448051291.57;(0.4062820911407471, 0.4107080671522353);63.2970581055;1.0;09:12:13:621;0;15;-1.5;146.142857142857;0.684261974584555;0;0;0;1;1;1;1;0;0;0;;0;0;();();(-2000.0, -2000.0);
09:12:13:637;09:12:13:600;1448051291.57;(0.4062820911407471, 0.4107080671522353);63.2970581055;1.0;09:12:13:637;0;10;-1.5;146.142857142857;0.684261974584555;0;0;0;1;1;1;1;0;0;0;;0;0;();();(-2000.0, -2000.0);
09:12:13:654;09:12:13:600;1448051291.57;(0.4062820911407471, 0.4107080671522353);63.2970581055;1.0;09:12:13:654;0;15;-1.5;146.142857142857;0.684261974584555;0;0;0;1;1;1;1;0;0;0;;0;0;();();(-2000.0, -2000.0);
09:12:13:671;09:12:13:668;1448051291.64;(0.40871295928955076, 0.4086637285020617);63.6837463379;0.889265275217;09:12:13:671;0;4;-1.5;146.142857142857;0.684261974584555;0;0;0;1;1;1;1;0;0;0;;0;0;();();(-2000.0, -2000.0);
09:12:13:704;09:12:13:668;1448051291.64;(0.40871295928955076, 0.4086637285020617);63.6837463379;0.889265275217;09:12:13:704;0;5;-1.5;170.5;0.684261974584555;0;0;0;1;1;1;1;0;0;0;;0;0;();();(-2000.0, -2000.0);
09:12:13:721;09:12:13:668;1448051291.64;(0.40871295928955076, 0.4086637285020617);63.6837463379;0.889265275217;09:12:13:721;0;15;-1.5;146.142857142857;0.684261974584555;0;0;0;1;1;1;1;0;0;0;;0;0;();();(-2000.0, -2000.0);
09:12:13:738;09:12:13:731;1448051291.67;(0.4116673946380615, 0.40782246059841576);63.599029541;1.0;09:12:13:738;0;4;-1.5;170.5;0.684261974584555;0;0;0;1;1;1;1;0;0;0;;0;0;();();(-2000.0, -2000.0);
09:12:13:754;09:12:13:731;1448051291.67;(0.4116673946380615, 0.40782246059841576);63.599029541;1.0;09:12:13:754;0;9;-1.5;170.5;0.684261974584555;0;0;0;1;1;1;1;0;0;0;;0;0;();();(-2000.0, -2000.0);
09:12:13:771;09:12:13:731;1448051291.67;(0.4116673946380615, 0.40782246059841576);63.599029541;1.0;09:12:13:771;0;9;-1.5;170.5;0.684261974584555;0;0;0;1;1;1;1;0;0;0;;0;0;();();(-2000.0, -2000.0);
09:12:13:805;09:12:13:799;1448051291.75;(0.3572425842285156, 0.40139694213867183);65.3872070312;1.0;09:12:13:805;0;10;-1.5;170.5;0.684261974584555;0;0;0;1;1;1;1;0;0;0;;0;0;();();(-2000.0, -2000.0);
09:12:13:821;09:12:13:799;1448051291.75;(0.3572425842285156, 0.40139694213867183);65.3872070312;1.0;09:12:13:821;0;10;-1.5;170.5;0.684261974584555;0;0;0;1;1;1;1;0;0;0;;0;0;();();(-2000.0, -2000.0);
09:12:13:838;09:12:13:799;1448051291.75;(0.3572425842285156, 0.40139694213867183);65.3872070312;1.0;09:12:13:838;0;15;-1.5;170.5;0.684261974584555;0;0;0;1;1;1;1;0;0;0;;0;0;();();(-2000.0, -2000.0);
09:12:13:854;09:12:13:799;1448051291.75;(0.3572425842285156, 0.40139694213867183);65.3872070312;1.0;09:12:13:854;0;9;-1.5;146.142857142857;0.684261974584555;0;0;0;1;1;1;1;0;0;0;;0;0;();();(-2000.0, -2000.0);
09:12:13:871;09:12:13:864;1448051291.81;(0.36104249954223633, 0.40165981716579857);64.4446334839;1.0;09:12:13:871;0;5;-1.5;170.5;0.684261974584555;0;0;0;1;1;1;1;0;0;0;;0;0;();();(-2000.0, -2000.0);
09:12:13:906;09:12:13:864;1448051291.81;(0.36104249954223633, 0.40165981716579857);64.4446334839;1.0;09:12:13:906;0;15;-1.45161290322581;341;1.17302052785924;0;0;0;1;1;1;1;0;0;0;;0;0;();();(-2000.0, -2000.0);
09:12:13:921;09:12:13:864;1448051291.81;(0.36104249954223633, 0.40165981716579857);64.4446334839;1.0;09:12:13:921;0;10;-1.4;341;1.46627565982405;0;0;0;1;1;1;1;0;0;0;;0;0;();();(-2000.0, -2000.0);
09:12:13:937;09:12:13:864;1448051291.81;(0.36104249954223633, 0.40165981716579857);64.4446334839;1.0;09:12:13:937;0;15;-1.36129032258065;341;1.66177908113392;0;0;0;1;1;1;1;0;0;0;;0;0;();();(-2000.0, -2000.0);
09:12:13:955;09:12:13:940;1448051291.88;(0.368330717086792, 0.4008373684353299);64.3748855591;1.0;09:12:13:955;0;5;-1.38709677419355;341;1.36852394916911;0;0;0;1;1;1;1;0;0;0;;0;0;();();(-2000.0, -2000.0);
09:12:13:971;09:12:13:940;1448051291.88;(0.368330717086792, 0.4008373684353299);64.3748855591;1.0;09:12:13:971;0;8;-1.4;341;1.36852394916911;0;0;0;1;1;1;1;0;0;0;;0;0;();();(-2000.0, -2000.0);
09:12:14:004;09:12:13:999;1448051291.95;(0.37443411350250244, 0.4010904100206163);63.589263916;1.0;09:12:14:004;0;15;-1.45161290322581;341;1.17302052785924;0;0;0;1;1;1;1;0;0;0;;0;0;();();(-2000.0, -2000.0);
09:12:14:022;09:12:13:999;1448051291.95;(0.37443411350250244, 0.4010904100206163);63.589263916;1.0;09:12:14:022;0;5;-1.48064516129032;341;0.684261974584555;0;0;0;1;1;1;1;0;0;0;;0;0;();();(-2000.0, -2000.0);
09:12:14:038;09:12:13:999;1448051291.95;(0.37443411350250244, 0.4010904100206163);63.589263916;1.0;09:12:14:038;0;5;-1.48064516129032;341;0.684261974584555;0;0;0;1;1;1;1;0;0;0;;0;0;();();(-2000.0, -2000.0);
09:12:14:055;09:12:13:999;1448051291.95;(0.37443411350250244, 0.4010904100206163);63.589263916;1.0;09:12:14:055;0;4;-1.5;146.142857142857;0.684261974584555;0;0;0;1;1;1;1;0;0;0;;0;0;();();(-2000.0, -2000.0);
09:12:14:071;09:12:14:064;1448051292.01;(0, 0);0;0;09:12:14:071;0;15;-1.5;146.142857142857;0.684261974584555;0;0;0;1;1;1;1;0;0;0;;0;0;();();(-2000.0, -2000.0);
09:12:14:104;09:12:14:064;1448051292.01;(0, 0);0;0;09:12:14:104;0;10;-1.5;146.142857142857;0.684261974584555;0;0;0;1;1;1;1;0;0;0;;0;0;();();(-2000.0, -2000.0);
09:12:14:122;09:12:14:064;1448051292.01;(0, 0);0;0;09:12:14:122;0;5;-1.5;170.5;0.684261974584555;0;0;0;1;1;1;1;0;0;0;;0;0;();();(-2000.0, -2000.0);
09:12:14:138;09:12:14:137;1448051292.11;(0.38585405349731444, 0.39237636990017366);59.8346138;0.805275705783;09:12:14:138;0;15;-1.5;146.142857142857;0.684261974584555;0;0;0;1;1;1;1;0;0;0;;0;0;();();(-2000.0, -2000.0);
09:12:14:155;09:12:14:137;1448051292.11;(0.38585405349731444, 0.39237636990017366);59.8346138;0.805275705783;09:12:14:155;0;4;-1.5;170.5;0.684261974584555;0;0;0;1;1;1;1;0;0;0;;0;0;();();(-2000.0, -2000.0);
09:12:14:171;09:12:14:137;1448051292.11;(0.38585405349731444, 0.39237636990017366);59.8346138;0.805275705783;09:12:14:171;0;9;-1.5;170.5;0.684261974584555;0;0;0;1;1;1;1;0;0;0;;0;0;();();(-2000.0, -2000.0);
09:12:14:204;09:12:14:196;1448051292.14;(0.38805136680603025, 0.3938898722330729);60.4833106995;1.0;09:12:14:204;0;15;-1.5;85.2500000000001;1.17302052785924;0;0;0;1;1;1;1;0;0;0;;0;0;();();(-2000.0, -2000.0);
09:12:14:222;09:12:14:196;1448051292.14;(0.38805136680603025, 0.3938898722330729);60.4833106995;1.0;09:12:14:222;0;4;-1.5;170.5;0.684261974584555;0;0;0;1;1;1;1;0;0;0;;0;0;();();(-2000.0, -2000.0);
09:12:14:238;09:12:14:196;1448051292.14;(0.38805136680603025, 0.3938898722330729);60.4833106995;1.0;09:12:14:238;0;9;-1.5;170.5;0.684261974584555;0;0;0;1;1;1;1;0;0;0;;0;0;();();(-2000.0, -2000.0);
09:12:14:255;09:12:14:196;1448051292.14;(0.38805136680603025, 0.3938898722330729);60.4833106995;1.0;09:12:14:255;0;12;-1.5;170.5;0.684261974584555;0;0;0;1;1;1;1;0;0;0;;0;0;();();(-2000.0, -2000.0);
09:12:14:272;09:12:14:264;1448051292.24;(0.38967697620391845, 0.3965699089898004);60.8620300293;1.0;09:12:14:272;0;10;-1.5;170.5;0.684261974584555;0;0;0;1;1;1;1;0;0;0;;0;0;();();(-2000.0, -2000.0);
09:12:14:304;09:12:14:264;1448051292.24;(0.38967697620391845, 0.3965699089898004);60.8620300293;1.0;09:12:14:304;0;2;-1.5;170.5;0.684261974584555;0;0;0;1;1;1;1;0;0;0;;0;0;();();(-2000.0, -2000.0);
09:12:14:321;09:12:14:264;1448051292.24;(0.38967697620391845, 0.3965699089898004);60.8620300293;1.0;09:12:14:321;0;4;-1.5;146.142857142857;0.684261974584555;0;0;0;1;1;1;1;0;0;0;;0;0;();();(-2000.0, -2000.0);
09:12:14:339;09:12:14:332;1448051292.31;(0.38799097537994387, 0.39856749640570743);60.800693512;1.0;09:12:14:339;0;9;-1.5;170.5;0.684261974584555;0;0;0;1;1;1;1;0;0;0;;0;0;();();(-2000.0, -2000.0);
09:12:14:355;09:12:14:332;1448051292.31;(0.38799097537994387, 0.39856749640570743);60.800693512;1.0;09:12:14:355;0;15;-1.5;170.5;0.684261974584555;0;0;0;1;1;1;1;0;0;0;;0;0;();();(-2000.0, -2000.0);
09:12:14:372;09:12:14:332;1448051292.31;(0.38799097537994387, 0.39856749640570743);60.800693512;1.0;09:12:14:372;0;10;-1.5;170.5;0.684261974584555;0;0;0;1;1;1;1;0;0;0;;0;0;();();(-2000.0, -2000.0);
09:12:14:405;09:12:14:395;1448051292.37;(0.38654379844665526, 0.39961759779188366);61.5551147461;1.0;09:12:14:405;0;10;-1.5;1;0;0;0;0;1;1;1;1;0;0;0;;0;0;();();(-2000.0, -2000.0);
09:12:14:421;09:12:14:395;1448051292.37;(0.38654379844665526, 0.39961759779188366);61.5551147461;1.0;09:12:14:421;0;0;-1.42258064516129;1;0.293255131964809;0;0;0;1;1;1;1;0;0;0;;0;0;();();(-2000.0, -2000.0);
09:12:14:439;09:12:14:395;1448051292.37;(0.38654379844665526, 0.39961759779188366);61.5551147461;1.0;09:12:14:439;0;0;-1.42258064516129;1;0.293255131964809;0;0;0;1;1;1;1;0;0;0;;0;0;();();(-2000.0, -2000.0);
09:12:14:455;09:12:14:395;1448051292.37;(0.38654379844665526, 0.39961759779188366);61.5551147461;1.0;09:12:14:455;0;15;-1.2741935483871;1;1.17302052785924;0;0;0;1;1;1;1;0;0;0;;0;0;();();(-2000.0, -2000.0);
09:12:14:472;09:12:14:464;1448051292.41;(0.3861751317977905, 0.39999525282118054);61.7999534607;1.0;09:12:14:472;0;12;-1.20322580645161;1.00097847358121;1.85728250244379;0;0;0;1;1;1;1;0;0;0;;0;0;();();(-2000.0, -2000.0);
09:12:14:505;09:12:14:464;1448051292.41;(0.3861751317977905, 0.39999525282118054);61.7999534607;1.0;09:12:14:505;0;5;-1.2741935483871;1;1.17302052785924;0;0;0;1;1;1;1;0;0;0;;0;0;();();(-2000.0, -2000.0);
09:12:14:521;09:12:14:464;1448051292.41;(0.3861751317977905, 0.39999525282118054);61.7999534607;1.0;09:12:14:521;0;15;-1.24516129032258;1;1.46627565982405;0;0;0;1;1;1;1;0;0;0;;0;0;();();(-2000.0, -2000.0);
09:12:14:538;09:12:14:528;1448051292.47;(0.3858342170715332, 0.3995051913791232);62.5074996948;1.0;09:12:14:538;0;15;-1.24516129032258;1.00097847358121;1.46627565982405;0;0;0;1;1;1;1;0;0;0;;0;0;();();(-2000.0, -2000.0);
09:12:14:555;09:12:14:528;1448051292.47;(0.3858342170715332, 0.3995051913791232);62.5074996948;1.0;09:12:14:555;0;10;-1.30645161290323;1;1.17302052785924;0;0;0;1;1;1;1;0;0;0;;0;0;();();(-2000.0, -2000.0);
09:12:14:572;09:12:14:528;1448051292.47;(0.3858342170715332, 0.3995051913791232);62.5074996948;1.0;09:12:14:572;0;4;-1.20322580645161;1.00097847358121;1.85728250244379;0;0;0;1;1;1;1;0;0;0;;0;0;();();(-2000.0, -2000.0);
09:12:14:606;09:12:14:596;1448051292.54;(0, 0);0;0;09:12:14:606;0;5;-1.2741935483871;1;1.17302052785924;0;0;0;1;1;1;1;0;0;0;;0;0;();();(-2000.0, -2000.0);
09:12:14:622;09:12:14:596;1448051292.54;(0, 0);0;0;09:12:14:622;0;10;-1.2741935483871;1;1.17302052785924;0;0;0;1;1;1;1;0;0;0;;0;0;();();(-2000.0, -2000.0);
09:12:14:638;09:12:14:596;1448051292.54;(0, 0);0;0;09:12:14:638;0;4;-1.24516129032258;1.00097847358121;1.46627565982405;0;0;0;1;1;1;1;0;0;0;;0;0;();();(-2000.0, -2000.0);
09:12:14:655;09:12:14:596;1448051292.54;(0, 0);0;0;09:12:14:655;0;9;-1.2741935483871;1;1.17302052785924;0;0;0;1;1;1;1;0;0;0;;0;0;();();(-2000.0, -2000.0);
09:12:14:671;09:12:14:663;1448051292.61;(0.44701061248779295, 0.3806081983778212);52.4432258606;0.646573042605;09:12:14:671;0;5;-1.20322580645161;1.00097847358121;1.85728250244379;0;0;0;1;1;1;1;0;0;0;;0;0;();();(-2000.0, -2000.0);
09:12:14:705;09:12:14:663;1448051292.61;(0.44701061248779295, 0.3806081983778212);52.4432258606;0.646573042605;09:12:14:705;0;4;-1.37741935483871;1;0.586510263929619;0;0;0;1;1;1;1;0;0;0;;0;0;();();(-2000.0, -2000.0);
09:12:14:722;09:12:14:663;1448051292.61;(0.44701061248779295, 0.3806081983778212);52.4432258606;0.646573042605;09:12:14:722;0;9;-1.42258064516129;1;0.293255131964809;0;0;0;1;1;1;1;0;0;0;;0;0;();();(-2000.0, -2000.0);
09:12:14:738;09:12:14:728;1448051292.71;(0.4482441425323486, 0.3949303521050347);62.6350822449;0.929647443906;09:12:14:738;0;5;-1.45161290322581;1;0.0977517106549365;0;0;0;1;1;1;1;0;0;0;;0;0;();();(-2000.0, -2000.0);
09:12:14:755;09:12:14:728;1448051292.71;(0.4482441425323486, 0.3949303521050347);62.6350822449;0.929647443906;09:12:14:755;0;10;-1.49032258064516;170.5;0.684261974584555;0;0;0;1;1;1;1;0;0;0;;0;0;();();(-2000.0, -2000.0);
09:12:14:772;09:12:14:728;1448051292.71;(0.4482441425323486, 0.3949303521050347);62.6350822449;0.929647443906;09:12:14:772;0;15;-1.5;146.142857142857;0.684261974584555;0;0;0;1;1;1;1;0;0;0;;0;0;();();(-2000.0, -2000.0);
09:12:14:805;09:12:14:796;1448051292.77;(0.4479662418365479, 0.39801966349283857);62.7068252563;1.0;09:12:14:805;0;15;-1.5;146.142857142857;0.684261974584555;0;0;0;1;1;1;1;0;0;0;;0;0;();();(-2000.0, -2000.0);
09:12:14:822;09:12:14:796;1448051292.77;(0.4479662418365479, 0.39801966349283857);62.7068252563;1.0;09:12:14:822;0;9;-1.5;170.5;0.684261974584555;0;0;0;1;1;1;1;0;0;0;;0;0;();();(-2000.0, -2000.0);
09:12:14:838;09:12:14:796;1448051292.77;(0.4479662418365479, 0.39801966349283857);62.7068252563;1.0;09:12:14:838;0;9;-1.5;146.142857142857;0.684261974584555;0;0;0;1;1;1;1;0;0;0;;0;0;();();(-2000.0, -2000.0);
09:12:14:855;09:12:14:796;1448051292.77;(0.4479662418365479, 0.39801966349283857);62.7068252563;1.0;09:12:14:855;0;4;-1.5;170.5;0.684261974584555;0;0;0;1;1;1;1;0;0;0;;0;0;();();(-2000.0, -2000.0);
09:12:14:872;09:12:14:860;1448051292.81;(0.4472240447998047, 0.399106682671441);62.8059616089;1.0;09:12:14:872;0;15;-1.5;170.5;0.684261974584555;0;0;0;1;1;1;1;0;0;0;;0;0;();();(-2000.0, -2000.0);
09:12:14:905;09:12:14:860;1448051292.81;(0.4472240447998047, 0.399106682671441);62.8059616089;1.0;09:12:14:905;0;0;-1.5;146.142857142857;0.684261974584555;0;0;0;1;1;1;1;0;0;0;;0;0;();();(-2000.0, -2000.0);
09:12:14:922;09:12:14:860;1448051292.81;(0.4472240447998047, 0.399106682671441);62.8059616089;1.0;09:12:14:921;0;10;-1.5;170.5;0.684261974584555;0;0;0;1;1;1;1;0;0;0;;0;0;();();(-2000.0, -2000.0);
09:12:14:937;09:12:14:927;1448051292.91;(0.4448256015777588, 0.39863925509982634);62.1523895264;1.0;09:12:14:937;0;15;-1.5;146.142857142857;0.684261974584555;0;0;0;1;1;1;1;0;0;0;;0;0;();();(-2000.0, -2000.0);
09:12:14:956;09:12:14:927;1448051292.91;(0.4448256015777588, 0.39863925509982634);62.1523895264;1.0;09:12:14:956;0;4;-1.5;170.5;0.684261974584555;0;0;0;1;1;1;1;0;0;0;;0;0;();();(-2000.0, -2000.0);
09:12:14:972;09:12:14:927;1448051292.91;(0.4448256015777588, 0.39863925509982634);62.1523895264;1.0;09:12:14:972;0;15;-1.5;341;0.586510263929619;0;0;0;1;1;1;1;0;0;0;;0;0;();();(-2000.0, -2000.0);
09:12:15:017;09:12:14:999;1448051292.97;(0.4441213607788086, 0.3970620473225911);62.4323005676;1.0;09:12:15:017;0;4;-1.5;170.5;0.684261974584555;0;0;0;1;1;1;1;2;0;0;;0;0;();();(-2000.0, -2000.0);
09:12:15:046;09:12:14:999;1448051292.97;(0.4441213607788086, 0.3970620473225911);62.4323005676;1.0;09:12:15:046;0;9;-1.5;170.5;0.684261974584555;0;0;0;1;1;1;1;2;0;0;;0;0;();();(-2000.0, -2000.0);
09:12:15:048;09:12:14:999;1448051292.97;(0.4441213607788086, 0.3970620473225911);62.4323005676;1.0;09:12:15:048;0;9;-1.5;170.5;0.684261974584555;0;0;0;1;1;1;1;2;0;0;;0;0;();();(-2000.0, -2000.0);
09:12:15:056;09:12:14:999;1448051292.97;(0.4441213607788086, 0.3970620473225911);62.4323005676;1.0;09:12:15:056;0;9;-1.5;170.5;0.684261974584555;0;0;0;1;1;1;1;2;0;0;;0;0;();();(-2000.0, -2000.0);
09:12:15:072;09:12:15:059;1448051293.04;(0.4436165809631348, 0.3948827531602648);62.8273735046;1.0;09:12:15:072;0;4;-1.5;170.5;0.684261974584555;0;0;0;1;1;1;1;2;0;0;;0;0;();();(-2000.0, -2000.0);
09:12:15:106;09:12:15:059;1448051293.04;(0.4436165809631348, 0.3948827531602648);62.8273735046;1.0;09:12:15:106;0;15;-1.5;170.5;0.684261974584555;0;0;0;1;1;1;1;2;0;0;;0;0;();();(-2000.0, -2000.0);
09:12:15:122;09:12:15:059;1448051293.04;(0.4436165809631348, 0.3948827531602648);62.8273735046;1.0;09:12:15:122;0;15;-1.5;170.5;0.684261974584555;0;0;0;1;1;1;1;2;0;0;;0;0;();();(-2000.0, -2000.0);
09:12:15:139;09:12:15:127;1448051293.11;(0.44266233444213865, 0.39438624911838105);62.7363052368;1.0;09:12:15:139;0;10;-1.5;146.142857142857;0.684261974584555;0;0;0;1;1;1;1;2;0;0;;0;0;();();(-2000.0, -2000.0);
09:12:15:156;09:12:15:127;1448051293.11;(0.44266233444213865, 0.39438624911838105);62.7363052368;1.0;09:12:15:156;0;10;-1.5;170.5;0.684261974584555;0;0;0;1;1;1;1;2;0;0;;0;0;();();(-2000.0, -2000.0);
09:12:15:173;09:12:15:127;1448051293.11;(0.44266233444213865, 0.39438624911838105);62.7363052368;1.0;09:12:15:173;0;10;-1.5;146.142857142857;0.684261974584555;0;0;0;1;1;1;1;2;0;0;;0;0;();();(-2000.0, -2000.0);
09:12:15:205;09:12:15:192;1448051293.14;(0.4422131538391113, 0.3945919884575738);63.1127510071;1.0;09:12:15:205;0;4;-1.5;170.5;0.684261974584555;0;0;0;1;1;1;1;2;0;0;;0;0;();();(-2000.0, -2000.0);
09:12:15:222;09:12:15:192;1448051293.14;(0.4422131538391113, 0.3945919884575738);63.1127510071;1.0;09:12:15:222;0;0;-1.5;146.142857142857;0.684261974584555;0;0;0;1;1;1;1;2;0;0;;0;0;();();(-2000.0, -2000.0);
09:12:15:239;09:12:15:192;1448051293.14;(0.4422131538391113, 0.3945919884575738);63.1127510071;1.0;09:12:15:239;0;10;-1.5;170.5;0.684261974584555;0;0;0;1;1;1;1;2;0;0;;0;0;();();(-2000.0, -2000.0);
09:12:15:256;09:12:15:192;1448051293.14;(0.4422131538391113, 0.3945919884575738);63.1127510071;1.0;09:12:15:256;0;15;-1.5;85.2500000000001;1.17302052785924;0;0;0;1;1;1;1;2;0;0;;0;0;();();(-2000.0, -2000.0);
09:12:15:271;09:12:15:260;1448051293.24;(0.4404036521911621, 0.39975488450792096);62.9088745117;0.991543556857;09:12:15:271;0;10;-1.5;170.5;0.684261974584555;0;0;0;1;1;1;1;2;0;0;;0;0;();();(-2000.0, -2000.0);
09:12:15:305;09:12:15:260;1448051293.24;(0.4404036521911621, 0.39975488450792096);62.9088745117;0.991543556857;09:12:15:305;0;5;-1.5;146.142857142857;0.684261974584555;0;0;0;1;1;1;1;2;0;0;;0;0;();();(-2000.0, -2000.0);
09:12:15:323;09:12:15:260;1448051293.24;(0.4404036521911621, 0.39975488450792096);62.9088745117;0.991543556857;09:12:15:323;0;15;-1.5;170.5;0.684261974584555;0;0;0;1;1;1;1;2;0;0;;0;0;();();(-2000.0, -2000.0);
09:12:15:339;09:12:15:324;1448051293.31;(0.4386458873748779, 0.40269970364040797);62.9828109741;1.0;09:12:15:339;0;4;-1.5;170.5;0.684261974584555;0;0;0;1;1;1;1;2;0;0;;0;0;();();(-2000.0, -2000.0);
09:12:15:356;09:12:15:324;1448051293.31;(0.4386458873748779, 0.40269970364040797);62.9828109741;1.0;09:12:15:356;0;9;-1.5;170.5;0.684261974584555;0;0;0;1;1;1;1;2;0;0;;0;0;();();(-2000.0, -2000.0);
09:12:15:372;09:12:15:324;1448051293.31;(0.4386458873748779, 0.40269970364040797);62.9828109741;1.0;09:12:15:372;0;4;-1.5;85.2500000000001;1.17302052785924;0;0;0;1;1;1;1;2;0;0;;0;0;();();(-2000.0, -2000.0);
09:12:15:405;09:12:15:391;1448051293.34;(0.4377164363861084, 0.40303620232476134);62.926864624;1.0;09:12:15:405;0;5;-1.5;170.5;0.684261974584555;0;0;0;1;1;1;1;2;0;0;;0;0;();();(-2000.0, -2000.0);
09:12:15:422;09:12:15:391;1448051293.34;(0.4377164363861084, 0.40303620232476134);62.926864624;1.0;09:12:15:422;0;10;-1.5;170.5;0.684261974584555;0;0;0;1;1;1;1;2;0;0;;0;0;();();(-2000.0, -2000.0);
09:12:15:440;09:12:15:391;1448051293.34;(0.4377164363861084, 0.40303620232476134);62.926864624;1.0;09:12:15:440;0;15;-1.5;170.5;0.684261974584555;0;0;0;1;1;1;1;2;0;0;;0;0;();();(-2000.0, -2000.0);
09:12:15:457;09:12:15:391;1448051293.34;(0.4377164363861084, 0.40303620232476134);62.926864624;1.0;09:12:15:457;0;10;-1.5;146.142857142857;0.684261974584555;0;0;0;1;1;1;1;2;0;0;;0;0;();();(-2000.0, -2000.0);
09:12:15:473;09:12:15:461;1448051293.44;(0.43574814796447753, 0.40324075486924915);63.5371665955;1.0;09:12:15:473;0;15;-1.5;170.5;0.684261974584555;0;0;0;1;1;1;1;2;0;0;;0;0;();();(-2000.0, -2000.0);
09:12:15:506;09:12:15:461;1448051293.44;(0.43574814796447753, 0.40324075486924915);63.5371665955;1.0;09:12:15:506;0;10;-1.5;170.5;0.684261974584555;0;0;0;1;1;1;1;2;0;0;;0;0;();();(-2000.0, -2000.0);
09:12:15:522;09:12:15:461;1448051293.44;(0.43574814796447753, 0.40324075486924915);63.5371665955;1.0;09:12:15:522;0;9;-1.5;170.5;0.684261974584555;0;0;0;1;1;1;1;2;0;0;;0;0;();();(-2000.0, -2000.0);
09:12:15:539;09:12:15:524;1448051293.47;(0.43554201126098635, 0.4031221601698134);63.4111747742;1.0;09:12:15:539;0;0;-1.5;85.2500000000001;1.17302052785924;0;0;0;1;1;1;1;2;0;0;;0;0;();();(-2000.0, -2000.0);
09:12:15:556;09:12:15:524;1448051293.47;(0.43554201126098635, 0.4031221601698134);63.4111747742;1.0;09:12:15:556;0;10;-1.5;170.5;0.684261974584555;0;0;0;1;1;1;1;2;0;0;;0;0;();();(-2000.0, -2000.0);
09:12:15:573;09:12:15:524;1448051293.47;(0.43554201126098635, 0.4031221601698134);63.4111747742;1.0;09:12:15:573;0;15;-1.5;146.142857142857;0.684261974584555;0;0;0;1;1;1;1;2;0;0;;0;0;();();(-2000.0, -2000.0);
09:12:15:604;09:12:15:592;1448051293.57;(0.4338968276977539, 0.40194380018446185);63.3419265747;0.853790675028;09:12:15:604;0;0;-1.5;170.5;0.684261974584555;0;0;0;1;1;1;1;2;0;0;;0;0;();();(-2000.0, -2000.0);
09:12:15:623;09:12:15:592;1448051293.57;(0.4338968276977539, 0.40194380018446185);63.3419265747;0.853790675028;09:12:15:623;0;5;-1.5;146.142857142857;0.684261974584555;0;0;0;1;1;1;1;2;0;0;;0;0;();();(-2000.0, -2000.0);
09:12:15:639;09:12:15:592;1448051293.57;(0.4338968276977539, 0.40194380018446185);63.3419265747;0.853790675028;09:12:15:639;0;15;-1.5;170.5;0.684261974584555;0;0;0;1;1;1;1;2;0;0;;0;0;();();(-2000.0, -2000.0);
09:12:15:656;09:12:15:655;1448051293.61;(0.41707136631011965, 0.3937525007459852);63.8036308289;1.0;09:12:15:656;0;4;-1.5;170.5;0.684261974584555;0;0;0;1;1;1;1;2;0;0;;0;0;();();(-2000.0, -2000.0);
09:12:15:673;09:12:15:655;1448051293.61;(0.41707136631011965, 0.3937525007459852);63.8036308289;1.0;09:12:15:673;0;0;-1.5;170.5;0.684261974584555;0;0;0;1;1;1;1;2;0;0;;0;0;();();(-2000.0, -2000.0);
09:12:15:706;09:12:15:655;1448051293.61;(0.41707136631011965, 0.3937525007459852);63.8036308289;1.0;09:12:15:706;0;0;-1.5;170.5;0.684261974584555;0;0;0;1;1;1;1;2;0;0;;0;0;();();(-2000.0, -2000.0);
09:12:15:722;09:12:15:655;1448051293.61;(0.41707136631011965, 0.3937525007459852);63.8036308289;1.0;09:12:15:722;0;0;-1.5;170.5;0.684261974584555;0;0;0;1;1;1;1;2;0;0;;0;0;();();(-2000.0, -2000.0);
09:12:15:739;09:12:15:723;1448051293.71;(0.4197099685668945, 0.39640036688910585);62.7530097961;1.0;09:12:15:739;0;9;-1.5;170.5;0.684261974584555;0;0;0;1;1;1;1;2;0;0;;0;0;();();(-2000.0, -2000.0);
09:12:15:757;09:12:15:723;1448051293.71;(0.4197099685668945, 0.39640036688910585);62.7530097961;1.0;09:12:15:757;0;4;-1.5;170.5;0.684261974584555;0;0;0;1;1;1;1;2;0;0;;0;0;();();(-2000.0, -2000.0);
09:12:15:773;09:12:15:723;1448051293.71;(0.4197099685668945, 0.39640036688910585);62.7530097961;1.0;09:12:15:773;0;9;-1.5;170.5;0.684261974584555;0;0;0;1;1;1;1;2;0;0;;0;0;();();(-2000.0, -2000.0);
09:12:15:807;09:12:15:792;1448051293.77;(0.42004923820495604, 0.39742101033528643);62.4055900574;1.0;09:12:15:807;0;9;-1.4;1;0.293255131964809;0;0;0;1;1;1;1;2;0;0;;0;0;();();(-2000.0, -2000.0);
09:12:15:822;09:12:15:792;1448051293.77;(0.42004923820495604, 0.39742101033528643);62.4055900574;1.0;09:12:15:822;0;4;-1.36774193548387;1;0.684261974584555;0;0;0;1;1;1;1;2;0;0;;0;0;();();(-2000.0, -2000.0);
09:12:15:839;09:12:15:792;1448051293.77;(0.42004923820495604, 0.39742101033528643);62.4055900574;1.0;09:12:15:839;0;9;-1.2741935483871;1;1.17302052785924;0;0;0;1;1;1;1;2;0;0;;0;0;();();(-2000.0, -2000.0);
09:12:15:857;09:12:15:792;1448051293.77;(0.42004923820495604, 0.39742101033528643);62.4055900574;1.0;09:12:15:857;0;5;-1.2741935483871;1;1.17302052785924;0;0;0;1;1;1;1;2;0;0;;0;0;();();(-2000.0, -2000.0);
09:12:15:872;09:12:15:792;1448051293.77;(0.42004923820495604, 0.39742101033528643);62.4055900574;1.0;09:12:15:872;0;10;-1.30645161290323;1;1.17302052785924;0;0;0;1;1;1;1;2;0;0;;0;0;();();(-2000.0, -2000.0);
09:12:15:907;09:12:15:875;1448051293.81;(0.41852526664733886, 0.3936611175537109);61.9169235229;1.0;09:12:15:907;0;10;-1.2741935483871;1;1.17302052785924;0;0;0;1;1;1;1;2;0;0;;0;0;();();(-2000.0, -2000.0);
09:12:15:923;09:12:15:875;1448051293.81;(0.41852526664733886, 0.3936611175537109);61.9169235229;1.0;09:12:15:923;0;15;-1.2741935483871;1;1.17302052785924;0;0;0;1;1;1;1;2;0;0;;0;0;();();(-2000.0, -2000.0);
09:12:15:938;09:12:15:926;1448051293.87;(0.40473337173461915, 0.34365781148274743);28.8031044006;0.731467579879;09:12:15:938;0;10;-1.24516129032258;1;1.46627565982405;0;0;0;1;1;1;1;2;0;0;;0;0;();();(-2000.0, -2000.0);
09:12:15:957;09:12:15:926;1448051293.87;(0.40473337173461915, 0.34365781148274743);28.8031044006;0.731467579879;09:12:15:957;0;5;-1.2741935483871;1;1.17302052785924;0;0;0;1;1;1;1;2;0;0;;0;0;();();(-2000.0, -2000.0);
09:12:15:973;09:12:15:926;1448051293.87;(0.40473337173461915, 0.34365781148274743);28.8031044006;0.731467579879;09:12:15:973;0;10;-1.2741935483871;1;1.17302052785924;0;0;0;1;1;1;1;2;0;0;;0;0;();();(-2000.0, -2000.0);
09:12:16:006;09:12:15:994;1448051293.94;(0.43246328830718994, 0.3849925147162543);58.6746635437;0.713974388364;09:12:16:006;0;9;-1.2741935483871;1;1.17302052785924;0;0;0;1;1;1;1;2;0;0;;0;0;();();(-2000.0, -2000.0);
09:12:16:024;09:12:15:994;1448051293.94;(0.43246328830718994, 0.3849925147162543);58.6746635437;0.713974388364;09:12:16:024;0;0;-1.2741935483871;1;1.17302052785924;0;0;0;1;1;1;1;2;0;0;;0;0;();();(-2000.0, -2000.0);
09:12:16:040;09:12:15:994;1448051293.94;(0.43246328830718994, 0.3849925147162543);58.6746635437;0.713974388364;09:12:16:040;0;5;-1.2741935483871;1;1.17302052785924;0;0;0;1;1;1;1;2;0;0;;0;0;();();(-2000.0, -2000.0);
09:12:16:057;09:12:16:055;1448051294.01;(0.4314596176147461, 0.3914212120903863);61.0063552856;1.0;09:12:16:057;0;15;-1.2741935483871;1;1.17302052785924;0;0;0;1;1;1;1;2;0;0;;0;0;();();(-2000.0, -2000.0);
09:12:16:074;09:12:16:055;1448051294.01;(0.4314596176147461, 0.3914212120903863);61.0063552856;1.0;09:12:16:074;0;4;-1.2741935483871;1;1.17302052785924;0;0;0;1;1;1;1;2;0;0;;0;0;();();(-2000.0, -2000.0);
09:12:16:107;09:12:16:055;1448051294.01;(0.4314596176147461, 0.3914212120903863);61.0063552856;1.0;09:12:16:107;0;5;-1.2741935483871;341;3.03030303030303;0;0;0;1;1;1;1;2;0;0;;0;0;();();(-2000.0, -2000.0);
09:12:16:123;09:12:16:055;1448051294.01;(0.4314596176147461, 0.3914212120903863);61.0063552856;1.0;09:12:16:123;0;10;-1.2741935483871;341;3.03030303030303;0;0;0;1;1;1;1;2;0;0;;0;0;();();(-2000.0, -2000.0);
09:12:16:140;09:12:16:134;1448051294.11;(0.4325153350830078, 0.3951893276638455);62.0259056091;1.0;09:12:16:140;0;4;-1.2741935483871;341;3.03030303030303;0;0;0;1;1;1;1;2;0;0;;0;0;();();(-2000.0, -2000.0);
09:12:16:156;09:12:16:134;1448051294.11;(0.4325153350830078, 0.3951893276638455);62.0259056091;1.0;09:12:16:156;0;9;-1.24516129032258;341;4.3010752688172;0;0;0;1;1;1;1;2;0;0;;0;0;();();(-2000.0, -2000.0);
09:12:16:173;09:12:16:134;1448051294.11;(0.4325153350830078, 0.3951893276638455);62.0259056091;1.0;09:12:16:173;0;0;-1.3258064516129;341;2.44379276637341;0;0;0;1;1;1;1;2;0;0;;0;0;();();(-2000.0, -2000.0);
09:12:16:190;09:12:16:188;1448051294.14;(0.4327012777328491, 0.3956842210557726);62.2472114563;1.0;09:12:16:190;0;10;-1.36774193548387;341;1.66177908113392;0;0;0;1;1;1;1;2;0;0;;0;0;();();(-2000.0, -2000.0);
09:12:16:224;09:12:16:188;1448051294.14;(0.4327012777328491, 0.3956842210557726);62.2472114563;1.0;09:12:16:224;0;10;-1.42258064516129;170.5;1.46627565982405;0;0;0;1;1;1;1;2;0;0;;0;0;();();(-2000.0, -2000.0);
09:12:16:240;09:12:16:188;1448051294.14;(0.4327012777328491, 0.3956842210557726);62.2472114563;1.0;09:12:16:240;0;15;-1.47741935483871;341;0.684261974584555;0;0;0;1;1;1;1;2;0;0;;0;0;();();(-2000.0, -2000.0);
09:12:16:256;09:12:16:255;1448051294.21;(0.43330109119415283, 0.395785140991211);62.7134742737;1.0;09:12:16:256;0;10;-1.49032258064516;170.5;0.684261974584555;0;0;0;1;1;1;1;2;0;0;;0;0;();();(-2000.0, -2000.0);
09:12:16:271;09:12:16:255;1448051294.21;(0.43330109119415283, 0.395785140991211);62.7134742737;1.0;09:12:16:271;0;15;-1.5;170.5;0.684261974584555;0;0;0;1;1;1;1;2;0;0;;0;0;();();(-2000.0, -2000.0);
09:12:16:290;09:12:16:255;1448051294.21;(0.43330109119415283, 0.395785140991211);62.7134742737;1.0;09:12:16:290;0;10;-1.5;170.5;0.684261974584555;0;0;0;1;1;1;1;2;0;0;;0;0;();();(-2000.0, -2000.0);
09:12:16:323;09:12:16:319;1448051294.27;(0.4333925724029541, 0.3956100040011936);63.5693054199;1.0;09:12:16:323;0;15;-1.5;146.142857142857;0.684261974584555;0;0;0;1;1;1;1;2;0;0;;0;0;();();(-2000.0, -2000.0);
09:12:16:340;09:12:16:319;1448051294.27;(0.4333925724029541, 0.3956100040011936);63.5693054199;1.0;09:12:16:340;0;4;-1.5;170.5;0.684261974584555;0;0;0;1;1;1;1;2;0;0;;0;0;();();(-2000.0, -2000.0);
09:12:16:356;09:12:16:319;1448051294.27;(0.4333925724029541, 0.3956100040011936);63.5693054199;1.0;09:12:16:356;0;4;-1.5;170.5;0.684261974584555;0;0;0;1;1;1;1;2;0;0;;0;0;();();(-2000.0, -2000.0);
09:12:16:373;09:12:16:319;1448051294.27;(0.4333925724029541, 0.3956100040011936);63.5693054199;1.0;09:12:16:373;0;10;-1.5;170.5;0.684261974584555;0;0;0;1;1;1;1;2;0;0;;0;0;();();(-2000.0, -2000.0);
09:12:16:390;09:12:16:319;1448051294.27;(0.4333925724029541, 0.3956100040011936);63.5693054199;1.0;09:12:16:390;0;9;-1.5;170.5;0.684261974584555;0;0;0;1;1;1;1;2;0;0;;0;0;();();(-2000.0, -2000.0);
09:12:16:423;09:12:16:400;1448051294.31;(0.4334733963012695, 0.3955867343478733);63.7092666626;1.0;09:12:16:423;0;5;-1.5;170.5;0.684261974584555;0;0;0;1;1;1;1;2;0;0;;0;0;();();(-2000.0, -2000.0);
09:12:16:440;09:12:16:400;1448051294.31;(0.4334733963012695, 0.3955867343478733);63.7092666626;1.0;09:12:16:440;0;5;-1.5;170.5;0.684261974584555;0;0;0;1;1;1;1;2;0;0;;0;0;();();(-2000.0, -2000.0);
09:12:16:457;09:12:16:455;1448051294.41;(0.4111985445022583, 0.3986576504177517);64.3991775513;1.0;09:12:16:457;0;4;-1.5;170.5;0.684261974584555;0;0;0;1;1;1;1;2;0;0;;0;0;();();(-2000.0, -2000.0);
09:12:16:473;09:12:16:455;1448051294.41;(0.4111985445022583, 0.3986576504177517);64.3991775513;1.0;09:12:16:473;0;15;-1.5;85.2500000000001;1.17302052785924;0;0;0;1;1;1;1;2;0;0;;0;0;();();(-2000.0, -2000.0);
09:12:16:490;09:12:16:455;1448051294.41;(0.4111985445022583, 0.3986576504177517);64.3991775513;1.0;09:12:16:490;0;4;-1.5;146.142857142857;0.684261974584555;0;0;0;1;1;1;1;2;0;0;;0;0;();();(-2000.0, -2000.0);
09:12:16:523;09:12:16:519;1448051294.47;(0.4114652395248413, 0.39942131042480467);64.7560577393;1.0;09:12:16:523;0;4;-1.5;170.5;0.684261974584555;0;0;0;1;1;1;1;2;0;0;;0;0;();();(-2000.0, -2000.0);
09:12:16:540;09:12:16:519;1448051294.47;(0.4114652395248413, 0.39942131042480467);64.7560577393;1.0;09:12:16:540;0;10;-1.5;170.5;0.684261974584555;0;0;0;1;1;1;1;2;0;0;;0;0;();();(-2000.0, -2000.0);
09:12:16:556;09:12:16:519;1448051294.47;(0.4114652395248413, 0.39942131042480467);64.7560577393;1.0;09:12:16:556;0;4;-1.5;170.5;0.684261974584555;0;0;0;1;1;1;1;2;0;0;;0;0;();();(-2000.0, -2000.0);
09:12:16:574;09:12:16:519;1448051294.47;(0.4114652395248413, 0.39942131042480467);64.7560577393;1.0;09:12:16:574;0;10;-1.5;146.142857142857;0.684261974584555;0;0;0;1;1;1;1;2;0;0;;0;0;();();(-2000.0, -2000.0);
09:12:16:590;09:12:16:519;1448051294.47;(0.4114652395248413, 0.39942131042480467);64.7560577393;1.0;09:12:16:590;0;5;-1.5;170.5;0.684261974584555;0;0;0;1;1;1;1;2;0;0;;0;0;();();(-2000.0, -2000.0);
09:12:16:624;09:12:16:594;1448051294.54;(0.41177823543548586, 0.39962437947591145);64.7095794678;1.0;09:12:16:624;0;4;-1.5;146.142857142857;0.684261974584555;0;0;0;1;1;1;1;2;0;0;;0;0;();();(-2000.0, -2000.0);
09:12:16:640;09:12:16:594;1448051294.54;(0.41177823543548586, 0.39962437947591145);64.7095794678;1.0;09:12:16:640;0;9;-1.5;170.5;0.684261974584555;0;0;0;1;1;1;1;2;0;0;;0;0;();();(-2000.0, -2000.0);
09:12:16:657;09:12:16:651;1448051294.61;(0.41215980052948, 0.3999919891357422);64.2967681885;1.0;09:12:16:657;0;4;-1.5;170.5;0.684261974584555;0;0;0;1;1;1;1;2;0;0;;0;0;();();(-2000.0, -2000.0);
09:12:16:674;09:12:16:651;1448051294.61;(0.41215980052948, 0.3999919891357422);64.2967681885;1.0;09:12:16:674;0;10;-1.5;170.5;0.684261974584555;0;0;0;1;1;1;1;2;0;0;;0;0;();();(-2000.0, -2000.0);
09:12:16:691;09:12:16:651;1448051294.61;(0.41215980052948, 0.3999919891357422);64.2967681885;1.0;09:12:16:691;0;15;-1.5;170.5;0.684261974584555;0;0;0;1;1;1;1;2;0;0;;0;0;();();(-2000.0, -2000.0);
09:12:16:723;09:12:16:719;1448051294.67;(0.4122591018676758, 0.4002534654405382);64.1695480347;1.0;09:12:16:723;0;15;-1.5;170.5;0.684261974584555;0;0;0;1;1;1;1;2;0;0;;0;0;();();(-2000.0, -2000.0);
09:12:16:740;09:12:16:719;1448051294.67;(0.4122591018676758, 0.4002534654405382);64.1695480347;1.0;09:12:16:740;0;9;-1.5;146.142857142857;0.684261974584555;0;0;0;1;1;1;1;2;0;0;;0;0;();();(-2000.0, -2000.0);
09:12:16:757;09:12:16:719;1448051294.67;(0.4122591018676758, 0.4002534654405382);64.1695480347;1.0;09:12:16:757;0;15;-1.5;170.5;0.684261974584555;0;0;0;1;1;1;1;2;0;0;;0;0;();();(-2000.0, -2000.0);
09:12:16:773;09:12:16:719;1448051294.67;(0.4122591018676758, 0.4002534654405382);64.1695480347;1.0;09:12:16:773;0;10;-1.5;146.142857142857;0.684261974584555;0;0;0;1;1;1;1;2;0;0;;0;0;();();(-2000.0, -2000.0);
09:12:16:790;09:12:16:788;1448051294.74;(0.41142778396606444, 0.39288491143120663);63.0231285095;1.0;09:12:16:790;0;15;-1.5;170.5;0.684261974584555;0;0;0;1;1;1;1;2;0;0;;0;0;();();(-2000.0, -2000.0);
09:12:16:823;09:12:16:788;1448051294.74;(0.41142778396606444, 0.39288491143120663);63.0231285095;1.0;09:12:16:823;0;0;-1.5;146.142857142857;0.684261974584555;0;0;0;1;1;1;1;2;0;0;;0;0;();();(-2000.0, -2000.0);
09:12:16:841;09:12:16:788;1448051294.74;(0.41142778396606444, 0.39288491143120663);63.0231285095;1.0;09:12:16:841;0;5;-1.5;170.5;0.684261974584555;0;0;0;1;1;1;1;2;0;0;;0;0;();();(-2000.0, -2000.0);
09:12:16:857;09:12:16:852;1448051294.81;(0.9326012611389161, 0.8238918198479547);18.2502727509;0.931292078026;09:12:16:857;0;10;-1.5;1;0;0;0;0;1;1;1;1;2;0;0;;0;0;();();(-2000.0, -2000.0);
09:12:16:874;09:12:16:852;1448051294.81;(0.9326012611389161, 0.8238918198479547);18.2502727509;0.931292078026;09:12:16:874;0;4;-1.45161290322581;1;0.0977517106549365;0;0;0;1;1;1;1;2;0;0;;0;0;();();(-2000.0, -2000.0);
09:12:16:891;09:12:16:852;1448051294.81;(0.9326012611389161, 0.8238918198479547);18.2502727509;0.931292078026;09:12:16:891;0;0;-1.38709677419355;1;0.586510263929619;0;0;0;1;1;1;1;2;0;0;;0;0;();();(-2000.0, -2000.0);
09:12:16:924;09:12:16:919;1448051294.87;(0.4297161102294922, 0.4016741010877821);61.6023368835;0.958616282476;09:12:16:924;0;15;-1.20322580645161;1.00097847358121;1.85728250244379;0;0;0;1;1;1;1;2;0;0;;0;0;();();(-2000.0, -2000.0);
09:12:16:940;09:12:16:919;1448051294.87;(0.4297161102294922, 0.4016741010877821);61.6023368835;0.958616282476;09:12:16:940;0;4;-1.2741935483871;1;1.17302052785924;0;0;0;1;1;1;1;2;0;0;;0;0;();();(-2000.0, -2000.0);
09:12:16:957;09:12:16:919;1448051294.87;(0.4297161102294922, 0.4016741010877821);61.6023368835;0.958616282476;09:12:16:957;0;10;-1.24516129032258;1.00097847358121;1.46627565982405;0;0;0;1;1;1;1;2;0;0;;0;0;();();(-2000.0, -2000.0);
09:12:16:974;09:12:16:919;1448051294.87;(0.4297161102294922, 0.4016741010877821);61.6023368835;0.958616282476;09:12:16:974;0;5;-1.2741935483871;1;1.17302052785924;0;0;0;1;1;1;1;2;0;0;;0;0;();();(-2000.0, -2000.0);
09:12:16:991;09:12:16:983;1448051294.94;(0.43064393997192385, 0.40470614963107643);62.7405776978;1.0;09:12:16:991;0;5;-1.2741935483871;1;1.17302052785924;0;0;0;1;1;1;1;2;0;0;;0;0;();();(-2000.0, -2000.0);
09:12:17:024;09:12:16:983;1448051294.94;(0.43064393997192385, 0.40470614963107643);62.7405776978;1.0;09:12:17:024;0;15;-1.2741935483871;1;1.17302052785924;0;0;0;1;1;1;1;2;0;0;;0;0;();();(-2000.0, -2000.0);
09:12:17:040;09:12:16:983;1448051294.94;(0.43064393997192385, 0.40470614963107643);62.7405776978;1.0;09:12:17:040;0;0;-1.2741935483871;1;1.17302052785924;0;0;0;1;1;1;1;2;0;0;;0;0;();();(-2000.0, -2000.0);
09:12:17:057;09:12:17:051;1448051295.01;(0.43195905685424807, 0.4054999033610026);62.9409980774;1.0;09:12:17:057;0;10;-1.2741935483871;1;1.17302052785924;0;0;0;1;1;1;1;2;0;0;;0;0;();();(-2000.0, -2000.0);
09:12:17:074;09:12:17:051;1448051295.01;(0.43195905685424807, 0.4054999033610026);62.9409980774;1.0;09:12:17:074;0;6;-1.2741935483871;1;1.17302052785924;0;0;0;1;1;1;1;2;0;0;;0;0;();();(-2000.0, -2000.0);
09:12:17:091;09:12:17:051;1448051295.01;(0.43195905685424807, 0.4054999033610026);62.9409980774;1.0;09:12:17:091;0;10;-1.2741935483871;1;1.17302052785924;0;0;0;1;1;1;1;2;0;0;;0;0;();();(-2000.0, -2000.0);
09:12:17:124;09:12:17:120;1448051295.07;(0.4324376583099365, 0.40619901021321614);62.9300842285;1.0;09:12:17:124;0;9;-1.2741935483871;1;1.17302052785924;0;0;0;1;1;1;1;2;0;0;;0;0;();();(-2000.0, -2000.0);
09:12:17:140;09:12:17:120;1448051295.07;(0.4324376583099365, 0.40619901021321614);62.9300842285;1.0;09:12:17:140;0;0;-1.24516129032258;1.00097847358121;1.46627565982405;0;0;0;1;1;1;1;2;0;0;;0;0;();();(-2000.0, -2000.0);
09:12:17:157;09:12:17:120;1448051295.07;(0.4324376583099365, 0.40619901021321614);62.9300842285;1.0;09:12:17:157;0;5;-1.2741935483871;1;1.17302052785924;0;0;0;1;1;1;1;2;0;0;;0;0;();();(-2000.0, -2000.0);
09:12:17:174;09:12:17:120;1448051295.07;(0.4324376583099365, 0.40619901021321614);62.9300842285;1.0;09:12:17:174;0;15;-1.2741935483871;1;1.17302052785924;0;0;0;1;1;1;1;2;0;0;;0;0;();();(-2000.0, -2000.0);
09:12:17:191;09:12:17:183;1448051295.14;(0.43271899223327637, 0.40677668253580734);63.0408973694;1.0;09:12:17:191;0;4;-1.2741935483871;1;1.17302052785924;0;0;0;1;1;1;1;2;0;0;;0;0;();();(-2000.0, -2000.0);
09:12:17:224;09:12:17:183;1448051295.14;(0.43271899223327637, 0.40677668253580734);63.0408973694;1.0;09:12:17:224;0;5;-1.24516129032258;1.00097847358121;1.46627565982405;0;0;0;1;1;1;1;2;0;0;;0;0;();();(-2000.0, -2000.0);
09:12:17:241;09:12:17:183;1448051295.14;(0.43271899223327637, 0.40677668253580734);63.0408973694;1.0;09:12:17:241;0;15;-1.24516129032258;1;1.46627565982405;0;0;0;1;1;1;1;2;0;0;;0;0;();();(-2000.0, -2000.0);
09:12:17:257;09:12:17:252;1448051295.21;(0.43295481204986574, 0.4068560706244575);62.9592094421;1.0;09:12:17:257;0;4;-1.2741935483871;1;1.17302052785924;0;0;0;1;1;1;1;2;0;0;;0;0;();();(-2000.0, -2000.0);
09:12:17:274;09:12:17:252;1448051295.21;(0.43295481204986574, 0.4068560706244575);62.9592094421;1.0;09:12:17:274;0;9;-1.2741935483871;1;1.17302052785924;0;0;0;1;1;1;1;2;0;0;;0;0;();();(-2000.0, -2000.0);
09:12:17:291;09:12:17:252;1448051295.21;(0.43295481204986574, 0.4068560706244575);62.9592094421;1.0;09:12:17:291;0;5;-1.2741935483871;1;1.17302052785924;0;0;0;1;1;1;1;2;0;0;;0;0;();();(-2000.0, -2000.0);
09:12:17:324;09:12:17:315;1448051295.27;(0.43288745880126955, 0.4068030887179904);63.2298736572;1.0;09:12:17:324;0;4;-1.2741935483871;1;1.17302052785924;0;0;0;1;1;1;1;2;0;0;;0;0;();();(-2000.0, -2000.0);
09:12:17:341;09:12:17:315;1448051295.27;(0.43288745880126955, 0.4068030887179904);63.2298736572;1.0;09:12:17:341;0;15;-1.20322580645161;1.00097847358121;1.85728250244379;0;0;0;1;1;1;1;2;0;0;;0;0;();();(-2000.0, -2000.0);
09:12:17:358;09:12:17:315;1448051295.27;(0.43288745880126955, 0.4068030887179904);63.2298736572;1.0;09:12:17:358;0;4;-1.2741935483871;1;1.17302052785924;0;0;0;1;1;1;1;2;0;0;;0;0;();();(-2000.0, -2000.0);
09:12:17:375;09:12:17:315;1448051295.27;(0.43288745880126955, 0.4068030887179904);63.2298736572;1.0;09:12:17:375;0;10;-1.2741935483871;1;1.17302052785924;0;0;0;1;1;1;1;2;0;0;;0;0;();();(-2000.0, -2000.0);
09:12:17:391;09:12:17:383;1448051295.34;(0.43283321857452395, 0.40681771172417536);63.3108024597;1.0;09:12:17:391;0;15;-1.2741935483871;1;1.17302052785924;0;0;0;1;1;1;1;2;0;0;;0;0;();();(-2000.0, -2000.0);
09:12:17:424;09:12:17:383;1448051295.34;(0.43283321857452395, 0.40681771172417536);63.3108024597;1.0;09:12:17:424;0;4;-1.2741935483871;1;1.17302052785924;0;0;0;1;1;1;1;2;0;0;;0;0;();();(-2000.0, -2000.0);
09:12:17:441;09:12:17:383;1448051295.34;(0.43283321857452395, 0.40681771172417536);63.3108024597;1.0;09:12:17:441;0;9;-1.2741935483871;1;1.17302052785924;0;0;0;1;1;1;1;2;0;0;;0;0;();();(-2000.0, -2000.0);
09:12:17:458;09:12:17:451;1448051295.41;(0.43263399600982666, 0.4072963714599609);63.4438743591;1.0;09:12:17:458;0;0;-1.2741935483871;1;1.17302052785924;0;0;0;1;1;1;1;2;0;0;;0;0;();();(-2000.0, -2000.0);
09:12:17:475;09:12:17:451;1448051295.41;(0.43263399600982666, 0.4072963714599609);63.4438743591;1.0;09:12:17:475;0;5;-1.2741935483871;1;1.17302052785924;0;0;0;1;1;1;1;2;0;0;;0;0;();();(-2000.0, -2000.0);
09:12:17:491;09:12:17:451;1448051295.41;(0.43263399600982666, 0.4072963714599609);63.4438743591;1.0;09:12:17:491;0;5;-1.2741935483871;1;1.17302052785924;0;0;0;1;1;1;1;2;0;0;;0;0;();();(-2000.0, -2000.0);
09:12:17:525;09:12:17:451;1448051295.41;(0.43263399600982666, 0.4072963714599609);63.4438743591;1.0;09:12:17:525;0;10;-1.20322580645161;1.00097847358121;1.85728250244379;0;0;0;1;1;1;1;2;0;0;;0;0;();();(-2000.0, -2000.0);
09:12:17:541;09:12:17:451;1448051295.41;(0.43263399600982666, 0.4072963714599609);63.4438743591;1.0;09:12:17:541;0;5;-1.24516129032258;1.00097847358121;1.46627565982405;0;0;0;1;1;1;1;2;0;0;;0;0;();();(-2000.0, -2000.0);
09:12:17:557;09:12:17:451;1448051295.41;(0.43263399600982666, 0.4072963714599609);63.4438743591;1.0;09:12:17:557;0;15;-1.20322580645161;1.00097847358121;1.85728250244379;0;0;0;1;1;1;1;2;0;0;;0;0;();();(-2000.0, -2000.0);
09:12:17:575;09:12:17:451;1448051295.41;(0.43263399600982666, 0.4072963714599609);63.4438743591;1.0;09:12:17:575;0;10;-1.2741935483871;1;1.17302052785924;0;0;0;1;1;1;1;2;0;0;;0;0;();();(-2000.0, -2000.0);
09:12:17:591;09:12:17:584;1448051295.52;(0.453583812713623, 0.3840314653184679);63.4074821472;1.0;09:12:17:591;0;0;-1.2741935483871;1;1.17302052785924;0;0;0;1;1;1;1;2;0;0;;0;0;();();(-2000.0, -2000.0);
09:12:17:625;09:12:17:584;1448051295.52;(0.453583812713623, 0.3840314653184679);63.4074821472;1.0;09:12:17:625;0;0;-1.20322580645161;1.00097847358121;1.85728250244379;0;0;0;1;1;1;1;2;0;0;;0;0;();();(-2000.0, -2000.0);
09:12:17:641;09:12:17:584;1448051295.52;(0.453583812713623, 0.3840314653184679);63.4074821472;1.0;09:12:17:641;0;0;-1.20322580645161;1.00097847358121;1.85728250244379;0;0;0;1;1;1;1;2;0;0;;0;0;();();(-2000.0, -2000.0);
09:12:17:658;09:12:17:648;1448051295.57;(0.45346970558166505, 0.3853257921006944);63.2602653503;1.0;09:12:17:658;0;10;-1.2741935483871;1;1.17302052785924;0;0;0;1;1;1;1;2;0;0;;0;0;();();(-2000.0, -2000.0);
09:12:17:674;09:12:17:648;1448051295.57;(0.45346970558166505, 0.3853257921006944);63.2602653503;1.0;09:12:17:674;0;4;-1.2741935483871;1;1.17302052785924;0;0;0;1;1;1;1;2;0;0;;0;0;();();(-2000.0, -2000.0);
09:12:17:691;09:12:17:648;1448051295.57;(0.45346970558166505, 0.3853257921006944);63.2602653503;1.0;09:12:17:691;0;10;-1.2741935483871;1;1.17302052785924;0;0;0;1;1;1;1;2;0;0;;0;0;();();(-2000.0, -2000.0);
09:12:17:724;09:12:17:724;1448051295.67;(0.453447961807251, 0.38637347751193574);63.0090408325;1.0;09:12:17:724;0;10;-1.2741935483871;1;1.17302052785924;0;0;0;1;1;1;1;2;0;0;;0;0;();();(-2000.0, -2000.0);
09:12:17:741;09:12:17:724;1448051295.67;(0.453447961807251, 0.38637347751193574);63.0090408325;1.0;09:12:17:741;0;4;-1.30645161290323;1;1.17302052785924;0;0;0;1;1;1;1;2;0;0;;0;0;();();(-2000.0, -2000.0);
09:12:17:758;09:12:17:724;1448051295.67;(0.453447961807251, 0.38637347751193574);63.0090408325;1.0;09:12:17:758;0;9;-1.2741935483871;1;1.17302052785924;0;0;0;1;1;1;1;2;0;0;;0;0;();();(-2000.0, -2000.0);
09:12:17:775;09:12:17:724;1448051295.67;(0.453447961807251, 0.38637347751193574);63.0090408325;1.0;09:12:17:775;0;0;-1.2741935483871;1;1.17302052785924;0;0;0;1;1;1;1;2;0;0;;0;0;();();(-2000.0, -2000.0);
09:12:17:791;09:12:17:783;1448051295.74;(0.4532317638397217, 0.3869103749593099);62.9678916931;1.0;09:12:17:791;0;10;-1.2741935483871;1;1.17302052785924;0;0;0;1;1;1;1;2;0;0;;0;0;();();(-2000.0, -2000.0);
09:12:17:825;09:12:17:783;1448051295.74;(0.4532317638397217, 0.3869103749593099);62.9678916931;1.0;09:12:17:825;0;9;-1.2741935483871;1;1.17302052785924;0;0;0;1;1;1;1;2;0;0;;0;0;();();(-2000.0, -2000.0);
09:12:17:842;09:12:17:783;1448051295.74;(0.4532317638397217, 0.3869103749593099);62.9678916931;1.0;09:12:17:842;0;15;-1.24516129032258;1.00097847358121;1.46627565982405;0;0;0;1;1;1;1;2;0;0;;0;0;();();(-2000.0, -2000.0);
09:12:17:858;09:12:17:848;1448051295.81;(0.4529238224029541, 0.3876671261257596);62.8097381592;1.0;09:12:17:858;0;10;-1.2741935483871;1;1.17302052785924;0;0;0;1;1;1;1;2;0;0;;0;0;();();(-2000.0, -2000.0);
09:12:17:875;09:12:17:848;1448051295.81;(0.4529238224029541, 0.3876671261257596);62.8097381592;1.0;09:12:17:875;0;0;-1.24516129032258;1.00097847358121;1.46627565982405;0;0;0;1;1;1;1;2;0;0;;0;0;();();(-2000.0, -2000.0);
09:12:17:891;09:12:17:848;1448051295.81;(0.4529238224029541, 0.3876671261257596);62.8097381592;1.0;09:12:17:891;0;9;-1.2741935483871;1;1.17302052785924;0;0;0;1;1;1;1;2;0;0;;0;0;();();(-2000.0, -2000.0);
09:12:17:925;09:12:17:917;1448051295.87;(0.4530268669128418, 0.3877259572347005);62.6184883118;1.0;09:12:17:925;0;4;-1.20322580645161;1.00097847358121;1.85728250244379;0;0;0;1;1;1;1;2;0;0;;0;0;();();(-2000.0, -2000.0);
09:12:17:942;09:12:17:917;1448051295.87;(0.4530268669128418, 0.3877259572347005);62.6184883118;1.0;09:12:17:942;0;0;-1.30645161290323;1;1.17302052785924;0;0;0;1;1;1;1;2;0;0;;0;0;();();(-2000.0, -2000.0);
09:12:17:959;09:12:17:917;1448051295.87;(0.4530268669128418, 0.3877259572347005);62.6184883118;1.0;09:12:17:959;0;5;-1.2741935483871;1;1.17302052785924;0;0;0;1;1;1;1;2;0;0;;0;0;();();(-2000.0, -2000.0);
09:12:17:974;09:12:17:917;1448051295.87;(0.4530268669128418, 0.3877259572347005);62.6184883118;1.0;09:12:17:974;0;15;-1.2741935483871;1;1.17302052785924;0;0;0;1;1;1;1;2;0;0;;0;0;();();(-2000.0, -2000.0);
09:12:17:991;09:12:17:979;1448051295.91;(0.43829030990600587, 0.3798369513617621);62.6418609619;1.0;09:12:17:991;0;4;-1.30645161290323;1;1.17302052785924;0;0;0;1;1;1;1;2;0;0;;0;0;();();(-2000.0, -2000.0);
09:12:18:024;09:12:17:979;1448051295.91;(0.43829030990600587, 0.3798369513617621);62.6418609619;1.0;09:12:18:024;0;5;-1.22258064516129;1.00097847358121;1.66177908113392;0;0;0;1;1;1;1;2;0;0;;0;0;();();(-2000.0, -2000.0);
09:12:18:041;09:12:17:979;1448051295.91;(0.43829030990600587, 0.3798369513617621);62.6418609619;1.0;09:12:18:041;0;10;-1.35806451612903;1;0.684261974584555;0;0;0;1;1;1;1;2;0;0;;0;0;();();(-2000.0, -2000.0);
09:12:18:058;09:12:18:047;1448051296.01;(0.4317999124526978, 0.3760069105360243);62.9768486023;1.0;09:12:18:058;0;4;-1.3741935483871;1;0.586510263929619;0;0;0;1;1;1;1;2;0;0;;0;0;();();(-2000.0, -2000.0);
09:12:18:075;09:12:18:047;1448051296.01;(0.4317999124526978, 0.3760069105360243);62.9768486023;1.0;09:12:18:075;0;9;-1.40967741935484;1;0.293255131964809;0;0;0;1;1;1;1;2;0;0;;0;0;();();(-2000.0, -2000.0);
09:12:18:091;09:12:18:047;1448051296.01;(0.4317999124526978, 0.3760069105360243);62.9768486023;1.0;09:12:18:091;0;5;-1.43870967741935;1;0.293255131964809;0;0;0;1;1;1;1;2;0;0;;0;0;();();(-2000.0, -2000.0);
09:12:18:125;09:12:18:047;1448051296.01;(0.4317999124526978, 0.3760069105360243);62.9768486023;1.0;09:12:18:125;0;5;-1.49032258064516;1;0;0;0;0;1;1;1;1;2;0;0;;0;0;();();(-2000.0, -2000.0);
09:12:18:142;09:12:18:047;1448051296.01;(0.4317999124526978, 0.3760069105360243);62.9768486023;1.0;09:12:18:142;0;15;-1.5;1;0;0;0;0;1;1;1;1;2;0;0;;0;0;();();(-2000.0, -2000.0);
09:12:18:158;09:12:18:047;1448051296.01;(0.4317999124526978, 0.3760069105360243);62.9768486023;1.0;09:12:18:158;0;4;-1.5;1;0;0;0;0;1;1;1;1;2;0;0;;0;0;();();(-2000.0, -2000.0);
09:12:18:174;09:12:18:047;1448051296.01;(0.4317999124526978, 0.3760069105360243);62.9768486023;1.0;09:12:18:174;0;9;-1.5;1;0;0;0;0;1;1;1;1;2;0;0;;0;0;();();(-2000.0, -2000.0);
09:12:18:191;09:12:18:180;1448051296.14;(0, 0);0;0;09:12:18:191;0;15;-1.5;1;0;0;0;0;1;1;1;1;2;0;0;;0;0;();();(-2000.0, -2000.0);
09:12:18:225;09:12:18:180;1448051296.14;(0, 0);0;0;09:12:18:225;0;4;-1.5;1;0;0;0;0;1;1;1;1;2;0;0;;0;0;();();(-2000.0, -2000.0);
09:12:18:242;09:12:18:180;1448051296.14;(0, 0);0;0;09:12:18:242;0;9;-1.5;1.63942307692308;0;0;0;0;1;1;1;1;2;0;0;;0;0;();();(-2000.0, -2000.0);
09:12:18:259;09:12:18:248;1448051296.21;(0.40169477462768555, 0.35762617323133683);40.7545776367;0.699103111168;09:12:18:259;0;0;-1.5;1;0;0;0;0;1;1;1;1;2;0;0;;0;0;();();(-2000.0, -2000.0);
09:12:18:276;09:12:18:248;1448051296.21;(0.40169477462768555, 0.35762617323133683);40.7545776367;0.699103111168;09:12:18:276;0;0;-1.5;1;0;0;0;0;1;1;1;1;2;0;0;;0;0;();();(-2000.0, -2000.0);
09:12:18:291;09:12:18:248;1448051296.21;(0.40169477462768555, 0.35762617323133683);40.7545776367;0.699103111168;09:12:18:291;0;5;-1.5;1;0;0;0;0;1;1;1;1;2;0;0;;0;0;();();(-2000.0, -2000.0);
09:12:18:325;09:12:18:312;1448051296.27;(0.38794445991516113, 0.39471554226345484);62.9689254761;1.0;09:12:18:325;0;0;-1.5;1;0;0;0;0;1;1;1;1;2;0;0;;0;0;();();(-2000.0, -2000.0);
09:12:18:341;09:12:18:312;1448051296.27;(0.38794445991516113, 0.39471554226345484);62.9689254761;1.0;09:12:18:341;0;5;-1.5;1;0;0;0;0;1;1;1;1;2;0;0;;0;0;();();(-2000.0, -2000.0);
09:12:18:358;09:12:18:312;1448051296.27;(0.38794445991516113, 0.39471554226345484);62.9689254761;1.0;09:12:18:358;0;0;-1.5;1;0;0;0;0;1;1;1;1;2;0;0;;0;0;();();(-2000.0, -2000.0);
09:12:18:375;09:12:18:312;1448051296.27;(0.38794445991516113, 0.39471554226345484);62.9689254761;1.0;09:12:18:375;0;4;-1.5;1;0;0;0;0;1;1;1;1;2;0;0;;0;0;();();(-2000.0, -2000.0);
09:12:18:392;09:12:18:379;1448051296.34;(0.38958890438079835, 0.39614363776312933);63.4047660828;1.0;09:12:18:392;0;15;-1.5;1;0;0;0;0;1;1;1;1;2;0;0;;0;0;();();(-2000.0, -2000.0);
09:12:18:426;09:12:18:379;1448051296.34;(0.38958890438079835, 0.39614363776312933);63.4047660828;1.0;09:12:18:426;0;0;-1.5;1;0;0;0;0;1;1;1;1;2;0;0;;0;0;();();(-2000.0, -2000.0);
09:12:18:442;09:12:18:379;1448051296.34;(0.38958890438079835, 0.39614363776312933);63.4047660828;1.0;09:12:18:442;0;5;-1.5;1;0;0;0;0;1;1;1;1;2;0;0;;0;0;();();(-2000.0, -2000.0);
09:12:18:458;09:12:18:379;1448051296.34;(0.38958890438079835, 0.39614363776312933);63.4047660828;1.0;09:12:18:458;0;15;-1.5;1;0;0;0;0;1;1;1;1;2;0;0;;0;0;();();(-2000.0, -2000.0);
09:12:18:475;09:12:18:379;1448051296.34;(0.38958890438079835, 0.39614363776312933);63.4047660828;1.0;09:12:18:475;0;4;-1.5;1;0;0;0;0;1;1;1;1;2;0;0;;0;0;();();(-2000.0, -2000.0);
09:12:18:492;09:12:18:487;1448051296.41;(0.3905810356140137, 0.3972838507758246);63.6106567383;1.0;09:12:18:492;0;10;-1.5;1;0;0;0;0;1;1;1;1;2;0;0;;0;0;();();(-2000.0, -2000.0);
09:12:18:525;09:12:18:512;1448051296.47;(0.39146108627319337, 0.3979886796739366);63.445980072;1.0;09:12:18:525;0;15;-1.5;1;0;0;0;0;1;1;1;1;2;0;0;;0;0;();();(-2000.0, -2000.0);
09:12:18:542;09:12:18:512;1448051296.47;(0.39146108627319337, 0.3979886796739366);63.445980072;1.0;09:12:18:542;0;4;-1.5;1;0;0;0;0;1;1;1;1;2;0;0;;0;0;();();(-2000.0, -2000.0);
09:12:18:558;09:12:18:512;1448051296.47;(0.39146108627319337, 0.3979886796739366);63.445980072;1.0;09:12:18:558;0;10;-1.5;1;0;0;0;0;1;1;1;1;2;0;0;;0;0;();();(-2000.0, -2000.0);
09:12:18:575;09:12:18:512;1448051296.47;(0.39146108627319337, 0.3979886796739366);63.445980072;1.0;09:12:18:575;0;15;-1.5;1;0;0;0;0;1;1;1;1;2;0;0;;0;0;();();(-2000.0, -2000.0);
09:12:18:591;09:12:18:583;1448051296.54;(0.3913941144943237, 0.3983378516303169);63.5149536133;1.0;09:12:18:591;0;10;-1.5;1;0;0;0;0;1;1;1;1;2;0;0;;0;0;();();(-2000.0, -2000.0);
09:12:18:625;09:12:18:583;1448051296.54;(0.3913941144943237, 0.3983378516303169);63.5149536133;1.0;09:12:18:625;0;10;-1.5;1;0;0;0;0;1;1;1;1;2;0;0;;0;0;();();(-2000.0, -2000.0);
09:12:18:642;09:12:18:583;1448051296.54;(0.3913941144943237, 0.3983378516303169);63.5149536133;1.0;09:12:18:642;0;15;-1.5;1;0;0;0;0;1;1;1;1;2;0;0;;0;0;();();(-2000.0, -2000.0);
09:12:18:659;09:12:18:650;1448051296.61;(0, 0);0;0;09:12:18:659;0;10;-1.5;1;0;0;0;0;1;1;1;1;2;0;0;;0;0;();();(-2000.0, -2000.0);
09:12:18:675;09:12:18:650;1448051296.61;(0, 0);0;0;09:12:18:675;0;15;-1.5;1;0;0;0;0;1;1;1;1;2;0;0;;0;0;();();(-2000.0, -2000.0);
09:12:18:692;09:12:18:650;1448051296.61;(0, 0);0;0;09:12:18:692;0;4;-1.5;1;0;0;0;0;1;1;1;1;2;0;0;;0;0;();();(-2000.0, -2000.0);
09:12:18:725;09:12:18:650;1448051296.61;(0, 0);0;0;09:12:18:725;0;4;-1.5;1;0;0;0;0;1;1;1;1;2;0;0;;0;0;();();(-2000.0, -2000.0);
09:12:18:742;09:12:18:650;1448051296.61;(0, 0);0;0;09:12:18:742;0;10;-1.5;1;0;0;0;0;1;1;1;1;2;0;0;;0;0;();();(-2000.0, -2000.0);
09:12:18:758;09:12:18:650;1448051296.61;(0, 0);0;0;09:12:18:758;0;5;-1.5;1;0;0;0;0;1;1;1;1;2;0;0;;0;0;();();(-2000.0, -2000.0);
09:12:18:775;09:12:18:772;1448051296.67;(0.2878608703613281, 0.2792997148301867);39.4425239563;0.669879347669;09:12:18:775;0;10;-1.5;1;0;0;0;0;1;1;1;1;2;0;0;;0;0;();();(-2000.0, -2000.0);
09:12:18:792;09:12:18:772;1448051296.67;(0.2878608703613281, 0.2792997148301867);39.4425239563;0.669879347669;09:12:18:792;0;10;-1.5;1;0;0;0;0;1;1;1;1;2;0;0;;0;0;();();(-2000.0, -2000.0);
09:12:18:825;09:12:18:772;1448051296.67;(0.2878608703613281, 0.2792997148301867);39.4425239563;0.669879347669;09:12:18:825;0;5;-1.5;1;0;0;0;0;1;1;1;1;2;0;0;;0;0;();();(-2000.0, -2000.0);
09:12:18:842;09:12:18:772;1448051296.67;(0.2878608703613281, 0.2792997148301867);39.4425239563;0.669879347669;09:12:18:842;0;15;-1.5;1;0;0;0;0;1;1;1;1;2;0;0;;0;0;();();(-2000.0, -2000.0);
09:12:18:858;09:12:18:843;1448051296.71;(0.49200754165649413, 0.29878603617350263);63.5051078796;0.869776749758;09:12:18:858;0;4;-1.5;1;0;0;0;0;1;1;1;1;2;0;0;;0;0;();();(-2000.0, -2000.0);
09:12:18:875;09:12:18:843;1448051296.71;(0.49200754165649413, 0.29878603617350263);63.5051078796;0.869776749758;09:12:18:875;0;15;-1.5;1;0;0;0;0;1;1;1;1;2;0;0;;0;0;();();(-2000.0, -2000.0);
09:12:18:892;09:12:18:843;1448051296.71;(0.49200754165649413, 0.29878603617350263);63.5051078796;0.869776749758;09:12:18:892;0;15;-1.5;1;0;0;0;0;1;1;1;1;2;0;0;;0;0;();();(-2000.0, -2000.0);
09:12:18:925;09:12:18:911;1448051296.77;(0.5059332847595215, 0.2630177815755208);59.4313278198;0.822201699379;09:12:18:925;0;4;-1.5;1;0;0;0;0;1;1;1;1;2;0;0;;0;0;();();(-2000.0, -2000.0);
09:12:18:942;09:12:18:911;1448051296.77;(0.5059332847595215, 0.2630177815755208);59.4313278198;0.822201699379;09:12:18:942;0;10;-1.5;1;0;0;0;0;1;1;1;1;2;0;0;;0;0;();();(-2000.0, -2000.0);
09:12:18:959;09:12:18:911;1448051296.77;(0.5059332847595215, 0.2630177815755208);59.4313278198;0.822201699379;09:12:18:959;0;15;-1.5;1;0;0;0;0;1;1;1;1;2;0;0;;0;0;();();(-2000.0, -2000.0);
09:12:18:976;09:12:18:911;1448051296.77;(0.5059332847595215, 0.2630177815755208);59.4313278198;0.822201699379;09:12:18:976;0;10;-1.5;1;0;0;0;0;1;1;1;1;2;0;0;;0;0;();();(-2000.0, -2000.0);
09:12:18:992;09:12:18:911;1448051296.77;(0.5059332847595215, 0.2630177815755208);59.4313278198;0.822201699379;09:12:18:992;0;11;-1.5;1;0;0;0;0;1;1;1;1;2;0;0;;0;0;();();(-2000.0, -2000.0);
09:12:19:026;09:12:18:911;1448051296.77;(0.5059332847595215, 0.2630177815755208);59.4313278198;0.822201699379;09:12:19:026;0;15;-1.5;1;0;0;0;0;1;1;1;1;2;0;0;;0;0;();();(-2000.0, -2000.0);
09:12:19:042;09:12:18:911;1448051296.77;(0.5059332847595215, 0.2630177815755208);59.4313278198;0.822201699379;09:12:19:042;0;9;-1.5;1;0;0;0;0;1;1;1;1;2;0;0;;0;0;();();(-2000.0, -2000.0);
09:12:19:058;09:12:18:911;1448051296.77;(0.5059332847595215, 0.2630177815755208);59.4313278198;0.822201699379;09:12:19:058;0;0;-1.5;1;0;0;0;0;1;1;1;1;2;0;0;;0;0;();();(-2000.0, -2000.0);
09:12:19:076;09:12:19:061;1448051297.01;(0.5053075313568115, 0.2545947604709201);61.5703239441;0.905041455241;09:12:19:076;0;10;-1.5;1;0;0;0;0;1;1;1;1;2;0;0;;0;0;();();(-2000.0, -2000.0);
09:12:19:092;09:12:19:061;1448051297.01;(0.5053075313568115, 0.2545947604709201);61.5703239441;0.905041455241;09:12:19:092;0;15;-1.5;1;0;0;0;0;1;1;1;1;2;0;0;;0;0;();();(-2000.0, -2000.0);
09:12:19:126;09:12:19:108;1448051297.07;(0.5021634578704834, 0.25940907796223955);61.9737510681;0.863555472776;09:12:19:126;0;15;-1.5;1;0;0;0;0;1;1;1;1;2;0;0;;0;0;();();(-2000.0, -2000.0);
09:12:19:142;09:12:19:108;1448051297.07;(0.5021634578704834, 0.25940907796223955);61.9737510681;0.863555472776;09:12:19:142;0;9;-1.5;1;0;0;0;0;1;1;1;1;2;0;0;;0;0;();();(-2000.0, -2000.0);
09:12:19:159;09:12:19:108;1448051297.07;(0.5021634578704834, 0.25940907796223955);61.9737510681;0.863555472776;09:12:19:159;0;9;-1.5;1;0;0;0;0;1;1;1;1;2;0;0;;0;0;();();(-2000.0, -2000.0);
09:12:19:176;09:12:19:175;1448051297.11;(0.49989781379699705, 0.26322585211859806);61.7599830627;1.0;09:12:19:176;0;9;-1.5;1;0;0;0;0;1;1;1;1;2;0;0;;0;0;();();(-2000.0, -2000.0);
09:12:19:192;09:12:19:176;1448051297.14;(0.4987051486968994, 0.265182622273763);62.0852890015;0.847372941202;09:12:19:192;0;15;-1.5;1;0;0;0;0;1;1;1;1;2;0;0;;0;0;();();(-2000.0, -2000.0);
09:12:19:226;09:12:19:176;1448051297.14;(0.4987051486968994, 0.265182622273763);62.0852890015;0.847372941202;09:12:19:226;0;10;-1.5;1;0;0;0;0;1;1;1;1;2;0;0;;0;0;();();(-2000.0, -2000.0);
09:12:19:243;09:12:19:176;1448051297.14;(0.4987051486968994, 0.265182622273763);62.0852890015;0.847372941202;09:12:19:243;0;5;-1.5;1;0;0;0;0;1;1;1;1;2;0;0;;0;0;();();(-2000.0, -2000.0);
09:12:19:259;09:12:19:246;1448051297.21;(0.4967468738555908, 0.2688227335611979);62.3731079102;1.0;09:12:19:259;0;9;-1.5;1;0;0;0;0;1;1;1;1;2;0;0;;0;0;();();(-2000.0, -2000.0);
09:12:19:276;09:12:19:246;1448051297.21;(0.4967468738555908, 0.2688227335611979);62.3731079102;1.0;09:12:19:276;0;4;-1.5;1;0;0;0;0;1;1;1;1;2;0;0;;0;0;();();(-2000.0, -2000.0);
09:12:19:293;09:12:19:246;1448051297.21;(0.4967468738555908, 0.2688227335611979);62.3731079102;1.0;09:12:19:293;0;10;-1.5;1;0;0;0;0;1;1;1;1;2;0;0;;0;0;();();(-2000.0, -2000.0);
09:12:19:326;09:12:19:246;1448051297.21;(0.4967468738555908, 0.2688227335611979);62.3731079102;1.0;09:12:19:326;0;10;-1.5;146.142857142857;0.684261974584555;0;0;0;1;1;1;1;2;0;0;;0;0;();();(-2000.0, -2000.0);
09:12:19:343;09:12:19:246;1448051297.21;(0.4967468738555908, 0.2688227335611979);62.3731079102;1.0;09:12:19:343;0;15;-1.5;170.5;0.684261974584555;0;0;0;1;1;1;1;2;0;0;;0;0;();();(-2000.0, -2000.0);
09:12:19:359;09:12:19:348;1448051297.24;(0.5209240436553955, 0.2282867431640625);62.663444519;0.60061225603;09:12:19:359;0;9;-1.5;1;0;0;0;0;1;1;1;1;2;0;0;;0;0;();();(-2000.0, -2000.0);
09:12:19:376;09:12:19:375;1448051297.28;(0.38765649795532225, 0.32259538438585067);22.3916740417;0.752084662456;09:12:19:376;0;5;-1.45483870967742;1;0.0977517106549365;0;0;0;1;1;1;1;2;0;0;;0;0;();();(-2000.0, -2000.0);
09:12:19:393;09:12:19:377;1448051297.34;(0.386629319190979, 0.32969330681694875);21.505531311;0.857931804666;09:12:19:393;0;10;-1.33548387096774;1;0.684261974584555;0;0;0;1;1;1;1;2;0;0;;0;0;();();(-2000.0, -2000.0);
09:12:19:426;09:12:19:377;1448051297.34;(0.386629319190979, 0.32969330681694875);21.505531311;0.857931804666;09:12:19:426;0;10;-1.24516129032258;1.00097847358121;1.46627565982405;0;0;0;1;1;1;1;2;0;0;;0;0;();();(-2000.0, -2000.0);
09:12:19:442;09:12:19:439;1448051297.41;(0.38532841205596924, 0.33449367947048614);22.028635025;1.0;09:12:19:442;0;0;-1.2741935483871;1;1.17302052785924;0;0;0;1;1;1;1;2;0;0;;0;0;();();(-2000.0, -2000.0);
09:12:19:459;09:12:19:439;1448051297.41;(0.38532841205596924, 0.33449367947048614);22.028635025;1.0;09:12:19:459;0;9;-1.2741935483871;1;1.17302052785924;0;0;0;1;1;1;1;2;0;0;;0;0;();();(-2000.0, -2000.0);
09:12:19:476;09:12:19:439;1448051297.41;(0.38532841205596924, 0.33449367947048614);22.028635025;1.0;09:12:19:476;0;5;-1.2741935483871;1;1.17302052785924;0;0;0;1;1;1;1;2;0;0;;0;0;();();(-2000.0, -2000.0);
09:12:19:493;09:12:19:439;1448051297.41;(0.38532841205596924, 0.33449367947048614);22.028635025;1.0;09:12:19:493;0;10;-1.24516129032258;1.00097847358121;1.46627565982405;0;0;0;1;1;1;1;2;0;0;;0;0;();();(-2000.0, -2000.0);
09:12:19:526;09:12:19:439;1448051297.41;(0.38532841205596924, 0.33449367947048614);22.028635025;1.0;09:12:19:526;0;9;-1.2741935483871;1;1.17302052785924;0;0;0;1;1;1;1;2;0;0;;0;0;();();(-2000.0, -2000.0);
09:12:19:542;09:12:19:439;1448051297.41;(0.38532841205596924, 0.33449367947048614);22.028635025;1.0;09:12:19:542;0;0;-1.24516129032258;1.00097847358121;1.46627565982405;0;0;0;1;1;1;1;2;0;0;;0;0;();();(-2000.0, -2000.0);
09:12:19:560;09:12:19:439;1448051297.41;(0.38532841205596924, 0.33449367947048614);22.028635025;1.0;09:12:19:560;0;0;-1.24516129032258;1.00097847358121;1.46627565982405;0;0;0;1;1;1;1;2;0;0;;0;0;();();(-2000.0, -2000.0);
09:12:19:576;09:12:19:439;1448051297.41;(0.38532841205596924, 0.33449367947048614);22.028635025;1.0;09:12:19:576;0;9;-1.39354838709677;1;0.586510263929619;0;0;0;1;1;1;1;2;0;0;;0;0;();();(-2000.0, -2000.0);
09:12:19:592;09:12:19:439;1448051297.41;(0.38532841205596924, 0.33449367947048614);22.028635025;1.0;09:12:19:592;0;4;-1.41935483870968;1;0.293255131964809;0;0;0;1;1;1;1;2;0;0;;0;0;();();(-2000.0, -2000.0);
09:12:19:610;09:12:19:439;1448051297.41;(0.38532841205596924, 0.33449367947048614);22.028635025;1.0;09:12:19:610;0;15;-1.45161290322581;1;0.0977517106549365;0;0;0;1;1;1;1;2;0;0;;0;0;();();(-2000.0, -2000.0);
09:12:19:643;09:12:19:639;1448051297.61;(0.5112523078918457, 0.23326153225368929);63.6761360168;1.0;09:12:19:643;0;10;-1.5;1;0;0;0;0;1;1;1;1;2;0;0;;0;0;();();(-2000.0, -2000.0);
09:12:19:659;09:12:19:639;1448051297.61;(0.5112523078918457, 0.23326153225368929);63.6761360168;1.0;09:12:19:659;0;4;-1.47096774193548;1;0.0977517106549365;0;0;0;1;1;1;1;2;0;0;;0;0;();();(-2000.0, -2000.0);
09:12:19:677;09:12:19:639;1448051297.61;(0.5112523078918457, 0.23326153225368929);63.6761360168;1.0;09:12:19:676;0;9;-1.3741935483871;1;0.586510263929619;0;0;0;1;1;1;1;2;0;0;;0;0;();();(-2000.0, -2000.0);
09:12:19:693;09:12:19:639;1448051297.61;(0.5112523078918457, 0.23326153225368929);63.6761360168;1.0;09:12:19:693;0;0;-1.2741935483871;1;1.17302052785924;0;0;0;1;1;1;1;2;0;0;;0;0;();();(-2000.0, -2000.0);
09:12:19:710;09:12:19:707;1448051297.67;(0.5119099140167236, 0.23227827284071179);63.7409324646;1.0;09:12:19:710;0;10;-1.24516129032258;1.00097847358121;1.46627565982405;0;0;0;1;1;1;1;2;0;0;;0;0;();();(-2000.0, -2000.0);
09:12:19:743;09:12:19:707;1448051297.67;(0.5119099140167236, 0.23227827284071179);63.7409324646;1.0;09:12:19:743;0;9;-1.2741935483871;1;1.17302052785924;0;0;0;1;1;1;1;2;0;0;;0;0;();();(-2000.0, -2000.0);
09:12:19:760;09:12:19:707;1448051297.67;(0.5119099140167236, 0.23227827284071179);63.7409324646;1.0;09:12:19:760;0;4;-1.2741935483871;1;1.17302052785924;0;0;0;1;1;1;1;2;0;0;;0;0;();();(-2000.0, -2000.0);
09:12:19:776;09:12:19:773;1448051297.74;(0.5114395141601562, 0.23247163560655382);62.4426078796;0.824058927128;09:12:19:776;0;9;-1.3258064516129;1;0.684261974584555;0;0;0;1;1;1;1;2;0;0;;0;0;();();(-2000.0, -2000.0);
09:12:19:793;09:12:19:773;1448051297.74;(0.5114395141601562, 0.23247163560655382);62.4426078796;0.824058927128;09:12:19:793;0;15;-1.34516129032258;1;0.684261974584555;0;0;0;1;1;1;1;2;0;0;;0;0;();();(-2000.0, -2000.0);
09:12:19:826;09:12:19:773;1448051297.74;(0.5114395141601562, 0.23247163560655382);62.4426078796;0.824058927128;09:12:19:826;0;4;-1.42258064516129;1;0.293255131964809;0;0;0;1;1;1;1;2;0;0;;0;0;();();(-2000.0, -2000.0);
09:12:19:843;09:12:19:773;1448051297.74;(0.5114395141601562, 0.23247163560655382);62.4426078796;0.824058927128;09:12:19:843;0;9;-1.47741935483871;2.61636828644501;0.293255131964809;0;0;0;1;1;1;1;2;0;0;;0;0;();();(-2000.0, -2000.0);
09:12:19:859;09:12:19:773;1448051297.74;(0.5114395141601562, 0.23247163560655382);62.4426078796;0.824058927128;09:12:19:859;0;0;-1.5;3.27884615384615;0.293255131964809;0;0;0;1;1;1;1;2;0;0;;0;0;();();(-2000.0, -2000.0);
09:12:19:876;09:12:19:773;1448051297.74;(0.5114395141601562, 0.23247163560655382);62.4426078796;0.824058927128;09:12:19:876;0;10;-1.5;1.88397790055249;0.0977517106549365;0;0;0;1;1;1;1;2;0;0;;0;0;();();(-2000.0, -2000.0);
09:12:19:893;09:12:19:773;1448051297.74;(0.5114395141601562, 0.23247163560655382);62.4426078796;0.824058927128;09:12:19:893;0;15;-1.5;1.63942307692308;0;0;0;0;1;1;1;1;2;0;0;;0;0;();();(-2000.0, -2000.0);
09:12:19:910;09:12:19:773;1448051297.74;(0.5114395141601562, 0.23247163560655382);62.4426078796;0.824058927128;09:12:19:910;0;4;-1.5;170.5;0.684261974584555;0;0;0;1;1;1;1;2;0;0;;0;0;();();(-2000.0, -2000.0);
09:12:19:943;09:12:19:925;1448051297.87;(0, 0);0;0;09:12:19:943;0;5;-1.5;170.5;0.684261974584555;0;0;0;1;1;1;1;2;0;0;;0;0;();();(-2000.0, -2000.0);
09:12:19:960;09:12:19:925;1448051297.87;(0, 0);0;0;09:12:19:960;0;15;-1.5;85.2500000000001;1.17302052785924;0;0;0;1;1;1;1;2;0;0;;0;0;();();(-2000.0, -2000.0);
09:12:19:976;09:12:19:971;1448051297.94;(0.417816686630249, 0.42259301079644096);65.2733688354;1.0;09:12:19:976;0;4;-1.5;170.5;0.684261974584555;0;0;0;1;1;1;1;2;0;0;;0;0;();();(-2000.0, -2000.0);
09:12:19:993;09:12:19:971;1448051297.94;(0.417816686630249, 0.42259301079644096);65.2733688354;1.0;09:12:19:993;0;15;-1.5;146.142857142857;0.684261974584555;0;0;0;1;1;1;1;2;0;0;;0;0;();();(-2000.0, -2000.0);
09:12:20:010;09:12:19:971;1448051297.94;(0.417816686630249, 0.42259301079644096);65.2733688354;1.0;09:12:20:010;0;4;-1.5;170.5;0.684261974584555;0;0;0;1;1;1;1;2;0;0;;0;0;();();(-2000.0, -2000.0);
09:12:20:043;09:12:20:040;1448051298.01;(0.44199981689453127, 0.4134695688883464);64.1064224243;0.859743145249;09:12:20:043;0;15;-1.5;170.5;0.684261974584555;0;0;0;1;1;1;1;2;0;0;;0;0;();();(-2000.0, -2000.0);
09:12:20:060;09:12:20:040;1448051298.01;(0.44199981689453127, 0.4134695688883464);64.1064224243;0.859743145249;09:12:20:060;0;9;-1.5;170.5;0.684261974584555;0;0;0;1;1;1;1;2;0;0;;0;0;();();(-2000.0, -2000.0);
09:12:20:077;09:12:20:040;1448051298.01;(0.44199981689453127, 0.4134695688883464);64.1064224243;0.859743145249;09:12:20:077;0;10;-1.5;170.5;0.684261974584555;0;0;0;1;1;1;1;2;0;0;;0;0;();();(-2000.0, -2000.0);
09:12:20:094;09:12:20:040;1448051298.01;(0.44199981689453127, 0.4134695688883464);64.1064224243;0.859743145249;09:12:20:094;0;10;-1.5;170.5;0.684261974584555;0;0;0;1;1;1;1;2;0;0;;0;0;();();(-2000.0, -2000.0);
09:12:20:127;09:12:20:103;1448051298.07;(0.4446119785308838, 0.41202574835883243);63.9397392273;1.0;09:12:20:127;0;10;-1.5;170.5;0.684261974584555;0;0;0;1;1;1;1;2;0;0;;0;0;();();(-2000.0, -2000.0);
09:12:20:143;09:12:20:103;1448051298.07;(0.4446119785308838, 0.41202574835883243);63.9397392273;1.0;09:12:20:143;0;4;-1.5;146.142857142857;0.684261974584555;0;0;0;1;1;1;1;2;0;0;;0;0;();();(-2000.0, -2000.0);
09:12:20:160;09:12:20:103;1448051298.07;(0.4446119785308838, 0.41202574835883243);63.9397392273;1.0;09:12:20:160;0;9;-1.5;170.5;0.684261974584555;0;0;0;1;1;1;1;2;0;0;;0;0;();();(-2000.0, -2000.0);
09:12:20:177;09:12:20:103;1448051298.07;(0.4446119785308838, 0.41202574835883243);63.9397392273;1.0;09:12:20:177;0;9;-1.5;170.5;0.684261974584555;0;0;0;1;1;1;1;2;0;0;;0;0;();();(-2000.0, -2000.0);
09:12:20:193;09:12:20:103;1448051298.07;(0.4446119785308838, 0.41202574835883243);63.9397392273;1.0;09:12:20:193;0;4;-1.5;170.5;0.684261974584555;0;0;0;1;1;1;1;2;0;0;;0;0;();();(-2000.0, -2000.0);
09:12:20:227;09:12:20:212;1448051298.14;(0.44620671272277834, 0.4097968207465278);64.0334777832;1.0;09:12:20:227;0;9;-1.5;170.5;0.684261974584555;0;0;0;1;1;1;1;2;0;0;;0;0;();();(-2000.0, -2000.0);
09:12:20:243;09:12:20:239;1448051298.21;(0.44802141189575195, 0.4069171905517578);64.4834747314;1.0;09:12:20:243;0;4;-1.5;170.5;0.684261974584555;0;0;0;1;1;1;1;2;0;0;;0;0;();();(-2000.0, -2000.0);
09:12:20:260;09:12:20:239;1448051298.21;(0.44802141189575195, 0.4069171905517578);64.4834747314;1.0;09:12:20:260;0;9;-1.5;170.5;0.684261974584555;0;0;0;1;1;1;1;2;0;0;;0;0;();();(-2000.0, -2000.0);
09:12:20:277;09:12:20:239;1448051298.21;(0.44802141189575195, 0.4069171905517578);64.4834747314;1.0;09:12:20:277;0;15;-1.5;170.5;0.684261974584555;0;0;0;1;1;1;1;2;0;0;;0;0;();();(-2000.0, -2000.0);
09:12:20:293;09:12:20:239;1448051298.21;(0.44802141189575195, 0.4069171905517578);64.4834747314;1.0;09:12:20:293;0;9;-1.5;170.5;0.684261974584555;0;0;0;1;1;1;1;2;0;0;;0;0;();();(-2000.0, -2000.0);
09:12:20:310;09:12:20:303;1448051298.27;(0.44887094497680663, 0.4048544141981337);64.5892181396;1.0;09:12:20:310;0;15;-1.5;146.142857142857;0.684261974584555;0;0;0;1;1;1;1;2;0;0;;0;0;();();(-2000.0, -2000.0);
09:12:20:344;09:12:20:303;1448051298.27;(0.44887094497680663, 0.4048544141981337);64.5892181396;1.0;09:12:20:344;0;10;-1.5;146.142857142857;0.684261974584555;0;0;0;1;1;1;1;2;0;0;;0;0;();();(-2000.0, -2000.0);
09:12:20:360;09:12:20:303;1448051298.27;(0.44887094497680663, 0.4048544141981337);64.5892181396;1.0;09:12:20:360;0;4;-1.49032258064516;1;0;0;0;0;1;1;1;1;2;0;0;;0;0;();();(-2000.0, -2000.0);
09:12:20:377;09:12:20:372;1448051298.34;(0.4495594024658203, 0.403826649983724);64.1196365356;1.0;09:12:20:377;0;10;-1.38709677419355;1;0.586510263929619;0;0;0;1;1;1;1;2;0;0;;0;0;();();(-2000.0, -2000.0);
09:12:20:393;09:12:20:372;1448051298.34;(0.4495594024658203, 0.403826649983724);64.1196365356;1.0;09:12:20:393;0;10;-1.38709677419355;1;0.586510263929619;0;0;0;1;1;1;1;2;0;0;;0;0;();();(-2000.0, -2000.0);
09:12:20:411;09:12:20:372;1448051298.34;(0.4495594024658203, 0.403826649983724);64.1196365356;1.0;09:12:20:411;0;15;-1.24516129032258;1.00097847358121;1.46627565982405;0;0;0;1;1;1;1;2;0;0;;0;0;();();(-2000.0, -2000.0);
09:12:20:443;09:12:20:372;1448051298.34;(0.4495594024658203, 0.403826649983724);64.1196365356;1.0;09:12:20:443;0;15;-1.2741935483871;1;1.17302052785924;0;0;0;1;1;1;1;2;0;0;;0;0;();();(-2000.0, -2000.0);
09:12:20:460;09:12:20:372;1448051298.34;(0.4495594024658203, 0.403826649983724);64.1196365356;1.0;09:12:20:460;0;4;-1.2741935483871;1;1.17302052785924;0;0;0;1;1;1;1;2;0;0;;0;0;();();(-2000.0, -2000.0);
09:12:20:477;09:12:20:372;1448051298.34;(0.4495594024658203, 0.403826649983724);64.1196365356;1.0;09:12:20:477;0;10;-1.30645161290323;1;1.17302052785924;0;0;0;1;1;1;1;2;0;0;;0;0;();();(-2000.0, -2000.0);
09:12:20:493;09:12:20:372;1448051298.34;(0.4495594024658203, 0.403826649983724);64.1196365356;1.0;09:12:20:493;0;5;-1.2741935483871;1;1.17302052785924;0;0;0;1;1;1;1;2;0;0;;0;0;();();(-2000.0, -2000.0);
09:12:20:510;09:12:20:504;1448051298.47;(0, 0);0;0;09:12:20:510;0;15;-1.2741935483871;1;1.17302052785924;0;0;0;1;1;1;1;2;0;0;;0;0;();();(-2000.0, -2000.0);
09:12:20:543;09:12:20:504;1448051298.47;(0, 0);0;0;09:12:20:543;0;15;-1.2741935483871;1;1.17302052785924;0;0;0;1;1;1;1;2;0;0;;0;0;();();(-2000.0, -2000.0);
09:12:20:560;09:12:20:504;1448051298.47;(0, 0);0;0;09:12:20:560;0;4;-1.2741935483871;1;1.17302052785924;0;0;0;1;1;1;1;2;0;0;;0;0;();();(-2000.0, -2000.0);
09:12:20:578;09:12:20:571;1448051298.51;(0.3659315586090088, 0.26402176751030815);19.9668006897;0.826329944876;09:12:20:578;0;9;-1.20322580645161;1.00097847358121;1.85728250244379;0;0;0;1;1;1;1;2;0;0;;0;0;();();(-2000.0, -2000.0);
09:12:20:594;09:12:20:571;1448051298.51;(0.3659315586090088, 0.26402176751030815);19.9668006897;0.826329944876;09:12:20:594;0;5;-1.2741935483871;1;1.17302052785924;0;0;0;1;1;1;1;2;0;0;;0;0;();();(-2000.0, -2000.0);
09:12:20:611;09:12:20:571;1448051298.51;(0.3659315586090088, 0.26402176751030815);19.9668006897;0.826329944876;09:12:20:611;0;3;-1.20322580645161;1.00097847358121;1.85728250244379;0;0;0;1;1;1;1;2;0;0;;0;0;();();(-2000.0, -2000.0);
09:12:20:643;09:12:20:635;1448051298.54;(0.24310705661773682, 0.1542553371853299);37.563873291;0.625773804833;09:12:20:643;0;10;-1.2741935483871;1;1.17302052785924;0;0;0;1;1;1;1;2;0;0;;0;0;();();(-2000.0, -2000.0);
09:12:20:660;09:12:20:635;1448051298.54;(0.24310705661773682, 0.1542553371853299);37.563873291;0.625773804833;09:12:20:660;0;15;-1.2741935483871;1;1.17302052785924;0;0;0;1;1;1;1;2;0;0;;0;0;();();(-2000.0, -2000.0);
09:12:20:678;09:12:20:635;1448051298.54;(0.24310705661773682, 0.1542553371853299);37.563873291;0.625773804833;09:12:20:678;0;10;-1.30645161290323;1;1.17302052785924;0;0;0;1;1;1;1;2;0;0;;0;0;();();(-2000.0, -2000.0);
09:12:20:694;09:12:20:635;1448051298.54;(0.24310705661773682, 0.1542553371853299);37.563873291;0.625773804833;09:12:20:694;0;15;-1.24516129032258;1;1.46627565982405;0;0;0;1;1;1;1;2;0;0;;0;0;();();(-2000.0, -2000.0);
09:12:20:710;09:12:20:635;1448051298.54;(0.24310705661773682, 0.1542553371853299);37.563873291;0.625773804833;09:12:20:710;0;4;-1.20322580645161;1.00097847358121;1.85728250244379;0;0;0;1;1;1;1;2;0;0;;0;0;();();(-2000.0, -2000.0);
09:12:20:744;09:12:20:635;1448051298.54;(0.24310705661773682, 0.1542553371853299);37.563873291;0.625773804833;09:12:20:744;0;9;-1.2741935483871;1;1.17302052785924;0;0;0;1;1;1;1;2;0;0;;0;0;();();(-2000.0, -2000.0);
09:12:20:761;09:12:20:635;1448051298.54;(0.24310705661773682, 0.1542553371853299);37.563873291;0.625773804833;09:12:20:761;0;15;-1.24516129032258;1.00097847358121;1.46627565982405;0;0;0;1;1;1;1;2;0;0;;0;0;();();(-2000.0, -2000.0);
09:12:20:781;09:12:20:635;1448051298.54;(0.24310705661773682, 0.1542553371853299);37.563873291;0.625773804833;09:12:20:781;0;4;-1.2741935483871;1;1.17302052785924;0;0;0;1;1;1;1;4;0;0;;0;0;();();(-2000.0, -2000.0);
09:12:20:794;09:12:20:635;1448051298.54;(0.24310705661773682, 0.1542553371853299);37.563873291;0.625773804833;09:12:20:794;0;9;-1.2741935483871;2.46506024096386;3.03030303030303;0;0;0;1;1;1;1;4;0;0;;0;0;();();(-2000.0, -2000.0);
09:12:20:811;09:12:20:635;1448051298.54;(0.24310705661773682, 0.1542553371853299);37.563873291;0.625773804833;09:12:20:811;0;5;-1.2741935483871;1;1.17302052785924;0;0;0;1;1;1;1;4;0;0;;0;0;();();(-2000.0, -2000.0);
09:12:20:843;09:12:20:836;1448051298.7;(0.0699902206659317, 0.7430970721774631);25.0846099854;0.887157893165;09:12:20:843;0;0;-1.30645161290323;1;1.17302052785924;0;0;0;1;1;1;1;4;0;0;;0;0;();();(-2000.0, -2000.0);
09:12:20:860;09:12:20:836;1448051298.7;(0.0699902206659317, 0.7430970721774631);25.0846099854;0.887157893165;09:12:20:860;0;15;-1.2741935483871;1;1.17302052785924;0;0;0;1;1;1;1;4;0;0;;0;0;();();(-2000.0, -2000.0);
09:12:20:877;09:12:20:836;1448051298.7;(0.0699902206659317, 0.7430970721774631);25.0846099854;0.887157893165;09:12:20:877;0;4;-1.2741935483871;341;3.03030303030303;0;0;0;1;1;1;1;4;0;0;;0;0;();();(-2000.0, -2000.0);
09:12:20:894;09:12:20:836;1448051298.7;(0.0699902206659317, 0.7430970721774631);25.0846099854;0.887157893165;09:12:20:894;0;9;-1.30645161290323;341;3.03030303030303;0;0;0;1;1;1;1;4;0;0;;0;0;();();(-2000.0, -2000.0);
09:12:20:911;09:12:20:899;1448051298.82;(0.4711251735687256, 0.28122940063476565);30.1627922058;0.606253966428;09:12:20:911;0;4;-1.24516129032258;341;4.3010752688172;0;0;0;1;1;1;1;4;0;0;;0;0;();();(-2000.0, -2000.0);
09:12:20:945;09:12:20:911;1448051298.86;(0.4713729381561279, 0.201141357421875);58.892162323;0.646235521681;09:12:20:945;0;15;-1.34516129032258;1;0.684261974584555;0;0;0;1;1;1;1;4;0;0;;0;0;();();(-2000.0, -2000.0);
09:12:20:961;09:12:20:911;1448051298.86;(0.4713729381561279, 0.201141357421875);58.892162323;0.646235521681;09:12:20:961;0;10;-1.34193548387097;1;0.684261974584555;0;0;0;1;1;1;1;4;0;0;;0;0;();();(-2000.0, -2000.0);
09:12:20:977;09:12:20:968;1448051298.89;(0.4084993124008179, 0.2753140343560113);51.5300941467;0.677764411378;09:12:20:977;0;5;-1.3258064516129;1;0.684261974584555;0;0;0;1;1;1;1;4;0;0;;0;0;();();(-2000.0, -2000.0);
09:12:20:994;09:12:20:968;1448051298.89;(0.4084993124008179, 0.2753140343560113);51.5300941467;0.677764411378;09:12:20:994;0;10;-1.3;1;0.879765395894428;0;0;0;1;1;1;1;4;0;0;;0;0;();();(-2000.0, -2000.0);
09:12:21:011;09:12:20:968;1448051298.89;(0.4084993124008179, 0.2753140343560113);51.5300941467;0.677764411378;09:12:21:011;0;5;-1.25483870967742;1;1.46627565982405;0;0;0;1;1;1;1;4;0;0;;0;0;();();(-2000.0, -2000.0);
09:12:21:044;09:12:20:968;1448051298.89;(0.4084993124008179, 0.2753140343560113);51.5300941467;0.677764411378;09:12:21:044;0;15;-1.24516129032258;1.00097847358121;1.46627565982405;0;0;0;1;1;1;1;4;0;0;;0;0;();();(-2000.0, -2000.0);
09:12:21:060;09:12:20:968;1448051298.89;(0.4084993124008179, 0.2753140343560113);51.5300941467;0.677764411378;09:12:21:060;0;4;-1.2741935483871;1;1.17302052785924;0;0;0;1;1;1;1;4;0;0;;0;0;();();(-2000.0, -2000.0);
09:12:21:078;09:12:21:076;1448051299.01;(0, 0);0;0;09:12:21:078;0;10;-1.2741935483871;1;1.17302052785924;0;0;0;1;1;1;1;4;0;0;;0;0;();();(-2000.0, -2000.0);
09:12:21:094;09:12:21:076;1448051299.01;(0, 0);0;0;09:12:21:094;0;4;-1.24516129032258;1.00097847358121;1.46627565982405;0;0;0;1;1;1;1;4;0;0;;0;0;();();(-2000.0, -2000.0);
09:12:21:111;09:12:21:103;1448051299.04;(0, 0);0;0;09:12:21:111;0;15;-1.24516129032258;1.00097847358121;1.46627565982405;0;0;0;1;1;1;1;4;0;0;;0;0;();();(-2000.0, -2000.0);
09:12:21:144;09:12:21:103;1448051299.04;(0, 0);0;0;09:12:21:144;0;0;-1.2741935483871;1;1.17302052785924;0;0;0;1;1;1;1;4;0;0;;0;0;();();(-2000.0, -2000.0);
09:12:21:161;09:12:21:103;1448051299.04;(0, 0);0;0;09:12:21:161;0;5;-1.24516129032258;1.00097847358121;1.46627565982405;0;0;0;1;1;1;1;4;0;0;;0;0;();();(-2000.0, -2000.0);
09:12:21:177;09:12:21:167;1448051299.11;(0.3626777410507202, 0.4082777659098308);64.8869247437;1.0;09:12:21:177;0;7;-1.24516129032258;2.50735294117647;3.81231671554252;0;0;0;1;1;1;1;4;0;0;;0;0;();();(-2000.0, -2000.0);
09:12:21:194;09:12:21:167;1448051299.11;(0.3626777410507202, 0.4082777659098308);64.8869247437;1.0;09:12:21:194;0;4;-1.28387096774194;1;1.17302052785924;0;0;0;1;1;1;1;4;0;0;;0;0;();();(-2000.0, -2000.0);
09:12:21:211;09:12:21:167;1448051299.11;(0.3626777410507202, 0.4082777659098308);64.8869247437;1.0;09:12:21:211;0;10;-1.29677419354839;1;1.17302052785924;0;0;0;1;1;1;1;4;0;0;;0;0;();();(-2000.0, -2000.0);
09:12:21:244;09:12:21:232;1448051299.17;(0.36745052337646483, 0.4108623928493924);65.6049804688;0.831942517228;09:12:21:244;0;9;-1.29677419354839;1;1.17302052785924;0;0;0;1;1;1;1;4;0;0;;0;0;();();(-2000.0, -2000.0);
09:12:21:260;09:12:21:232;1448051299.17;(0.36745052337646483, 0.4108623928493924);65.6049804688;0.831942517228;09:12:21:260;0;9;-1.29677419354839;1;1.17302052785924;0;0;0;1;1;1;1;4;0;0;;0;0;();();(-2000.0, -2000.0);
09:12:21:278;09:12:21:232;1448051299.17;(0.36745052337646483, 0.4108623928493924);65.6049804688;0.831942517228;09:12:21:278;0;10;-1.29677419354839;1;1.17302052785924;0;0;0;1;1;1;1;4;0;0;;0;0;();();(-2000.0, -2000.0);
09:12:21:295;09:12:21:232;1448051299.17;(0.36745052337646483, 0.4108623928493924);65.6049804688;0.831942517228;09:12:21:295;0;4;-1.29677419354839;1;1.17302052785924;0;0;0;1;1;1;1;4;0;0;;0;0;();();(-2000.0, -2000.0);
09:12:21:311;09:12:21:232;1448051299.17;(0.36745052337646483, 0.4108623928493924);65.6049804688;0.831942517228;09:12:21:311;0;10;-1.27096774193548;1;1.36852394916911;0;0;0;1;1;1;1;4;0;0;;0;0;();();(-2000.0, -2000.0);
09:12:21:344;09:12:21:232;1448051299.17;(0.36745052337646483, 0.4108623928493924);65.6049804688;0.831942517228;09:12:21:344;0;9;-1.29677419354839;1;1.17302052785924;0;0;0;1;1;1;1;4;0;0;;0;0;();();(-2000.0, -2000.0);
09:12:21:361;09:12:21:232;1448051299.17;(0.36745052337646483, 0.4108623928493924);65.6049804688;0.831942517228;09:12:21:361;0;15;-1.27096774193548;1;0.684261974584555;0;0;0;1;1;1;1;4;0;0;;0;0;();();(-2000.0, -2000.0);
09:12:21:377;09:12:21:368;1448051299.31;(0.3771901845932007, 0.41212781270345056);66.5805358887;0.897116103503;09:12:21:377;0;5;-1.29677419354839;1;1.17302052785924;0;0;0;1;1;1;1;4;0;0;;0;0;();();(-2000.0, -2000.0);
09:12:21:395;09:12:21:368;1448051299.31;(0.3771901845932007, 0.41212781270345056);66.5805358887;0.897116103503;09:12:21:395;0;5;-1.29677419354839;1;1.17302052785924;0;0;0;1;1;1;1;4;0;0;;0;0;();();(-2000.0, -2000.0);
09:12:21:411;09:12:21:368;1448051299.31;(0.3771901845932007, 0.41212781270345056);66.5805358887;0.897116103503;09:12:21:411;0;10;-1.29677419354839;1;1.17302052785924;0;0;0;1;1;1;1;4;0;0;;0;0;();();(-2000.0, -2000.0);
09:12:21:445;09:12:21:432;1448051299.41;(0.38168787956237793, 0.41323738098144536);65.1049041748;0.93864450088;09:12:21:445;0;15;-1.23225806451613;1.00097847358121;1.66177908113392;0;0;0;1;1;1;1;4;0;0;;0;0;();();(-2000.0, -2000.0);
09:12:21:461;09:12:21:432;1448051299.41;(0.38168787956237793, 0.41323738098144536);65.1049041748;0.93864450088;09:12:21:461;0;15;-1.23225806451613;1.00097847358121;1.66177908113392;0;0;0;1;1;1;1;4;0;0;;0;0;();();(-2000.0, -2000.0);
09:12:21:477;09:12:21:432;1448051299.41;(0.38168787956237793, 0.41323738098144536);65.1049041748;0.93864450088;09:12:21:477;0;15;-1.23225806451613;1.00097847358121;1.66177908113392;0;0;0;1;1;1;1;4;0;0;;0;0;();();(-2000.0, -2000.0);
09:12:21:494;09:12:21:432;1448051299.41;(0.38168787956237793, 0.41323738098144536);65.1049041748;0.93864450088;09:12:21:494;0;4;-1.29677419354839;1;1.17302052785924;0;0;0;1;1;1;1;4;0;0;;0;0;();();(-2000.0, -2000.0);
09:12:21:511;09:12:21:499;1448051299.44;(0.38224470615386963, 0.41372316148546007);64.2294387817;0.898807379592;09:12:21:511;0;10;-1.3258064516129;341;2.93255131964809;0;0;0;1;1;1;1;4;0;0;;0;0;();();(-2000.0, -2000.0);
09:12:21:544;09:12:21:499;1448051299.44;(0.38224470615386963, 0.41372316148546007);64.2294387817;0.898807379592;09:12:21:544;0;5;-1.36774193548387;341;1.66177908113392;0;0;0;1;1;1;1;4;0;0;;0;0;();();(-2000.0, -2000.0);
09:12:21:561;09:12:21:499;1448051299.44;(0.38224470615386963, 0.41372316148546007);64.2294387817;0.898807379592;09:12:21:561;0;9;-1.38709677419355;341;1.36852394916911;0;0;0;1;1;1;1;4;0;0;;0;0;();();(-2000.0, -2000.0);
09:12:21:578;09:12:21:567;1448051299.51;(0.37637016773223875, 0.4072391510009765);62.78383255;1.0;09:12:21:578;0;4;-1.38709677419355;341;1.36852394916911;0;0;0;1;1;1;1;4;0;0;;0;0;();();(-2000.0, -2000.0);
09:12:21:594;09:12:21:567;1448051299.51;(0.37637016773223875, 0.4072391510009765);62.78383255;1.0;09:12:21:594;0;10;-1.38709677419355;341;1.36852394916911;0;0;0;1;1;1;1;4;0;0;;0;0;();();(-2000.0, -2000.0);
09:12:21:611;09:12:21:567;1448051299.51;(0.37637016773223875, 0.4072391510009765);62.78383255;1.0;09:12:21:611;0;5;-1.38709677419355;341;1.36852394916911;0;0;0;1;1;1;1;4;0;0;;0;0;();();(-2000.0, -2000.0);
09:12:21:645;09:12:21:567;1448051299.51;(0.37637016773223875, 0.4072391510009765);62.78383255;1.0;09:12:21:645;0;5;-1.3741935483871;341;1.66177908113392;0;0;0;1;1;1;1;4;0;0;;0;0;();();(-2000.0, -2000.0);
09:12:21:662;09:12:21:567;1448051299.51;(0.37637016773223875, 0.4072391510009765);62.78383255;1.0;09:12:21:662;0;9;-1.38709677419355;341;1.36852394916911;0;0;0;1;1;1;1;4;0;0;;0;0;();();(-2000.0, -2000.0);
09:12:21:678;09:12:21:567;1448051299.51;(0.37637016773223875, 0.4072391510009765);62.78383255;1.0;09:12:21:678;0;4;-1.3741935483871;341;1.66177908113392;0;0;0;1;1;1;1;4;0;0;;0;0;();();(-2000.0, -2000.0);
09:12:21:695;09:12:21:567;1448051299.51;(0.37637016773223875, 0.4072391510009765);62.78383255;1.0;09:12:21:695;0;0;-1.3741935483871;341;1.66177908113392;0;0;0;1;1;1;1;4;0;0;;0;0;();();(-2000.0, -2000.0);
09:12:21:711;09:12:21:567;1448051299.51;(0.37637016773223875, 0.4072391510009765);62.78383255;1.0;09:12:21:711;0;5;-1.38709677419355;341;1.36852394916911;0;0;0;1;1;1;1;4;0;0;;0;0;();();(-2000.0, -2000.0);
09:12:21:744;09:12:21:721;1448051299.67;(0.3705958604812622, 0.4018163892957899);59.6374435425;1.0;09:12:21:744;0;4;-1.38709677419355;341;1.36852394916911;0;0;0;1;1;1;1;4;0;0;;0;0;();();(-2000.0, -2000.0);
09:12:21:761;09:12:21:721;1448051299.67;(0.3705958604812622, 0.4018163892957899);59.6374435425;1.0;09:12:21:761;0;10;-1.36774193548387;341;1.66177908113392;0;0;0;1;1;1;1;4;0;0;;0;0;();();(-2000.0, -2000.0);
09:12:21:778;09:12:21:770;1448051299.74;(0.3708000421524048, 0.40303310818142357);59.1745300293;1.0;09:12:21:778;0;4;-1.38709677419355;341;1.46627565982405;0;0;0;1;1;1;1;4;0;0;;0;0;();();(-2000.0, -2000.0);
09:12:21:795;09:12:21:770;1448051299.74;(0.3708000421524048, 0.40303310818142357);59.1745300293;1.0;09:12:21:795;0;10;-1.37741935483871;341;1.46627565982405;0;0;0;1;1;1;1;4;0;0;;0;0;();();(-2000.0, -2000.0);
09:12:21:811;09:12:21:770;1448051299.74;(0.3708000421524048, 0.40303310818142357);59.1745300293;1.0;09:12:21:811;0;15;-1.37741935483871;341;1.46627565982405;0;0;0;1;1;1;1;4;0;0;;0;0;();();(-2000.0, -2000.0);
09:12:21:845;09:12:21:831;1448051299.81;(0.37181568145751953, 0.4041162702772353);59.6640625;1.0;09:12:21:845;0;0;-1.35806451612903;341;1.66177908113392;0;0;0;1;1;1;1;4;0;0;;0;0;();();(-2000.0, -2000.0);
09:12:21:861;09:12:21:831;1448051299.81;(0.37181568145751953, 0.4041162702772353);59.6640625;1.0;09:12:21:861;0;10;-1.37741935483871;341;1.46627565982405;0;0;0;1;1;1;1;4;0;0;;0;0;();();(-2000.0, -2000.0);
09:12:21:878;09:12:21:831;1448051299.81;(0.37181568145751953, 0.4041162702772353);59.6640625;1.0;09:12:21:878;0;15;-1.37741935483871;2.93965517241379;1.17302052785924;0;0;0;1;1;1;1;4;0;0;;0;0;();();(-2000.0, -2000.0);
09:12:21:895;09:12:21:831;1448051299.81;(0.37181568145751953, 0.4041162702772353);59.6640625;1.0;09:12:21:895;0;4;-1.38709677419355;1;0.586510263929619;0;0;0;1;1;1;1;4;0;0;;0;0;();();(-2000.0, -2000.0);
09:12:21:911;09:12:21:831;1448051299.81;(0.37181568145751953, 0.4041162702772353);59.6640625;1.0;09:12:21:911;0;15;-1.36774193548387;1;0.684261974584555;0;0;0;1;1;1;1;4;0;0;;0;0;();();(-2000.0, -2000.0);
09:12:21:945;09:12:21:831;1448051299.81;(0.37181568145751953, 0.4041162702772353);59.6640625;1.0;09:12:21:945;0;10;-1.31612903225806;1;1.17302052785924;0;0;0;1;1;1;1;4;0;0;;0;0;();();(-2000.0, -2000.0);
09:12:21:962;09:12:21:831;1448051299.81;(0.37181568145751953, 0.4041162702772353);59.6640625;1.0;09:12:21:962;0;10;-1.31612903225806;1;1.17302052785924;0;0;0;1;1;1;1;4;0;0;;0;0;();();(-2000.0, -2000.0);
09:12:21:978;09:12:21:831;1448051299.81;(0.37181568145751953, 0.4041162702772353);59.6640625;1.0;09:12:21:978;0;15;-1.24516129032258;1.00097847358121;1.46627565982405;0;0;0;1;1;1;1;4;0;0;;0;0;();();(-2000.0, -2000.0);
09:12:21:994;09:12:21:831;1448051299.81;(0.37181568145751953, 0.4041162702772353);59.6640625;1.0;09:12:21:994;0;4;-1.2741935483871;1;1.17302052785924;0;0;0;1;1;1;1;4;0;0;;0;0;();();(-2000.0, -2000.0);
09:12:22:012;09:12:21:831;1448051299.81;(0.37181568145751953, 0.4041162702772353);59.6640625;1.0;09:12:22:012;0;0;-1.2741935483871;1;1.17302052785924;0;0;0;1;1;1;1;4;0;0;;0;0;();();(-2000.0, -2000.0);
09:12:22:044;09:12:21:831;1448051299.81;(0.37181568145751953, 0.4041162702772353);59.6640625;1.0;09:12:22:044;0;10;-1.31935483870968;341;3.03030303030303;0;0;0;1;1;1;1;4;0;0;;0;0;();();(-2000.0, -2000.0);
09:12:22:062;09:12:22:062;1448051300.01;(0.45818190574645995, 0.41431202358669705);57.6232299805;1.0;09:12:22:062;0;4;-1.31612903225806;341;2.73704789833822;0;0;0;1;1;1;1;4;0;0;;0;0;();();(-2000.0, -2000.0);
09:12:22:078;09:12:22:062;1448051300.01;(0.45818190574645995, 0.41431202358669705);57.6232299805;1.0;09:12:22:078;0;10;-1.33548387096774;341;2.44379276637341;0;0;0;1;1;1;1;4;0;0;;0;0;();();(-2000.0, -2000.0);
09:12:22:095;09:12:22:095;1448051300.04;(0.45754661560058596, 0.4145165337456598);57.2652587891;1.0;09:12:22:095;0;0;-1.35161290322581;341;1.85728250244379;0;0;0;1;1;1;1;4;0;0;;0;0;();();(-2000.0, -2000.0);
09:12:22:111;09:12:22:095;1448051300.07;(0.45657687187194823, 0.41492699517144094);57.3649711609;1.0;09:12:22:111;0;0;-1.35161290322581;341;1.85728250244379;0;0;0;1;1;1;1;4;0;0;;0;0;();();(-2000.0, -2000.0);
09:12:22:145;09:12:22:095;1448051300.07;(0.45657687187194823, 0.41492699517144094);57.3649711609;1.0;09:12:22:145;0;9;-1.38387096774194;341;1.46627565982405;0;0;0;1;1;1;1;4;0;0;;0;0;();();(-2000.0, -2000.0);
09:12:22:162;09:12:22:095;1448051300.07;(0.45657687187194823, 0.41492699517144094);57.3649711609;1.0;09:12:22:162;0;15;-1.36774193548387;341;1.17302052785924;0;0;0;1;1;1;1;4;0;0;;0;0;();();(-2000.0, -2000.0);
09:12:22:179;09:12:22:172;1448051300.14;(0.45461325645446776, 0.4153351677788628);57.6003761292;1.0;09:12:22:179;0;9;-1.36774193548387;341;1.66177908113392;0;0;0;1;1;1;1;4;0;0;;0;0;();();(-2000.0, -2000.0);
09:12:22:195;09:12:22:172;1448051300.14;(0.45461325645446776, 0.4153351677788628);57.6003761292;1.0;09:12:22:195;0;15;-1.37741935483871;341;1.46627565982405;0;0;0;1;1;1;1;4;0;0;;0;0;();();(-2000.0, -2000.0);
09:12:22:212;09:12:22:172;1448051300.14;(0.45461325645446776, 0.4153351677788628);57.6003761292;1.0;09:12:22:212;0;10;-1.37741935483871;341;1.46627565982405;0;0;0;1;1;1;1;4;0;0;;0;0;();();(-2000.0, -2000.0);
09:12:22:245;09:12:22:228;1448051300.21;(0.45238170623779295, 0.4158766428629558);57.6716575623;1.0;09:12:22:245;0;4;-1.3741935483871;341;1.46627565982405;0;0;0;1;1;1;1;4;0;0;;0;0;();();(-2000.0, -2000.0);
09:12:22:261;09:12:22:228;1448051300.21;(0.45238170623779295, 0.4158766428629558);57.6716575623;1.0;09:12:22:261;0;0;-1.33548387096774;255.75;2.34604105571848;0;0;0;1;1;1;1;4;0;0;;0;0;();();(-2000.0, -2000.0);
09:12:22:279;09:12:22:228;1448051300.21;(0.45238170623779295, 0.4158766428629558);57.6716575623;1.0;09:12:22:279;0;10;-1.3741935483871;341;1.46627565982405;0;0;0;1;1;1;1;4;0;0;;0;0;();();(-2000.0, -2000.0);
09:12:22:296;09:12:22:295;1448051300.24;(0.4513423442840576, 0.41630049811469183);57.8305435181;1.0;09:12:22:296;0;10;-1.3741935483871;341;1.46627565982405;0;0;0;1;1;1;1;4;0;0;;0;0;();();(-2000.0, -2000.0);
09:12:22:312;09:12:22:295;1448051300.24;(0.4513423442840576, 0.41630049811469183);57.8305435181;1.0;09:12:22:312;0;4;-1.39354838709677;341;1.46627565982405;0;0;0;1;1;1;1;4;0;0;;0;0;();();(-2000.0, -2000.0);
09:12:22:345;09:12:22:295;1448051300.24;(0.4513423442840576, 0.41630049811469183);57.8305435181;1.0;09:12:22:345;0;4;-1.3741935483871;341;1.46627565982405;0;0;0;1;1;1;1;4;0;0;;0;0;();();(-2000.0, -2000.0);
09:12:22:362;09:12:22:295;1448051300.24;(0.4513423442840576, 0.41630049811469183);57.8305435181;1.0;09:12:22:362;0;8;-1.35161290322581;341;1.85728250244379;0;0;0;1;1;1;1;4;0;0;;0;0;();();(-2000.0, -2000.0);
09:12:22:378;09:12:22:367;1448051300.31;(0.4445749282836914, 0.4033592224121094);57.0883636475;0.953605282815;09:12:22:378;0;4;-1.39354838709677;341;1.46627565982405;0;0;0;1;1;1;1;4;0;0;;0;0;();();(-2000.0, -2000.0);
09:12:22:395;09:12:22:367;1448051300.31;(0.4445749282836914, 0.4033592224121094);57.0883636475;0.953605282815;09:12:22:395;0;15;-1.35161290322581;341;1.85728250244379;0;0;0;1;1;1;1;4;0;0;;0;0;();();(-2000.0, -2000.0);
09:12:22:412;09:12:22:367;1448051300.31;(0.4445749282836914, 0.4033592224121094);57.0883636475;0.953605282815;09:12:22:412;0;4;-1.3741935483871;341;1.46627565982405;0;0;0;1;1;1;1;4;0;0;;0;0;();();(-2000.0, -2000.0);
09:12:22:446;09:12:22:435;1448051300.37;(0, 0);0;0;09:12:22:446;0;4;-1.3741935483871;341;1.46627565982405;0;0;0;1;1;1;1;4;0;0;;0;0;();();(-2000.0, -2000.0);
09:12:22:462;09:12:22:435;1448051300.37;(0, 0);0;0;09:12:22:462;0;9;-1.3741935483871;341;1.46627565982405;0;0;0;1;1;1;1;4;0;0;;0;0;();();(-2000.0, -2000.0);
09:12:22:478;09:12:22:435;1448051300.37;(0, 0);0;0;09:12:22:478;0;9;-1.3741935483871;341;1.46627565982405;0;0;0;1;1;1;1;4;0;0;;0;0;();();(-2000.0, -2000.0);
09:12:22:496;09:12:22:435;1448051300.37;(0, 0);0;0;09:12:22:496;0;15;-1.34838709677419;341;2.1505376344086;0;0;0;1;1;1;1;4;0;0;;0;0;();();(-2000.0, -2000.0);
09:12:22:512;09:12:22:435;1448051300.37;(0, 0);0;0;09:12:22:512;0;15;-1.34838709677419;341;2.1505376344086;0;0;0;1;1;1;1;4;0;0;;0;0;();();(-2000.0, -2000.0);
