%Timestamp,timestamp_write;timestamp_gotpupil;eyetrackertime;norm_pos;diameter;confidence;timestamp_gotbitdata;CRC;SEQ;AnalogOutp1;AnalogOutp2;AnalogOutp3;AnalogOutp4;AnalogOutp5;AnalogOutp6;DigitalOutp1;DigitalOutp2;igitalOutp3;DigitalOutp4;nplanes;lastaction;lastactiondetails;lastactionairplanenumber;positivescore;negativescore;collidedairplanenumbers;targetpositions;collision_point
09:05:02:804;1448050860.68;(0.5856852054595947, 0.5774099985758463);84.4561309814;0.730010067135;;;;;;;;;;;;;;0;0;0;;0;0;();();(0.0, 0.0);
09:05:02:817;1448050860.68;(0.5856852054595947, 0.5774099985758463);84.4561309814;0.730010067135;;;;;;;;;;;;;;0;0;0;;0;0;();();(-2000.0, -2000.0);
09:05:02:821;1448050860.68;(0.5856852054595947, 0.5774099985758463);84.4561309814;0.730010067135;;;;;;;;;;;;;;0;0;0;;0;0;();();(-2000.0, -2000.0);
09:05:02:823;1448050860.68;(0.5856852054595947, 0.5774099985758463);84.4561309814;0.730010067135;;;;;;;;;;;;;;0;0;0;;0;0;();();(-2000.0, -2000.0);
09:05:02:825;1448050860.68;(0.5856852054595947, 0.5774099985758463);84.4561309814;0.730010067135;;;;;;;;;;;;;;0;0;0;;0;0;();();(-2000.0, -2000.0);
09:05:02:828;1448050860.68;(0.5856852054595947, 0.5774099985758463);84.4561309814;0.730010067135;;;;;;;;;;;;;;0;0;0;;0;0;();();(-2000.0, -2000.0);
09:05:02:830;1448050860.68;(0.5856852054595947, 0.5774099985758463);84.4561309814;0.730010067135;;;;;;;;;;;;;;0;0;0;;0;0;();();(-2000.0, -2000.0);
09:05:02:832;1448050860.68;(0.5856852054595947, 0.5774099985758463);84.4561309814;0.730010067135;;;;;;;;;;;;;;0;0;0;;0;0;();();(-2000.0, -2000.0);
09:05:02:835;1448050860.68;(0.5856852054595947, 0.5774099985758463);84.4561309814;0.730010067135;;;;;;;;;;;;;;0;0;0;;0;0;();();(-2000.0, -2000.0);
09:05:02:836;1448050860.68;(0.5856852054595947, 0.5774099985758463);84.4561309814;0.730010067135;;;;;;;;;;;;;;0;0;0;;0;0;();();(-2000.0, -2000.0);
09:05:02:837;1448050860.68;(0.5856852054595947, 0.5774099985758463);84.4561309814;0.730010067135;;;;;;;;;;;;;;0;0;0;;0;0;();();(-2000.0, -2000.0);
09:05:02:838;1448050860.68;(0.5856852054595947, 0.5774099985758463);84.4561309814;0.730010067135;;;;;;;;;;;;;;0;0;0;;0;0;();();(-2000.0, -2000.0);
09:05:02:839;1448050860.68;(0.5856852054595947, 0.5774099985758463);84.4561309814;0.730010067135;;;;;;;;;;;;;;0;0;0;;0;0;();();(-2000.0, -2000.0);
09:05:02:840;1448050860.68;(0.5856852054595947, 0.5774099985758463);84.4561309814;0.730010067135;;;;;;;;;;;;;;0;0;0;;0;0;();();(-2000.0, -2000.0);
09:05:02:841;1448050860.68;(0.5856852054595947, 0.5774099985758463);84.4561309814;0.730010067135;;;;;;;;;;;;;;0;0;0;;0;0;();();(-2000.0, -2000.0);
09:05:02:842;1448050860.68;(0.5856852054595947, 0.5774099985758463);84.4561309814;0.730010067135;;;;;;;;;;;;;;0;0;0;;0;0;();();(-2000.0, -2000.0);
09:05:02:844;1448050860.68;(0.5856852054595947, 0.5774099985758463);84.4561309814;0.730010067135;;;;;;;;;;;;;;0;0;0;;0;0;();();(-2000.0, -2000.0);
09:05:02:845;1448050860.68;(0.5856852054595947, 0.5774099985758463);84.4561309814;0.730010067135;;;;;;;;;;;;;;0;0;0;;0;0;();();(-2000.0, -2000.0);
09:05:02:851;1448050860.68;(0.5856852054595947, 0.5774099985758463);84.4561309814;0.730010067135;;;;;;;;;;;;;;0;0;0;;0;0;();();(-2000.0, -2000.0);
09:05:02:884;1448050860.68;(0.5856852054595947, 0.5774099985758463);84.4561309814;0.730010067135;;;;;;;;;;;;;;0;0;0;;0;0;();();(-2000.0, -2000.0);
09:05:02:901;1448050860.68;(0.5856852054595947, 0.5774099985758463);84.4561309814;0.730010067135;;;;;;;;;;;;;;0;0;0;;0;0;();();(-2000.0, -2000.0);
09:05:02:917;1448050860.68;(0.5856852054595947, 0.5774099985758463);84.4561309814;0.730010067135;;;;;;;;;;;;;;0;0;0;;0;0;();();(-2000.0, -2000.0);
09:05:02:934;09:05:02:932;1448050860.76;(0.5862829208374023, 0.5627033233642578);84.4651412964;1.0;;;;;;;;;;;;;;0;0;0;;0;0;();();(-2000.0, -2000.0);
09:05:02:951;09:05:02:932;1448050860.76;(0.5862829208374023, 0.5627033233642578);84.4651412964;1.0;;;;;;;;;;;;;;0;0;0;;0;0;();();(-2000.0, -2000.0);
09:05:04:433;09:05:04:393;1448050862.35;(0.6058932304382324, 0.6222040600246853);82.0244522095;0.835401105635;;;;;;;;;;;;;;0;0;0;;0;0;();();(-2000.0, -2000.0);
09:05:04:436;09:05:04:393;1448050862.35;(0.6058932304382324, 0.6222040600246853);82.0244522095;0.835401105635;;;;;;;;;;;;;;0;0;0;;0;0;();();(-2000.0, -2000.0);
09:05:04:438;09:05:04:393;1448050862.35;(0.6058932304382324, 0.6222040600246853);82.0244522095;0.835401105635;;;;;;;;;;;;;;0;0;0;;0;0;();();(-2000.0, -2000.0);
09:05:04:441;09:05:04:393;1448050862.35;(0.6058932304382324, 0.6222040600246853);82.0244522095;0.835401105635;;;;;;;;;;;;;;0;0;0;;0;0;();();(-2000.0, -2000.0);
09:05:04:443;09:05:04:393;1448050862.35;(0.6058932304382324, 0.6222040600246853);82.0244522095;0.835401105635;;;;;;;;;;;;;;0;0;0;;0;0;();();(-2000.0, -2000.0);
09:05:04:446;09:05:04:393;1448050862.35;(0.6058932304382324, 0.6222040600246853);82.0244522095;0.835401105635;;;;;;;;;;;;;;0;0;0;;0;0;();();(-2000.0, -2000.0);
09:05:04:448;09:05:04:393;1448050862.35;(0.6058932304382324, 0.6222040600246853);82.0244522095;0.835401105635;;;;;;;;;;;;;;0;0;0;;0;0;();();(-2000.0, -2000.0);
09:05:04:451;09:05:04:393;1448050862.35;(0.6058932304382324, 0.6222040600246853);82.0244522095;0.835401105635;;;;;;;;;;;;;;0;0;0;;0;0;();();(-2000.0, -2000.0);
09:05:04:453;09:05:04:393;1448050862.35;(0.6058932304382324, 0.6222040600246853);82.0244522095;0.835401105635;;;;;;;;;;;;;;0;0;0;;0;0;();();(-2000.0, -2000.0);
09:05:04:454;09:05:04:393;1448050862.35;(0.6058932304382324, 0.6222040600246853);82.0244522095;0.835401105635;;;;;;;;;;;;;;0;0;0;;0;0;();();(-2000.0, -2000.0);
09:05:04:456;09:05:04:393;1448050862.35;(0.6058932304382324, 0.6222040600246853);82.0244522095;0.835401105635;;;;;;;;;;;;;;0;0;0;;0;0;();();(-2000.0, -2000.0);
09:05:04:457;09:05:04:393;1448050862.35;(0.6058932304382324, 0.6222040600246853);82.0244522095;0.835401105635;;;;;;;;;;;;;;0;0;0;;0;0;();();(-2000.0, -2000.0);
09:05:04:458;09:05:04:393;1448050862.35;(0.6058932304382324, 0.6222040600246853);82.0244522095;0.835401105635;;;;;;;;;;;;;;0;0;0;;0;0;();();(-2000.0, -2000.0);
09:05:04:459;09:05:04:393;1448050862.35;(0.6058932304382324, 0.6222040600246853);82.0244522095;0.835401105635;;;;;;;;;;;;;;0;0;0;;0;0;();();(-2000.0, -2000.0);
09:05:04:460;09:05:04:460;1448050862.38;(0.599918270111084, 0.6214935726589627);80.7062149048;0.890695954253;;;;;;;;;;;;;;0;0;0;;0;0;();();(-2000.0, -2000.0);
09:05:04:461;09:05:04:460;1448050862.38;(0.599918270111084, 0.6214935726589627);80.7062149048;0.890695954253;;;;;;;;;;;;;;0;0;0;;0;0;();();(-2000.0, -2000.0);
09:05:04:462;09:05:04:460;1448050862.38;(0.599918270111084, 0.6214935726589627);80.7062149048;0.890695954253;;;;;;;;;;;;;;0;0;0;;0;0;();();(-2000.0, -2000.0);
09:05:04:464;09:05:04:460;1448050862.38;(0.599918270111084, 0.6214935726589627);80.7062149048;0.890695954253;;;;;;;;;;;;;;0;0;0;;0;0;();();(-2000.0, -2000.0);
09:05:04:485;09:05:04:460;1448050862.38;(0.599918270111084, 0.6214935726589627);80.7062149048;0.890695954253;;;;;;;;;;;;;;0;0;0;;0;0;();();(-2000.0, -2000.0);
09:05:04:501;09:05:04:460;1448050862.38;(0.599918270111084, 0.6214935726589627);80.7062149048;0.890695954253;;;;;;;;;;;;;;0;0;0;;0;0;();();(-2000.0, -2000.0);
09:05:04:520;09:05:04:460;1448050862.38;(0.599918270111084, 0.6214935726589627);80.7062149048;0.890695954253;;;;;;;;;;;;;;0;0;0;;0;0;();();(-2000.0, -2000.0);
09:05:04:552;09:05:04:525;1448050862.44;(0.5952963352203369, 0.6187818951076931);82.5669937134;0.928071317802;;;;;;;;;;;;;;0;0;0;;0;0;();();(-2000.0, -2000.0);
09:05:04:569;09:05:04:525;1448050862.44;(0.5952963352203369, 0.6187818951076931);82.5669937134;0.928071317802;;;;;;;;;;;;;;0;0;0;;0;0;();();(-2000.0, -2000.0);
09:05:04:586;09:05:04:525;1448050862.44;(0.5952963352203369, 0.6187818951076931);82.5669937134;0.928071317802;;;;;;;;;;;;;;0;0;0;;0;0;();();(-2000.0, -2000.0);
09:05:04:602;09:05:04:593;1448050862.57;(0.8027146816253662, 0.781306521097819);26.360584259;0.614202857587;;;;;;;;;;;;;;0;0;0;;0;0;();();(-2000.0, -2000.0);
09:05:04:618;09:05:04:593;1448050862.57;(0.8027146816253662, 0.781306521097819);26.360584259;0.614202857587;;;;;;;;;;;;;;0;0;0;;0;0;();();(-2000.0, -2000.0);
09:05:04:652;09:05:04:593;1448050862.57;(0.8027146816253662, 0.781306521097819);26.360584259;0.614202857587;;;;;;;;;;;;;;0;0;0;;0;0;();();(-2000.0, -2000.0);
09:05:04:669;09:05:04:662;1448050862.61;(0.24691107273101806, 0.41468955145941844);22.2354412079;0.807254239043;;;;;;;;;;;;;;0;0;0;;0;0;();();(-2000.0, -2000.0);
09:05:04:685;09:05:04:662;1448050862.61;(0.24691107273101806, 0.41468955145941844);22.2354412079;0.807254239043;;;;;;;;;;;;;;0;0;0;;0;0;();();(-2000.0, -2000.0);
09:05:04:702;09:05:04:662;1448050862.61;(0.24691107273101806, 0.41468955145941844);22.2354412079;0.807254239043;;;;;;;;;;;;;;0;0;0;;0;0;();();(-2000.0, -2000.0);
09:05:04:719;09:05:04:662;1448050862.61;(0.24691107273101806, 0.41468955145941844);22.2354412079;0.807254239043;;;;;;;;;;;;;;0;0;0;;0;0;();();(-2000.0, -2000.0);
09:05:04:752;09:05:04:726;1448050862.65;(0.6755363941192627, 0.6220736185709635);73.9526901245;0.752417174934;;;;;;;;;;;;;;0;0;0;;0;0;();();(-2000.0, -2000.0);
09:05:04:769;09:05:04:726;1448050862.65;(0.6755363941192627, 0.6220736185709635);73.9526901245;0.752417174934;;;;;;;;;;;;;;0;0;0;;0;0;();();(-2000.0, -2000.0);
09:05:04:786;09:05:04:726;1448050862.65;(0.6755363941192627, 0.6220736185709635);73.9526901245;0.752417174934;;;;;;;;;;;;;;0;0;0;;0;0;();();(-2000.0, -2000.0);
09:05:04:803;09:05:04:726;1448050862.65;(0.6755363941192627, 0.6220736185709635);73.9526901245;0.752417174934;;;;;;;;;;;;;;0;0;0;;0;0;();();(-2000.0, -2000.0);
09:05:04:819;09:05:04:726;1448050862.65;(0.6755363941192627, 0.6220736185709635);73.9526901245;0.752417174934;;;;;;;;;;;;;;0;0;0;;0;0;();();(-2000.0, -2000.0);
09:05:04:852;09:05:04:726;1448050862.65;(0.6755363941192627, 0.6220736185709635);73.9526901245;0.752417174934;;;;;;;;;;;;;;0;0;0;;0;0;();();(-2000.0, -2000.0);
09:05:04:869;09:05:04:857;1448050862.83;(0.671179723739624, 0.6148397233751085);80.3106155396;0.89134471773;;;;;;;;;;;;;;0;0;0;;0;0;();();(-2000.0, -2000.0);
09:05:04:886;09:05:04:857;1448050862.83;(0.671179723739624, 0.6148397233751085);80.3106155396;0.89134471773;;;;;;;;;;;;;;0;0;0;;0;0;();();(-2000.0, -2000.0);
09:05:04:902;09:05:04:857;1448050862.83;(0.671179723739624, 0.6148397233751085);80.3106155396;0.89134471773;;;;;;;;;;;;;;0;0;0;;0;0;();();(-2000.0, -2000.0);
09:05:04:919;09:05:04:857;1448050862.83;(0.671179723739624, 0.6148397233751085);80.3106155396;0.89134471773;;;;;;;;;;;;;;0;0;0;;0;0;();();(-2000.0, -2000.0);
09:05:04:952;09:05:04:926;1448050862.88;(0.6695137023925781, 0.6141130235460069);78.912689209;0.818283225177;;;;;;;;;;;;;;0;0;0;;0;0;();();(-2000.0, -2000.0);
09:05:04:969;09:05:04:926;1448050862.88;(0.6695137023925781, 0.6141130235460069);78.912689209;0.818283225177;;;;;;;;;;;;;;0;0;0;;0;0;();();(-2000.0, -2000.0);
09:05:04:985;09:05:04:926;1448050862.88;(0.6695137023925781, 0.6141130235460069);78.912689209;0.818283225177;;;;;;;;;;;;;;0;0;0;;0;0;();();(-2000.0, -2000.0);
09:05:05:002;09:05:04:993;1448050862.95;(0.6690742492675781, 0.6148094601101346);78.9064941406;1.0;;;;;;;;;;;;;;0;0;0;;0;0;();();(-2000.0, -2000.0);
09:05:05:019;09:05:04:993;1448050862.95;(0.6690742492675781, 0.6148094601101346);78.9064941406;1.0;;;;;;;;;;;;;;0;0;0;;0;0;();();(-2000.0, -2000.0);
09:05:05:053;09:05:04:993;1448050862.95;(0.6690742492675781, 0.6148094601101346);78.9064941406;1.0;;;;;;;;;;;;;;0;0;0;;0;0;();();(-2000.0, -2000.0);
09:05:05:069;09:05:05:057;1448050863.01;(0, 0);0;0;;;;;;;;;;;;;;0;0;0;;0;0;();();(-2000.0, -2000.0);
09:05:05:085;09:05:05:057;1448050863.01;(0, 0);0;0;;;;;;;;;;;;;;0;0;0;;0;0;();();(-2000.0, -2000.0);
09:05:05:102;09:05:05:057;1448050863.01;(0, 0);0;0;;;;;;;;;;;;;;0;0;0;;0;0;();();(-2000.0, -2000.0);
09:05:05:120;09:05:05:057;1448050863.01;(0, 0);0;0;;;;;;;;;;;;;;0;0;0;;0;0;();();(-2000.0, -2000.0);
09:05:05:650;09:05:05:589;1448050863.56;(0.6158674240112305, 0.6427517573038737);82.2514266968;0.847326821685;09:05:05:647;0;10;-1.35806451612903;1;0.684261974584555;0;0;0;1;1;1;1;0;0;0;;0;0;();();(-2000.0, -2000.0);
09:05:05:653;09:05:05:589;1448050863.56;(0.6158674240112305, 0.6427517573038737);82.2514266968;0.847326821685;09:05:05:653;0;10;-1.35806451612903;1;0.684261974584555;0;0;0;1;1;1;1;0;0;0;;0;0;();();(-2000.0, -2000.0);
09:05:05:656;09:05:05:589;1448050863.56;(0.6158674240112305, 0.6427517573038737);82.2514266968;0.847326821685;09:05:05:656;0;10;-1.35806451612903;1;0.684261974584555;0;0;0;1;1;1;1;0;0;0;;0;0;();();(-2000.0, -2000.0);
09:05:05:659;09:05:05:589;1448050863.56;(0.6158674240112305, 0.6427517573038737);82.2514266968;0.847326821685;09:05:05:659;0;5;-1.33548387096774;1;0.684261974584555;0;0;0;1;1;1;1;0;0;0;;0;0;();();(-2000.0, -2000.0);
09:05:05:662;09:05:05:589;1448050863.56;(0.6158674240112305, 0.6427517573038737);82.2514266968;0.847326821685;09:05:05:662;0;5;-1.33548387096774;1;0.684261974584555;0;0;0;1;1;1;1;0;0;0;;0;0;();();(-2000.0, -2000.0);
09:05:05:664;09:05:05:589;1448050863.56;(0.6158674240112305, 0.6427517573038737);82.2514266968;0.847326821685;09:05:05:664;0;12;-1.3741935483871;1;0.684261974584555;0;0;0;1;1;1;1;0;0;0;;0;0;();();(-2000.0, -2000.0);
09:05:05:667;09:05:05:589;1448050863.56;(0.6158674240112305, 0.6427517573038737);82.2514266968;0.847326821685;09:05:05:667;0;0;-1.35806451612903;1;0.684261974584555;0;0;0;1;1;1;1;0;0;0;;0;0;();();(-2000.0, -2000.0);
09:05:05:670;09:05:05:589;1448050863.56;(0.6158674240112305, 0.6427517573038737);82.2514266968;0.847326821685;09:05:05:670;0;0;-1.35806451612903;1;0.684261974584555;0;0;0;1;1;1;1;0;0;0;;0;0;();();(-2000.0, -2000.0);
09:05:05:673;09:05:05:589;1448050863.56;(0.6158674240112305, 0.6427517573038737);82.2514266968;0.847326821685;09:05:05:673;0;0;-1.35806451612903;1;0.684261974584555;0;0;0;1;1;1;1;0;0;0;;0;0;();();(-2000.0, -2000.0);
09:05:05:676;09:05:05:589;1448050863.56;(0.6158674240112305, 0.6427517573038737);82.2514266968;0.847326821685;09:05:05:676;0;0;-1.35806451612903;1;0.684261974584555;0;0;0;1;1;1;1;0;0;0;;0;0;();();(-2000.0, -2000.0);
09:05:05:679;09:05:05:589;1448050863.56;(0.6158674240112305, 0.6427517573038737);82.2514266968;0.847326821685;09:05:05:679;0;10;-1.33548387096774;1;0.684261974584555;0;0;0;1;1;1;1;0;0;0;;0;0;();();(-2000.0, -2000.0);
09:05:05:682;09:05:05:589;1448050863.56;(0.6158674240112305, 0.6427517573038737);82.2514266968;0.847326821685;09:05:05:682;0;10;-1.33548387096774;1;0.684261974584555;0;0;0;1;1;1;1;0;0;0;;0;0;();();(-2000.0, -2000.0);
09:05:05:684;09:05:05:589;1448050863.56;(0.6158674240112305, 0.6427517573038737);82.2514266968;0.847326821685;09:05:05:684;0;10;-1.33548387096774;1;0.684261974584555;0;0;0;1;1;1;1;0;0;0;;0;0;();();(-2000.0, -2000.0);
09:05:05:686;09:05:05:589;1448050863.56;(0.6158674240112305, 0.6427517573038737);82.2514266968;0.847326821685;09:05:05:686;0;10;-1.33548387096774;1;0.684261974584555;0;0;0;1;1;1;1;0;0;0;;0;0;();();(-2000.0, -2000.0);
09:05:05:687;09:05:05:589;1448050863.56;(0.6158674240112305, 0.6427517573038737);82.2514266968;0.847326821685;09:05:05:687;0;10;-1.33548387096774;1;0.684261974584555;0;0;0;1;1;1;1;0;0;0;;0;0;();();(-2000.0, -2000.0);
09:05:05:688;09:05:05:589;1448050863.56;(0.6158674240112305, 0.6427517573038737);82.2514266968;0.847326821685;09:05:05:688;0;10;-1.33548387096774;1;0.684261974584555;0;0;0;1;1;1;1;0;0;0;;0;0;();();(-2000.0, -2000.0);
09:05:05:690;09:05:05:589;1448050863.56;(0.6158674240112305, 0.6427517573038737);82.2514266968;0.847326821685;09:05:05:690;0;4;-1.3741935483871;1;0.684261974584555;0;0;0;1;1;1;1;0;0;0;;0;0;();();(-2000.0, -2000.0);
09:05:05:691;09:05:05:589;1448050863.56;(0.6158674240112305, 0.6427517573038737);82.2514266968;0.847326821685;09:05:05:691;0;4;-1.3741935483871;1;0.684261974584555;0;0;0;1;1;1;1;0;0;0;;0;0;();();(-2000.0, -2000.0);
09:05:05:693;09:05:05:589;1448050863.56;(0.6158674240112305, 0.6427517573038737);82.2514266968;0.847326821685;09:05:05:693;0;4;-1.3741935483871;1;0.684261974584555;0;0;0;1;1;1;1;0;0;0;;0;0;();();(-2000.0, -2000.0);
09:05:05:719;09:05:05:589;1448050863.56;(0.6158674240112305, 0.6427517573038737);82.2514266968;0.847326821685;09:05:05:719;0;9;-1.35806451612903;1;0.684261974584555;0;0;0;1;1;1;1;0;0;0;;0;0;();();(-2000.0, -2000.0);
09:05:05:736;09:05:05:720;1448050863.58;(0.6178311347961426, 0.6496691173977323);81.4960479736;1.0;09:05:05:736;0;14;-1.35806451612903;1;0.684261974584555;0;0;0;1;1;1;1;0;0;0;;0;0;();();(-2000.0, -2000.0);
09:05:05:752;09:05:05:720;1448050863.58;(0.6178311347961426, 0.6496691173977323);81.4960479736;1.0;09:05:05:752;0;9;-1.35806451612903;1;0.684261974584555;0;0;0;1;1;1;1;0;0;0;;0;0;();();(-2000.0, -2000.0);
09:05:05:786;09:05:05:720;1448050863.58;(0.6178311347961426, 0.6496691173977323);81.4960479736;1.0;09:05:05:786;0;4;-1.33548387096774;1;0.684261974584555;0;0;0;1;1;1;1;0;0;0;;0;0;();();(-2000.0, -2000.0);
09:05:05:803;09:05:05:789;1448050863.72;(0.6176266193389892, 0.6447787814670138);80.4437561035;0.97680736323;09:05:05:803;0;15;-1.3741935483871;1;0.684261974584555;0;0;0;1;1;1;1;0;0;0;;0;0;();();(-2000.0, -2000.0);
09:05:05:819;09:05:05:789;1448050863.72;(0.6176266193389892, 0.6447787814670138);80.4437561035;0.97680736323;09:05:05:819;0;5;-1.3741935483871;1;0.684261974584555;0;0;0;1;1;1;1;0;0;0;;0;0;();();(-2000.0, -2000.0);
09:05:05:836;09:05:05:789;1448050863.72;(0.6176266193389892, 0.6447787814670138);80.4437561035;0.97680736323;09:05:05:836;0;0;-1.33225806451613;1;0.684261974584555;0;0;0;1;1;1;1;0;0;0;;0;0;();();(-2000.0, -2000.0);
09:05:05:853;09:05:05:852;1448050863.77;(0.6195539474487305, 0.6445918613009982);79.6607818604;0.878063660091;09:05:05:853;0;4;-1.3;1;1.17302052785924;0;0;0;1;1;1;1;0;0;0;;0;0;();();(-2000.0, -2000.0);
09:05:05:887;09:05:05:852;1448050863.77;(0.6195539474487305, 0.6445918613009982);79.6607818604;0.878063660091;09:05:05:887;0;4;-1.34516129032258;1;0.684261974584555;0;0;0;1;1;1;1;0;0;0;;0;0;();();(-2000.0, -2000.0);
09:05:05:903;09:05:05:852;1448050863.77;(0.6195539474487305, 0.6445918613009982);79.6607818604;0.878063660091;09:05:05:903;0;9;-1.34516129032258;1;0.684261974584555;0;0;0;1;1;1;1;0;0;0;;0;0;();();(-2000.0, -2000.0);
09:05:05:919;09:05:05:852;1448050863.77;(0.6195539474487305, 0.6445918613009982);79.6607818604;0.878063660091;09:05:05:919;0;5;-1.34516129032258;1;0.684261974584555;0;0;0;1;1;1;1;0;0;0;;0;0;();();(-2000.0, -2000.0);
09:05:05:937;09:05:05:921;1448050863.82;(0.6243550777435303, 0.6438556247287326);79.0168838501;0.968338905768;09:05:05:937;0;10;-1.34516129032258;1;0.684261974584555;0;0;0;1;1;1;1;0;0;0;;0;0;();();(-2000.0, -2000.0);
09:05:05:954;09:05:05:921;1448050863.82;(0.6243550777435303, 0.6438556247287326);79.0168838501;0.968338905768;09:05:05:954;0;4;-1.29677419354839;1;1.17302052785924;0;0;0;1;1;1;1;0;0;0;;0;0;();();(-2000.0, -2000.0);
09:05:05:987;09:05:05:921;1448050863.82;(0.6243550777435303, 0.6438556247287326);79.0168838501;0.968338905768;09:05:05:987;0;5;-1.34516129032258;341;2.34604105571848;0;0;0;1;1;1;1;0;0;0;;0;0;();();(-2000.0, -2000.0);
09:05:06:004;09:05:05:990;1448050863.95;(0, 0);0;0;09:05:06:004;0;10;-1.34516129032258;341;2.34604105571848;0;0;0;1;1;1;1;0;0;0;;0;0;();();(-2000.0, -2000.0);
09:05:06:020;09:05:05:990;1448050863.95;(0, 0);0;0;09:05:06:020;0;5;-1.34193548387097;1.77913043478261;1.85728250244379;0;0;0;1;1;1;1;0;0;0;;0;0;();();(-2000.0, -2000.0);
09:05:06:037;09:05:05:990;1448050863.95;(0, 0);0;0;09:05:06:037;0;9;-1.34193548387097;1;0.684261974584555;0;0;0;1;1;1;1;0;0;0;;0;0;();();(-2000.0, -2000.0);
09:05:06:053;09:05:06:052;1448050864.01;(0, 0);0;0;09:05:06:053;0;4;-1.35806451612903;1;0.684261974584555;0;0;0;1;1;1;1;0;0;0;;0;0;();();(-2000.0, -2000.0);
09:05:06:087;09:05:06:052;1448050864.01;(0, 0);0;0;09:05:06:087;0;15;-1.33548387096774;1.00294117647059;0.684261974584555;0;0;0;1;1;1;1;0;0;0;;0;0;();();(-2000.0, -2000.0);
09:05:06:103;09:05:06:052;1448050864.01;(0, 0);0;0;09:05:06:103;0;10;-1.33548387096774;1;0.684261974584555;0;0;0;1;1;1;1;0;0;0;;0;0;();();(-2000.0, -2000.0);
09:05:06:120;09:05:06:052;1448050864.01;(0, 0);0;0;09:05:06:120;0;15;-1.33548387096774;1;0.684261974584555;0;0;0;1;1;1;1;0;0;0;;0;0;();();(-2000.0, -2000.0);
09:05:06:136;09:05:06:120;1448050864.05;(0, 0);0;0;09:05:06:136;0;10;-1.33548387096774;1.71932773109244;1.85728250244379;0;0;0;1;1;1;1;0;0;0;;0;0;();();(-2000.0, -2000.0);
09:05:06:153;09:05:06:120;1448050864.05;(0, 0);0;0;09:05:06:153;0;0;-1.33548387096774;1;0.684261974584555;0;0;0;1;1;1;1;0;0;0;;0;0;();();(-2000.0, -2000.0);
09:05:06:186;09:05:06:184;1448050864.08;(0.3322774410247803, 0.5937172783745659);48.8785247803;0.663632394002;09:05:06:186;0;0;-1.33548387096774;1;0.684261974584555;0;0;0;1;1;1;1;0;0;0;;0;0;();();(-2000.0, -2000.0);
09:05:06:204;09:05:06:184;1448050864.08;(0.3322774410247803, 0.5937172783745659);48.8785247803;0.663632394002;09:05:06:204;0;4;-1.33548387096774;1;0.684261974584555;0;0;0;1;1;1;1;0;0;0;;0;0;();();(-2000.0, -2000.0);
09:05:06:221;09:05:06:184;1448050864.08;(0.3322774410247803, 0.5937172783745659);48.8785247803;0.663632394002;09:05:06:221;0;14;-1.33225806451613;1;0.684261974584555;0;0;0;1;1;1;1;0;0;0;;0;0;();();(-2000.0, -2000.0);
09:05:06:236;09:05:06:184;1448050864.08;(0.3322774410247803, 0.5937172783745659);48.8785247803;0.663632394002;09:05:06:236;0;9;-1.30645161290323;1;0.879765395894428;0;0;0;1;1;1;1;0;0;0;;0;0;();();(-2000.0, -2000.0);
09:05:06:254;09:05:06:254;1448050864.18;(0.3076071262359619, 0.7000555886162652);38.4087677002;0.661123103855;09:05:06:254;0;4;-1.3258064516129;1;0.684261974584555;0;0;0;1;1;1;1;0;0;0;;0;0;();();(-2000.0, -2000.0);
09:05:06:287;09:05:06:254;1448050864.18;(0.3076071262359619, 0.7000555886162652);38.4087677002;0.661123103855;09:05:06:287;0;15;-1.3258064516129;341;2.44379276637341;0;0;0;1;1;1;1;0;0;0;;0;0;();();(-2000.0, -2000.0);
09:05:06:304;09:05:06:254;1448050864.18;(0.3076071262359619, 0.7000555886162652);38.4087677002;0.661123103855;09:05:06:304;0;4;-1.3258064516129;341;2.44379276637341;0;0;0;1;1;1;1;0;0;0;;0;0;();();(-2000.0, -2000.0);
09:05:06:320;09:05:06:254;1448050864.18;(0.3076071262359619, 0.7000555886162652);38.4087677002;0.661123103855;09:05:06:320;0;10;-1.3;341;3.03030303030303;0;0;0;1;1;1;1;0;0;0;;0;0;();();(-2000.0, -2000.0);
09:05:06:337;09:05:06:320;1448050864.21;(0.6335737705230713, 0.6559178882175022);79.8594207764;1.0;09:05:06:337;0;5;-1.34838709677419;341;2.44379276637341;0;0;0;1;1;1;1;0;0;0;;0;0;();();(-2000.0, -2000.0);
09:05:06:353;09:05:06:320;1448050864.21;(0.6335737705230713, 0.6559178882175022);79.8594207764;1.0;09:05:06:353;0;10;-1.3;341;3.03030303030303;0;0;0;1;1;1;1;0;0;0;;0;0;();();(-2000.0, -2000.0);
09:05:06:387;09:05:06:320;1448050864.21;(0.6335737705230713, 0.6559178882175022);79.8594207764;1.0;09:05:06:387;0;9;-1.30645161290323;341;3.03030303030303;0;0;0;1;1;1;1;0;0;0;;0;0;();();(-2000.0, -2000.0);
09:05:06:402;09:05:06:320;1448050864.21;(0.6335737705230713, 0.6559178882175022);79.8594207764;1.0;09:05:06:402;0;5;-1.30645161290323;341;3.03030303030303;0;0;0;1;1;1;1;0;0;0;;0;0;();();(-2000.0, -2000.0);
09:05:06:421;09:05:06:320;1448050864.21;(0.6335737705230713, 0.6559178882175022);79.8594207764;1.0;09:05:06:421;0;10;-1.3258064516129;341;2.44379276637341;0;0;0;1;1;1;1;0;0;0;;0;0;();();(-2000.0, -2000.0);
09:05:06:437;09:05:06:320;1448050864.21;(0.6335737705230713, 0.6559178882175022);79.8594207764;1.0;09:05:06:437;0;5;-1.30645161290323;341;3.03030303030303;0;0;0;1;1;1;1;0;0;0;;0;0;();();(-2000.0, -2000.0);
09:05:06:453;09:05:06:452;1448050864.39;(0.6521268367767334, 0.6597542868720161);81.8398513794;1.0;09:05:06:453;0;9;-1.3258064516129;341;2.44379276637341;0;0;0;1;1;1;1;0;0;0;;0;0;();();(-2000.0, -2000.0);
09:05:06:487;09:05:06:452;1448050864.39;(0.6521268367767334, 0.6597542868720161);81.8398513794;1.0;09:05:06:487;0;10;-1.33225806451613;341;2.44379276637341;0;0;0;1;1;1;1;0;0;0;;0;0;();();(-2000.0, -2000.0);
09:05:06:503;09:05:06:452;1448050864.39;(0.6521268367767334, 0.6597542868720161);81.8398513794;1.0;09:05:06:503;0;5;-1.33225806451613;341;2.44379276637341;0;0;0;1;1;1;1;0;0;0;;0;0;();();(-2000.0, -2000.0);
09:05:06:520;09:05:06:517;1448050864.45;(0.606919813156128, 0.676366678873698);81.7197418213;0.805800028906;09:05:06:520;0;4;-1.35161290322581;1;0.684261974584555;0;0;0;1;1;1;1;0;0;0;;0;0;();();(-2000.0, -2000.0);
09:05:06:537;09:05:06:517;1448050864.45;(0.606919813156128, 0.676366678873698);81.7197418213;0.805800028906;09:05:06:537;0;0;-1.33548387096774;1;0.684261974584555;0;0;0;1;1;1;1;0;0;0;;0;0;();();(-2000.0, -2000.0);
09:05:06:554;09:05:06:517;1448050864.45;(0.606919813156128, 0.676366678873698);81.7197418213;0.805800028906;09:05:06:554;0;5;-1.33548387096774;1;0.684261974584555;0;0;0;1;1;1;1;0;0;0;;0;0;();();(-2000.0, -2000.0);
09:05:06:587;09:05:06:585;1448050864.49;(0.5972430229187011, 0.6877563052707248);85.8478164673;0.946767558227;09:05:06:587;0;4;-1.30645161290323;1;0.879765395894428;0;0;0;1;1;1;1;0;0;0;;0;0;();();(-2000.0, -2000.0);
09:05:06:604;09:05:06:585;1448050864.49;(0.5972430229187011, 0.6877563052707248);85.8478164673;0.946767558227;09:05:06:604;0;5;-1.28387096774194;1;1.17302052785924;0;0;0;1;1;1;1;0;0;0;;0;0;();();(-2000.0, -2000.0);
09:05:06:621;09:05:06:585;1448050864.49;(0.5972430229187011, 0.6877563052707248);85.8478164673;0.946767558227;09:05:06:621;0;5;-1.30645161290323;1;0.879765395894428;0;0;0;1;1;1;1;0;0;0;;0;0;();();(-2000.0, -2000.0);
09:05:06:637;09:05:06:585;1448050864.49;(0.5972430229187011, 0.6877563052707248);85.8478164673;0.946767558227;09:05:06:637;0;15;-1.33548387096774;1;0.684261974584555;0;0;0;1;1;1;1;0;0;0;;0;0;();();(-2000.0, -2000.0);
09:05:06:654;09:05:06:653;1448050864.53;(0.601259422302246, 0.6775342729356554);83.5027999878;1.0;09:05:06:654;0;5;-1.35161290322581;1;0.684261974584555;0;0;0;1;1;1;1;0;0;0;;0;0;();();(-2000.0, -2000.0);
09:05:06:687;09:05:06:653;1448050864.53;(0.601259422302246, 0.6775342729356554);83.5027999878;1.0;09:05:06:687;0;4;-1.33548387096774;341;2.34604105571848;0;0;0;1;1;1;1;0;0;0;;0;0;();();(-2000.0, -2000.0);
09:05:06:704;09:05:06:653;1448050864.53;(0.601259422302246, 0.6775342729356554);83.5027999878;1.0;09:05:06:704;0;9;-1.33548387096774;341;2.34604105571848;0;0;0;1;1;1;1;0;0;0;;0;0;();();(-2000.0, -2000.0);
09:05:06:720;09:05:06:716;1448050864.68;(0.23635413646697997, 0.4203727722167969);23.4156837463;0.608519889847;09:05:06:720;0;5;-1.30645161290323;341;3.03030303030303;0;0;0;1;1;1;1;0;0;0;;0;0;();();(-2000.0, -2000.0);
09:05:06:738;09:05:06:716;1448050864.68;(0.23635413646697997, 0.4203727722167969);23.4156837463;0.608519889847;09:05:06:738;0;10;-1.33548387096774;341;2.44379276637341;0;0;0;1;1;1;1;0;0;0;;0;0;();();(-2000.0, -2000.0);
09:05:06:754;09:05:06:716;1448050864.68;(0.23635413646697997, 0.4203727722167969);23.4156837463;0.608519889847;09:05:06:754;0;12;-1.33225806451613;341;2.44379276637341;0;0;0;1;1;1;1;0;0;0;;0;0;();();(-2000.0, -2000.0);
09:05:06:771;09:05:06:716;1448050864.68;(0.23635413646697997, 0.4203727722167969);23.4156837463;0.608519889847;09:05:06:771;0;9;-1.3258064516129;341;2.44379276637341;0;0;0;1;1;1;1;0;0;0;;0;0;();();(-2000.0, -2000.0);
09:05:06:804;09:05:06:785;1448050864.75;(0.5931153774261475, 0.7298656675550672);81.174446106;0.683520188287;09:05:06:804;0;10;-1.3258064516129;341;2.44379276637341;0;0;0;1;1;1;1;0;0;0;;0;0;();();(-2000.0, -2000.0);
09:05:06:821;09:05:06:785;1448050864.75;(0.5931153774261475, 0.7298656675550672);81.174446106;0.683520188287;09:05:06:821;0;4;-1.3258064516129;341;2.44379276637341;0;0;0;1;1;1;1;0;0;0;;0;0;();();(-2000.0, -2000.0);
09:05:06:837;09:05:06:785;1448050864.75;(0.5931153774261475, 0.7298656675550672);81.174446106;0.683520188287;09:05:06:837;0;10;-1.3258064516129;1;0.684261974584555;0;0;0;1;1;1;1;0;0;0;;0;0;();();(-2000.0, -2000.0);
09:05:06:854;09:05:06:849;1448050864.81;(0.5975162982940674, 0.6885048548380535);86.9877319336;0.866197461128;09:05:06:854;0;15;-1.3258064516129;341;2.44379276637341;0;0;0;1;1;1;1;0;0;0;;0;0;();();(-2000.0, -2000.0);
09:05:06:871;09:05:06:849;1448050864.81;(0.5975162982940674, 0.6885048548380535);86.9877319336;0.866197461128;09:05:06:871;0;5;-1.3258064516129;341;2.44379276637341;0;0;0;1;1;1;1;0;0;0;;0;0;();();(-2000.0, -2000.0);
09:05:06:903;09:05:06:849;1448050864.81;(0.5975162982940674, 0.6885048548380535);86.9877319336;0.866197461128;09:05:06:903;0;15;-1.3258064516129;341;2.44379276637341;0;0;0;1;1;1;1;0;0;0;;0;0;();();(-2000.0, -2000.0);
09:05:06:921;09:05:06:849;1448050864.81;(0.5975162982940674, 0.6885048548380535);86.9877319336;0.866197461128;09:05:06:921;0;11;-1.33225806451613;1;0.684261974584555;0;0;0;1;1;1;1;0;0;0;;0;0;();();(-2000.0, -2000.0);
09:05:06:937;09:05:06:849;1448050864.81;(0.5975162982940674, 0.6885048548380535);86.9877319336;0.866197461128;09:05:06:937;0;9;-1.33225806451613;1;0.684261974584555;0;0;0;1;1;1;1;0;0;0;;0;0;();();(-2000.0, -2000.0);
09:05:06:955;09:05:06:849;1448050864.81;(0.5975162982940674, 0.6885048548380535);86.9877319336;0.866197461128;09:05:06:955;0;15;-1.2741935483871;1;1.36852394916911;0;0;0;1;1;1;1;0;0;0;;0;0;();();(-2000.0, -2000.0);
09:05:06:988;09:05:06:981;1448050864.95;(0, 0);0;0;09:05:06:988;0;10;-1.3258064516129;1;0.684261974584555;0;0;0;1;1;1;1;0;0;0;;0;0;();();(-2000.0, -2000.0);
09:05:07:004;09:05:06:981;1448050864.95;(0, 0);0;0;09:05:07:004;0;4;-1.30645161290323;1;0.879765395894428;0;0;0;1;1;1;1;0;0;0;;0;0;();();(-2000.0, -2000.0);
09:05:07:021;09:05:06:981;1448050864.95;(0, 0);0;0;09:05:07:021;0;0;-1.2741935483871;1;1.36852394916911;0;0;0;1;1;1;1;0;0;0;;0;0;();();(-2000.0, -2000.0);
09:05:07:038;09:05:06:981;1448050864.95;(0, 0);0;0;09:05:07:038;0;5;-1.3258064516129;1;0.684261974584555;0;0;0;1;1;1;1;0;0;0;;0;0;();();(-2000.0, -2000.0);
09:05:07:054;09:05:07:049;1448050864.98;(0.5379265785217285, 0.4215855492485894);20.1217098236;0.691068787463;09:05:07:054;0;15;-1.3258064516129;1;0.684261974584555;0;0;0;1;1;1;1;0;0;0;;0;0;();();(-2000.0, -2000.0);
09:05:07:071;09:05:07:049;1448050864.98;(0.5379265785217285, 0.4215855492485894);20.1217098236;0.691068787463;09:05:07:071;0;4;-1.27096774193548;1;1.36852394916911;0;0;0;1;1;1;1;0;0;0;;0;0;();();(-2000.0, -2000.0);
09:05:07:104;09:05:07:049;1448050864.98;(0.5379265785217285, 0.4215855492485894);20.1217098236;0.691068787463;09:05:07:104;0;4;-1.3;341;3.03030303030303;0;0;0;1;1;1;1;0;0;0;;0;0;();();(-2000.0, -2000.0);
09:05:07:121;09:05:07:117;1448050865.05;(0.6104886531829834, 0.4188467661539713);35.2398796082;0.644714473013;09:05:07:121;0;15;-1.3258064516129;341;2.44379276637341;0;0;0;1;1;1;1;0;0;0;;0;0;();();(-2000.0, -2000.0);
09:05:07:138;09:05:07:117;1448050865.05;(0.6104886531829834, 0.4188467661539713);35.2398796082;0.644714473013;09:05:07:138;0;5;-1.3258064516129;341;2.44379276637341;0;0;0;1;1;1;1;0;0;0;;0;0;();();(-2000.0, -2000.0);
09:05:07:155;09:05:07:117;1448050865.05;(0.6104886531829834, 0.4188467661539713);35.2398796082;0.644714473013;09:05:07:155;0;10;-1.3;1;0.879765395894428;0;0;0;1;1;1;1;0;0;0;;0;0;();();(-2000.0, -2000.0);
09:05:07:171;09:05:07:117;1448050865.05;(0.6104886531829834, 0.4188467661539713);35.2398796082;0.644714473013;09:05:07:171;0;15;-1.34516129032258;1;0.684261974584555;0;0;0;1;1;1;1;0;0;0;;0;0;();();(-2000.0, -2000.0);
09:05:07:205;09:05:07:117;1448050865.05;(0.6104886531829834, 0.4188467661539713);35.2398796082;0.644714473013;09:05:07:205;0;5;-1.3258064516129;1;0.684261974584555;0;0;0;1;1;1;1;0;0;0;;0;0;();();(-2000.0, -2000.0);
09:05:07:221;09:05:07:117;1448050865.05;(0.6104886531829834, 0.4188467661539713);35.2398796082;0.644714473013;09:05:07:221;0;10;-1.3258064516129;1;0.684261974584555;0;0;0;1;1;1;1;0;0;0;;0;0;();();(-2000.0, -2000.0);
09:05:07:238;09:05:07:117;1448050865.05;(0.6104886531829834, 0.4188467661539713);35.2398796082;0.644714473013;09:05:07:238;0;12;-1.3258064516129;1;0.684261974584555;0;0;0;1;1;1;1;0;0;0;;0;0;();();(-2000.0, -2000.0);
09:05:07:256;09:05:07:249;1448050865.21;(0.3492259502410889, 0.23841807047526042);80.0353927612;0.832147923895;09:05:07:255;0;10;-1.3258064516129;1;0.684261974584555;0;0;0;1;1;1;1;0;0;0;;0;0;();();(-2000.0, -2000.0);
09:05:07:271;09:05:07:249;1448050865.21;(0.3492259502410889, 0.23841807047526042);80.0353927612;0.832147923895;09:05:07:271;0;15;-1.3258064516129;1;0.684261974584555;0;0;0;1;1;1;1;0;0;0;;0;0;();();(-2000.0, -2000.0);
09:05:07:304;09:05:07:249;1448050865.21;(0.3492259502410889, 0.23841807047526042);80.0353927612;0.832147923895;09:05:07:304;0;15;-1.3;1;0.879765395894428;0;0;0;1;1;1;1;0;0;0;;0;0;();();(-2000.0, -2000.0);
09:05:07:321;09:05:07:313;1448050865.28;(0.35863959789276123, 0.24136055840386283);75.253112793;1.0;09:05:07:321;0;4;-1.3;1;1.0752688172043;0;0;0;1;1;1;1;0;0;0;;0;0;();();(-2000.0, -2000.0);
09:05:07:338;09:05:07:313;1448050865.28;(0.35863959789276123, 0.24136055840386283);75.253112793;1.0;09:05:07:338;0;15;-1.34516129032258;1;0.684261974584555;0;0;0;1;1;1;1;0;0;0;;0;0;();();(-2000.0, -2000.0);
09:05:07:354;09:05:07:313;1448050865.28;(0.35863959789276123, 0.24136055840386283);75.253112793;1.0;09:05:07:354;0;9;-1.3258064516129;1;0.684261974584555;0;0;0;1;1;1;1;0;0;0;;0;0;();();(-2000.0, -2000.0);
09:05:07:371;09:05:07:313;1448050865.28;(0.35863959789276123, 0.24136055840386283);75.253112793;1.0;09:05:07:371;0;15;-1.3258064516129;1;0.684261974584555;0;0;0;1;1;1;1;0;0;0;;0;0;();();(-2000.0, -2000.0);
09:05:07:404;09:05:07:384;1448050865.35;(0.37395634651184084, 0.26921848720974395);75.4389038086;1.0;09:05:07:404;0;15;-1.3;1;0.879765395894428;0;0;0;1;1;1;1;0;0;0;;0;0;();();(-2000.0, -2000.0);
09:05:07:421;09:05:07:384;1448050865.35;(0.37395634651184084, 0.26921848720974395);75.4389038086;1.0;09:05:07:421;0;4;-1.3258064516129;1;0.684261974584555;0;0;0;1;1;1;1;0;0;0;;0;0;();();(-2000.0, -2000.0);
09:05:07:438;09:05:07:384;1448050865.35;(0.37395634651184084, 0.26921848720974395);75.4389038086;1.0;09:05:07:438;0;0;-1.3;1;0.879765395894428;0;0;0;1;1;1;1;0;0;0;;0;0;();();(-2000.0, -2000.0);
09:05:07:453;09:05:07:449;1448050865.41;(0.3913715124130249, 0.29042638142903643);77.3430633545;1.0;09:05:07:453;0;4;-1.27096774193548;1;1.36852394916911;0;0;0;1;1;1;1;0;0;0;;0;0;();();(-2000.0, -2000.0);
09:05:07:471;09:05:07:449;1448050865.41;(0.3913715124130249, 0.29042638142903643);77.3430633545;1.0;09:05:07:471;0;10;-1.3;1;0.879765395894428;0;0;0;1;1;1;1;0;0;0;;0;0;();();(-2000.0, -2000.0);
09:05:07:505;09:05:07:449;1448050865.41;(0.3913715124130249, 0.29042638142903643);77.3430633545;1.0;09:05:07:505;0;9;-1.3258064516129;1;0.684261974584555;0;0;0;1;1;1;1;0;0;0;;0;0;();();(-2000.0, -2000.0);
09:05:07:521;09:05:07:449;1448050865.41;(0.3913715124130249, 0.29042638142903643);77.3430633545;1.0;09:05:07:521;0;9;-1.3258064516129;1;0.684261974584555;0;0;0;1;1;1;1;0;0;0;;0;0;();();(-2000.0, -2000.0);
09:05:07:538;09:05:07:449;1448050865.41;(0.3913715124130249, 0.29042638142903643);77.3430633545;1.0;09:05:07:538;0;15;-1.27096774193548;1;1.36852394916911;0;0;0;1;1;1;1;0;0;0;;0;0;();();(-2000.0, -2000.0);
09:05:07:554;09:05:07:449;1448050865.41;(0.3913715124130249, 0.29042638142903643);77.3430633545;1.0;09:05:07:554;0;15;-1.27096774193548;1;1.36852394916911;0;0;0;1;1;1;1;0;0;0;;0;0;();();(-2000.0, -2000.0);
09:05:07:571;09:05:07:449;1448050865.41;(0.3913715124130249, 0.29042638142903643);77.3430633545;1.0;09:05:07:571;0;9;-1.3;341;3.2258064516129;0;0;0;1;1;1;1;0;0;0;;0;0;();();(-2000.0, -2000.0);
09:05:07:604;09:05:07:581;1448050865.55;(0.4112144231796265, 0.25391159057617185);73.8567199707;1.0;09:05:07:604;0;10;-1.3258064516129;341;2.44379276637341;0;0;0;1;1;1;1;0;0;0;;0;0;();();(-2000.0, -2000.0);
09:05:07:621;09:05:07:581;1448050865.55;(0.4112144231796265, 0.25391159057617185);73.8567199707;1.0;09:05:07:621;0;15;-1.3258064516129;341;2.44379276637341;0;0;0;1;1;1;1;0;0;0;;0;0;();();(-2000.0, -2000.0);
09:05:07:638;09:05:07:581;1448050865.55;(0.4112144231796265, 0.25391159057617185);73.8567199707;1.0;09:05:07:638;0;10;-1.3;341;3.2258064516129;0;0;0;1;1;1;1;0;0;0;;0;0;();();(-2000.0, -2000.0);
09:05:07:654;09:05:07:645;1448050865.61;(0.412213659286499, 0.24811969333224826);73.9768981934;1.0;09:05:07:654;0;15;-1.32258064516129;341;2.44379276637341;0;0;0;1;1;1;1;0;0;0;;0;0;();();(-2000.0, -2000.0);
09:05:07:671;09:05:07:645;1448050865.61;(0.412213659286499, 0.24811969333224826);73.9768981934;1.0;09:05:07:671;0;10;-1.32258064516129;341;2.44379276637341;0;0;0;1;1;1;1;0;0;0;;0;0;();();(-2000.0, -2000.0);
09:05:07:704;09:05:07:645;1448050865.61;(0.412213659286499, 0.24811969333224826);73.9768981934;1.0;09:05:07:704;0;4;-1.34516129032258;341;2.44379276637341;0;0;0;1;1;1;1;0;0;0;;0;0;();();(-2000.0, -2000.0);
09:05:07:721;09:05:07:714;1448050865.68;(0.4206536769866943, 0.22405183580186627);75.1837844849;0.987374083449;09:05:07:721;0;15;-1.31935483870968;341;2.44379276637341;0;0;0;1;1;1;1;0;0;0;;0;0;();();(-2000.0, -2000.0);
09:05:07:738;09:05:07:714;1448050865.68;(0.4206536769866943, 0.22405183580186627);75.1837844849;0.987374083449;09:05:07:738;0;9;-1.31935483870968;1;0.684261974584555;0;0;0;1;1;1;1;0;0;0;;0;0;();();(-2000.0, -2000.0);
09:05:07:755;09:05:07:714;1448050865.68;(0.4206536769866943, 0.22405183580186627);75.1837844849;0.987374083449;09:05:07:755;0;0;-1.31935483870968;1;0.684261974584555;0;0;0;1;1;1;1;0;0;0;;0;0;();();(-2000.0, -2000.0);
09:05:07:771;09:05:07:714;1448050865.68;(0.4206536769866943, 0.22405183580186627);75.1837844849;0.987374083449;09:05:07:771;0;10;-1.32258064516129;1;0.684261974584555;0;0;0;1;1;1;1;0;0;0;;0;0;();();(-2000.0, -2000.0);
09:05:07:805;09:05:07:781;1448050865.75;(0.4213763952255249, 0.2241059197319879);74.2710266113;1.0;09:05:07:805;0;4;-1.32258064516129;1;0.684261974584555;0;0;0;1;1;1;1;0;0;0;;0;0;();();(-2000.0, -2000.0);
09:05:07:822;09:05:07:781;1448050865.75;(0.4213763952255249, 0.2241059197319879);74.2710266113;1.0;09:05:07:822;0;15;-1.31935483870968;1;0.684261974584555;0;0;0;1;1;1;1;0;0;0;;0;0;();();(-2000.0, -2000.0);
09:05:07:839;09:05:07:781;1448050865.75;(0.4213763952255249, 0.2241059197319879);74.2710266113;1.0;09:05:07:839;0;5;-1.3;1;0.879765395894428;0;0;0;1;1;1;1;0;0;0;;0;0;();();(-2000.0, -2000.0);
09:05:07:855;09:05:07:781;1448050865.75;(0.4213763952255249, 0.2241059197319879);74.2710266113;1.0;09:05:07:855;0;10;-1.31935483870968;1;0.684261974584555;0;0;0;1;1;1;1;0;0;0;;0;0;();();(-2000.0, -2000.0);
09:05:07:871;09:05:07:857;1448050865.81;(0.425152063369751, 0.22674967447916672);74.0672302246;1.0;09:05:07:871;0;4;-1.31935483870968;1;0.684261974584555;0;0;0;1;1;1;1;0;0;0;;0;0;();();(-2000.0, -2000.0);
09:05:07:905;09:05:07:857;1448050865.81;(0.425152063369751, 0.22674967447916672);74.0672302246;1.0;09:05:07:905;0;4;-1.31935483870968;1;0.684261974584555;0;0;0;1;1;1;1;0;0;0;;0;0;();();(-2000.0, -2000.0);
09:05:07:922;09:05:07:913;1448050865.88;(0.42977769374847413, 0.23093151516384547);73.7548599243;1.0;09:05:07:922;0;10;-1.31935483870968;1;0.684261974584555;0;0;0;1;1;1;1;0;0;0;;0;0;();();(-2000.0, -2000.0);
09:05:07:938;09:05:07:913;1448050865.88;(0.42977769374847413, 0.23093151516384547);73.7548599243;1.0;09:05:07:938;0;5;-1.27096774193548;1;1.36852394916911;0;0;0;1;1;1;1;0;0;0;;0;0;();();(-2000.0, -2000.0);
09:05:07:955;09:05:07:913;1448050865.88;(0.42977769374847413, 0.23093151516384547);73.7548599243;1.0;09:05:07:955;0;10;-1.3;1;0.879765395894428;0;0;0;1;1;1;1;0;0;0;;0;0;();();(-2000.0, -2000.0);
09:05:07:972;09:05:07:913;1448050865.88;(0.42977769374847413, 0.23093151516384547);73.7548599243;1.0;09:05:07:972;0;4;-1.31935483870968;1;0.684261974584555;0;0;0;1;1;1;1;0;0;0;;0;0;();();(-2000.0, -2000.0);
09:05:08:005;09:05:07:977;1448050865.95;(0.43470206260681155, 0.2336470709906684);73.6059646606;0.996518010923;09:05:08:005;0;5;-1.3;1;1.17302052785924;0;0;0;1;1;1;1;0;0;0;;0;0;();();(-2000.0, -2000.0);
09:05:08:021;09:05:07:977;1448050865.95;(0.43470206260681155, 0.2336470709906684);73.6059646606;0.996518010923;09:05:08:021;0;10;-1.3;1;1.17302052785924;0;0;0;1;1;1;1;0;0;0;;0;0;();();(-2000.0, -2000.0);
09:05:08:039;09:05:07:977;1448050865.95;(0.43470206260681155, 0.2336470709906684);73.6059646606;0.996518010923;09:05:08:039;0;15;-1.31935483870968;1;0.684261974584555;0;0;0;1;1;1;1;0;0;0;;0;0;();();(-2000.0, -2000.0);
09:05:08:055;09:05:08:044;1448050866.01;(0.430985689163208, 0.24629991319444444);74.8153915405;0.966222475422;09:05:08:055;0;9;-1.31935483870968;1;0.684261974584555;0;0;0;1;1;1;1;0;0;0;;0;0;();();(-2000.0, -2000.0);
09:05:08:072;09:05:08:044;1448050866.01;(0.430985689163208, 0.24629991319444444);74.8153915405;0.966222475422;09:05:08:072;0;0;-1.31935483870968;12.9493670886076;2.44379276637341;0;0;0;1;1;1;1;0;0;0;;0;0;();();(-2000.0, -2000.0);
09:05:08:105;09:05:08:044;1448050866.01;(0.430985689163208, 0.24629991319444444);74.8153915405;0.966222475422;09:05:08:105;0;15;-1.31935483870968;341;2.44379276637341;0;0;0;1;1;1;1;0;0;0;;0;0;();();(-2000.0, -2000.0);
09:05:08:122;09:05:08:113;1448050866.08;(0.43895816802978516, 0.18055640326605904);76.8575286865;0.996569381042;09:05:08:122;0;10;-1.31935483870968;341;2.44379276637341;0;0;0;1;1;1;1;0;0;0;;0;0;();();(-2000.0, -2000.0);
09:05:08:138;09:05:08:113;1448050866.08;(0.43895816802978516, 0.18055640326605904);76.8575286865;0.996569381042;09:05:08:138;0;15;-1.31935483870968;341;2.44379276637341;0;0;0;1;1;1;1;0;0;0;;0;0;();();(-2000.0, -2000.0);
09:05:08:155;09:05:08:113;1448050866.08;(0.43895816802978516, 0.18055640326605904);76.8575286865;0.996569381042;09:05:08:155;0;5;-1.34516129032258;341;2.44379276637341;0;0;0;1;1;1;1;0;0;0;;0;0;();();(-2000.0, -2000.0);
09:05:08:171;09:05:08:113;1448050866.08;(0.43895816802978516, 0.18055640326605904);76.8575286865;0.996569381042;09:05:08:171;0;15;-1.31935483870968;341;2.44379276637341;0;0;0;1;1;1;1;0;0;0;;0;0;();();(-2000.0, -2000.0);
09:05:08:204;09:05:08:177;1448050866.15;(0.4514917850494385, 0.17957060072157116);75.8614959717;1.0;09:05:08:204;0;7;-1.31935483870968;341;2.44379276637341;0;0;0;1;1;1;1;0;0;0;;0;0;();();(-2000.0, -2000.0);
09:05:08:222;09:05:08:177;1448050866.15;(0.4514917850494385, 0.17957060072157116);75.8614959717;1.0;09:05:08:222;0;9;-1.3;341;3.2258064516129;0;0;0;1;1;1;1;0;0;0;;0;0;();();(-2000.0, -2000.0);
09:05:08:238;09:05:08:177;1448050866.15;(0.4514917850494385, 0.17957060072157116);75.8614959717;1.0;09:05:08:238;0;15;-1.27096774193548;341;4.3010752688172;0;0;0;1;1;1;1;0;0;0;;0;0;();();(-2000.0, -2000.0);
09:05:08:255;09:05:08:246;1448050866.21;(0.4651825428009033, 0.2244854397243924);76.8771591187;1.0;09:05:08:255;0;5;-1.31935483870968;341;2.44379276637341;0;0;0;1;1;1;1;0;0;0;;0;0;();();(-2000.0, -2000.0);
09:05:08:272;09:05:08:246;1448050866.21;(0.4651825428009033, 0.2244854397243924);76.8771591187;1.0;09:05:08:272;0;10;-1.32258064516129;341;2.44379276637341;0;0;0;1;1;1;1;0;0;0;;0;0;();();(-2000.0, -2000.0);
09:05:08:304;09:05:08:246;1448050866.21;(0.4651825428009033, 0.2244854397243924);76.8771591187;1.0;09:05:08:304;0;9;-1.32258064516129;341;2.44379276637341;0;0;0;1;1;1;1;0;0;0;;0;0;();();(-2000.0, -2000.0);
09:05:08:322;09:05:08:309;1448050866.28;(0.48398337364196775, 0.2799331665039062);78.1938781738;1.0;09:05:08:322;0;5;-1.3;341;3.2258064516129;0;0;0;1;1;1;1;0;0;0;;0;0;();();(-2000.0, -2000.0);
09:05:08:339;09:05:08:309;1448050866.28;(0.48398337364196775, 0.2799331665039062);78.1938781738;1.0;09:05:08:339;0;10;-1.3;341;3.2258064516129;0;0;0;1;1;1;1;0;0;0;;0;0;();();(-2000.0, -2000.0);
09:05:08:356;09:05:08:309;1448050866.28;(0.48398337364196775, 0.2799331665039062);78.1938781738;1.0;09:05:08:356;0;4;-1.3;341;3.2258064516129;0;0;0;1;1;1;1;0;0;0;;0;0;();();(-2000.0, -2000.0);
09:05:08:372;09:05:08:309;1448050866.28;(0.48398337364196775, 0.2799331665039062);78.1938781738;1.0;09:05:08:372;0;9;-1.3;341;3.2258064516129;0;0;0;1;1;1;1;0;0;0;;0;0;();();(-2000.0, -2000.0);
09:05:08:405;09:05:08:377;1448050866.31;(0.4897483825683594, 0.2919488694932726);79.4857635498;1.0;09:05:08:405;0;10;-1.3;341;3.2258064516129;0;0;0;1;1;1;1;0;0;0;;0;0;();();(-2000.0, -2000.0);
09:05:08:422;09:05:08:377;1448050866.31;(0.4897483825683594, 0.2919488694932726);79.4857635498;1.0;09:05:08:422;0;15;-1.27096774193548;341;4.3010752688172;0;0;0;1;1;1;1;0;0;0;;0;0;();();(-2000.0, -2000.0);
09:05:08:439;09:05:08:377;1448050866.31;(0.4897483825683594, 0.2919488694932726);79.4857635498;1.0;09:05:08:439;0;10;-1.31935483870968;341;2.44379276637341;0;0;0;1;1;1;1;0;0;0;;0;0;();();(-2000.0, -2000.0);
09:05:08:466;09:05:08:445;1448050866.41;(0.492161226272583, 0.2993886311848958);80.4651870728;0.950732611825;09:05:08:466;0;10;-1.31935483870968;341;2.44379276637341;0;0;0;1;1;1;1;2;0;0;;0;0;();();(-2000.0, -2000.0);
09:05:08:486;09:05:08:445;1448050866.41;(0.492161226272583, 0.2993886311848958);80.4651870728;0.950732611825;09:05:08:486;0;0;-1.29677419354839;341;3.2258064516129;0;0;0;1;1;1;1;2;0;0;;0;0;();();(-2000.0, -2000.0);
09:05:08:506;09:05:08:445;1448050866.41;(0.492161226272583, 0.2993886311848958);80.4651870728;0.950732611825;09:05:08:506;0;10;-1.27096774193548;341;4.3010752688172;0;0;0;1;1;1;1;2;0;0;;0;0;();();(-2000.0, -2000.0);
09:05:08:522;09:05:08:509;1448050866.48;(0.49037675857543944, 0.30113970438639326);79.8157348633;0.847782442767;09:05:08:522;0;15;-1.31935483870968;341;2.44379276637341;0;0;0;1;1;1;1;2;0;0;;0;0;();();(-2000.0, -2000.0);
09:05:08:539;09:05:08:509;1448050866.48;(0.49037675857543944, 0.30113970438639326);79.8157348633;0.847782442767;09:05:08:539;0;4;-1.31935483870968;341;2.44379276637341;0;0;0;1;1;1;1;2;0;0;;0;0;();();(-2000.0, -2000.0);
09:05:08:556;09:05:08:509;1448050866.48;(0.49037675857543944, 0.30113970438639326);79.8157348633;0.847782442767;09:05:08:556;0;0;-1.3;341;3.2258064516129;0;0;0;1;1;1;1;2;0;0;;0;0;();();(-2000.0, -2000.0);
09:05:08:572;09:05:08:509;1448050866.48;(0.49037675857543944, 0.30113970438639326);79.8157348633;0.847782442767;09:05:08:572;0;4;-1.27096774193548;341;4.3010752688172;0;0;0;1;1;1;1;2;0;0;;0;0;();();(-2000.0, -2000.0);
09:05:08:605;09:05:08:577;1448050866.55;(0.48546223640441893, 0.2980233510335286);79.5897827148;1.0;09:05:08:605;0;4;-1.31935483870968;341;2.44379276637341;0;0;0;1;1;1;1;2;0;0;;0;0;();();(-2000.0, -2000.0);
09:05:08:622;09:05:08:577;1448050866.55;(0.48546223640441893, 0.2980233510335286);79.5897827148;1.0;09:05:08:622;0;9;-1.3;341;3.2258064516129;0;0;0;1;1;1;1;2;0;0;;0;0;();();(-2000.0, -2000.0);
09:05:08:638;09:05:08:577;1448050866.55;(0.48546223640441893, 0.2980233510335286);79.5897827148;1.0;09:05:08:638;0;5;-1.31935483870968;341;2.44379276637341;0;0;0;1;1;1;1;2;0;0;;0;0;();();(-2000.0, -2000.0);
09:05:08:656;09:05:08:641;1448050866.61;(0.4814872741699219, 0.31174023946126306);79.3798217773;1.0;09:05:08:656;0;10;-1.3;341;3.2258064516129;0;0;0;1;1;1;1;2;0;0;;0;0;();();(-2000.0, -2000.0);
09:05:08:672;09:05:08:641;1448050866.61;(0.4814872741699219, 0.31174023946126306);79.3798217773;1.0;09:05:08:672;0;15;-1.27096774193548;341;4.3010752688172;0;0;0;1;1;1;1;2;0;0;;0;0;();();(-2000.0, -2000.0);
09:05:08:705;09:05:08:641;1448050866.61;(0.4814872741699219, 0.31174023946126306);79.3798217773;1.0;09:05:08:705;0;5;-1.31935483870968;341;2.44379276637341;0;0;0;1;1;1;1;2;0;0;;0;0;();();(-2000.0, -2000.0);
09:05:08:722;09:05:08:716;1448050866.68;(0.48230700492858886, 0.3085083855523003);79.254119873;1.0;09:05:08:722;0;0;-1.3;341;3.2258064516129;0;0;0;1;1;1;1;2;0;0;;0;0;();();(-2000.0, -2000.0);
09:05:08:739;09:05:08:716;1448050866.68;(0.48230700492858886, 0.3085083855523003);79.254119873;1.0;09:05:08:739;0;11;-1.3;341;3.2258064516129;0;0;0;1;1;1;1;2;0;0;;0;0;();();(-2000.0, -2000.0);
09:05:08:755;09:05:08:716;1448050866.68;(0.48230700492858886, 0.3085083855523003);79.254119873;1.0;09:05:08:755;0;10;-1.3;341;3.2258064516129;0;0;0;1;1;1;1;2;0;0;;0;0;();();(-2000.0, -2000.0);
09:05:08:773;09:05:08:716;1448050866.68;(0.48230700492858886, 0.3085083855523003);79.254119873;1.0;09:05:08:773;0;0;-1.31935483870968;341;2.44379276637341;0;0;0;1;1;1;1;2;0;0;;0;0;();();(-2000.0, -2000.0);
09:05:08:805;09:05:08:776;1448050866.75;(0.48095126152038575, 0.30695546468098955);79.5986404419;1.0;09:05:08:805;0;10;-1.3;341;3.2258064516129;0;0;0;1;1;1;1;2;0;0;;0;0;();();(-2000.0, -2000.0);
09:05:08:822;09:05:08:776;1448050866.75;(0.48095126152038575, 0.30695546468098955);79.5986404419;1.0;09:05:08:822;0;5;-1.31935483870968;341;2.44379276637341;0;0;0;1;1;1;1;2;0;0;;0;0;();();(-2000.0, -2000.0);
09:05:08:839;09:05:08:776;1448050866.75;(0.48095126152038575, 0.30695546468098955);79.5986404419;1.0;09:05:08:839;0;15;-1.27096774193548;341;4.3010752688172;0;0;0;1;1;1;1;2;0;0;;0;0;();();(-2000.0, -2000.0);
09:05:08:856;09:05:08:841;1448050866.81;(0.48051748275756834, 0.30720431009928384);79.7008895874;1.0;09:05:08:856;0;5;-1.3;341;3.2258064516129;0;0;0;1;1;1;1;2;0;0;;0;0;();();(-2000.0, -2000.0);
09:05:08:872;09:05:08:841;1448050866.81;(0.48051748275756834, 0.30720431009928384);79.7008895874;1.0;09:05:08:872;0;0;-1.31935483870968;341;2.44379276637341;0;0;0;1;1;1;1;2;0;0;;0;0;();();(-2000.0, -2000.0);
09:05:08:906;09:05:08:841;1448050866.81;(0.48051748275756834, 0.30720431009928384);79.7008895874;1.0;09:05:08:906;0;15;-1.31935483870968;341;2.44379276637341;0;0;0;1;1;1;1;2;0;0;;0;0;();();(-2000.0, -2000.0);
09:05:08:922;09:05:08:908;1448050866.88;(0.4815658092498779, 0.30990036858452696);79.2797088623;0.959056113839;09:05:08:922;0;4;-1.31935483870968;341;2.44379276637341;0;0;0;1;1;1;1;2;0;0;;0;0;();();(-2000.0, -2000.0);
09:05:08:939;09:05:08:908;1448050866.88;(0.4815658092498779, 0.30990036858452696);79.2797088623;0.959056113839;09:05:08:939;0;9;-1.34516129032258;341;2.44379276637341;0;0;0;1;1;1;1;2;0;0;;0;0;();();(-2000.0, -2000.0);
09:05:08:956;09:05:08:908;1448050866.88;(0.4815658092498779, 0.30990036858452696);79.2797088623;0.959056113839;09:05:08:956;0;4;-1.3;341;3.2258064516129;0;0;0;1;1;1;1;2;0;0;;0;0;();();(-2000.0, -2000.0);
09:05:08:973;09:05:08:908;1448050866.88;(0.4815658092498779, 0.30990036858452696);79.2797088623;0.959056113839;09:05:08:973;0;10;-1.31935483870968;341;2.44379276637341;0;0;0;1;1;1;1;2;0;0;;0;0;();();(-2000.0, -2000.0);
09:05:09:006;09:05:08:973;1448050866.91;(0.48023786544799807, 0.32147543165418835);79.1003265381;1.0;09:05:09:006;0;9;-1.31935483870968;341;2.44379276637341;0;0;0;1;1;1;1;2;0;0;;0;0;();();(-2000.0, -2000.0);
09:05:09:022;09:05:08:973;1448050866.91;(0.48023786544799807, 0.32147543165418835);79.1003265381;1.0;09:05:09:022;0;5;-1.31935483870968;341;2.44379276637341;0;0;0;1;1;1;1;2;0;0;;0;0;();();(-2000.0, -2000.0);
09:05:09:040;09:05:08:973;1448050866.91;(0.48023786544799807, 0.32147543165418835);79.1003265381;1.0;09:05:09:040;0;10;-1.31935483870968;341;2.44379276637341;0;0;0;1;1;1;1;2;0;0;;0;0;();();(-2000.0, -2000.0);
09:05:09:056;09:05:09:041;1448050867.01;(0.4848134994506836, 0.27020992702907987);80.9735336304;1.0;09:05:09:056;0;4;-1.3;341;3.2258064516129;0;0;0;1;1;1;1;2;0;0;;0;0;();();(-2000.0, -2000.0);
09:05:09:073;09:05:09:041;1448050867.01;(0.4848134994506836, 0.27020992702907987);80.9735336304;1.0;09:05:09:073;0;10;-1.31935483870968;341;2.44379276637341;0;0;0;1;1;1;1;2;0;0;;0;0;();();(-2000.0, -2000.0);
09:05:09:106;09:05:09:041;1448050867.01;(0.4848134994506836, 0.27020992702907987);80.9735336304;1.0;09:05:09:106;0;9;-1.31935483870968;341;2.44379276637341;0;0;0;1;1;1;1;2;0;0;;0;0;();();(-2000.0, -2000.0);
09:05:09:122;09:05:09:112;1448050867.08;(0.48764829635620116, 0.2582642449273004);80.7220993042;0.896495385126;09:05:09:122;0;5;-1.31935483870968;341;2.44379276637341;0;0;0;1;1;1;1;2;0;0;;0;0;();();(-2000.0, -2000.0);
09:05:09:139;09:05:09:112;1448050867.08;(0.48764829635620116, 0.2582642449273004);80.7220993042;0.896495385126;09:05:09:139;0;10;-1.31935483870968;341;2.44379276637341;0;0;0;1;1;1;1;2;0;0;;0;0;();();(-2000.0, -2000.0);
09:05:09:156;09:05:09:112;1448050867.08;(0.48764829635620116, 0.2582642449273004);80.7220993042;0.896495385126;09:05:09:156;0;4;-1.31935483870968;341;2.44379276637341;0;0;0;1;1;1;1;2;0;0;;0;0;();();(-2000.0, -2000.0);
09:05:09:173;09:05:09:172;1448050867.15;(0.4870753288269043, 0.24543643527560766);81.1576919556;1.0;09:05:09:173;0;9;-1.31935483870968;341;2.44379276637341;0;0;0;1;1;1;1;2;0;0;;0;0;();();(-2000.0, -2000.0);
09:05:09:206;09:05:09:172;1448050867.15;(0.4870753288269043, 0.24543643527560766);81.1576919556;1.0;09:05:09:206;0;5;-1.32258064516129;341;2.44379276637341;0;0;0;1;1;1;1;2;0;0;;0;0;();();(-2000.0, -2000.0);
09:05:09:222;09:05:09:172;1448050867.15;(0.4870753288269043, 0.24543643527560766);81.1576919556;1.0;09:05:09:222;0;11;-1.34516129032258;341;2.44379276637341;0;0;0;1;1;1;1;2;0;0;;0;0;();();(-2000.0, -2000.0);
09:05:09:239;09:05:09:172;1448050867.15;(0.4870753288269043, 0.24543643527560766);81.1576919556;1.0;09:05:09:239;0;10;-1.3;341;3.2258064516129;0;0;0;1;1;1;1;2;0;0;;0;0;();();(-2000.0, -2000.0);
09:05:09:255;09:05:09:240;1448050867.18;(0.48823232650756837, 0.226664564344618);81.9048156738;1.0;09:05:09:254;0;0;-1.3;341;3.2258064516129;0;0;0;1;1;1;1;2;0;0;;0;0;();();(-2000.0, -2000.0);
09:05:09:273;09:05:09:240;1448050867.18;(0.48823232650756837, 0.226664564344618);81.9048156738;1.0;09:05:09:273;0;10;-1.27096774193548;341;4.3010752688172;0;0;0;1;1;1;1;2;0;0;;0;0;();();(-2000.0, -2000.0);
09:05:09:306;09:05:09:240;1448050867.18;(0.48823232650756837, 0.226664564344618);81.9048156738;1.0;09:05:09:306;0;4;-1.3258064516129;341;2.44379276637341;0;0;0;1;1;1;1;2;0;0;;0;0;();();(-2000.0, -2000.0);
09:05:09:321;09:05:09:306;1448050867.21;(0.4891798973083496, 0.21504033406575518);79.9128189087;1.0;09:05:09:321;0;9;-1.3258064516129;341;2.44379276637341;0;0;0;1;1;1;1;2;0;0;;0;0;();();(-2000.0, -2000.0);
09:05:09:340;09:05:09:321;1448050867.28;(0.482546329498291, 0.3126114315456814);79.995223999;1.0;09:05:09:340;0;5;-1.3258064516129;341;2.44379276637341;0;0;0;1;1;1;1;2;0;0;;0;0;();();(-2000.0, -2000.0);
09:05:09:356;09:05:09:321;1448050867.28;(0.482546329498291, 0.3126114315456814);79.995223999;1.0;09:05:09:356;0;15;-1.3258064516129;341;2.44379276637341;0;0;0;1;1;1;1;2;0;0;;0;0;();();(-2000.0, -2000.0);
09:05:09:373;09:05:09:372;1448050867.31;(0.48276677131652834, 0.30562807718912766);80.3703918457;1.0;09:05:09:373;0;5;-1.3258064516129;341;2.44379276637341;0;0;0;1;1;1;1;2;0;0;;0;0;();();(-2000.0, -2000.0);
09:05:09:406;09:05:09:372;1448050867.31;(0.48276677131652834, 0.30562807718912766);80.3703918457;1.0;09:05:09:406;0;4;-1.3;341;3.2258064516129;0;0;0;1;1;1;1;2;0;0;;0;0;();();(-2000.0, -2000.0);
09:05:09:423;09:05:09:372;1448050867.31;(0.48276677131652834, 0.30562807718912766);80.3703918457;1.0;09:05:09:423;0;9;-1.27096774193548;341;4.3010752688172;0;0;0;1;1;1;1;2;0;0;;0;0;();();(-2000.0, -2000.0);
09:05:09:438;09:05:09:372;1448050867.31;(0.48276677131652834, 0.30562807718912766);80.3703918457;1.0;09:05:09:438;0;5;-1.3;341;3.03030303030303;0;0;0;1;1;1;1;2;0;0;;0;0;();();(-2000.0, -2000.0);
09:05:09:457;09:05:09:445;1448050867.41;(0.48122711181640626, 0.30374514261881513);80.6142501831;0.996168109141;09:05:09:457;0;15;-1.3258064516129;341;1.85728250244379;0;0;0;1;1;1;1;2;0;0;;0;0;();();(-2000.0, -2000.0);
09:05:09:473;09:05:09:445;1448050867.41;(0.48122711181640626, 0.30374514261881513);80.6142501831;0.996168109141;09:05:09:473;0;10;-1.3258064516129;341;2.44379276637341;0;0;0;1;1;1;1;2;0;0;;0;0;();();(-2000.0, -2000.0);
09:05:09:507;09:05:09:506;1448050867.48;(0.47995762825012206, 0.30027266608344183);80.5327224731;1.0;09:05:09:507;0;0;-1.3258064516129;341;2.44379276637341;0;0;0;1;1;1;1;2;0;0;;0;0;();();(-2000.0, -2000.0);
09:05:09:523;09:05:09:506;1448050867.48;(0.47995762825012206, 0.30027266608344183);80.5327224731;1.0;09:05:09:523;0;10;-1.3258064516129;341;2.44379276637341;0;0;0;1;1;1;1;2;0;0;;0;0;();();(-2000.0, -2000.0);
09:05:09:540;09:05:09:506;1448050867.48;(0.47995762825012206, 0.30027266608344183);80.5327224731;1.0;09:05:09:540;0;15;-1.3258064516129;341;2.44379276637341;0;0;0;1;1;1;1;2;0;0;;0;0;();();(-2000.0, -2000.0);
09:05:09:557;09:05:09:506;1448050867.48;(0.47995762825012206, 0.30027266608344183);80.5327224731;1.0;09:05:09:557;0;4;-1.3;341;3.03030303030303;0;0;0;1;1;1;1;2;0;0;;0;0;();();(-2000.0, -2000.0);
09:05:09:573;09:05:09:573;1448050867.51;(0.4793269157409668, 0.2991828918457031);80.4751052856;1.0;09:05:09:573;0;0;-1.27096774193548;341;4.3010752688172;0;0;0;1;1;1;1;2;0;0;;0;0;();();(-2000.0, -2000.0);
09:05:09:607;09:05:09:574;1448050867.55;(0.4789870262145996, 0.29778099060058594);80.4984436035;1.0;09:05:09:607;0;15;-1.3258064516129;341;2.44379276637341;0;0;0;1;1;1;1;2;0;0;;0;0;();();(-2000.0, -2000.0);
09:05:09:623;09:05:09:574;1448050867.55;(0.4789870262145996, 0.29778099060058594);80.4984436035;1.0;09:05:09:623;0;10;-1.3258064516129;341;2.44379276637341;0;0;0;1;1;1;1;2;0;0;;0;0;();();(-2000.0, -2000.0);
09:05:09:640;09:05:09:637;1448050867.61;(0.4781365871429443, 0.29474864535861545);80.2065734863;1.0;09:05:09:640;0;15;-1.3;341;3.03030303030303;0;0;0;1;1;1;1;2;0;0;;0;0;();();(-2000.0, -2000.0);
09:05:09:657;09:05:09:637;1448050867.61;(0.4781365871429443, 0.29474864535861545);80.2065734863;1.0;09:05:09:657;0;9;-1.3258064516129;341;2.44379276637341;0;0;0;1;1;1;1;2;0;0;;0;0;();();(-2000.0, -2000.0);
09:05:09:673;09:05:09:637;1448050867.61;(0.4781365871429443, 0.29474864535861545);80.2065734863;1.0;09:05:09:673;0;0;-1.3258064516129;341;2.44379276637341;0;0;0;1;1;1;1;2;0;0;;0;0;();();(-2000.0, -2000.0);
09:05:09:707;09:05:09:705;1448050867.68;(0.4771909713745117, 0.29000108506944444);80.7730331421;0.897899442029;09:05:09:707;0;15;-1.3258064516129;341;2.44379276637341;0;0;0;1;1;1;1;2;0;0;;0;0;();();(-2000.0, -2000.0);
09:05:09:724;09:05:09:705;1448050867.68;(0.4771909713745117, 0.29000108506944444);80.7730331421;0.897899442029;09:05:09:724;0;4;-1.3258064516129;341;2.44379276637341;0;0;0;1;1;1;1;2;0;0;;0;0;();();(-2000.0, -2000.0);
09:05:09:739;09:05:09:705;1448050867.68;(0.4771909713745117, 0.29000108506944444);80.7730331421;0.897899442029;09:05:09:739;0;9;-1.3258064516129;341;2.44379276637341;0;0;0;1;1;1;1;2;0;0;;0;0;();();(-2000.0, -2000.0);
09:05:09:757;09:05:09:705;1448050867.68;(0.4771909713745117, 0.29000108506944444);80.7730331421;0.897899442029;09:05:09:757;0;5;-1.3258064516129;341;2.44379276637341;0;0;0;1;1;1;1;2;0;0;;0;0;();();(-2000.0, -2000.0);
09:05:09:774;09:05:09:769;1448050867.71;(0.47683048248291016, 0.28398729960123703);80.853729248;1.0;09:05:09:774;0;10;-1.3;341;3.2258064516129;0;0;0;1;1;1;1;2;0;0;;0;0;();();(-2000.0, -2000.0);
09:05:09:808;09:05:09:769;1448050867.71;(0.47683048248291016, 0.28398729960123703);80.853729248;1.0;09:05:09:808;0;9;-1.3258064516129;341;2.44379276637341;0;0;0;1;1;1;1;2;0;0;;0;0;();();(-2000.0, -2000.0);
09:05:09:824;09:05:09:769;1448050867.71;(0.47683048248291016, 0.28398729960123703);80.853729248;1.0;09:05:09:824;0;5;-1.3258064516129;341;2.44379276637341;0;0;0;1;1;1;1;2;0;0;;0;0;();();(-2000.0, -2000.0);
09:05:09:840;09:05:09:838;1448050867.81;(0.47627935409545896, 0.2704422420925564);81.681022644;0.811959073455;09:05:09:840;0;10;-1.3258064516129;1;0.684261974584555;0;0;0;1;1;1;1;2;0;0;;0;0;();();(-2000.0, -2000.0);
09:05:09:856;09:05:09:838;1448050867.81;(0.47627935409545896, 0.2704422420925564);81.681022644;0.811959073455;09:05:09:856;0;4;-1.34516129032258;1;0.684261974584555;0;0;0;1;1;1;1;2;0;0;;0;0;();();(-2000.0, -2000.0);
09:05:09:873;09:05:09:838;1448050867.81;(0.47627935409545896, 0.2704422420925564);81.681022644;0.811959073455;09:05:09:873;0;10;-1.3258064516129;1;0.684261974584555;0;0;0;1;1;1;1;2;0;0;;0;0;();();(-2000.0, -2000.0);
09:05:09:891;09:05:09:838;1448050867.81;(0.47627935409545896, 0.2704422420925564);81.681022644;0.811959073455;09:05:09:891;0;4;-1.3258064516129;1;0.684261974584555;0;0;0;1;1;1;1;2;0;0;;0;0;();();(-2000.0, -2000.0);
09:05:09:924;09:05:09:905;1448050867.85;(0.47582159042358396, 0.26466513739691844);79.7762451172;1.0;09:05:09:924;0;5;-1.3258064516129;1;0.684261974584555;0;0;0;1;1;1;1;2;0;0;;0;0;();();(-2000.0, -2000.0);
09:05:09:941;09:05:09:905;1448050867.85;(0.47582159042358396, 0.26466513739691844);79.7762451172;1.0;09:05:09:941;0;5;-1.3258064516129;1;0.684261974584555;0;0;0;1;1;1;1;2;0;0;;0;0;();();(-2000.0, -2000.0);
09:05:09:957;09:05:09:905;1448050867.85;(0.47582159042358396, 0.26466513739691844);79.7762451172;1.0;09:05:09:957;0;15;-1.3258064516129;1;0.684261974584555;0;0;0;1;1;1;1;2;0;0;;0;0;();();(-2000.0, -2000.0);
09:05:09:973;09:05:09:970;1448050867.95;(0.4739419937133789, 0.2623055352105035);79.4809417725;1.0;09:05:09:973;0;9;-1.3258064516129;1;0.684261974584555;0;0;0;1;1;1;1;2;0;0;;0;0;();();(-2000.0, -2000.0);
09:05:10:006;09:05:09:970;1448050867.95;(0.4739419937133789, 0.2623055352105035);79.4809417725;1.0;09:05:10:006;0;5;-1.3258064516129;1;0.684261974584555;0;0;0;1;1;1;1;2;0;0;;0;0;();();(-2000.0, -2000.0);
09:05:10:023;09:05:09:970;1448050867.95;(0.4739419937133789, 0.2623055352105035);79.4809417725;1.0;09:05:10:023;0;5;-1.3258064516129;1;0.684261974584555;0;0;0;1;1;1;1;2;0;0;;0;0;();();(-2000.0, -2000.0);
09:05:10:040;09:05:10:037;1448050867.98;(0.47324204444885254, 0.262214109632704);78.8620681763;1.0;09:05:10:040;0;10;-1.3258064516129;341;2.44379276637341;0;0;0;1;1;1;1;2;0;0;;0;0;();();(-2000.0, -2000.0);
09:05:10:057;09:05:10:037;1448050867.98;(0.47324204444885254, 0.262214109632704);78.8620681763;1.0;09:05:10:057;0;15;-1.3258064516129;1;0.684261974584555;0;0;0;1;1;1;1;2;0;0;;0;0;();();(-2000.0, -2000.0);
09:05:10:072;09:05:10:037;1448050867.98;(0.47324204444885254, 0.262214109632704);78.8620681763;1.0;09:05:10:072;0;10;-1.3258064516129;1;0.684261974584555;0;0;0;1;1;1;1;2;0;0;;0;0;();();(-2000.0, -2000.0);
09:05:10:107;09:05:10:102;1448050868.08;(0.47109265327453614, 0.2635230170355902);78.086769104;1.0;09:05:10:107;0;4;-1.3258064516129;1;0.684261974584555;0;0;0;1;1;1;1;2;0;0;;0;0;();();(-2000.0, -2000.0);
09:05:10:123;09:05:10:102;1448050868.08;(0.47109265327453614, 0.2635230170355902);78.086769104;1.0;09:05:10:123;0;4;-1.34838709677419;1;0.684261974584555;0;0;0;1;1;1;1;2;0;0;;0;0;();();(-2000.0, -2000.0);
09:05:10:140;09:05:10:102;1448050868.08;(0.47109265327453614, 0.2635230170355902);78.086769104;1.0;09:05:10:140;0;5;-1.3258064516129;1;0.684261974584555;0;0;0;1;1;1;1;2;0;0;;0;0;();();(-2000.0, -2000.0);
09:05:10:157;09:05:10:102;1448050868.08;(0.47109265327453614, 0.2635230170355902);78.086769104;1.0;09:05:10:157;0;0;-1.3258064516129;1;0.684261974584555;0;0;0;1;1;1;1;2;0;0;;0;0;();();(-2000.0, -2000.0);
09:05:10:174;09:05:10:169;1448050868.15;(0.46927528381347655, 0.2646151224772135);78.1867370605;0.990124509524;09:05:10:174;0;4;-1.3;1;0.879765395894428;0;0;0;1;1;1;1;2;0;0;;0;0;();();(-2000.0, -2000.0);
09:05:10:207;09:05:10:169;1448050868.15;(0.46927528381347655, 0.2646151224772135);78.1867370605;0.990124509524;09:05:10:207;0;4;-1.2741935483871;1;1.36852394916911;0;0;0;1;1;1;1;2;0;0;;0;0;();();(-2000.0, -2000.0);
09:05:10:224;09:05:10:169;1448050868.15;(0.46927528381347655, 0.2646151224772135);78.1867370605;0.990124509524;09:05:10:224;0;15;-1.34838709677419;1;0.684261974584555;0;0;0;1;1;1;1;2;0;0;;0;0;();();(-2000.0, -2000.0);
09:05:10:240;09:05:10:169;1448050868.15;(0.46927528381347655, 0.2646151224772135);78.1867370605;0.990124509524;09:05:10:240;0;5;-1.3258064516129;1;0.684261974584555;0;0;0;1;1;1;1;2;0;0;;0;0;();();(-2000.0, -2000.0);
09:05:10:256;09:05:10:242;1448050868.21;(0.468855619430542, 0.26803453233506946);78.2893981934;0.940346398379;09:05:10:256;0;10;-1.3258064516129;1;0.684261974584555;0;0;0;1;1;1;1;2;0;0;;0;0;();();(-2000.0, -2000.0);
09:05:10:274;09:05:10:242;1448050868.21;(0.468855619430542, 0.26803453233506946);78.2893981934;0.940346398379;09:05:10:274;0;15;-1.34838709677419;1;0.684261974584555;0;0;0;1;1;1;1;2;0;0;;0;0;();();(-2000.0, -2000.0);
09:05:10:307;09:05:10:300;1448050868.25;(0.46931071281433107, 0.27036022610134547);78.1081619263;0.828197587175;09:05:10:307;0;5;-1.3258064516129;1;0.684261974584555;0;0;0;1;1;1;1;2;0;0;;0;0;();();(-2000.0, -2000.0);
09:05:10:323;09:05:10:300;1448050868.25;(0.46931071281433107, 0.27036022610134547);78.1081619263;0.828197587175;09:05:10:323;0;10;-1.3258064516129;1;0.684261974584555;0;0;0;1;1;1;1;2;0;0;;0;0;();();(-2000.0, -2000.0);
09:05:10:340;09:05:10:300;1448050868.25;(0.46931071281433107, 0.27036022610134547);78.1081619263;0.828197587175;09:05:10:340;0;15;-1.3258064516129;1;0.684261974584555;0;0;0;1;1;1;1;2;0;0;;0;0;();();(-2000.0, -2000.0);
09:05:10:356;09:05:10:300;1448050868.25;(0.46931071281433107, 0.27036022610134547);78.1081619263;0.828197587175;09:05:10:356;0;10;-1.3258064516129;1;0.684261974584555;0;0;0;1;1;1;1;2;0;0;;0;0;();();(-2000.0, -2000.0);
09:05:10:374;09:05:10:368;1448050868.28;(0.4704748153686523, 0.2761448330349392);77.8999404907;0.990786165641;09:05:10:374;0;15;-1.3258064516129;1;0.684261974584555;0;0;0;1;1;1;1;2;0;0;;0;0;();();(-2000.0, -2000.0);
09:05:10:408;09:05:10:368;1448050868.28;(0.4704748153686523, 0.2761448330349392);77.8999404907;0.990786165641;09:05:10:408;0;15;-1.3;341;3.03030303030303;0;0;0;1;1;1;1;2;0;0;;0;0;();();(-2000.0, -2000.0);
09:05:10:423;09:05:10:368;1448050868.28;(0.4704748153686523, 0.2761448330349392);77.8999404907;0.990786165641;09:05:10:423;0;10;-1.2741935483871;255.75;4.3010752688172;0;0;0;1;1;1;1;2;0;0;;0;0;();();(-2000.0, -2000.0);
09:05:10:441;09:05:10:368;1448050868.28;(0.4704748153686523, 0.2761448330349392);77.8999404907;0.990786165641;09:05:10:441;0;15;-1.2741935483871;1.00097847358121;1.36852394916911;0;0;0;1;1;1;1;2;0;0;;0;0;();();(-2000.0, -2000.0);
09:05:10:458;09:05:10:368;1448050868.28;(0.4704748153686523, 0.2761448330349392);77.8999404907;0.990786165641;09:05:10:458;0;9;-1.34838709677419;1;0.684261974584555;0;0;0;1;1;1;1;2;0;0;;0;0;();();(-2000.0, -2000.0);
09:05:10:474;09:05:10:368;1448050868.28;(0.4704748153686523, 0.2761448330349392);77.8999404907;0.990786165641;09:05:10:474;0;0;-1.2741935483871;341;4.3010752688172;0;0;0;1;1;1;1;2;0;0;;0;0;();();(-2000.0, -2000.0);
09:05:10:508;09:05:10:501;1448050868.45;(0.46336026191711427, 0.35228322347005203);83.2620925903;0.866152922217;09:05:10:508;0;9;-1.3258064516129;341;2.44379276637341;0;0;0;1;1;1;1;2;0;0;;0;0;();();(-2000.0, -2000.0);
09:05:10:524;09:05:10:501;1448050868.45;(0.46336026191711427, 0.35228322347005203);83.2620925903;0.866152922217;09:05:10:524;0;9;-1.3258064516129;341;2.44379276637341;0;0;0;1;1;1;1;2;0;0;;0;0;();();(-2000.0, -2000.0);
09:05:10:541;09:05:10:501;1448050868.45;(0.46336026191711427, 0.35228322347005203);83.2620925903;0.866152922217;09:05:10:541;0;15;-1.3258064516129;341;2.44379276637341;0;0;0;1;1;1;1;2;0;0;;0;0;();();(-2000.0, -2000.0);
09:05:10:557;09:05:10:501;1448050868.45;(0.46336026191711427, 0.35228322347005203);83.2620925903;0.866152922217;09:05:10:557;0;5;-1.3258064516129;341;2.44379276637341;0;0;0;1;1;1;1;2;0;0;;0;0;();();(-2000.0, -2000.0);
09:05:10:574;09:05:10:569;1448050868.55;(0.44908995628356935, 0.31373007032606337);75.9642333984;0.98293255554;09:05:10:574;0;10;-1.3258064516129;1;0.684261974584555;0;0;0;1;1;1;1;2;0;0;;0;0;();();(-2000.0, -2000.0);
09:05:10:607;09:05:10:569;1448050868.55;(0.44908995628356935, 0.31373007032606337);75.9642333984;0.98293255554;09:05:10:607;0;15;-1.30645161290323;1;0.879765395894428;0;0;0;1;1;1;1;2;0;0;;0;0;();();(-2000.0, -2000.0);
09:05:10:624;09:05:10:569;1448050868.55;(0.44908995628356935, 0.31373007032606337);75.9642333984;0.98293255554;09:05:10:624;0;5;-1.2741935483871;1;1.36852394916911;0;0;0;1;1;1;1;2;0;0;;0;0;();();(-2000.0, -2000.0);
09:05:10:640;09:05:10:633;1448050868.58;(0.2847811222076416, 0.42588030497233076);21.3462944031;0.823665845772;09:05:10:640;0;10;-1.30645161290323;1;0.879765395894428;0;0;0;1;1;1;1;2;0;0;;0;0;();();(-2000.0, -2000.0);
09:05:10:657;09:05:10:633;1448050868.58;(0.2847811222076416, 0.42588030497233076);21.3462944031;0.823665845772;09:05:10:657;0;5;-1.3258064516129;1;0.684261974584555;0;0;0;1;1;1;1;2;0;0;;0;0;();();(-2000.0, -2000.0);
09:05:10:674;09:05:10:633;1448050868.58;(0.2847811222076416, 0.42588030497233076);21.3462944031;0.823665845772;09:05:10:674;0;9;-1.3258064516129;1;0.684261974584555;0;0;0;1;1;1;1;2;0;0;;0;0;();();(-2000.0, -2000.0);
09:05:10:708;09:05:10:701;1448050868.65;(0.43514385223388674, 0.28968887329101567);74.023651123;0.983508964722;09:05:10:708;0;9;-1.2741935483871;1;1.36852394916911;0;0;0;1;1;1;1;2;0;0;;0;0;();();(-2000.0, -2000.0);
09:05:10:724;09:05:10:701;1448050868.65;(0.43514385223388674, 0.28968887329101567);74.023651123;0.983508964722;09:05:10:724;0;5;-1.30645161290323;1;0.879765395894428;0;0;0;1;1;1;1;2;0;0;;0;0;();();(-2000.0, -2000.0);
09:05:10:741;09:05:10:701;1448050868.65;(0.43514385223388674, 0.28968887329101567);74.023651123;0.983508964722;09:05:10:741;0;10;-1.3258064516129;1;0.684261974584555;0;0;0;1;1;1;1;2;0;0;;0;0;();();(-2000.0, -2000.0);
09:05:10:757;09:05:10:701;1448050868.65;(0.43514385223388674, 0.28968887329101567);74.023651123;0.983508964722;09:05:10:757;0;11;-1.30645161290323;1;0.879765395894428;0;0;0;1;1;1;1;2;0;0;;0;0;();();(-2000.0, -2000.0);
09:05:10:774;09:05:10:764;1448050868.69;(0.4328059911727905, 0.28457781473795574);73.8333282471;0.971661806376;09:05:10:774;0;9;-1.3258064516129;1;0.684261974584555;0;0;0;1;1;1;1;2;0;0;;0;0;();();(-2000.0, -2000.0);
09:05:10:791;09:05:10:764;1448050868.69;(0.4328059911727905, 0.28457781473795574);73.8333282471;0.971661806376;09:05:10:791;0;0;-1.30645161290323;1;0.879765395894428;0;0;0;1;1;1;1;2;0;0;;0;0;();();(-2000.0, -2000.0);
09:05:10:824;09:05:10:764;1448050868.69;(0.4328059911727905, 0.28457781473795574);73.8333282471;0.971661806376;09:05:10:824;0;15;-1.3258064516129;1;0.684261974584555;0;0;0;1;1;1;1;2;0;0;;0;0;();();(-2000.0, -2000.0);
09:05:10:841;09:05:10:832;1448050868.75;(0.4308700799942017, 0.2741239335801866);73.9014053345;0.939741466675;09:05:10:841;0;4;-1.30645161290323;1;0.879765395894428;0;0;0;1;1;1;1;2;0;0;;0;0;();();(-2000.0, -2000.0);
09:05:10:856;09:05:10:832;1448050868.75;(0.4308700799942017, 0.2741239335801866);73.9014053345;0.939741466675;09:05:10:856;0;0;-1.30645161290323;1;0.879765395894428;0;0;0;1;1;1;1;2;0;0;;0;0;();();(-2000.0, -2000.0);
09:05:10:875;09:05:10:832;1448050868.75;(0.4308700799942017, 0.2741239335801866);73.9014053345;0.939741466675;09:05:10:875;0;5;-1.3258064516129;1;0.684261974584555;0;0;0;1;1;1;1;2;0;0;;0;0;();();(-2000.0, -2000.0);
09:05:10:891;09:05:10:832;1448050868.75;(0.4308700799942017, 0.2741239335801866);73.9014053345;0.939741466675;09:05:10:891;0;15;-1.3258064516129;1;0.684261974584555;0;0;0;1;1;1;1;2;0;0;;0;0;();();(-2000.0, -2000.0);
09:05:10:923;09:05:10:901;1448050868.85;(0.4277114629745483, 0.2743768480088976);74.0609817505;1.0;09:05:10:923;0;15;-1.3258064516129;1;0.684261974584555;0;0;0;1;1;1;1;2;0;0;;0;0;();();(-2000.0, -2000.0);
09:05:10:941;09:05:10:901;1448050868.85;(0.4277114629745483, 0.2743768480088976);74.0609817505;1.0;09:05:10:941;0;4;-1.3258064516129;1;0.684261974584555;0;0;0;1;1;1;1;2;0;0;;0;0;();();(-2000.0, -2000.0);
09:05:10:958;09:05:10:901;1448050868.85;(0.4277114629745483, 0.2743768480088976);74.0609817505;1.0;09:05:10:958;0;10;-1.30645161290323;1;0.879765395894428;0;0;0;1;1;1;1;2;0;0;;0;0;();();(-2000.0, -2000.0);
09:05:10:974;09:05:10:965;1448050868.91;(0.42770586013793943, 0.24547093709309897);74.1511688232;0.992210628418;09:05:10:974;0;5;-1.3258064516129;1;0.684261974584555;0;0;0;1;1;1;1;2;0;0;;0;0;();();(-2000.0, -2000.0);
09:05:10:991;09:05:10:965;1448050868.91;(0.42770586013793943, 0.24547093709309897);74.1511688232;0.992210628418;09:05:10:991;0;15;-1.3258064516129;1;0.684261974584555;0;0;0;1;1;1;1;2;0;0;;0;0;();();(-2000.0, -2000.0);
09:05:11:024;09:05:10:965;1448050868.91;(0.42770586013793943, 0.24547093709309897);74.1511688232;0.992210628418;09:05:11:024;0;9;-1.3258064516129;1;0.684261974584555;0;0;0;1;1;1;1;2;0;0;;0;0;();();(-2000.0, -2000.0);
09:05:11:041;09:05:11:033;1448050869.0;(0.42645087242126467, 0.24260669284396696);73.7583389282;0.945372991362;09:05:11:041;0;5;-1.30645161290323;1;0.879765395894428;0;0;0;1;1;1;1;2;0;0;;0;0;();();(-2000.0, -2000.0);
09:05:11:057;09:05:11:033;1448050869.0;(0.42645087242126467, 0.24260669284396696);73.7583389282;0.945372991362;09:05:11:057;0;10;-1.30645161290323;1;0.879765395894428;0;0;0;1;1;1;1;2;0;0;;0;0;();();(-2000.0, -2000.0);
09:05:11:074;09:05:11:033;1448050869.0;(0.42645087242126467, 0.24260669284396696);73.7583389282;0.945372991362;09:05:11:074;0;15;-1.3258064516129;1;0.684261974584555;0;0;0;1;1;1;1;2;0;0;;0;0;();();(-2000.0, -2000.0);
09:05:11:091;09:05:11:033;1448050869.0;(0.42645087242126467, 0.24260669284396696);73.7583389282;0.945372991362;09:05:11:091;0;9;-1.34838709677419;1;0.684261974584555;0;0;0;1;1;1;1;2;0;0;;0;0;();();(-2000.0, -2000.0);
09:05:11:125;09:05:11:097;1448050869.05;(0.42670953273773193, 0.24192208184136288);73.8191604614;0.933946621801;09:05:11:125;0;10;-1.30645161290323;1;0.879765395894428;0;0;0;1;1;1;1;2;0;0;;0;0;();();(-2000.0, -2000.0);
09:05:11:141;09:05:11:097;1448050869.05;(0.42670953273773193, 0.24192208184136288);73.8191604614;0.933946621801;09:05:11:141;0;15;-1.3258064516129;1;0.684261974584555;0;0;0;1;1;1;1;2;0;0;;0;0;();();(-2000.0, -2000.0);
09:05:11:158;09:05:11:097;1448050869.05;(0.42670953273773193, 0.24192208184136288);73.8191604614;0.933946621801;09:05:11:158;0;10;-1.3258064516129;1;0.684261974584555;0;0;0;1;1;1;1;2;0;0;;0;0;();();(-2000.0, -2000.0);
09:05:11:174;09:05:11:165;1448050869.11;(0.42957637310028074, 0.2361319647894965);73.6915283203;0.951736292318;09:05:11:174;0;0;-1.3258064516129;1;0.684261974584555;0;0;0;1;1;1;1;2;0;0;;0;0;();();(-2000.0, -2000.0);
09:05:11:191;09:05:11:165;1448050869.11;(0.42957637310028074, 0.2361319647894965);73.6915283203;0.951736292318;09:05:11:191;0;9;-1.3258064516129;1;0.684261974584555;0;0;0;1;1;1;1;2;0;0;;0;0;();();(-2000.0, -2000.0);
09:05:11:224;09:05:11:165;1448050869.11;(0.42957637310028074, 0.2361319647894965);73.6915283203;0.951736292318;09:05:11:224;0;10;-1.3258064516129;1;0.684261974584555;0;0;0;1;1;1;1;2;0;0;;0;0;();();(-2000.0, -2000.0);
09:05:11:241;09:05:11:234;1448050869.21;(0.4290395021438599, 0.2351511637369792);73.6644363403;1.0;09:05:11:241;0;15;-1.3258064516129;1;0.684261974584555;0;0;0;1;1;1;1;2;0;0;;0;0;();();(-2000.0, -2000.0);
09:05:11:256;09:05:11:234;1448050869.21;(0.4290395021438599, 0.2351511637369792);73.6644363403;1.0;09:05:11:256;0;4;-1.3258064516129;1;0.684261974584555;0;0;0;1;1;1;1;2;0;0;;0;0;();();(-2000.0, -2000.0);
09:05:11:274;09:05:11:234;1448050869.21;(0.4290395021438599, 0.2351511637369792);73.6644363403;1.0;09:05:11:274;0;0;-1.3258064516129;1;0.684261974584555;0;0;0;1;1;1;1;2;0;0;;0;0;();();(-2000.0, -2000.0);
09:05:11:291;09:05:11:234;1448050869.21;(0.4290395021438599, 0.2351511637369792);73.6644363403;1.0;09:05:11:291;0;5;-1.3258064516129;1;0.684261974584555;0;0;0;1;1;1;1;2;0;0;;0;0;();();(-2000.0, -2000.0);
09:05:11:325;09:05:11:296;1448050869.25;(0.4288738012313843, 0.234590827094184);73.6438293457;1.0;09:05:11:325;0;4;-1.3258064516129;1;0.684261974584555;0;0;0;1;1;1;1;2;0;0;;0;0;();();(-2000.0, -2000.0);
09:05:11:341;09:05:11:296;1448050869.25;(0.4288738012313843, 0.234590827094184);73.6438293457;1.0;09:05:11:341;0;15;-1.3258064516129;1;0.684261974584555;0;0;0;1;1;1;1;2;0;0;;0;0;();();(-2000.0, -2000.0);
09:05:11:358;09:05:11:296;1448050869.25;(0.4288738012313843, 0.234590827094184);73.6438293457;1.0;09:05:11:358;0;10;-1.33225806451613;1;0.684261974584555;0;0;0;1;1;1;1;2;0;0;;0;0;();();(-2000.0, -2000.0);
09:05:11:374;09:05:11:366;1448050869.35;(0.42808117866516116, 0.2325570000542535);73.8059844971;1.0;09:05:11:374;0;4;-1.33225806451613;1;0.684261974584555;0;0;0;1;1;1;1;2;0;0;;0;0;();();(-2000.0, -2000.0);
09:05:11:391;09:05:11:366;1448050869.35;(0.42808117866516116, 0.2325570000542535);73.8059844971;1.0;09:05:11:391;0;4;-1.33225806451613;1;0.684261974584555;0;0;0;1;1;1;1;2;0;0;;0;0;();();(-2000.0, -2000.0);
09:05:11:424;09:05:11:366;1448050869.35;(0.42808117866516116, 0.2325570000542535);73.8059844971;1.0;09:05:11:424;0;5;-1.30645161290323;1;0.879765395894428;0;0;0;1;1;1;1;2;0;0;;0;0;();();(-2000.0, -2000.0);
09:05:11:442;09:05:11:428;1448050869.41;(0.427860164642334, 0.23189120822482634);73.8686904907;1.0;09:05:11:442;0;10;-1.34838709677419;1;0.684261974584555;0;0;0;1;1;1;1;2;0;0;;0;0;();();(-2000.0, -2000.0);
09:05:11:459;09:05:11:428;1448050869.41;(0.427860164642334, 0.23189120822482634);73.8686904907;1.0;09:05:11:459;0;5;-1.34838709677419;1;0.684261974584555;0;0;0;1;1;1;1;2;0;0;;0;0;();();(-2000.0, -2000.0);
09:05:11:474;09:05:11:428;1448050869.41;(0.427860164642334, 0.23189120822482634);73.8686904907;1.0;09:05:11:474;0;9;-1.3258064516129;1;0.684261974584555;0;0;0;1;1;1;1;2;0;0;;0;0;();();(-2000.0, -2000.0);
09:05:11:492;09:05:11:428;1448050869.41;(0.427860164642334, 0.23189120822482634);73.8686904907;1.0;09:05:11:492;0;15;-1.2741935483871;1;1.36852394916911;0;0;0;1;1;1;1;2;0;0;;0;0;();();(-2000.0, -2000.0);
09:05:11:525;09:05:11:497;1448050869.45;(0.4273372650146484, 0.23164045545789935);73.9099807739;1.0;09:05:11:525;0;15;-1.33225806451613;1;0.684261974584555;0;0;0;1;1;1;1;2;0;0;;0;0;();();(-2000.0, -2000.0);
09:05:11:541;09:05:11:497;1448050869.45;(0.4273372650146484, 0.23164045545789935);73.9099807739;1.0;09:05:11:541;0;10;-1.2741935483871;1;1.36852394916911;0;0;0;1;1;1;1;2;0;0;;0;0;();();(-2000.0, -2000.0);
09:05:11:558;09:05:11:497;1448050869.45;(0.4273372650146484, 0.23164045545789935);73.9099807739;1.0;09:05:11:558;0;15;-1.33225806451613;1;0.684261974584555;0;0;0;1;1;1;1;2;0;0;;0;0;();();(-2000.0, -2000.0);
09:05:11:574;09:05:11:566;1448050869.55;(0.425727391242981, 0.22847315470377605);73.8185348511;1.0;09:05:11:574;0;4;-1.34838709677419;1;0.684261974584555;0;0;0;1;1;1;1;2;0;0;;0;0;();();(-2000.0, -2000.0);
09:05:11:591;09:05:11:566;1448050869.55;(0.425727391242981, 0.22847315470377605);73.8185348511;1.0;09:05:11:591;0;0;-1.30645161290323;1;0.879765395894428;0;0;0;1;1;1;1;2;0;0;;0;0;();();(-2000.0, -2000.0);
09:05:11:626;09:05:11:566;1448050869.55;(0.425727391242981, 0.22847315470377605);73.8185348511;1.0;09:05:11:626;0;15;-1.33225806451613;1;0.684261974584555;0;0;0;1;1;1;1;2;0;0;;0;0;();();(-2000.0, -2000.0);
09:05:11:642;09:05:11:629;1448050869.58;(0.42513103485107423, 0.22704154120551212);73.9579315186;0.967123568837;09:05:11:642;0;4;-1.30645161290323;341;3.03030303030303;0;0;0;1;1;1;1;2;0;0;;0;0;();();(-2000.0, -2000.0);
09:05:11:659;09:05:11:629;1448050869.58;(0.42513103485107423, 0.22704154120551212);73.9579315186;0.967123568837;09:05:11:659;0;0;-1.33225806451613;341;2.44379276637341;0;0;0;1;1;1;1;2;0;0;;0;0;();();(-2000.0, -2000.0);
09:05:11:675;09:05:11:629;1448050869.58;(0.42513103485107423, 0.22704154120551212);73.9579315186;0.967123568837;09:05:11:675;0;5;-1.33225806451613;341;2.44379276637341;0;0;0;1;1;1;1;2;0;0;;0;0;();();(-2000.0, -2000.0);
09:05:11:691;09:05:11:629;1448050869.58;(0.42513103485107423, 0.22704154120551212);73.9579315186;0.967123568837;09:05:11:691;0;15;-1.33225806451613;341;2.44379276637341;0;0;0;1;1;1;1;2;0;0;;0;0;();();(-2000.0, -2000.0);
09:05:11:725;09:05:11:697;1448050869.65;(0.424020791053772, 0.22434429592556426);73.7174224854;1.0;09:05:11:725;0;15;-1.33225806451613;1;0.684261974584555;0;0;0;1;1;1;1;2;0;0;;0;0;();();(-2000.0, -2000.0);
09:05:11:742;09:05:11:697;1448050869.65;(0.424020791053772, 0.22434429592556426);73.7174224854;1.0;09:05:11:742;0;4;-1.33225806451613;1;0.684261974584555;0;0;0;1;1;1;1;2;0;0;;0;0;();();(-2000.0, -2000.0);
09:05:11:758;09:05:11:697;1448050869.65;(0.424020791053772, 0.22434429592556426);73.7174224854;1.0;09:05:11:758;0;10;-1.30645161290323;341;3.03030303030303;0;0;0;1;1;1;1;2;0;0;;0;0;();();(-2000.0, -2000.0);
09:05:11:775;09:05:11:762;1448050869.75;(0.4236734867095947, 0.22406565348307295);73.6990661621;1.0;09:05:11:775;0;5;-1.33225806451613;341;2.44379276637341;0;0;0;1;1;1;1;2;0;0;;0;0;();();(-2000.0, -2000.0);
09:05:11:792;09:05:11:762;1448050869.75;(0.4236734867095947, 0.22406565348307295);73.6990661621;1.0;09:05:11:792;0;9;-1.30645161290323;341;3.03030303030303;0;0;0;1;1;1;1;2;0;0;;0;0;();();(-2000.0, -2000.0);
09:05:11:825;09:05:11:762;1448050869.75;(0.4236734867095947, 0.22406565348307295);73.6990661621;1.0;09:05:11:825;0;9;-1.30645161290323;341;3.03030303030303;0;0;0;1;1;1;1;2;0;0;;0;0;();();(-2000.0, -2000.0);
09:05:11:842;09:05:11:830;1448050869.78;(0.42289233207702637, 0.22502297295464413);73.6100769043;1.0;09:05:11:842;0;5;-1.30645161290323;341;3.03030303030303;0;0;0;1;1;1;1;2;0;0;;0;0;();();(-2000.0, -2000.0);
09:05:11:858;09:05:11:830;1448050869.78;(0.42289233207702637, 0.22502297295464413);73.6100769043;1.0;09:05:11:858;0;9;-1.33225806451613;341;2.44379276637341;0;0;0;1;1;1;1;2;0;0;;0;0;();();(-2000.0, -2000.0);
09:05:11:875;09:05:11:830;1448050869.78;(0.42289233207702637, 0.22502297295464413);73.6100769043;1.0;09:05:11:875;0;15;-1.33225806451613;341;2.34604105571848;0;0;0;1;1;1;1;2;0;0;;0;0;();();(-2000.0, -2000.0);
09:05:11:892;09:05:11:830;1448050869.78;(0.42289233207702637, 0.22502297295464413);73.6100769043;1.0;09:05:11:892;0;9;-1.33225806451613;341;2.44379276637341;0;0;0;1;1;1;1;2;0;0;;0;0;();();(-2000.0, -2000.0);
09:05:11:925;09:05:11:896;1448050869.85;(0, 0);0;0;09:05:11:925;0;10;-1.33548387096774;341;2.44379276637341;0;0;0;1;1;1;1;2;0;0;;0;0;();();(-2000.0, -2000.0);
09:05:11:942;09:05:11:896;1448050869.85;(0, 0);0;0;09:05:11:942;0;15;-1.35161290322581;341;2.44379276637341;0;0;0;1;1;1;1;2;0;0;;0;0;();();(-2000.0, -2000.0);
09:05:11:958;09:05:11:896;1448050869.85;(0, 0);0;0;09:05:11:958;0;9;-1.30645161290323;341;3.03030303030303;0;0;0;1;1;1;1;2;0;0;;0;0;();();(-2000.0, -2000.0);
09:05:11:975;09:05:11:962;1448050869.91;(0.08817343711853028, 0.7978454695807563);22.0143299103;0.913072067726;09:05:11:975;0;0;-1.33548387096774;341;2.34604105571848;0;0;0;1;1;1;1;2;0;0;;0;0;();();(-2000.0, -2000.0);
09:05:11:992;09:05:11:962;1448050869.91;(0.08817343711853028, 0.7978454695807563);22.0143299103;0.913072067726;09:05:11:992;0;5;-1.33548387096774;341;2.34604105571848;0;0;0;1;1;1;1;2;0;0;;0;0;();();(-2000.0, -2000.0);
09:05:12:025;09:05:11:962;1448050869.91;(0.08817343711853028, 0.7978454695807563);22.0143299103;0.913072067726;09:05:12:025;0;0;-1.33548387096774;341;2.34604105571848;0;0;0;1;1;1;1;2;0;0;;0;0;();();(-2000.0, -2000.0);
09:05:12:043;09:05:12:028;1448050869.95;(0.34781494140625, 0.2946601867675781);19.9421100616;0.945890600299;09:05:12:043;0;15;-1.33548387096774;1;0.684261974584555;0;0;0;1;1;1;1;2;0;0;;0;0;();();(-2000.0, -2000.0);
09:05:12:059;09:05:12:028;1448050869.95;(0.34781494140625, 0.2946601867675781);19.9421100616;0.945890600299;09:05:12:059;0;4;-1.33548387096774;1;0.684261974584555;0;0;0;1;1;1;1;2;0;0;;0;0;();();(-2000.0, -2000.0);
09:05:12:075;09:05:12:028;1448050869.95;(0.34781494140625, 0.2946601867675781);19.9421100616;0.945890600299;09:05:12:075;0;0;-1.30645161290323;1;0.879765395894428;0;0;0;1;1;1;1;2;0;0;;0;0;();();(-2000.0, -2000.0);
09:05:12:092;09:05:12:028;1448050869.95;(0.34781494140625, 0.2946601867675781);19.9421100616;0.945890600299;09:05:12:092;0;5;-1.35161290322581;1;0.684261974584555;0;0;0;1;1;1;1;2;0;0;;0;0;();();(-2000.0, -2000.0);
09:05:12:125;09:05:12:092;1448050870.03;(0.0905715823173523, 0.7972836494445801);19.3192138672;0.989301207048;09:05:12:125;0;9;-1.33548387096774;1;0.684261974584555;0;0;0;1;1;1;1;2;0;0;;0;0;();();(-2000.0, -2000.0);
09:05:12:142;09:05:12:092;1448050870.03;(0.0905715823173523, 0.7972836494445801);19.3192138672;0.989301207048;09:05:12:142;0;0;-1.30645161290323;1;0.879765395894428;0;0;0;1;1;1;1;2;0;0;;0;0;();();(-2000.0, -2000.0);
09:05:12:158;09:05:12:092;1448050870.03;(0.0905715823173523, 0.7972836494445801);19.3192138672;0.989301207048;09:05:12:158;0;5;-1.30645161290323;1;0.879765395894428;0;0;0;1;1;1;1;2;0;0;;0;0;();();(-2000.0, -2000.0);
09:05:12:175;09:05:12:161;1448050870.15;(0.42443912029266356, 0.2241473727756076);73.93775177;0.977692902502;09:05:12:175;0;10;-1.33548387096774;341;2.34604105571848;0;0;0;1;1;1;1;2;0;0;;0;0;();();(-2000.0, -2000.0);
09:05:12:192;09:05:12:161;1448050870.15;(0.42443912029266356, 0.2241473727756076);73.93775177;0.977692902502;09:05:12:192;0;10;-1.30645161290323;341;3.03030303030303;0;0;0;1;1;1;1;2;0;0;;0;0;();();(-2000.0, -2000.0);
09:05:12:225;09:05:12:161;1448050870.15;(0.42443912029266356, 0.2241473727756076);73.93775177;0.977692902502;09:05:12:225;0;5;-1.33548387096774;341;2.34604105571848;0;0;0;1;1;1;1;2;0;0;;0;0;();();(-2000.0, -2000.0);
09:05:12:242;09:05:12:229;1448050870.21;(0.42600598335266116, 0.2279402838812934);73.9640579224;0.970399678807;09:05:12:242;0;10;-1.33548387096774;341;2.44379276637341;0;0;0;1;1;1;1;2;0;0;;0;0;();();(-2000.0, -2000.0);
09:05:12:259;09:05:12:229;1448050870.21;(0.42600598335266116, 0.2279402838812934);73.9640579224;0.970399678807;09:05:12:259;0;15;-1.33548387096774;341;2.34604105571848;0;0;0;1;1;1;1;2;0;0;;0;0;();();(-2000.0, -2000.0);
09:05:12:276;09:05:12:229;1448050870.21;(0.42600598335266116, 0.2279402838812934);73.9640579224;0.970399678807;09:05:12:276;0;10;-1.30645161290323;341;3.03030303030303;0;0;0;1;1;1;1;2;0;0;;0;0;();();(-2000.0, -2000.0);
09:05:12:292;09:05:12:229;1448050870.21;(0.42600598335266116, 0.2279402838812934);73.9640579224;0.970399678807;09:05:12:292;0;4;-1.33548387096774;341;2.34604105571848;0;0;0;1;1;1;1;2;0;0;;0;0;();();(-2000.0, -2000.0);
09:05:12:325;09:05:12:293;1448050870.25;(0.4263209581375122, 0.2288536071777344);74.0005950928;1.0;09:05:12:325;0;5;-1.30645161290323;1.02402402402402;0.879765395894428;0;0;0;1;1;1;1;2;0;0;;0;0;();();(-2000.0, -2000.0);
09:05:12:343;09:05:12:293;1448050870.25;(0.4263209581375122, 0.2288536071777344);74.0005950928;1.0;09:05:12:343;0;10;-1.33548387096774;341;2.34604105571848;0;0;0;1;1;1;1;2;0;0;;0;0;();();(-2000.0, -2000.0);
09:05:12:358;09:05:12:293;1448050870.25;(0.4263209581375122, 0.2288536071777344);74.0005950928;1.0;09:05:12:358;0;15;-1.30645161290323;341;3.03030303030303;0;0;0;1;1;1;1;2;0;0;;0;0;();();(-2000.0, -2000.0);
09:05:12:376;09:05:12:361;1448050870.35;(0.42629730701446533, 0.2299040052625868);74.2001571655;1.0;09:05:12:376;0;10;-1.33548387096774;341;2.44379276637341;0;0;0;1;1;1;1;2;0;0;;0;0;();();(-2000.0, -2000.0);
09:05:12:392;09:05:12:361;1448050870.35;(0.42629730701446533, 0.2299040052625868);74.2001571655;1.0;09:05:12:392;0;15;-1.33548387096774;341;2.34604105571848;0;0;0;1;1;1;1;2;0;0;;0;0;();();(-2000.0, -2000.0);
09:05:12:426;09:05:12:424;1448050870.38;(0.42640233039855957, 0.2293334113226997);74.2899856567;1.0;09:05:12:426;0;10;-1.33548387096774;341;2.34604105571848;0;0;0;1;1;1;1;2;0;0;;0;0;();();(-2000.0, -2000.0);
09:05:12:443;09:05:12:424;1448050870.38;(0.42640233039855957, 0.2293334113226997);74.2899856567;1.0;09:05:12:443;0;4;-1.33548387096774;341;2.34604105571848;0;0;0;1;1;1;1;2;0;0;;0;0;();();(-2000.0, -2000.0);
09:05:12:459;09:05:12:424;1448050870.38;(0.42640233039855957, 0.2293334113226997);74.2899856567;1.0;09:05:12:459;0;0;-1.30645161290323;341;3.03030303030303;0;0;0;1;1;1;1;2;0;0;;0;0;();();(-2000.0, -2000.0);
09:05:12:475;09:05:12:424;1448050870.38;(0.42640233039855957, 0.2293334113226997);74.2899856567;1.0;09:05:12:475;0;9;-1.33548387096774;341;2.34604105571848;0;0;0;1;1;1;1;2;0;0;;0;0;();();(-2000.0, -2000.0);
09:05:12:492;09:05:12:424;1448050870.38;(0.42640233039855957, 0.2293334113226997);74.2899856567;1.0;09:05:12:492;0;1;-1.33548387096774;341;2.34604105571848;0;0;0;1;1;1;1;2;0;0;;0;0;();();(-2000.0, -2000.0);
09:05:12:526;09:05:12:495;1448050870.45;(0.42619547843933103, 0.2294048733181424);74.4191131592;1.0;09:05:12:526;0;15;-1.30645161290323;341;3.03030303030303;0;0;0;1;1;1;1;2;0;0;;0;0;();();(-2000.0, -2000.0);
09:05:12:545;09:05:12:495;1448050870.45;(0.42619547843933103, 0.2294048733181424);74.4191131592;1.0;09:05:12:545;0;5;-1.33548387096774;341;2.34604105571848;0;0;0;1;1;1;1;4;0;0;;0;0;();();(-2000.0, -2000.0);
09:05:12:559;09:05:12:495;1448050870.45;(0.42619547843933103, 0.2294048733181424);74.4191131592;1.0;09:05:12:559;0;0;-1.33548387096774;341;2.34604105571848;0;0;0;1;1;1;1;4;0;0;;0;0;();();(-2000.0, -2000.0);
09:05:12:576;09:05:12:561;1448050870.55;(0.4268460750579834, 0.23059412638346355);74.5481033325;1.0;09:05:12:576;0;5;-1.30645161290323;341;3.03030303030303;0;0;0;1;1;1;1;4;0;0;;0;0;();();(-2000.0, -2000.0);
09:05:12:592;09:05:12:561;1448050870.55;(0.4268460750579834, 0.23059412638346355);74.5481033325;1.0;09:05:12:592;0;9;-1.30645161290323;341;3.03030303030303;0;0;0;1;1;1;1;4;0;0;;0;0;();();(-2000.0, -2000.0);
09:05:12:627;09:05:12:624;1448050870.58;(0.42700445652008057, 0.23136986626519096);74.399307251;1.0;09:05:12:627;0;9;-1.33548387096774;1.71932773109244;1.85728250244379;0;0;0;1;1;1;1;4;0;0;;0;0;();();(-2000.0, -2000.0);
09:05:12:642;09:05:12:624;1448050870.58;(0.42700445652008057, 0.23136986626519096);74.399307251;1.0;09:05:12:642;0;9;-1.33548387096774;1.71932773109244;1.85728250244379;0;0;0;1;1;1;1;4;0;0;;0;0;();();(-2000.0, -2000.0);
09:05:12:659;09:05:12:624;1448050870.58;(0.42700445652008057, 0.23136986626519096);74.399307251;1.0;09:05:12:659;0;5;-1.33548387096774;1;0.684261974584555;0;0;0;1;1;1;1;4;0;0;;0;0;();();(-2000.0, -2000.0);
09:05:12:676;09:05:12:624;1448050870.58;(0.42700445652008057, 0.23136986626519096);74.399307251;1.0;09:05:12:676;0;5;-1.33548387096774;1;0.684261974584555;0;0;0;1;1;1;1;4;0;0;;0;0;();();(-2000.0, -2000.0);
09:05:12:693;09:05:12:624;1448050870.58;(0.42700445652008057, 0.23136986626519096);74.399307251;1.0;09:05:12:693;0;5;-1.30645161290323;1;0.879765395894428;0;0;0;1;1;1;1;4;0;0;;0;0;();();(-2000.0, -2000.0);
09:05:12:725;09:05:12:706;1448050870.65;(0.42645649909973143, 0.23132459852430554);74.5804977417;1.0;09:05:12:725;0;10;-1.33548387096774;1;0.684261974584555;0;0;0;1;1;1;1;4;0;0;;0;0;();();(-2000.0, -2000.0);
09:05:12:743;09:05:12:706;1448050870.65;(0.42645649909973143, 0.23132459852430554);74.5804977417;1.0;09:05:12:743;0;15;-1.33548387096774;1;0.684261974584555;0;0;0;1;1;1;1;4;0;0;;0;0;();();(-2000.0, -2000.0);
09:05:12:759;09:05:12:757;1448050870.71;(0.4254517316818237, 0.2317197163899739);74.4225082397;1.0;09:05:12:759;0;4;-1.33548387096774;341;2.34604105571848;0;0;0;1;1;1;1;4;0;0;;0;0;();();(-2000.0, -2000.0);
09:05:12:776;09:05:12:757;1448050870.71;(0.4254517316818237, 0.2317197163899739);74.4225082397;1.0;09:05:12:776;0;0;-1.33548387096774;341;2.34604105571848;0;0;0;1;1;1;1;4;0;0;;0;0;();();(-2000.0, -2000.0);
09:05:12:792;09:05:12:757;1448050870.71;(0.4254517316818237, 0.2317197163899739);74.4225082397;1.0;09:05:12:792;0;5;-1.33548387096774;341;2.34604105571848;0;0;0;1;1;1;1;4;0;0;;0;0;();();(-2000.0, -2000.0);
09:05:12:826;09:05:12:825;1448050870.78;(0.42483394145965575, 0.23289854261610243);74.3060836792;1.0;09:05:12:826;0;9;-1.33548387096774;341;2.34604105571848;0;0;0;1;1;1;1;4;0;0;;0;0;();();(-2000.0, -2000.0);
09:05:12:843;09:05:12:825;1448050870.78;(0.42483394145965575, 0.23289854261610243);74.3060836792;1.0;09:05:12:843;0;15;-1.33548387096774;341;2.44379276637341;0;0;0;1;1;1;1;4;0;0;;0;0;();();(-2000.0, -2000.0);
09:05:12:859;09:05:12:825;1448050870.78;(0.42483394145965575, 0.23289854261610243);74.3060836792;1.0;09:05:12:859;0;10;-1.30645161290323;341;3.03030303030303;0;0;0;1;1;1;1;4;0;0;;0;0;();();(-2000.0, -2000.0);
09:05:12:876;09:05:12:825;1448050870.78;(0.42483394145965575, 0.23289854261610243);74.3060836792;1.0;09:05:12:876;0;0;-1.33548387096774;341;2.34604105571848;0;0;0;1;1;1;1;4;0;0;;0;0;();();(-2000.0, -2000.0);
09:05:12:892;09:05:12:825;1448050870.78;(0.42483394145965575, 0.23289854261610243);74.3060836792;1.0;09:05:12:892;0;4;-1.33548387096774;341;2.34604105571848;0;0;0;1;1;1;1;4;0;0;;0;0;();();(-2000.0, -2000.0);
09:05:12:926;09:05:12:893;1448050870.85;(0, 0);0;0;09:05:12:926;0;4;-1.33548387096774;341;2.34604105571848;0;0;0;1;1;1;1;4;0;0;;0;0;();();(-2000.0, -2000.0);
09:05:12:942;09:05:12:893;1448050870.85;(0, 0);0;0;09:05:12:942;0;0;-1.30645161290323;341;3.03030303030303;0;0;0;1;1;1;1;4;0;0;;0;0;();();(-2000.0, -2000.0);
09:05:12:960;09:05:12:957;1448050870.91;(0, 0);0;0;09:05:12:960;0;5;-1.33548387096774;341;2.44379276637341;0;0;0;1;1;1;1;4;0;0;;0;0;();();(-2000.0, -2000.0);
09:05:12:977;09:05:12:957;1448050870.91;(0, 0);0;0;09:05:12:977;0;9;-1.28387096774194;341;4.00782013685239;0;0;0;1;1;1;1;4;0;0;;0;0;();();(-2000.0, -2000.0);
09:05:12:993;09:05:12:957;1448050870.91;(0, 0);0;0;09:05:12:993;0;4;-1.33548387096774;341;2.34604105571848;0;0;0;1;1;1;1;4;0;0;;0;0;();();(-2000.0, -2000.0);
09:05:13:026;09:05:13:025;1448050870.98;(0.35296676158905027, 0.3329597473144531);18.477148056;0.878394625896;09:05:13:026;0;10;-1.30645161290323;1;0.879765395894428;0;0;0;1;1;1;1;4;0;0;;0;0;();();(-2000.0, -2000.0);
09:05:13:042;09:05:13:025;1448050870.98;(0.35296676158905027, 0.3329597473144531);18.477148056;0.878394625896;09:05:13:042;0;10;-1.30645161290323;1;0.879765395894428;0;0;0;1;1;1;1;4;0;0;;0;0;();();(-2000.0, -2000.0);
09:05:13:059;09:05:13:025;1448050870.98;(0.35296676158905027, 0.3329597473144531);18.477148056;0.878394625896;09:05:13:059;0;15;-1.33548387096774;1;0.684261974584555;0;0;0;1;1;1;1;4;0;0;;0;0;();();(-2000.0, -2000.0);
09:05:13:077;09:05:13:025;1448050870.98;(0.35296676158905027, 0.3329597473144531);18.477148056;0.878394625896;09:05:13:077;0;9;-1.33548387096774;1;0.684261974584555;0;0;0;1;1;1;1;4;0;0;;0;0;();();(-2000.0, -2000.0);
09:05:13:092;09:05:13:025;1448050870.98;(0.35296676158905027, 0.3329597473144531);18.477148056;0.878394625896;09:05:13:092;0;4;-1.33548387096774;1;0.684261974584555;0;0;0;1;1;1;1;4;0;0;;0;0;();();(-2000.0, -2000.0);
09:05:13:126;09:05:13:025;1448050870.98;(0.35296676158905027, 0.3329597473144531);18.477148056;0.878394625896;09:05:13:126;0;15;-1.33548387096774;1;0.684261974584555;0;0;0;1;1;1;1;4;0;0;;0;0;();();(-2000.0, -2000.0);
09:05:13:142;09:05:13:025;1448050870.98;(0.35296676158905027, 0.3329597473144531);18.477148056;0.878394625896;09:05:13:142;0;10;-1.33548387096774;1;0.684261974584555;0;0;0;1;1;1;1;4;0;0;;0;0;();();(-2000.0, -2000.0);
09:05:13:160;09:05:13:158;1448050871.11;(0.44535279273986816, 0.2435931735568576);73.6974639893;1.0;09:05:13:160;0;15;-1.33548387096774;1;0.684261974584555;0;0;0;1;1;1;1;4;0;0;;0;0;();();(-2000.0, -2000.0);
09:05:13:177;09:05:13:158;1448050871.11;(0.44535279273986816, 0.2435931735568576);73.6974639893;1.0;09:05:13:177;0;10;-1.28387096774194;1;1.36852394916911;0;0;0;1;1;1;1;4;0;0;;0;0;();();(-2000.0, -2000.0);
09:05:13:193;09:05:13:158;1448050871.11;(0.44535279273986816, 0.2435931735568576);73.6974639893;1.0;09:05:13:193;0;0;-1.33548387096774;1;0.684261974584555;0;0;0;1;1;1;1;4;0;0;;0;0;();();(-2000.0, -2000.0);
09:05:13:227;09:05:13:221;1448050871.15;(0.4479868412017822, 0.24684482150607634);73.6085891724;1.0;09:05:13:227;0;15;-1.33548387096774;1;0.684261974584555;0;0;0;1;1;1;1;4;0;0;;0;0;();();(-2000.0, -2000.0);
09:05:13:243;09:05:13:221;1448050871.15;(0.4479868412017822, 0.24684482150607634);73.6085891724;1.0;09:05:13:243;0;9;-1.33548387096774;1;0.684261974584555;0;0;0;1;1;1;1;4;0;0;;0;0;();();(-2000.0, -2000.0);
09:05:13:260;09:05:13:221;1448050871.15;(0.4479868412017822, 0.24684482150607634);73.6085891724;1.0;09:05:13:260;0;15;-1.30645161290323;1.33029908972692;1.66177908113392;0;0;0;1;1;1;1;4;0;0;;0;0;();();(-2000.0, -2000.0);
09:05:13:276;09:05:13:221;1448050871.15;(0.4479868412017822, 0.24684482150607634);73.6085891724;1.0;09:05:13:276;0;5;-1.33548387096774;1;0.684261974584555;0;0;0;1;1;1;1;4;0;0;;0;0;();();(-2000.0, -2000.0);
09:05:13:293;09:05:13:290;1448050871.25;(0.4563819408416748, 0.2523496839735243);73.0618972778;1.0;09:05:13:293;0;15;-1.33548387096774;1;0.684261974584555;0;0;0;1;1;1;1;4;0;0;;0;0;();();(-2000.0, -2000.0);
09:05:13:326;09:05:13:290;1448050871.25;(0.4563819408416748, 0.2523496839735243);73.0618972778;1.0;09:05:13:326;0;4;-1.35161290322581;341;2.34604105571848;0;0;0;1;1;1;1;4;0;0;;0;0;();();(-2000.0, -2000.0);
09:05:13:343;09:05:13:290;1448050871.25;(0.4563819408416748, 0.2523496839735243);73.0618972778;1.0;09:05:13:343;0;5;-1.33548387096774;341;2.34604105571848;0;0;0;1;1;1;1;4;0;0;;0;0;();();(-2000.0, -2000.0);
09:05:13:360;09:05:13:357;1448050871.31;(0.461611270904541, 0.2546282450358073);72.7175750732;1.0;09:05:13:360;0;10;-1.33548387096774;1.00097847358121;0.684261974584555;0;0;0;1;1;1;1;4;0;0;;0;0;();();(-2000.0, -2000.0);
09:05:13:377;09:05:13:357;1448050871.31;(0.461611270904541, 0.2546282450358073);72.7175750732;1.0;09:05:13:377;0;5;-1.33548387096774;1;0.684261974584555;0;0;0;1;1;1;1;4;0;0;;0;0;();();(-2000.0, -2000.0);
09:05:13:393;09:05:13:357;1448050871.31;(0.461611270904541, 0.2546282450358073);72.7175750732;1.0;09:05:13:393;0;9;-1.30645161290323;1;0.879765395894428;0;0;0;1;1;1;1;4;0;0;;0;0;();();(-2000.0, -2000.0);
09:05:13:426;09:05:13:422;1448050871.38;(0.46685037612915037, 0.25521918402777777);72.2481994629;1.0;09:05:13:426;0;9;-1.30645161290323;1;0.684261974584555;0;0;0;1;1;1;1;4;0;0;;0;0;();();(-2000.0, -2000.0);
09:05:13:443;09:05:13:422;1448050871.38;(0.46685037612915037, 0.25521918402777777);72.2481994629;1.0;09:05:13:443;0;5;-1.30645161290323;1;0.684261974584555;0;0;0;1;1;1;1;4;0;0;;0;0;();();(-2000.0, -2000.0);
09:05:13:460;09:05:13:422;1448050871.38;(0.46685037612915037, 0.25521918402777777);72.2481994629;1.0;09:05:13:460;0;10;-1.33548387096774;1;0.684261974584555;0;0;0;1;1;1;1;4;0;0;;0;0;();();(-2000.0, -2000.0);
09:05:13:477;09:05:13:422;1448050871.38;(0.46685037612915037, 0.25521918402777777);72.2481994629;1.0;09:05:13:477;0;15;-1.33548387096774;1;0.684261974584555;0;0;0;1;1;1;1;4;0;0;;0;0;();();(-2000.0, -2000.0);
09:05:13:494;09:05:13:489;1448050871.45;(0.4688069820404053, 0.2549529181586372);71.9402084351;0.865289491475;09:05:13:494;0;10;-1.30645161290323;1;0.879765395894428;0;0;0;1;1;1;1;4;0;0;;0;0;();();(-2000.0, -2000.0);
09:05:13:527;09:05:13:489;1448050871.45;(0.4688069820404053, 0.2549529181586372);71.9402084351;0.865289491475;09:05:13:527;0;10;-1.33548387096774;1;0.684261974584555;0;0;0;1;1;1;1;4;0;0;;0;0;();();(-2000.0, -2000.0);
09:05:13:543;09:05:13:489;1448050871.45;(0.4688069820404053, 0.2549529181586372);71.9402084351;0.865289491475;09:05:13:543;0;15;-1.30645161290323;1;0.684261974584555;0;0;0;1;1;1;1;4;0;0;;0;0;();();(-2000.0, -2000.0);
09:05:13:559;09:05:13:553;1448050871.51;(0.4718129634857178, 0.2513075934516059);71.7918548584;0.901761495826;09:05:13:559;0;9;-1.30645161290323;1;0.879765395894428;0;0;0;1;1;1;1;4;0;0;;0;0;();();(-2000.0, -2000.0);
09:05:13:576;09:05:13:553;1448050871.51;(0.4718129634857178, 0.2513075934516059);71.7918548584;0.901761495826;09:05:13:576;0;15;-1.28387096774194;1;1.17302052785924;0;0;0;1;1;1;1;4;0;0;;0;0;();();(-2000.0, -2000.0);
09:05:13:593;09:05:13:553;1448050871.51;(0.4718129634857178, 0.2513075934516059);71.7918548584;0.901761495826;09:05:13:593;0;5;-1.33548387096774;1;0.684261974584555;0;0;0;1;1;1;1;4;0;0;;0;0;();();(-2000.0, -2000.0);
09:05:13:627;09:05:13:627;1448050871.58;(0.47380867004394533, 0.24569168090820315);71.907661438;0.920737396935;09:05:13:627;0;4;-1.31612903225806;1;0.684261974584555;0;0;0;1;1;1;1;4;0;0;;0;0;();();(-2000.0, -2000.0);
09:05:13:644;09:05:13:627;1448050871.58;(0.47380867004394533, 0.24569168090820315);71.907661438;0.920737396935;09:05:13:644;0;15;-1.31612903225806;1;0.684261974584555;0;0;0;1;1;1;1;4;0;0;;0;0;();();(-2000.0, -2000.0);
09:05:13:660;09:05:13:627;1448050871.58;(0.47380867004394533, 0.24569168090820315);71.907661438;0.920737396935;09:05:13:660;0;4;-1.33548387096774;341;2.34604105571848;0;0;0;1;1;1;1;4;0;0;;0;0;();();(-2000.0, -2000.0);
09:05:13:677;09:05:13:627;1448050871.58;(0.47380867004394533, 0.24569168090820315);71.907661438;0.920737396935;09:05:13:677;0;15;-1.33548387096774;341;2.34604105571848;0;0;0;1;1;1;1;4;0;0;;0;0;();();(-2000.0, -2000.0);
09:05:13:694;09:05:13:689;1448050871.65;(0.4757663726806641, 0.23668916490342884);71.4524459839;1.0;09:05:13:694;0;4;-1.33548387096774;341;2.34604105571848;0;0;0;1;1;1;1;4;0;0;;0;0;();();(-2000.0, -2000.0);
09:05:13:727;09:05:13:689;1448050871.65;(0.4757663726806641, 0.23668916490342884);71.4524459839;1.0;09:05:13:727;0;4;-1.33548387096774;341;2.34604105571848;0;0;0;1;1;1;1;4;0;0;;0;0;();();(-2000.0, -2000.0);
09:05:13:744;09:05:13:689;1448050871.65;(0.4757663726806641, 0.23668916490342884);71.4524459839;1.0;09:05:13:744;0;0;-1.33548387096774;341;2.34604105571848;0;0;0;1;1;1;1;4;0;0;;0;0;();();(-2000.0, -2000.0);
09:05:13:761;09:05:13:753;1448050871.71;(0.47982335090637207, 0.23801193237304685);70.3444366455;1.0;09:05:13:761;0;5;-1.33548387096774;341;2.34604105571848;0;0;0;1;1;1;1;4;0;0;;0;0;();();(-2000.0, -2000.0);
09:05:13:777;09:05:13:753;1448050871.71;(0.47982335090637207, 0.23801193237304685);70.3444366455;1.0;09:05:13:777;0;10;-1.35161290322581;341;2.34604105571848;0;0;0;1;1;1;1;4;0;0;;0;0;();();(-2000.0, -2000.0);
09:05:13:794;09:05:13:753;1448050871.71;(0.47982335090637207, 0.23801193237304685);70.3444366455;1.0;09:05:13:794;0;4;-1.33548387096774;1;0.684261974584555;0;0;0;1;1;1;1;4;0;0;;0;0;();();(-2000.0, -2000.0);
09:05:13:827;09:05:13:823;1448050871.78;(0.48114309310913084, 0.2361779106987847);69.7082748413;1.0;09:05:13:827;0;10;-1.33548387096774;1;0.684261974584555;0;0;0;1;1;1;1;4;0;0;;0;0;();();(-2000.0, -2000.0);
09:05:13:844;09:05:13:823;1448050871.78;(0.48114309310913084, 0.2361779106987847);69.7082748413;1.0;09:05:13:844;0;10;-1.33548387096774;1;0.684261974584555;0;0;0;1;1;1;1;4;0;0;;0;0;();();(-2000.0, -2000.0);
09:05:13:860;09:05:13:823;1448050871.78;(0.48114309310913084, 0.2361779106987847);69.7082748413;1.0;09:05:13:860;0;5;-1.33548387096774;1;0.684261974584555;0;0;0;1;1;1;1;4;0;0;;0;0;();();(-2000.0, -2000.0);
09:05:13:877;09:05:13:823;1448050871.78;(0.48114309310913084, 0.2361779106987847);69.7082748413;1.0;09:05:13:877;0;9;-1.30645161290323;1;0.879765395894428;0;0;0;1;1;1;1;4;0;0;;0;0;();();(-2000.0, -2000.0);
09:05:13:894;09:05:13:886;1448050871.85;(0.48108763694763185, 0.23127466837565103);68.6524429321;1.0;09:05:13:894;0;4;-1.33548387096774;1;0.684261974584555;0;0;0;1;1;1;1;4;0;0;;0;0;();();(-2000.0, -2000.0);
09:05:13:911;09:05:13:886;1448050871.85;(0.48108763694763185, 0.23127466837565103);68.6524429321;1.0;09:05:13:911;0;9;-1.33548387096774;1;0.684261974584555;0;0;0;1;1;1;1;4;0;0;;0;0;();();(-2000.0, -2000.0);
09:05:13:944;09:05:13:886;1448050871.85;(0.48108763694763185, 0.23127466837565103);68.6524429321;1.0;09:05:13:944;0;5;-1.30645161290323;1;0.879765395894428;0;0;0;1;1;1;1;4;0;0;;0;0;();();(-2000.0, -2000.0);
09:05:13:960;09:05:13:953;1448050871.91;(0.48050384521484374, 0.2279860602484809);67.8980331421;1.0;09:05:13:960;0;15;-1.33548387096774;1;0.684261974584555;0;0;0;1;1;1;1;4;0;0;;0;0;();();(-2000.0, -2000.0);
09:05:13:976;09:05:13:953;1448050871.91;(0.48050384521484374, 0.2279860602484809);67.8980331421;1.0;09:05:13:976;0;9;-1.35161290322581;1;0.684261974584555;0;0;0;1;1;1;1;4;0;0;;0;0;();();(-2000.0, -2000.0);
09:05:13:994;09:05:13:953;1448050871.91;(0.48050384521484374, 0.2279860602484809);67.8980331421;1.0;09:05:13:994;0;5;-1.33548387096774;1;0.684261974584555;0;0;0;1;1;1;1;4;0;0;;0;0;();();(-2000.0, -2000.0);
09:05:14:027;09:05:14:020;1448050871.98;(0.4795078754425049, 0.2276174757215712);66.721321106;1.0;09:05:14:027;0;10;-1.30645161290323;1;0.879765395894428;0;0;0;1;1;1;1;4;0;0;;0;0;();();(-2000.0, -2000.0);
09:05:14:044;09:05:14:020;1448050871.98;(0.4795078754425049, 0.2276174757215712);66.721321106;1.0;09:05:14:044;0;10;-1.30645161290323;1;0.879765395894428;0;0;0;1;1;1;1;4;0;0;;0;0;();();(-2000.0, -2000.0);
09:05:14:060;09:05:14:020;1448050871.98;(0.4795078754425049, 0.2276174757215712);66.721321106;1.0;09:05:14:060;0;15;-1.33548387096774;1;0.684261974584555;0;0;0;1;1;1;1;4;0;0;;0;0;();();(-2000.0, -2000.0);
09:05:14:077;09:05:14:020;1448050871.98;(0.4795078754425049, 0.2276174757215712);66.721321106;1.0;09:05:14:077;0;5;-1.33548387096774;1;0.684261974584555;0;0;0;1;1;1;1;4;0;0;;0;0;();();(-2000.0, -2000.0);
09:05:14:093;09:05:14:085;1448050872.05;(0.47849202156066895, 0.22794579399956594);66.0821609497;1.0;09:05:14:093;0;15;-1.33548387096774;1;0.684261974584555;0;0;0;1;1;1;1;4;0;0;;0;0;();();(-2000.0, -2000.0);
09:05:14:128;09:05:14:085;1448050872.05;(0.47849202156066895, 0.22794579399956594);66.0821609497;1.0;09:05:14:128;0;10;-1.33548387096774;1;0.684261974584555;0;0;0;1;1;1;1;4;0;0;;0;0;();();(-2000.0, -2000.0);
09:05:14:145;09:05:14:085;1448050872.05;(0.47849202156066895, 0.22794579399956594);66.0821609497;1.0;09:05:14:145;0;5;-1.33548387096774;1;0.684261974584555;0;0;0;1;1;1;1;4;0;0;;0;0;();();(-2000.0, -2000.0);
09:05:14:161;09:05:14:152;1448050872.11;(0.47495226860046386, 0.2242346021864149);65.7973175049;1.0;09:05:14:161;0;10;-1.35161290322581;1;0.684261974584555;0;0;0;1;1;1;1;4;0;0;;0;0;();();(-2000.0, -2000.0);
09:05:14:178;09:05:14:152;1448050872.11;(0.47495226860046386, 0.2242346021864149);65.7973175049;1.0;09:05:14:177;0;5;-1.33548387096774;1;0.684261974584555;0;0;0;1;1;1;1;4;0;0;;0;0;();();(-2000.0, -2000.0);
09:05:14:194;09:05:14:152;1448050872.11;(0.47495226860046386, 0.2242346021864149);65.7973175049;1.0;09:05:14:194;0;9;-1.33548387096774;1.85662431941924;2.1505376344086;0;0;0;1;1;1;1;4;0;0;;0;0;();();(-2000.0, -2000.0);
09:05:14:227;09:05:14:217;1448050872.18;(0.47147383689880373, 0.21825205485026045);65.0881729126;1.0;09:05:14:227;0;3;-1.33548387096774;341;2.34604105571848;0;0;0;1;1;1;1;4;0;0;;0;0;();();(-2000.0, -2000.0);
09:05:14:244;09:05:14:217;1448050872.18;(0.47147383689880373, 0.21825205485026045);65.0881729126;1.0;09:05:14:244;0;5;-1.30645161290323;341;3.03030303030303;0;0;0;1;1;1;1;4;0;0;;0;0;();();(-2000.0, -2000.0);
09:05:14:260;09:05:14:217;1448050872.18;(0.47147383689880373, 0.21825205485026045);65.0881729126;1.0;09:05:14:260;0;9;-1.33548387096774;341;2.34604105571848;0;0;0;1;1;1;1;4;0;0;;0;0;();();(-2000.0, -2000.0);
09:05:14:277;09:05:14:217;1448050872.18;(0.47147383689880373, 0.21825205485026045);65.0881729126;1.0;09:05:14:277;0;15;-1.33548387096774;341;2.34604105571848;0;0;0;1;1;1;1;4;0;0;;0;0;();();(-2000.0, -2000.0);
09:05:14:294;09:05:14:285;1448050872.25;(0.46578545570373536, 0.2119925604926215);64.7080383301;1.0;09:05:14:294;0;10;-1.33548387096774;341;2.34604105571848;0;0;0;1;1;1;1;4;0;0;;0;0;();();(-2000.0, -2000.0);
09:05:14:310;09:05:14:285;1448050872.25;(0.46578545570373536, 0.2119925604926215);64.7080383301;1.0;09:05:14:310;0;5;-1.30645161290323;341;3.03030303030303;0;0;0;1;1;1;1;4;0;0;;0;0;();();(-2000.0, -2000.0);
09:05:14:344;09:05:14:285;1448050872.25;(0.46578545570373536, 0.2119925604926215);64.7080383301;1.0;09:05:14:344;0;15;-1.28387096774194;341;3.81231671554252;0;0;0;1;1;1;1;4;0;0;;0;0;();();(-2000.0, -2000.0);
09:05:14:361;09:05:14:353;1448050872.31;(0.45587496757507323, 0.20567160712348087);64.4680938721;1.0;09:05:14:360;0;4;-1.33548387096774;341;2.34604105571848;0;0;0;1;1;1;1;4;0;0;;0;0;();();(-2000.0, -2000.0);
09:05:14:377;09:05:14:353;1448050872.31;(0.45587496757507323, 0.20567160712348087);64.4680938721;1.0;09:05:14:377;0;0;-1.30645161290323;341;3.03030303030303;0;0;0;1;1;1;1;4;0;0;;0;0;();();(-2000.0, -2000.0);
09:05:14:394;09:05:14:353;1448050872.31;(0.45587496757507323, 0.20567160712348087);64.4680938721;1.0;09:05:14:394;0;5;-1.33548387096774;341;2.34604105571848;0;0;0;1;1;1;1;4;0;0;;0;0;();();(-2000.0, -2000.0);
09:05:14:411;09:05:14:353;1448050872.31;(0.45587496757507323, 0.20567160712348087);64.4680938721;1.0;09:05:14:411;0;5;-1.33548387096774;341;2.34604105571848;0;0;0;1;1;1;1;4;0;0;;0;0;();();(-2000.0, -2000.0);
09:05:14:444;09:05:14:417;1448050872.38;(0, 0);0;0;09:05:14:444;0;10;-1.33548387096774;341;2.34604105571848;0;0;0;1;1;1;1;4;0;0;;0;0;();();(-2000.0, -2000.0);
09:05:14:460;09:05:14:417;1448050872.38;(0, 0);0;0;09:05:14:460;0;5;-1.33548387096774;341;2.34604105571848;0;0;0;1;1;1;1;4;0;0;;0;0;();();(-2000.0, -2000.0);
09:05:14:477;09:05:14:417;1448050872.38;(0, 0);0;0;09:05:14:477;0;10;-1.33548387096774;341;2.34604105571848;0;0;0;1;1;1;1;4;0;0;;0;0;();();(-2000.0, -2000.0);
09:05:14:494;09:05:14:484;1448050872.41;(0.40538778305053713, 0.2688094668918186);25.7992916107;0.886254074417;09:05:14:494;0;5;-1.33548387096774;341;2.34604105571848;0;0;0;1;1;1;1;4;0;0;;0;0;();();(-2000.0, -2000.0);
09:05:14:511;09:05:14:484;1448050872.41;(0.40538778305053713, 0.2688094668918186);25.7992916107;0.886254074417;09:05:14:511;0;9;-1.33548387096774;341;2.34604105571848;0;0;0;1;1;1;1;4;0;0;;0;0;();();(-2000.0, -2000.0);
09:05:14:544;09:05:14:484;1448050872.41;(0.40538778305053713, 0.2688094668918186);25.7992916107;0.886254074417;09:05:14:544;0;10;-1.33548387096774;341;2.44379276637341;0;0;0;1;1;1;1;4;0;0;;0;0;();();(-2000.0, -2000.0);
09:05:14:561;09:05:14:549;1448050872.48;(0.24258997440338134, 0.1370415581597222);18.055929184;0.652993175879;09:05:14:561;0;5;-1.2741935483871;341;4.00782013685239;0;0;0;1;1;1;1;4;0;0;;0;0;();();(-2000.0, -2000.0);
09:05:14:578;09:05:14:549;1448050872.48;(0.24258997440338134, 0.1370415581597222);18.055929184;0.652993175879;09:05:14:578;0;15;-1.33548387096774;341;2.44379276637341;0;0;0;1;1;1;1;4;0;0;;0;0;();();(-2000.0, -2000.0);
09:05:14:594;09:05:14:549;1448050872.48;(0.24258997440338134, 0.1370415581597222);18.055929184;0.652993175879;09:05:14:594;0;15;-1.33548387096774;341;2.44379276637341;0;0;0;1;1;1;1;4;0;0;;0;0;();();(-2000.0, -2000.0);
09:05:14:611;09:05:14:549;1448050872.48;(0.24258997440338134, 0.1370415581597222);18.055929184;0.652993175879;09:05:14:611;0;15;-1.33548387096774;341;2.44379276637341;0;0;0;1;1;1;1;4;0;0;;0;0;();();(-2000.0, -2000.0);
09:05:14:644;09:05:14:617;1448050872.58;(0.2841538667678833, 0.3357151455349392);64.3251953125;0.631276717201;09:05:14:644;0;10;-1.33225806451613;1;0.684261974584555;0;0;0;1;1;1;1;4;0;0;;0;0;();();(-2000.0, -2000.0);
09:05:14:661;09:05:14:617;1448050872.58;(0.2841538667678833, 0.3357151455349392);64.3251953125;0.631276717201;09:05:14:661;0;15;-1.30645161290323;1;0.879765395894428;0;0;0;1;1;1;1;4;0;0;;0;0;();();(-2000.0, -2000.0);
09:05:14:677;09:05:14:617;1448050872.58;(0.2841538667678833, 0.3357151455349392);64.3251953125;0.631276717201;09:05:14:677;0;9;-1.3258064516129;1;0.684261974584555;0;0;0;1;1;1;1;4;0;0;;0;0;();();(-2000.0, -2000.0);
09:05:14:694;09:05:14:684;1448050872.65;(0.26876273155212405, 0.36170429653591585);20.6514644623;0.806010888885;09:05:14:694;0;13;-1.3258064516129;1;0.684261974584555;0;0;0;1;1;1;1;4;0;0;;0;0;();();(-2000.0, -2000.0);
09:05:14:711;09:05:14:684;1448050872.65;(0.26876273155212405, 0.36170429653591585);20.6514644623;0.806010888885;09:05:14:711;0;9;-1.33225806451613;1;0.684261974584555;0;0;0;1;1;1;1;4;0;0;;0;0;();();(-2000.0, -2000.0);
09:05:14:744;09:05:14:684;1448050872.65;(0.26876273155212405, 0.36170429653591585);20.6514644623;0.806010888885;09:05:14:744;0;4;-1.3258064516129;1;0.684261974584555;0;0;0;1;1;1;1;4;0;0;;0;0;();();(-2000.0, -2000.0);
09:05:14:761;09:05:14:748;1448050872.68;(0.4716366767883301, 0.386252678765191);63.9455604553;1.0;09:05:14:761;0;4;-1.3258064516129;1;0.684261974584555;0;0;0;1;1;1;1;4;0;0;;0;0;();();(-2000.0, -2000.0);
09:05:14:778;09:05:14:748;1448050872.68;(0.4716366767883301, 0.386252678765191);63.9455604553;1.0;09:05:14:778;0;10;-1.30645161290323;1;0.879765395894428;0;0;0;1;1;1;1;4;0;0;;0;0;();();(-2000.0, -2000.0);
09:05:14:795;09:05:14:748;1448050872.68;(0.4716366767883301, 0.386252678765191);63.9455604553;1.0;09:05:14:795;0;0;-1.2741935483871;1;1.36852394916911;0;0;0;1;1;1;1;4;0;0;;0;0;();();(-2000.0, -2000.0);
09:05:14:811;09:05:14:748;1448050872.68;(0.4716366767883301, 0.386252678765191);63.9455604553;1.0;09:05:14:811;0;5;-1.30645161290323;1;0.879765395894428;0;0;0;1;1;1;1;4;0;0;;0;0;();();(-2000.0, -2000.0);
09:05:14:844;09:05:14:818;1448050872.79;(0.5109250545501709, 0.3439402262369792);64.7777938843;1.0;09:05:14:844;0;4;-1.2741935483871;1;1.36852394916911;0;0;0;1;1;1;1;4;0;0;;0;0;();();(-2000.0, -2000.0);
09:05:14:861;09:05:14:818;1448050872.79;(0.5109250545501709, 0.3439402262369792);64.7777938843;1.0;09:05:14:861;0;15;-1.30645161290323;1;0.879765395894428;0;0;0;1;1;1;1;4;0;0;;0;0;();();(-2000.0, -2000.0);
09:05:14:878;09:05:14:818;1448050872.79;(0.5109250545501709, 0.3439402262369792);64.7777938843;1.0;09:05:14:878;0;5;-1.3258064516129;1;0.684261974584555;0;0;0;1;1;1;1;4;0;0;;0;0;();();(-2000.0, -2000.0);
09:05:14:894;09:05:14:881;1448050872.85;(0.497269344329834, 0.3468345642089844);65.2275161743;1.0;09:05:14:894;0;10;-1.3258064516129;1;0.684261974584555;0;0;0;1;1;1;1;4;0;0;;0;0;();();(-2000.0, -2000.0);
09:05:14:912;09:05:14:881;1448050872.85;(0.497269344329834, 0.3468345642089844);65.2275161743;1.0;09:05:14:912;0;4;-1.2741935483871;1;1.36852394916911;0;0;0;1;1;1;1;4;0;0;;0;0;();();(-2000.0, -2000.0);
09:05:14:945;09:05:14:881;1448050872.85;(0.497269344329834, 0.3468345642089844);65.2275161743;1.0;09:05:14:945;0;5;-1.3258064516129;1;0.684261974584555;0;0;0;1;1;1;1;4;0;0;;0;0;();();(-2000.0, -2000.0);
09:05:14:961;09:05:14:949;1448050872.91;(0.4826475143432617, 0.34222746955023875);66.529045105;1.0;09:05:14:961;0;10;-1.3258064516129;1;0.684261974584555;0;0;0;1;1;1;1;4;0;0;;0;0;();();(-2000.0, -2000.0);
09:05:14:977;09:05:14:949;1448050872.91;(0.4826475143432617, 0.34222746955023875);66.529045105;1.0;09:05:14:977;0;5;-1.2741935483871;1;1.36852394916911;0;0;0;1;1;1;1;4;0;0;;0;0;();();(-2000.0, -2000.0);
09:05:14:995;09:05:14:949;1448050872.91;(0.4826475143432617, 0.34222746955023875);66.529045105;1.0;09:05:14:995;0;9;-1.2741935483871;3.20689655172414;3.81231671554252;0;0;0;1;1;1;1;4;0;0;;0;0;();();(-2000.0, -2000.0);
09:05:15:011;09:05:14:949;1448050872.91;(0.4826475143432617, 0.34222746955023875);66.529045105;1.0;09:05:15:011;0;4;-1.3258064516129;341;2.44379276637341;0;0;0;1;1;1;1;4;0;0;;0;0;();();(-2000.0, -2000.0);
09:05:15:044;09:05:15:016;1448050872.98;(0.46773953437805177, 0.3359594980875651);67.0031585693;1.0;09:05:15:044;0;15;-1.2741935483871;1;0.684261974584555;0;0;0;1;1;1;1;4;0;0;;0;0;();();(-2000.0, -2000.0);
09:05:15:061;09:05:15:016;1448050872.98;(0.46773953437805177, 0.3359594980875651);67.0031585693;1.0;09:05:15:061;0;9;-1.33225806451613;1;0.684261974584555;0;0;0;1;1;1;1;4;0;0;;0;0;();();(-2000.0, -2000.0);
09:05:15:078;09:05:15:016;1448050872.98;(0.46773953437805177, 0.3359594980875651);67.0031585693;1.0;09:05:15:078;0;15;-1.30645161290323;341;3.03030303030303;0;0;0;1;1;1;1;4;0;0;;0;0;();();(-2000.0, -2000.0);
09:05:15:094;09:05:15:080;1448050873.05;(0.4543735504150391, 0.33032095167371966);65.7915115356;1.0;09:05:15:094;0;10;-1.33225806451613;1;0.684261974584555;0;0;0;1;1;1;1;4;0;0;;0;0;();();(-2000.0, -2000.0);
09:05:15:111;09:05:15:080;1448050873.05;(0.4543735504150391, 0.33032095167371966);65.7915115356;1.0;09:05:15:111;0;0;-1.30645161290323;1;0.879765395894428;0;0;0;1;1;1;1;4;0;0;;0;0;();();(-2000.0, -2000.0);
09:05:15:145;09:05:15:080;1448050873.05;(0.4543735504150391, 0.33032095167371966);65.7915115356;1.0;09:05:15:145;0;15;-1.3258064516129;1;0.684261974584555;0;0;0;1;1;1;1;4;0;0;;0;0;();();(-2000.0, -2000.0);
09:05:15:161;09:05:15:149;1448050873.11;(0.6259485721588135, 0.21787863837348087);34.0814857483;0.615993326687;09:05:15:161;0;4;-1.3258064516129;1;0.684261974584555;0;0;0;1;1;1;1;4;0;0;;0;0;();();(-2000.0, -2000.0);
09:05:15:178;09:05:15:149;1448050873.11;(0.6259485721588135, 0.21787863837348087);34.0814857483;0.615993326687;09:05:15:178;0;9;-1.34838709677419;1;0.684261974584555;0;0;0;1;1;1;1;4;0;0;;0;0;();();(-2000.0, -2000.0);
09:05:15:195;09:05:15:149;1448050873.11;(0.6259485721588135, 0.21787863837348087);34.0814857483;0.615993326687;09:05:15:195;0;9;-1.34838709677419;1;0.684261974584555;0;0;0;1;1;1;1;4;0;0;;0;0;();();(-2000.0, -2000.0);
09:05:15:211;09:05:15:149;1448050873.11;(0.6259485721588135, 0.21787863837348087);34.0814857483;0.615993326687;09:05:15:211;0;5;-1.3258064516129;1;0.684261974584555;0;0;0;1;1;1;1;4;0;0;;0;0;();();(-2000.0, -2000.0);
09:05:15:245;09:05:15:212;1448050873.18;(0, 0);0;0;09:05:15:245;0;1;-1.33225806451613;1;0.684261974584555;0;0;0;1;1;1;1;4;0;0;;0;0;();();(-2000.0, -2000.0);
09:05:15:262;09:05:15:212;1448050873.18;(0, 0);0;0;09:05:15:262;0;6;-1.33225806451613;341;2.44379276637341;0;0;0;1;1;1;1;4;0;0;;0;0;();();(-2000.0, -2000.0);
09:05:15:279;09:05:15:212;1448050873.18;(0, 0);0;0;09:05:15:279;0;0;-1.33225806451613;341;2.44379276637341;0;0;0;1;1;1;1;4;0;0;;0;0;();();(-2000.0, -2000.0);
09:05:15:295;09:05:15:282;1448050873.25;(0.4017678737640381, 0.3540188259548611);62.045589447;1.0;09:05:15:295;0;5;-1.33225806451613;1;0.684261974584555;0;0;0;1;1;1;1;4;0;0;;0;0;();();(-2000.0, -2000.0);
09:05:15:311;09:05:15:282;1448050873.25;(0.4017678737640381, 0.3540188259548611);62.045589447;1.0;09:05:15:311;0;9;-1.2741935483871;1;1.36852394916911;0;0;0;1;1;1;1;4;0;0;;0;0;();();(-2000.0, -2000.0);
09:05:15:344;09:05:15:282;1448050873.25;(0.4017678737640381, 0.3540188259548611);62.045589447;1.0;09:05:15:344;0;9;-1.3258064516129;1;0.684261974584555;0;0;0;1;1;1;1;4;0;0;;0;0;();();(-2000.0, -2000.0);
09:05:15:361;09:05:15:349;1448050873.31;(0.39632718563079833, 0.34853608873155384);61.6463470459;1.0;09:05:15:361;0;12;-1.3258064516129;1;0.684261974584555;0;0;0;1;1;1;1;4;0;0;;0;0;();();(-2000.0, -2000.0);
09:05:15:378;09:05:15:349;1448050873.31;(0.39632718563079833, 0.34853608873155384);61.6463470459;1.0;09:05:15:378;0;10;-1.3258064516129;1;0.684261974584555;0;0;0;1;1;1;1;4;0;0;;0;0;();();(-2000.0, -2000.0);
09:05:15:395;09:05:15:349;1448050873.31;(0.39632718563079833, 0.34853608873155384);61.6463470459;1.0;09:05:15:395;0;4;-1.3258064516129;1;0.684261974584555;0;0;0;1;1;1;1;4;0;0;;0;0;();();(-2000.0, -2000.0);
09:05:15:411;09:05:15:349;1448050873.31;(0.39632718563079833, 0.34853608873155384);61.6463470459;1.0;09:05:15:411;0;10;-1.3258064516129;1;0.684261974584555;0;0;0;1;1;1;1;4;0;0;;0;0;();();(-2000.0, -2000.0);
09:05:15:444;09:05:15:414;1448050873.38;(0.3897556781768799, 0.34157117207845056);60.8087120056;1.0;09:05:15:444;0;10;-1.3258064516129;1;0.684261974584555;0;0;0;1;1;1;1;4;0;0;;0;0;();();(-2000.0, -2000.0);
09:05:15:461;09:05:15:414;1448050873.38;(0.3897556781768799, 0.34157117207845056);60.8087120056;1.0;09:05:15:461;0;15;-1.2741935483871;1;1.36852394916911;0;0;0;1;1;1;1;4;0;0;;0;0;();();(-2000.0, -2000.0);
09:05:15:478;09:05:15:414;1448050873.38;(0.3897556781768799, 0.34157117207845056);60.8087120056;1.0;09:05:15:478;0;9;-1.2741935483871;1;1.36852394916911;0;0;0;1;1;1;1;4;0;0;;0;0;();();(-2000.0, -2000.0);
09:05:15:495;09:05:15:480;1448050873.41;(0.3871604919433594, 0.34064729478624134);60.5546188354;1.0;09:05:15:495;0;0;-1.3258064516129;1;0.684261974584555;0;0;0;1;1;1;1;4;0;0;;0;0;();();(-2000.0, -2000.0);
09:05:15:511;09:05:15:480;1448050873.41;(0.3871604919433594, 0.34064729478624134);60.5546188354;1.0;09:05:15:511;0;9;-1.3258064516129;1;0.684261974584555;0;0;0;1;1;1;1;4;0;0;;0;0;();();(-2000.0, -2000.0);
09:05:15:544;09:05:15:544;1448050873.45;(0.3858279466629028, 0.3400705125596788);60.771812439;0.810924768745;09:05:15:544;0;4;-1.3258064516129;1;0.684261974584555;0;0;0;1;1;1;1;4;0;0;;0;0;();();(-2000.0, -2000.0);
09:05:15:562;09:05:15:545;1448050873.51;(0.383859920501709, 0.33773307800292973);60.0254631042;1.0;09:05:15:562;0;10;-1.34838709677419;341;2.44379276637341;0;0;0;1;1;1;1;4;0;0;;0;0;();();(-2000.0, -2000.0);
09:05:15:579;09:05:15:545;1448050873.51;(0.383859920501709, 0.33773307800292973);60.0254631042;1.0;09:05:15:579;0;5;-1.34516129032258;341;2.44379276637341;0;0;0;1;1;1;1;4;0;0;;0;0;();();(-2000.0, -2000.0);
09:05:15:596;09:05:15:545;1448050873.51;(0.383859920501709, 0.33773307800292973);60.0254631042;1.0;09:05:15:596;0;0;-1.3258064516129;1;0.684261974584555;0;0;0;1;1;1;1;4;0;0;;0;0;();();(-2000.0, -2000.0);
09:05:15:614;09:05:15:612;1448050873.58;(0.3731442928314209, 0.33107571072048614);60.5616569519;1.0;09:05:15:614;0;5;-1.3258064516129;1;0.684261974584555;0;0;0;1;1;1;1;6;0;0;;0;0;();();(-2000.0, -2000.0);
09:05:15:646;09:05:15:612;1448050873.58;(0.3731442928314209, 0.33107571072048614);60.5616569519;1.0;09:05:15:646;0;4;-1.3258064516129;1;0.684261974584555;0;0;0;1;1;1;1;6;0;0;;0;0;();();(-2000.0, -2000.0);
09:05:15:662;09:05:15:612;1448050873.58;(0.3731442928314209, 0.33107571072048614);60.5616569519;1.0;09:05:15:662;0;0;-1.3;1;0.879765395894428;0;0;0;1;1;1;1;6;0;0;;0;0;();();(-2000.0, -2000.0);
09:05:15:678;09:05:15:677;1448050873.61;(0.372145676612854, 0.33131756252712674);60.4874076843;0.889934226458;09:05:15:678;0;5;-1.3;1;0.879765395894428;0;0;0;1;1;1;1;6;0;0;;0;0;();();(-2000.0, -2000.0);
09:05:15:695;09:05:15:677;1448050873.61;(0.372145676612854, 0.33131756252712674);60.4874076843;0.889934226458;09:05:15:695;0;10;-1.3258064516129;1;0.684261974584555;0;0;0;1;1;1;1;6;0;0;;0;0;();();(-2000.0, -2000.0);
09:05:15:712;09:05:15:677;1448050873.61;(0.372145676612854, 0.33131756252712674);60.4874076843;0.889934226458;09:05:15:712;0;4;-1.3258064516129;1;0.684261974584555;0;0;0;1;1;1;1;6;0;0;;0;0;();();(-2000.0, -2000.0);
09:05:15:745;09:05:15:745;1448050873.71;(0.38303539752960203, 0.34366149902343746);60.2941093445;1.0;09:05:15:745;0;5;-1.3258064516129;1;0.684261974584555;0;0;0;1;1;1;1;6;0;0;;0;0;();();(-2000.0, -2000.0);
